freq,mag,phase
6.0,0.9997655110020305,-119.3039627747768
6.002286592,0.9999862712714077,-119.44613006350048
6.004572672,1.0002072943138915,-119.59149780327988
6.006859264,1.0004150367709694,-119.73998514200319
6.009145344,1.000596561751586,-119.89130659408107
6.011431936,1.0007400143566443,-120.04497641123518
6.013718016,1.0008365315934629,-120.20042633018194
6.016004608,1.000879911738253,-120.35686525134999
6.018290688,1.0008674041899117,-120.51351373803382
6.02057728,1.0007997122493961,-120.66963451466718
6.022863872,1.000681246083047,-120.82434615020009
6.025149952,1.000519377487073,-120.97706221632768
6.027436544,1.0003244033617567,-121.12714176863031
6.029722624,1.0001086242347743,-121.2742744196636
6.032009216,0.9998856895334987,-121.41820086192048
6.034295296,0.9996698902500327,-121.55895822183872
6.036581888,0.9994748556130825,-121.69665572739562
6.03886848,0.999312886025903,-121.83183381106527
6.04115456,0.9991944402284533,-121.96490695065604
6.043441152,0.9991270581642102,-122.09662228124614
6.045727232,0.999114925492642,-122.22777251067271
6.048013824,0.9991588369365687,-122.35914276178335
6.050299904,0.9992562540964701,-122.49153050233173
6.052586496,0.999400835498298,-122.62567956019465
6.054872576,0.9995833345941924,-122.76223684174373
6.057159168,0.9997922316230207,-122.90160418155833
6.05944576,1.0000142811318913,-123.04410552574267
6.06173184,1.000235360840719,-123.18985831955409
6.064018432,1.0004415096727064,-123.33870135193477
6.066304512,1.000619533616501,-123.49032140708047
6.068591104,1.0007582405068318,-123.64424564661952
6.070877184,1.0008488454890263,-123.79986016762952
6.073163776,1.000885489260989,-123.95633322092266
6.075450368,1.0008658907491739,-124.11297671125719
6.077736448,1.0007912624436561,-124.26895434894715
6.08002304,1.0006663295545382,-124.4234459181462
6.08230912,1.00049895668129,-124.57582908075615
6.084595712,1.0002997629597254,-124.7255030616542
6.086881792,1.0000813494840135,-124.87219252170578
6.089168384,0.9998575590027396,-125.01564164779171
6.091454464,0.9996426045325665,-125.1559040257525
6.093741056,0.9994500824026733,-125.29318081772554
6.096027648,0.9992923759123015,-125.42791860745027
6.098313728,0.9991794626214152,-125.56069350462006
6.10060032,0.9991184569116279,-125.69215694087868
6.1028864,0.9991134179103508,-125.82315552844621
6.105172992,0.9991645690145118,-125.95445853118657
6.107459072,0.9992685347599013,-126.08690170565477
6.109745664,0.99941914636943,-126.22119089891054
6.112032256,0.99960645125094,-126.35791488170065
6.114318336,0.9998186580564361,-126.49756238837966
6.116604928,1.0000424527069014,-126.64036051074956
6.118891008,1.0002634645812336,-126.78644171499076
6.1211776,1.0004677311503667,-126.93557199607012
6.12346368,1.0006421324092138,-127.08742841783724
6.125750272,1.000775927103264,-127.24158668554635
6.128036352,1.0008603746412987,-127.39726857365372
6.130322944,1.0008902328260054,-127.55379998874116
6.132609536,1.0008634690287666,-127.71032830829388
6.134895616,1.0007818479579027,-127.86609385176851
6.137182208,1.0006505206248597,-128.0203115747905
6.139468288,1.0004776970779987,-128.17228249100447
6.14175488,1.0002744758091142,-128.32156971653978
6.14404096,1.0000536303750225,-128.46772325267403
6.146327552,0.9998292050037686,-128.610682224706
6.148614144,0.9996153074308585,-128.75038752215855
6.150900224,0.9994256545991353,-128.88718523105226
6.153186816,0.9992722942559894,-129.02145988180456
6.155472896,0.9991649864202364,-129.15381927180042
6.157759488,0.9991105998971495,-129.28502929757863
6.160045568,0.999112671305894,-129.4157945201355
6.16233216,0.9991709128200835,-129.54702204769825
6.16461824,0.9992818147075254,-129.6795037816371
6.166904832,0.9994381586729019,-129.8138648530268
6.169191424,0.999630180612811,-129.9508073137696
6.171477504,0.9998456762988467,-130.09068797004466
6.173764096,1.0000708662139655,-130.23377953142804
6.176050176,1.0002915300063429,-130.38008619210777
6.178336768,1.0004936752390687,-130.52946176124547
6.180622848,1.0006644246266312,-130.68155115286785
6.18290944,1.0007929755067577,-130.8358257029336
6.18519552,1.0008712509499371,-130.99156523499235
6.187482112,1.0008941502276762,-131.1480674042829
6.189768704,1.0008601646818729,-131.30443694621545
6.192054784,1.0007715633662513,-131.45995307408694
6.194341376,1.0006339269687625,-131.6138226328853
6.196627456,1.0004558341356886,-131.76535262854742
6.198914048,1.0002487262456854,-131.91412137276552
6.201200128,1.0000254761954048,-132.05976428966744
6.20348672,0.9998005470027063,-132.20210415956902
6.205773312,0.9995879536112535,-132.34127322038248
6.208059392,0.9994014928973874,-132.47750182490552
6.210345984,0.9992526557017524,-132.61129060842117
6.212632064,0.9991512507986496,-132.74325653899865
6.214918656,0.9991036156700006,-132.87412783600567
6.217204736,0.9991127903954639,-133.0047004436455
6.219491328,0.9991781849596487,-133.1357787418131
6.221777408,0.9992958061148877,-133.26823109725126
6.224064,0.9994579608964114,-133.40267939597902
6.226350592,0.9996546581661147,-133.53975253250172
6.228636672,0.9998730527351622,-133.6798070031858
6.230923264,1.0000995473529517,-133.82314690433353
6.233209344,1.0003197228546552,-133.9696820065515
6.235495936,1.0005195588760296,-134.11923697509067
6.237782016,1.0006863074322874,-134.27150637838858
6.240068608,1.0008095499335645,-134.4258448356915
6.2423552,1.0008813176472207,-134.5816419889645
6.24464128,1.000897217227402,-134.73799740015863
6.246927872,1.000856047768609,-134.89420716580935
6.249213952,1.000760430961708,-135.04938932324006
6.251500544,1.0006164981566545,-135.2028496232587
6.253786624,1.0004332430849572,-135.35389053037497
6.256073216,1.00022232121512,-135.5021228403449
6.258359296,0.9999972168014619,-135.64713621143295
6.260645888,0.999771893512093,-135.78884700386453
6.26293248,0.9995608492667948,-135.92743106549852
6.26521856,0.999377573090613,-136.06307443645147
6.267505152,0.9992335862562384,-136.19634784718755
6.269791232,0.9991382441842165,-136.32784382751922
6.272077824,0.9990973930482683,-136.45837836308425
6.274363904,0.9991137513848153,-136.5886491257642
6.276650496,0.999186418764609,-136.7196345142922
6.278937088,0.9993107144157587,-136.85198419840307
6.281223168,0.9994786727608735,-136.98645793872822
6.28350976,0.9996796216997972,-137.12367253405372
6.28579584,0.9999009946747445,-137.26391099543832
6.288082432,1.0001285892681135,-137.4073967909532
6.290368512,1.0003479403213864,-137.55412281027358
6.292655104,1.0005452469057041,-137.70386172800823
6.294941184,1.0007077871658963,-137.8562179717058
6.297227776,1.000825439473229,-138.01062985145887
6.299514368,1.0008907162191027,-138.16631671896894
6.301800448,1.000899431231256,-138.3225740481562
6.30408704,1.0008509868607351,-138.47846976981702
6.30637312,1.0007484061690926,-138.63330000225784
6.308659712,1.0005982952646142,-138.78632256928574
6.310945792,1.00040993288244,-138.93684456012068
6.313232384,1.0001954460655416,-139.08444947695776
6.315518464,0.9999683245385913,-139.22877444471627
6.317805056,0.9997429817134931,-139.36983377227256
6.320091648,0.9995337951540363,-139.507752424921
6.322377728,0.9993539220097256,-139.6427795197654
6.32466432,0.9992149952568059,-139.7754706778964
6.3269504,0.9991258653097406,-139.90648730659987
6.329236992,0.9990919609967497,-140.0366114609799
6.331523072,0.9991156781318944,-140.1666585760934
6.333809664,0.9991955364010281,-140.2974253131835
6.336096256,0.9993264082141514,-140.42972926870362
6.338382336,0.9995000244515337,-140.56423103741272
6.340668928,0.9997053531342355,-140.7014509552506
6.342955008,0.9999292728007141,-140.8418302204228
6.3452416,1.0001577990132486,-140.98546065379603
6.34752768,1.000376151891012,-141.13234262249821
6.349814272,1.0005706089912494,-141.2822359931215
6.352100352,1.000728875262497,-141.43461839185386
6.354386944,1.0008408014666386,-141.5890121135996
6.356673536,1.0008993956478298,-141.74460637044524
6.358959616,1.0009008174972123,-141.90065275531205
6.361246208,1.000845027123177,-142.05626576831364
6.363532288,1.0007354660838776,-142.21067434353802
6.36581888,1.000579153454452,-142.36313548174581
6.36810496,1.000385918498963,-142.51307342221116
6.370391552,1.000167979860329,-142.65998855767086
6.372678144,0.9999391959802248,-142.80366668222635
6.374964224,0.9997139960765618,-142.94402655764537
6.377250816,0.9995068020797729,-143.08118362940985
6.379536896,0.9993307266376821,-143.21557657117737
6.381823488,0.9991969611123309,-143.34765449682183
6.384109568,0.9991140801094394,-143.4781849256453
6.38639616,0.9990873778723537,-143.6078682605476
6.38868224,0.9991185443425664,-143.73760646223002
6.390968832,0.9992056237297106,-143.86814611572
6.393255424,0.9993431491018329,-144.00034075357604
6.395541504,0.9995222236943371,-144.13479253554993
6.397828096,0.9997317681416781,-144.2721141923733
6.400114176,0.999958214098444,-144.41255658822945
6.402400768,1.000187254305999,-144.55631187643257
6.404686848,1.0004044524151912,-144.70329295847057
6.40697344,1.000595889372043,-144.85321304812237
6.409260032,1.0007495506136146,-145.00567673755017
6.411546112,1.0008555126446037,-145.15998790767438
6.413832704,1.0009072219484987,-145.31542597436197
6.416118784,1.0009012980217689,-145.47119835951153
6.418405376,1.0008380680902753,-145.6264758244583
6.420691456,1.0007216253267448,-145.78038342075132
6.422978048,1.000559175273696,-145.93228934185603
6.425264128,1.0003611313383098,-146.0815363578269
6.42755072,1.0001398660334178,-146.22777350659868
6.429837312,0.9999096634921836,-146.3706756861957
6.432123392,0.9996848307382932,-146.51025571807097
6.434409984,0.9994799050323975,-146.64671063631184
6.436696064,0.9993077680216939,-146.78037852593044
6.438982656,0.9991793828775714,-146.9118720470362
6.441268736,0.9991031237018191,-147.04180463443714
6.443555328,0.9990836448612314,-147.1710310661224
6.44584192,0.9991223252032464,-147.30043682074623
6.448128,0.9992166580258608,-147.4307347042994
6.450414592,0.9993607244520927,-147.56279728696737
6.452700672,0.9995452882325467,-147.69721218882063
6.454987264,0.9997587732302909,-147.8345112825
6.457273344,0.9999874904479166,-147.97504795046973
6.459559936,1.0002169639312861,-148.11888673161272
6.461846016,1.0004326639547911,-148.2659452270555
6.464132608,1.0006208551427287,-148.41592566833066
6.4664192,1.0007696803552768,-148.56830667037434
6.46870528,1.000869640478025,-148.72250851761444
6.470991872,1.0009142577173882,-148.87774749073557
6.473277952,1.0009008411302582,-149.03322054812264
6.475564544,1.0008302417759165,-149.18803816343387
6.477850624,1.0007067826663525,-149.34145338703186
6.480137216,1.0005383385757194,-149.49273349286307
6.482423296,1.0003355979366728,-149.6412704599111
6.484709888,1.000111330528629,-149.78671536965138
6.48699648,0.9998797224825968,-149.92885848532654
6.48928256,0.9996556023764284,-150.0676612501117
6.491569152,0.9994530815296848,-150.20330707430682
6.493855232,0.9992852384934989,-150.3362319911181
6.496141824,0.9991624981907299,-150.46702448157848
6.498427904,0.999092866827458,-150.59643412546444
6.500714496,0.9990807367261988,-150.7251907131415
6.503001088,0.9991269276365206,-150.8541838948086
6.505287168,0.9992286606480478,-150.98427365657227
6.50757376,0.9993791743248943,-151.11611240867617
6.50985984,0.9995691469159741,-151.25047790256585
6.512146432,0.9997864271088036,-151.38779261566643
6.514432512,1.000017214017191,-151.52831655705833
6.516719104,1.000246924814633,-151.67221166222288
6.519005184,1.0004608747345805,-151.81925849027334
6.521291776,1.000645583689516,-151.96923024323291
6.523578368,1.000789352159003,-152.12157397014437
6.525864448,1.0008829357745226,-152.27561349655582
6.52815104,1.0009204188963405,-152.43058808433193
6.53043712,1.0008994847471009,-152.58569863245947
6.532723712,1.0008213162785469,-152.74001736171027
6.535009792,1.0006910230489767,-152.89286786321682
6.537296384,1.0005166250644169,-153.04346874311736
6.539582976,1.0003092867062915,-153.19128841065714
6.541869056,1.0000820767676386,-153.33590231623447
6.544155648,0.9998494401075729,-153.4771935523097
6.546441728,0.9996262279965004,-153.61511140395925
6.54872832,0.9994264754943476,-153.7499623745549
6.5510144,0.999262997819485,-153.88214120320285
6.553300992,0.9991461413489594,-154.01221838044475
6.555587072,0.9990835117821402,-154.14101708294643
6.557873664,0.999078871046753,-154.26928710830563
6.560160256,0.9991327101124878,-154.3978975373095
6.562446336,0.9992416142494258,-154.52766329861677
6.564732928,0.9993986909871496,-154.659374297758
6.567019008,0.9995938800584165,-154.79361514905582
6.5693056,0.9998148524277202,-154.93086230973503
6.57159168,1.0000474916048594,-155.07139191793982
6.573878272,1.00027719435817,-155.2152701044878
6.576164864,1.0004892422051928,-155.36235937864552
6.578450944,1.0006701659680264,-155.51227371862
6.580737536,1.0008085378660674,-155.6644939120886
6.583023616,1.000895634019312,-155.81833554882374
6.585310208,1.000925862060307,-155.97300374671508
6.587596288,1.0008971939922506,-156.1276823345623
6.58988288,1.0008115510466713,-156.28150503357193
6.59216896,1.0006742638730537,-156.433732265341
6.594455552,1.0004940342247588,-156.5835771873575
6.596742144,1.0002822638204882,-156.73057669386483
6.599028224,1.0000523758908906,-156.87435214472578
6.601314816,0.9998189424387868,-157.01479053843434
6.603600896,0.9995967566987172,-157.15180924161584
6.605887488,0.999400056312475,-157.28579132473104
6.608173568,0.9992412237746576,-157.41716491364397
6.61046016,0.9991303627706913,-157.54656281180795
6.612746752,0.9990747804609307,-157.67469467390083
6.615032832,0.9990778408125418,-157.8024119874615
6.617319424,0.9991393414342962,-157.93061511946215
6.619605504,0.9992555180938949,-158.06011867713516
6.621892096,0.999418975005585,-158.19157857549604
6.624178176,0.9996192954210315,-158.32569820062432
6.626464768,0.9998437252174779,-158.46288195751043
6.628750848,1.0000780764550106,-158.60340570168805
6.63103744,1.000307370906674,-158.74724453172135
6.633324032,1.0005172487040261,-158.8942915503441
6.635610112,1.0006942325912889,-159.04408646584275
6.637896704,1.0008270653902762,-159.19615860017095
6.640182784,1.0009074354804095,-159.34977859125635
6.642469376,1.0009301581482883,-159.50407429791832
6.644755456,1.0008937311839345,-159.65828984597667
6.647042048,1.0008005436867546,-159.81154617978606
6.649328128,1.0006563916404574,-159.96305864870575
6.65161472,1.0004703870243132,-160.11216248880854
6.653901312,1.000254367254964,-160.2582883552292
6.656187392,1.0000219757687163,-160.40118402026886
6.658473984,0.9997880199758128,-160.54064018333727
6.660760064,0.999567257186532,-160.67677324504365
6.663046656,0.9993737077579418,-160.80986998770973
6.665332736,0.9992198413712413,-160.9403827204118
6.667619328,0.9991153330537591,-161.06900679838282
6.66990592,0.9990669660054079,-161.19651550200282
6.672192,0.9990777705260746,-161.32371768882894
6.674478592,0.9991470674070535,-161.45145332476304
6.676764672,0.9992705969698233,-161.58059594386245
6.679051264,0.9994403301439447,-161.71183844956306
6.681337344,0.9996456452937488,-161.845835072797
6.683623936,0.9998733630976746,-161.98290933574924
6.685910016,1.0001092059396888,-162.12337521685578
6.688196608,1.0003379378970998,-162.26717710803663
6.6904832,1.0005453379099025,-162.41414175505477
6.69276928,1.0007180482355245,-162.56385247885393
6.695055872,1.0008451024799816,-162.71571306676
6.697341952,1.0009185490511552,-162.86901866101374
6.699628544,1.00093365226924,-163.0229216681296
6.701914624,1.0008893730887019,-163.1766374601259
6.704201216,1.0007885327090418,-163.32928151408507
6.706487808,1.0006375424906182,-163.4800218692326
6.708773888,1.0004459588038503,-163.62828705981704
6.71106048,1.000225851281717,-163.7735708738513
6.71334656,0.9999910913739256,-163.9154896784349
6.715633152,0.9997568109126727,-164.0539959984774
6.717919232,0.9995376166217592,-164.18915298846943
6.720205824,0.9993476208111775,-164.32132364210173
6.722491904,0.9991989655014119,-164.45100363771542
6.724778496,0.9991009402515896,-164.57884408092227
6.727065088,0.9990600170417611,-164.70565175450866
6.729351168,0.9990787483132911,-164.8322899113291
6.73163776,0.9991559528307798,-164.95957687894614
6.73392384,0.9992866391795011,-165.0883824496606
6.736210432,0.9994627481720374,-165.21937767188064
6.738496512,0.9996728078104921,-165.35318578310645
6.740783104,0.9999038113584767,-165.49015848620024
6.743069696,1.0001407225973196,-165.63053147509046
6.745355776,1.0003687970017425,-165.7742720527645
6.747642368,1.000573367337649,-165.92111533796356
6.749928448,1.0007414702460424,-166.07068721414947
6.75221504,1.0008626915157572,-166.22231370344178
6.75450112,1.0009289254012774,-166.37527586466365
6.756787712,1.0009362637639339,-166.52876287209028
6.759073792,1.000884036396504,-166.6818723619354
6.761360384,1.0007755965210585,-166.83384423515312
6.763646976,1.000617790709427,-166.98383336201405
6.765933056,1.0004205607431997,-167.13123240136505
6.768219648,1.0001964704541617,-167.2755410400815
6.770505728,0.9999596759118263,-167.41647937284475
6.77279232,0.9997252048044943,-167.55398195779117
6.7750784,0.9995080056784974,-167.68815571785854
6.777364992,0.9993218143472186,-167.81934836655316
6.779651584,0.9991785648151782,-167.94815689843864
6.781937664,0.9990873418087071,-168.07518005767025
6.784224256,0.9990540637482321,-168.20132366753543
6.786510336,0.9990807127680409,-168.32737288386926
6.788796928,0.9991658073931066,-168.45419632082266
6.791083008,0.9993037692035903,-168.58262169609083
6.7933696,0.9994859957188269,-168.71335549750538
6.79565568,0.9997008810606564,-168.84697315370903
6.797942272,0.9999346437168088,-168.98381415561215
6.800228864,1.000172624414451,-169.1241084321374
6.802514944,1.0003996458729272,-169.26773413796144
6.804801536,1.0006011754385604,-169.41443359716249
6.807087616,1.0007645776186447,-169.5637905306892
6.809374208,1.0008793720509597,-169.71515411249428
6.811660288,1.0009383452691902,-169.86774737972743
6.81394688,1.0009377541288897,-170.0207448507465
6.81623296,1.0008774981554103,-170.17326779411096
6.818519552,1.0007613950916487,-170.32450744862572
6.820806144,1.000596828426736,-170.473641874918
6.823092224,1.0003942342989203,-170.62011608453832
6.825378816,1.0001663100520615,-170.76347368225592
6.827664896,0.999927730256937,-170.90338031596895
6.829951488,0.9996934036021512,-171.03982895664143
6.832237568,0.9994783817438341,-171.17299997899266
6.83452416,0.9992963241429166,-171.3032185764235
6.836810752,0.9991587050486211,-171.43108477608078
6.839096832,0.9990745196163298,-171.55732885273653
6.841383424,0.9990489802838022,-171.68269465681973
6.843669504,0.9990838052072015,-171.80818669556527
6.845956096,0.9991768981930299,-171.93451476090613
6.848242176,0.9993220819832526,-172.06255411335587
6.850528768,0.9995103631505993,-172.1930348412922
6.852814848,0.9997298004758872,-172.3264359749901
6.85510144,0.9999663809006976,-172.46313519989383
6.857388032,1.0002050582101436,-172.60328946313209
6.859674112,1.000430639272354,-172.7467959210034
6.861960704,1.0006289587981,-172.8933339043701
6.864246784,1.0007873711876663,-173.04247603182637
6.866533376,1.0008955795722985,-173.1935064126379
6.868819456,1.0009470105681253,-173.3456811388457
6.871106048,1.000938339281302,-173.4981268391095
6.87339264,1.0008698553510067,-173.65003380338925
6.87567872,1.0007462183023732,-173.80048352891208
6.877965312,1.000574926518593,-173.94877419851719
6.880251392,1.0003669899558307,-174.09430794097415
6.882537984,1.0001355498284938,-174.23660588699138
6.884824064,0.9998953016296448,-174.37545195111773
6.887110656,0.9996614191579822,-174.51085572539696
6.889396736,0.9994487876048321,-174.64292927149864
6.891683328,0.9992711553827804,-174.77216992547503
6.89396992,0.9991395498132192,-174.89910450170692
6.896256,0.9990624675123975,-175.024482557671
6.898542592,0.9990449358081934,-175.1491707127049
6.900828672,0.999088035819203,-175.2740012111696
6.903115264,0.9991890302816643,-175.39984828703055
6.905401344,0.9993414590682891,-175.52752336040777
