freq,mag,phase
6.0,0.9998946074942712,-2.6374259231578043
6.021857792,0.999907029494285,-3.310845919414764
6.043716096,0.9999223453134624,-3.9845419815941403
6.065573888,0.9999403555629125,-4.658486355036006
6.08743168,0.99996048403711,-5.332702126345131
6.109289472,0.9999821194584125,-6.007226405066817
6.131147776,1.0000042934273816,-6.682063714450976
6.153005568,1.0000264462826276,-7.357302283645014
6.17486336,1.0000478207221288,-8.032783253081032
6.196721152,1.0000675941068848,-8.70860730304857
6.218579456,1.0000851452073725,-9.384736923230635
6.240437248,1.0000997559126634,-10.061141420906665
6.26229504,1.000111128176498,-10.737749923595267
6.284152832,1.0001188212033931,-11.414543893764675
6.306011136,1.0001225183166191,-12.091484141208044
6.327868928,1.0001220380012763,-12.768565083939572
6.34972672,1.0001173060256887,-13.445696562507022
6.371584512,1.0001089219398933,-14.122838416873327
6.393442816,1.000096608614285,-14.800011691850832
6.415300608,1.0000811487804997,-15.47706187050721
6.4371584,1.0000627980164614,-16.154089296308133
6.459016192,1.0000423744383578,-16.831005537753974
6.480874496,1.0000206159624627,-17.50773402244195
6.502732288,0.9999980503173612,-18.1843602436995
6.52459008,0.9999755972446852,-18.860845925565748
6.546447872,0.9999539705350936,-19.537196861646642
6.568306176,0.9999339546262817,-20.21340045383805
6.590163968,0.9999161009827965,-20.889497523220587
6.61202176,0.9999010743962228,-21.565550776193295
6.633879552,0.9998896376908881,-22.241521747705367
6.655737856,0.9998818107330755,-22.917477566371666
6.677595648,0.9998779730992061,-23.593484665914332
6.69945344,0.9998785693101488,-24.269570286660194
6.721311232,0.9998831263948379,-24.945768193000372
6.743169536,0.9998919854512893,-25.62210662199437
6.765027328,0.9999043280047739,-26.298701274296175
6.78688512,0.9999200096245985,-26.975518705625067
6.808743424,0.9999385705430538,-27.652592095375592
6.830601216,0.999959337947007,-28.329961047250013
6.852459008,0.9999814867306752,-29.00769208487939
6.8743168,1.0000043795559626,-29.685731388949225
6.896175104,1.0000271415445365,-30.364118195576715
6.918032896,1.0000490535666933,-31.042841673159433
6.939890688,1.0000695276912503,-31.721875583409656
6.96174848,1.0000876642405607,-32.401209477870125
6.983606784,1.0001027969530507,-33.0808462358117
7.005464576,1.0001146187378451,-33.760694212767596
7.027322368,1.0001225293147713,-34.44074926161121
7.04918016,1.0001263505028388,-35.12097434121052
7.071038464,1.0001258908406618,-35.80131881845587
7.092896256,1.0001211937272108,-36.481715817650624
7.114754048,1.0001124787228863,-37.162151692129704
7.13661184,1.000099904878991,-37.8425658535524
7.158470144,1.0000838822919247,-38.52292619812585
7.180327936,1.000065098109153,-39.2032062754907
7.202185728,1.0000441024451892,-39.88335545646604
7.22404352,1.0000215549617055,-40.563380480264314
7.245901824,0.9999982948166536,-41.243262735932575
7.267759616,0.9999751551243882,-41.92299343471994
7.289617408,0.9999527146298639,-42.60258263273613
7.3114752,0.9999320536374302,-43.282025086593585
7.333333504,0.9999135728118062,-43.9613867146224
7.355191296,0.9998981425891692,-44.640621287143894
7.377049088,0.9998861291260864,-45.31984212909645
7.39890688,0.9998780284660804,-45.999059951655155
7.420765184,0.9998741042885203,-46.67825792156692
7.442622976,0.9998744585172767,-47.35758802417145
7.464480768,0.999879287860876,-48.03700365316637
7.48633856,0.9998881247759724,-48.7165907725895
7.508196864,0.9999008609563982,-49.396411122581384
7.530054656,0.9999170815629004,-50.076470432085564
7.551912448,0.9999361470144578,-50.75682312553003
7.57377024,0.9999575186478766,-51.437454629755685
7.595628544,0.9999804663141828,-52.11845305935639
7.617486336,1.0000040506015924,-52.79981577109095
7.639344128,1.0000277443941656,-53.48146364471729
7.661202432,1.0000504472693446,-54.163509776487295
7.683060224,1.0000716474902887,-54.84584482182884
7.704918016,1.0000903398019823,-55.528507765349104
7.726775808,1.0001061937983275,-56.21147153794241
7.748634112,1.0001184784760873,-56.89466031504358
7.770491904,1.0001266983785917,-57.57806081206238
7.792349696,1.000130750935183,-58.26162828361827
7.814207488,1.000130390916349,-58.94531966198486
7.836065792,1.0001256414348076,-59.62904042517477
7.857923584,1.0001165658457862,-60.312840359974295
7.879781376,1.0001037635104766,-60.99660989663699
7.901639168,1.0000872194570458,-61.68029818693425
7.923497472,1.0000677745947013,-62.36393026549548
7.945355264,1.000046081468654,-63.04740656553563
7.967213056,1.0000228206243742,-63.73077994315369
7.989070848,0.9999986577963828,-64.41397910673457
8.010929152,0.9999745570564152,-65.0970219367217
8.032786944,0.9999513918191676,-65.77991762954272
8.054644736,0.9999299064140823,-66.46266252533444
8.076502528,0.9999106631937099,-67.14529886692318
8.098360832,0.9998944902472713,-67.8278140590665
8.120218624,0.9998819862548675,-68.51029693830735
8.142076416,0.999873409906355,-69.19276934168678
8.163934208,0.9998693063498472,-69.87524746616043
8.185792512,0.9998696320099825,-70.5578102530648
8.207650304,0.9998743671075763,-71.24050921421382
8.229508096,0.9998834778640517,-71.92337008433377
8.251365888,0.9998966402287228,-72.60643857111737
8.273224192,0.999913392011715,-73.28978005725554
8.295081984,0.9999331636434029,-73.97337902169198
8.316939776,0.9999554033014657,-74.65730219494387
8.338797568,0.9999790913228136,-75.34158044915988
8.360655872,1.0000035986075384,-76.02621624453528
8.382513664,1.00002813281177,-76.7112050982798
8.404371456,1.0000517886783649,-77.39652114489813
8.42622976,1.0000737905905879,-78.08222718262839
8.448087552,1.0000934837977666,-78.76820493251321
8.469945344,1.0001099975000114,-79.45447972088407
8.491803136,1.0001227994384494,-80.1410274580993
8.51366144,1.0001316831401894,-80.82775919403757
8.535519232,1.0001358184497524,-81.51467298497133
8.557377024,1.0001356619754658,-82.20169866878338
8.579234816,1.000130851315091,-82.88879936065996
8.60109312,1.0001216613385735,-83.57592273204189
8.6229504,1.0001082089781506,-84.26306677336115
8.644808704,1.0000912373593966,-84.95007781341451
8.666667008,1.0000711027893963,-85.63702052121992
8.688524288,1.000048502643298,-86.3238411402952
8.710382592,1.0000242532202723,-87.01047470144553
8.732240896,0.9999992614685654,-87.69695449378987
8.754098176,0.9999741538803345,-88.38328646937737
8.77595648,0.999949901090808,-89.0694644071028
8.79781376,0.9999273304162694,-89.75545150928063
8.819672064,0.9999073532519791,-90.44132539036032
8.841530368,0.9998904231727338,-91.12708422759937
8.863387648,0.9998771853572486,-91.81278402752943
8.885245952,0.9998682327429396,-92.49845101243488
8.907104256,0.9998636700530145,-93.18415575572824
8.928961536,0.9998638739427692,-93.86991017716218
8.95081984,0.9998686996292174,-94.55578516828223
8.97267712,0.9998780091400125,-95.24182952658366
8.994535424,0.9998916580549894,-95.92807555140804
9.016393728,0.999908956376368,-96.61460749652596
9.038251008,0.999929546929099,-97.30142139677346
9.060109312,0.9999525829255627,-97.98854417924731
9.081967616,0.9999772985290871,-98.67601117457596
9.103824896,1.0000029478515469,-99.36386305173373
9.1256832,1.000028626031443,-100.05208652405639
9.14754048,1.000053431452181,-100.74064473468094
9.169398784,1.0000765034717292,-101.4295470380199
9.191257088,1.000097055409346,-102.11877996729628
9.213114368,1.000114450269304,-102.80831705733881
9.234972672,1.0001280895341982,-103.4981099679413
9.256830976,1.000137320993584,-104.18810073976807
9.278688256,1.0001420872164632,-104.87827103595131
9.30054656,1.0001419278065533,-105.56855374635943
9.322404864,1.0001370861677996,-106.25891548193545
9.344262144,1.0001275741264013,-106.94928884509918
9.366120448,1.0001137746602928,-107.63964306212462
9.387977728,1.0000961431771815,-108.32991342664054
9.409836032,1.0000751431298192,-109.02004852674288
9.431694336,1.000051586483085,-109.71007233275594
9.453551616,1.0000262684305508,-110.39990654717853
9.47540992,1.0000000163240157,-111.08957408020706
9.497268224,0.9999737982152226,-111.77904245873056
9.519125504,0.9999483369324393,-112.468347585832
9.540983808,0.9999246782380368,-113.15745236722532
9.562841088,0.9999035583734878,-113.84641846225496
9.584699392,0.9998856703411724,-114.53525474368692
9.606557696,0.9998716611351346,-115.22401997460996
9.628414976,0.999862029465411,-115.91273425048053
9.65027328,0.999857127281409,-116.60147582448339
9.672131584,0.9998570253716013,-117.29027787353246
9.693988864,0.9998619355328151,-117.97916559065618
9.715847168,0.9998716375088694,-118.66823182403427
9.737704448,0.9998856235230361,-119.35752060401435
9.759562752,0.9999037512406542,-120.04705030609165
9.781421056,0.9999251788640022,-120.73687958061048
9.803278336,0.9999492820171839,-121.42704112029053
9.82513664,0.9999752024998285,-122.11756023316975
9.846994944,1.0000021128956582,-122.8084232522941
9.868852224,1.0000290530023976,-123.49967217029888
9.890710528,1.000055183271121,-124.19128181346402
9.912567808,1.0000794993752815,-124.8832554424757
9.934426112,1.0001013311772498,-125.57555141034531
9.956284416,1.000119720369848,-126.26815270481175
9.978141696,1.0001341829239294,-126.96101042728237
10.0,1.000144173559281,-127.65409442318656
10.021858304,1.0001493523456775,-128.34733428080807
10.043715584,1.000149447453473,-129.04069326679593
10.065573888,1.0001445739884358,-129.734096711142
10.087432192,1.000134832033369,-130.4275379478026
10.109289472,1.0001204598475621,-131.12093816416893
10.131147776,1.0001019750158764,-131.81422640924424
10.153005056,1.0000800621006491,-132.5073865220563
10.17486336,1.000055372044885,-133.20039071835976
10.196721664,1.0000287621593396,-133.89320477534417
10.218578944,1.0000012010851176,-134.5858258606935
10.240437248,0.9999734619039174,-135.2782338691967
10.262295552,0.9999465754439656,-135.97041336530154
10.284152832,0.9999215237210385,-136.66240148684957
10.306011136,0.9998990534652668,-137.3542427130621
10.327868416,0.9998800834379987,-138.04591836522394
10.34972672,0.9998650632804804,-138.73750797639855
10.371585024,0.9998547040882417,-139.42902818822776
10.393442304,0.999849200514766,-140.12054474615033
10.415300608,0.9998489736977625,-140.81210956312648
10.437158912,0.9998539127176426,-141.50376974738595
10.459016192,0.9998638518670909,-142.19559523588933
10.480874496,0.9998785380051276,-142.88763803086837
10.502731776,0.999897404707309,-143.57990263661395
10.52459008,0.9999198886404032,-144.2724759395794
10.546448384,0.9999452389815433,-144.9653950825639
10.568305664,0.9999726142835661,-145.65864172312084
10.590163968,1.0000010080671515,-146.35228544660913
10.612022272,1.0000295815184521,-147.04630600337734
10.633879552,1.0000572545496302,-147.74071079369654
10.655737856,1.000083107477065,-148.43544861312398
10.677595136,1.0001063106385224,-149.1305362062664
10.69945344,1.000126054588535,-149.82594256874413
10.721311744,1.0001415782733647,-150.52157385399624
10.743169024,1.000152380848005,-151.21747092765386
10.765027328,1.0001581539738258,-151.91351158260784
10.786885632,1.0001585995053668,-152.60965584550738
10.808742912,1.0001536395543473,-153.3058556274436
10.830601216,1.0001435274890298,-154.00205533803592
10.85245952,1.000128585920112,-154.69818943381253
10.8743168,1.0001091911290958,-155.39424014878946
10.896175104,1.0000861368653913,-156.09011251291227
10.918032384,1.0000600746547639,-156.78581805159357
10.939890688,1.000031971588133,-157.48132059665002
10.961748992,1.0000025844964766,-158.17657577468768
10.983606272,0.9999731724014912,-158.87158604512604
11.005464576,0.9999445964765965,-159.5663494136025
11.02732288,0.9999178411380832,-160.26091874376507
11.04918016,0.9998937690897487,-160.95526339792224
11.071038464,0.99987339751687,-161.64945656889745
11.092895744,0.9998571987301799,-162.34351649955457
11.114754048,0.9998458884487414,-163.0374839525671
11.136612352,0.9998398255159044,-163.731446507004
11.158469632,0.9998392287984688,-164.42541660382844
11.180327936,0.999844173782325,-165.1194888248488
11.20218624,0.9998544733247,-165.81369204806026
11.22404352,0.9998698728705284,-166.50810303506134
11.245901824,0.9998897803534276,-167.20277332962553
11.267759104,0.9999135431963141,-167.89773078426387
11.289617408,0.9999403913621238,-168.59304046244577
11.311475712,0.999969453588526,-169.2886831681096
11.333332992,0.9999997641538882,-169.98472077261368
11.355191296,1.000030186376608,-170.6811418167739
11.3770496,1.0000597551830197,-171.37793065325295
11.39890688,1.0000875151692954,-172.07510609573342
11.420765184,1.0001124399404686,-172.7726378849541
11.442622464,1.0001337159705461,-173.47045821246383
11.464480768,1.0001506264481743,-174.16856990738626
11.486339072,1.0001624100108761,-174.86687771506178
11.508196352,1.0001688756038223,-175.5653629195961
11.530054656,1.0001697431497185,-176.26394366121195
11.55191296,1.0001646736285525,-176.96256313753452
11.57377024,1.0001542672713424,-177.66116501697908
11.595628544,1.000138564097043,-178.3597066991109
11.617486848,1.0001180858376968,-179.05811644735107
11.639344128,1.0000935630332124,-179.75633708205982
11.661202432,1.000065775930953,179.5456495100381
11.683059712,1.0000357524111105,178.84788982227386
11.704918016,1.0000043713107258,178.15037128757362
11.72677632,0.9999728688219147,177.45314418333115
11.7486336,0.9999420761738294,176.75618237729265
11.770491904,0.9999132742319241,176.05948579258649
11.792350208,0.9998872861624284,175.36302826927394
11.814207488,0.9998651451495912,174.66676862158315
11.836065792,0.9998475899785112,173.97067416498064
11.857923072,0.9998350944965322,173.274672599248
11.879781376,0.9998282143005631,172.57872910896162
11.90163968,0.9998273114152209,171.8827721554067
11.92349696,0.9998322982516064,171.18675755086292
11.945355264,0.9998429629653208,170.49060784695052
11.967213568,0.9998592919428783,169.79423608367705
11.989070848,0.9998803269294155,169.09765453149208
12.010929152,0.9999057238892707,168.40076155856087
12.032786432,0.9999344593258913,167.70352283014395
12.054644736,0.9999656733322072,167.00592390384136
12.07650304,0.9999981664744008,166.30793943545146
12.09836032,1.0000310134185753,165.60953468385796
12.120218624,1.0000629826207652,164.91076522711793
12.142076928,1.0000930439942344,164.21159042872122
12.163934208,1.000120161401433,163.51210231585011
12.185792512,1.00014327923744,162.81225877838202
12.207649792,1.0001617996366992,162.11214646935167
12.229508096,1.0001749703841751,161.4118164836373
12.2513664,1.0001822874910469,160.71132748997215
12.27322368,1.0001834704775352,160.01073910978255
12.295081984,1.0001784982024917,159.31012640346424
12.316940288,1.000167475018128,158.60953242884645
12.338797568,1.0001508343710461,157.9090538445137
12.360655872,1.0001290401448772,157.20872520891254
12.382513152,1.000102686954886,156.50858340189654
12.404371456,1.0000728045042226,155.80870411261125
12.42622976,1.000040403493869,155.10912467362544
12.44808704,1.0000065393369306,154.40982578520686
12.469945344,0.9999723315190955,153.71086006428877
12.491803648,0.9999389479576729,153.0122025796471
12.513660928,0.9999074857721656,152.31383950878276
12.535519232,0.999879076133296,151.61577724323953
12.557377536,0.9998547322103708,150.91793666219937
12.579234816,0.9998352999646344,150.22028388243578
12.60109312,0.9998213513771275,149.52280176231935
12.6229504,0.9998135683013445,148.8253850082865
12.644808704,0.9998121539606155,148.12798114918957
12.666667008,0.9998171003004039,147.430515385816
12.688524288,0.9998284652691167,146.73292995420655
12.710382592,0.9998457594482181,146.0351859818529
12.732240896,0.9998685323048333,145.3371692356884
12.754098176,0.9998958997209059,144.6388646459422
12.77595648,0.9999270836277826,143.9402167486592
12.79781376,0.9999609306177212,143.24117588448775
12.819672064,0.999996313380591,142.54174486313957
12.841530368,1.000032180174324,141.8418882341749
12.863387648,1.0000672893314515,141.14164131906284
12.885245952,1.0001002140505626,140.44098046253978
12.907104256,1.0001301094119313,139.73995964535123
12.928961536,1.0001557846213815,139.03861178452038
12.95081984,1.0001763377452333,138.33696976213193
12.97267712,1.0001910486812597,137.63509436617582
12.994535424,1.0001993912687255,136.93307731601783
13.016393728,1.0002012172909238,136.23095000944198
13.038251008,1.000196124058614,135.52881336923622
13.060109312,1.0001844387297611,134.82673819232932
13.081967616,1.0001665325198432,134.12476968752537
13.103824896,1.0001428206822451,133.42298569646402
13.1256832,1.0001142333358257,132.72143767352162
13.14754048,1.000081650968484,132.02020164636488
13.169398784,1.000046111405502,131.31928462199622
13.191257088,1.0000088724774905,130.61872937282513
13.213114368,0.9999712430246611,129.9185369717997
13.234972672,0.9999343305260557,129.21871629879013
13.256830976,0.999899585963664,128.51924075528476
13.278688256,0.9998680843002076,127.82010487621662
13.30054656,0.9998409397483119,127.12124841215508
13.322404864,0.9998191040458566,126.42263971224904
13.344262144,0.9998033692844276,125.72421907826397
13.366120448,0.999794301647792,125.02590210164225
13.387977728,0.9997922269507075,124.32761767976315
13.409836032,0.9997973825282933,123.62932128159034
13.431694336,0.9998095649748794,122.93089670266251
13.453551616,0.9998282948053011,122.23232899967485
13.47540992,0.9998531197190192,121.53348048010714
13.497268224,0.9998832439391154,120.83434265639228
13.519125504,0.9999176250249049,120.13483346501899
13.540983808,0.999954994188235,119.43492964748422
13.562841088,0.9999943561601835,118.73461109133927
13.584699392,1.0000341915149744,118.03384917076565
13.606557696,1.0000732574437636,117.33263330054233
13.628414976,1.0001100737324122,116.63101464908621
13.65027328,1.000143595493642,115.92899730625604
13.672131584,1.0001725223376001,115.22661836084008
13.693988864,1.0001957818293241,114.52394653967022
13.715847168,1.0002126343208182,113.82104217651803
13.737704448,1.0002224570177418,113.11795468035244
13.759562752,1.0002248135464449,112.4148029198007
13.781421056,1.0002196703283133,111.71162412936526
13.803278336,1.0002070260006677,111.00852643101014
13.82513664,1.0001872873119124,110.30557203040813
13.846994944,1.0001610265770295,109.60283373684152
13.868852224,1.000129386495925,108.90040194951958
13.890710528,1.0000929932380098,108.19830987009684
13.912567808,1.0000532097349002,107.49658913937868
13.934426112,1.0000114878447357,106.79529087228768
13.956284416,0.9999690936023967,106.09443517047947
13.978141696,0.9999274637903625,105.39400018893689
14.0,0.9998881192843571,104.69401482732859
