freq,mag,phase
6.0,1.0000176448168787,-109.79524515923126
6.002392576,0.9998975228547986,-109.93338097791819
6.00478464,0.9997837185279779,-110.06983665643479
6.007177216,0.999683627333888,-110.20474607217442
6.00956928,0.9996036656719814,-110.33832976207262
6.011961856,0.9995487840232021,-110.47096482532486
6.01435392,0.9995227080739735,-110.6030043832851
6.016746496,0.9995267508877572,-110.73490812140759
6.01913856,0.9995609766288945,-110.86707987870128
6.021531136,0.9996230928851638,-110.99996203534356
6.0239232,0.9997093440261886,-111.13393130312343
6.026315776,0.999814145449706,-111.26929473518668
6.028708352,0.9999307917821461,-111.40627480349066
6.031100416,1.0000520405284448,-111.54497651422574
6.033492992,1.0001702309101272,-111.68540859214096
6.035885056,1.0002778500947684,-111.82752199113222
6.038277632,1.0003681214968088,-111.97106721284285
6.040669696,1.000435364788399,-112.11577797937971
6.043062272,1.0004752836194575,-112.2612492546017
6.045454336,1.0004853804299145,-112.40707888811059
6.047846912,1.0004649196513988,-112.55285226487341
6.050239488,1.000415293991973,-112.6981560766884
6.052631552,1.000339573776188,-112.84251527833048
6.055024128,1.000242570661093,-112.98566431702709
6.057416192,1.0001302554346003,-113.12733109607176
6.059808768,1.000009778030702,-113.26725611176748
6.062200832,0.9998888837455705,-113.40548355087235
6.064593408,0.9997751150041848,-113.54196540428686
6.066985472,0.9996756647237346,-113.67691927551097
6.069378048,0.9995967401031121,-113.81058678955765
6.071770112,0.9995434212777656,-113.94329971891578
6.074162688,0.9995190906941395,-114.07544718137777
6.076555264,0.9995253176531339,-114.20748559945282
6.078947328,0.9995617074340062,-114.33982781042747
6.081339904,0.9996259252686784,-114.47289784737903
6.083731968,0.9997140629252323,-114.6071038056051
6.086124544,0.9998203840606332,-114.74269320096028
6.088516608,0.9999382975702465,-114.87995159385184
6.090909184,1.0000602673298122,-115.01893266009529
6.093301248,1.0001787380491973,-115.15967432726353
6.095693824,1.0002858612690588,-115.3020703066516
6.098085888,1.0003753700380384,-115.44586959110384
6.100478464,1.0004412133415455,-115.59080852413905
6.10287104,1.000479434930896,-115.73654351635592
6.105263104,1.0004876630333377,-115.88257587820254
6.10765568,1.0004650903227696,-116.02856351592673
6.110047744,1.000413307671659,-116.17398714437834
6.11244032,1.000335507556353,-116.3184764245002
6.114832384,1.0002367883394592,-116.4616865983987
6.11722496,1.0001230558911185,-116.60336889238137
6.119617024,1.0000017781332198,-116.74335459675162
6.1220096,0.9998804086022292,-116.88160041845158
6.124401664,0.9997666990870592,-117.01813049753252
6.12679424,0.9996677663396466,-117.15310262629583
6.129186816,0.9995899452847623,-117.28680439670273
6.13157888,0.9995382169862546,-117.41961003095948
6.133971456,0.99951579350716,-117.55183043290835
6.13636352,0.9995240486078515,-117.68398029610182
6.138756096,0.9995625915547176,-117.816445997381
6.14114816,0.9996289523238846,-117.94971785597036
6.143540736,0.9997188934607576,-118.08409599648655
6.1459328,0.9998269578076099,-118.21992747995758
6.148325376,0.9999460037661451,-118.35742001546178
6.150717952,1.000068631971003,-118.49666797380692
6.153110016,1.0001871950537091,-118.63766338978847
6.155502592,1.0002940797352953,-118.78029260664775
6.157894656,1.0003825939585278,-118.92436026007859
6.160287232,1.0004471790817222,-119.06954231177285
6.162679296,1.0004835769302598,-119.21544741508455
6.165071872,1.0004898021812556,-119.36169567754911
6.167463936,1.000465044001294,-119.50779171778927
6.169856512,1.0004112018636317,-119.65332215345799
6.172248576,1.0003314615813035,-119.79789851398712
6.174641152,1.0002308943701481,-119.94117408606851
6.177033728,1.0001158744848513,-120.08289968838221
6.179425792,0.9999935483794663,-120.22292942883954
6.181818368,0.9998717875455393,-120.36115933329273
6.184210432,0.9997581694438107,-120.49768263633025
6.186603008,0.9996598944041309,-120.63265747323531
6.188995072,0.9995833756816228,-120.7663734039949
6.191387648,0.9995331323527508,-120.89918342101178
6.193779712,0.9995126186152403,-121.0314770406531
6.196172288,0.9995229435869527,-121.16369762056459
6.198564352,0.9995636369774048,-121.2963294973968
6.200956928,0.9996320812732565,-121.42972691763022
6.203349504,0.9997239367486487,-121.56428799424275
6.205741568,0.9998334125617552,-121.70029802344087
6.208134144,0.9999536185907714,-121.83802980871263
6.210526208,1.0000769957092037,-121.97748751662097
6.212918784,1.000195648279884,-122.11869983523403
6.215310848,1.0003021215270513,-122.26157935956856
6.217703424,1.0003897200255532,-122.40584525534865
6.220095488,1.000452885110648,-122.55123830644351
6.222488064,1.0004876410117873,-122.69731316258114
6.224880128,1.000491718034319,-122.84369104011245
6.227272704,1.0004648979123212,-122.98989950683399
6.22966528,1.0004088464119112,-123.13555158346855
6.232057344,1.000327102864106,-123.28018609546494
6.23444992,1.0002247813136629,-123.42350189182375
6.236841984,1.0001083657334944,-123.56518148931373
6.23923456,0.9999851640545072,-123.70518185087865
6.241626624,0.9998629890676618,-123.84340728261456
6.2440192,0.9997495530639978,-123.97989694493829
6.246411264,0.999652020523989,-124.11485186035412
6.24880384,0.9995765317806724,-124.24855615274366
6.251196416,0.9995279086151131,-124.38139414717283
6.25358848,0.9995093266803435,-124.51371981240838
6.255981056,0.9995217490960594,-124.64597964258358
6.25837312,0.9995646153714027,-124.77869149055017
6.260765696,0.9996351688235423,-124.91219797379365
6.26315776,0.9997289772711496,-125.04689176988474
6.265550336,0.9998400688370764,-125.1830904607379
6.2679424,0.9999613431131218,-125.32099525634302
6.270334976,1.0000854142590512,-125.46067334178616
6.27272704,1.0002041400656347,-125.60209324722754
6.275119616,1.0003102313532166,-125.7451677108585
6.277512192,1.000396941751526,-125.88963070338505
6.279904256,1.0004587242329983,-126.03520232011319
6.282296832,1.0004916471790777,-126.1814011350854
6.284688896,1.0004937154304687,-126.32791730433004
6.287081472,1.000464634011967,-126.47421082966072
6.289473536,1.0004065018635677,-126.6198994892003
6.291866112,1.0003227447105867,-126.76456976539906
6.294258176,1.000218742336728,-126.90788090130108
6.296650752,1.0001009636603453,-127.04955885545954
6.299042816,0.9999768356495127,-127.18947486444475
6.301435392,0.9998543106582457,-127.32764378710526
6.303827968,0.9997409928189765,-127.46410014171644
6.306220032,0.999644172286935,-127.5989790998623
6.308612608,0.999569902540371,-127.7326926214654
6.311004672,0.9995228849178333,-127.86544466433016
6.313397248,0.9995062318918569,-127.99777836939025
6.315789312,0.9995208724950743,-128.13012473422762
6.318181888,0.9995659131613954,-128.26286493607884
6.320573952,0.9996385901167666,-128.396455226186
6.322966528,0.9997341887100466,-128.53128400915764
6.325359104,0.9998467938912474,-128.6676075325836
6.327751168,0.9999693434731051,-128.80566547335926
6.330143744,1.000093965351017,-128.94552120575304
6.332535808,1.0002127758636314,-129.08711611674366
6.334928384,1.0003183837190395,-129.23037723616713
6.337320448,1.0004040569836536,-129.3750190841546
6.339713024,1.000464324283032,-129.52071181431594
6.342105088,1.000495567609956,-129.66704716651319
6.344497664,1.0004954847982692,-129.81365067864886
6.346889728,1.00046442476506,-129.96003222498317
6.349282304,1.0004040539348542,-130.1057228536503
6.35167488,1.000318275563029,-130.25037248522608
6.354066944,1.0002124316204157,-130.39361362115346
6.35645952,1.000093348044381,-130.5352736037423
6.358851584,0.9999683640503542,-130.67511743614514
6.36124416,0.999845451402881,-130.81317495388106
6.363636224,0.9997323983500762,-130.94955793038298
6.3660288,0.9996362690872612,-131.08436133930687
6.368420864,0.9995632629793185,-131.2179660760938
6.37081344,0.99951792707211,-131.35073640218147
6.373205504,0.9995031363667635,-131.4830354913963
6.37559808,0.9995199091948362,-131.61536380551502
6.377990656,0.9995672435109171,-131.74812728016232
6.38038272,0.9996420264302454,-131.8818028653021
6.382775296,0.9997394864026188,-132.01673794986945
6.38516736,0.9998537027331816,-132.1532159087241
6.387559936,0.9999773044256989,-132.29139815165868
6.389952,1.0001025173944504,-132.43135705681652
6.392344576,1.0002214172776458,-132.57310851821686
6.39473664,1.0003265434316897,-132.7165001132677
6.397129216,1.0004111573640802,-132.86127442378287
6.39952128,1.0004700371032933,-133.00710889746333
6.401913856,1.0004992926204637,-133.15353958164803
6.404306432,1.0004973182271248,-133.30017424881987
6.406698496,1.000463935673819,-133.44657332007094
6.409091072,1.0004013698478382,-133.5923079974441
6.411483136,1.0003136054098036,-133.73688510704469
6.413875712,1.000206088531108,-133.8800882596453
6.416267776,1.000085633912807,-134.02164830568228
6.418660352,0.9999597842051399,-134.16140125115362
6.421052416,0.999836569778187,-134.29934085466425
6.423444992,0.9997237900124765,-134.43558427096679
6.425837568,0.9996284166975304,-134.57029725351683
6.428229632,0.9995566334640071,-134.70383255957225
6.430622208,0.9995130417437307,-134.83649851183196
6.433014272,0.9995002278407229,-134.9687436370796
6.435406848,0.9995191672655911,-135.1010685063904
6.437798912,0.999568630625089,-135.23382388252685
6.440191488,0.9996454852274791,-135.3675381227291
6.442583552,0.9997449677053651,-135.50252927036692
6.444976128,0.999860670289693,-135.63905113119367
6.447368192,0.9999853515004888,-135.77738802447723
6.449760768,1.0001111326724805,-135.91747612815809
6.452153344,1.0002301189784621,-136.05935993132695
6.454545408,1.000334651463661,-136.20289746753812
6.456937984,1.000418229690409,-136.34774700467992
6.459330048,1.0004756323273063,-136.4936389371645
6.461722624,1.000503107043616,-136.64013547539938
6.464114688,1.0004989068047427,-136.78683374845141
6.466507264,1.0004633421518505,-136.93322644153844
6.468899328,1.0003986710926878,-137.0788959389511
6.471291904,1.0003088146996653,-137.22343613780546
6.473683968,1.0001995482137345,-137.36653527399127
6.476076544,1.0000778093151528,-137.50797881117938
6.47846912,0.9999511765466376,-137.6476018044351
6.480861184,0.9998275987118893,-137.78540301986618
6.48325376,0.9997150775273018,-137.92148063518619
6.485645824,0.9996205857846662,-138.05607205832828
6.4880384,0.9995500905814362,-138.18946285382015
6.490430464,0.9995081410775272,-138.32203002029715
6.49282304,0.9994973803056192,-138.45420353492577
6.495215104,0.9995184606549379,-138.5864581969741
6.49760768,0.9995701335885154,-138.71923705287398
6.499999744,0.9996492158133297,-138.85296476589707
6.50239232,0.9997505259500041,-138.98796433051098
6.504784896,0.9998677912186468,-139.12459022369976
6.50717696,0.9999934649337234,-139.26298540664004
6.509569536,1.0001198661400308,-139.40317651741915
6.5119616,1.0002387642135384,-139.54515830291427
6.514354176,1.0003427610838413,-139.68874231996614
6.51674624,1.0004253194873292,-139.83368945419724
6.519138816,1.0004811572812882,-139.97967099921107
6.52153088,1.0005067464673016,-140.12619480606543
6.523923456,1.000500434723763,-140.27288667262934
6.526316032,1.0004626682888025,-140.41925013641867
6.528708096,1.0003957637507952,-140.5648453522839
6.531100672,1.0003038500861088,-140.7093195322667
6.533492736,1.0001929290478808,-140.85226214198698
6.535885312,1.000069867809369,-140.99356154069622
6.538277376,0.9999423775786258,-141.13301892780922
6.540669952,0.9998186174250563,-141.270658783052
6.543062016,0.9997062798958852,-141.4065624340623
6.545454592,0.9996126371270401,-141.54097044675237
6.547846656,0.9995435367954247,-141.67425354572345
6.550239232,0.9995033267054528,-141.8066612811633
6.552631808,0.9994945972655354,-141.93873350465927
6.555023872,0.9995179949020998,-142.07091367163866
6.557416448,0.9995718286062935,-142.20365012927925
6.559808512,0.9996529629151547,-142.33735931329676
6.562201088,0.9997562088277513,-142.4724043860958
6.564593152,0.999874904400849,-142.60905799709903
6.566985728,1.0000017951480336,-142.74746958450754
6.569377792,1.000128633829948,-142.88773963897663
6.571770368,1.0002474971385065,-143.029802576219
6.574162432,1.0003509883794353,-143.1734711319318
6.576555008,1.0004323184587882,-143.31846208328918
6.578947584,1.000486622355474,-143.4644357295147
6.581339648,1.0005103009434408,-143.61099274066825
6.583732224,1.0005018554021534,-143.75762413905323
6.586124288,1.000461812989152,-143.90395679861564
6.588516864,1.0003926977347968,-144.04945415234332
6.590908928,1.0002988053361916,-144.19378557007613
6.593301504,1.0001861335694744,-144.33660593917986
6.595693568,1.0000617580123587,-144.4777219494227
6.598086144,0.9999334453149573,-144.6169779822368
6.60047872,0.9998094978554746,-144.7544289349629
6.602870784,0.9996974827226863,-144.89013258417197
6.60526336,0.9996047022168376,-145.02434418145194
6.607655424,0.9995369495360823,-145.1574072869713
6.610048,0.9994985072232248,-145.2897083772511
6.612440064,0.999491922991711,-145.42161885410962
6.61483264,0.9995175127999313,-145.55370044916927
6.617224704,0.9995736928509553,-145.6863788473366
6.61961728,0.9996569379992791,-145.8200434032169
6.622009344,0.9997620035680486,-145.95507783304856
6.62440192,0.9998823139891158,-146.09173640127494
6.626794496,1.0000101839300877,-146.2301913912064
6.62918656,1.0001375614968415,-146.37049327045898
6.631579136,1.0002563863109917,-146.5126307560585
6.6339712,1.000359228555432,-146.6562940717026
6.636363776,1.0004394555495189,-146.8013281608016
6.63875584,1.0004920949739067,-146.94732728615236
6.641148416,1.0005138453118723,-147.09384779490023
6.64354048,1.0005031767418424,-147.2404473928766
6.645933056,1.000460870908765,-147.38666700790253
6.64832512,1.0003895098337072,-147.53204280421235
6.650717696,1.0002936174971935,-147.67620681535436
6.653110272,1.0001792413789616,-147.81886151979515
6.655502336,1.0000535714460117,-147.95977658539013
6.657894912,0.9999245018988816,-148.09880413240353
6.660286976,0.9998003048779172,-148.2359947144462
6.662679552,0.999688732276175,-148.37149591867788
6.665071616,0.9995967797958574,-148.50549183302635
6.667464192,0.9995304933973805,-148.63834070812882
6.669856256,0.9994938304021808,-148.77042301042886
6.672248832,0.999489314534648,-148.90221317944528
6.674640896,0.9995171139362397,-149.03418438043383
6.677033472,0.9995756305524378,-149.16672665614092
6.679426048,0.9996610097986578,-149.30035437447077
6.681818112,0.9997680096702087,-149.43532354142047
6.684210688,0.999889771602079,-149.57198735566698
6.686602752,1.0000187161181668,-149.7104745753948
6.688995328,1.0001464745497326,-149.8508080187888
6.691387392,1.0002652266183851,-149.992906965504
6.693779968,1.0003674317631508,-150.1366320434983
6.696172032,1.0004464720555648,-150.28164352609795
6.698564608,1.0004975334687396,-150.4275977163208
6.700957184,1.0005172119259464,-150.57407416346965
6.703349248,1.0005043685597401,-150.72058302048163
6.705741824,1.0004597346390554,-150.866672268605
6.708133888,1.0003861952749415,-151.01193295673323
6.710526464,1.0002882603357126,-151.15589084076692
6.712918528,1.0001721661146792,-151.29834150263676
6.715311104,1.0000452074659918,-151.4390116005722
6.717703168,0.9999154150057421,-151.5777990302987
6.720095744,0.999791033585694,-151.71474568917355
6.722487808,0.9996798356638241,-151.8499768187922
6.724880384,0.9995888826391957,-151.9837072495159
6.72727296,0.9995240007765052,-152.1163299469414
6.729665024,0.9994892691063757,-152.24823438481084
6.7320576,0.9994868432112061,-152.37981205696593
6.734449664,0.9995169745912809,-152.51162578216628
6.73684224,0.9995777126060587,-152.6440758908952
6.739234304,0.999665352049615,-152.77760208774072
6.74162688,0.9997741975443675,-152.912546913285
6.744018944,0.9998974382406641,-153.04915442059678
6.74641152,1.0000272997583068,-153.18759706829286
6.748803584,1.000155591739671,-153.3279124796291
6.75119616,1.000274225967074,-153.47003296879492
6.753588736,1.0003757364448036,-153.61373062502733
6.7559808,1.0004535574209716,-153.75869633869561
6.758373376,1.0005028678724606,-153.90461666284634
6.76076544,1.000520570483793,-154.05100306889244
6.763158016,1.00050554518353,-154.19742241807313
6.76555008,1.000458547516104,-154.3433748336195
6.767942656,1.0003826611243163,-154.48841838561162
6.77033472,1.0002827414152355,-154.63221223422207
6.772727296,1.0001649896154696,-154.7743937232211
6.775119872,1.0000367109104893,-154.91481607651073
6.777511936,0.9999062167439814,-155.05330661840313
6.779904512,0.9997816558939852,-155.18998154003756
6.782296576,0.9996709858051712,-155.32490561648916
6.784689152,0.9995809838623552,-155.4583879761929
6.787081216,0.9995176023334331,-155.5907377681755
6.789473792,0.9994847086068098,-155.7223914905381
6.791865856,0.9994844448205467,-155.85377129233748
6.794258432,0.9995169747032707,-155.98539371720494
6.796650496,0.9995800508517133,-156.11770993732407
6.799043072,0.9996697780928318,-156.25112494998294
6.801435648,0.9997804771781579,-156.38598982954642
6.803827712,0.9999052686829271,-156.52252463878457
6.806220288,1.000036135758407,-156.66093689457276
6.808612352,1.000164908460642,-156.80123866502043
6.811004928,1.0002834041472721,-156.94329221856702
6.813396992,1.000384113038082,-157.0869759191991
6.815789568,1.0004606630483475,-157.2318913984222
6.818181632,1.0005082565786594,-157.37771130398977
6.820574208,1.0005238705474002,-157.52402733778968
6.822966272,1.0005065035353187,-157.67027579011923
6.825358848,1.0004572247542733,-157.81605855640274
6.827751424,1.0003790836660122,-157.96091386340782
6.830143488,1.000277060161645,-158.10443893104897
6.832536064,1.0001575709418125,-158.24635226759514
6.834928128,1.0000281201656318,-158.38647312054937
6.837320704,0.999896942485494,-158.52468291721442
6.839712768,0.9997722245072252,-158.66103186108177
6.842105344,0.9996619123177032,-158.795640699642
6.844497408,0.9995730463264257,-158.92883067940727
6.846889984,0.9995111595445869,-159.06091452123036
6.849282048,0.9994802760878894,-159.19227422119286
6.851674624,0.9994822340522583,-159.32344751176976
6.8540672,0.999517099016678,-159.45485644620322
6.856459264,0.9995825224142889,-159.58702127943147
6.85885184,0.999674449759187,-159.72027783505453
6.861243904,0.9997871023026295,-159.85503373095787
6.86363648,0.9999133209608972,-159.99151826884662
6.866028544,1.000045185036989,-160.12986065891843
6.86842112,1.0001742722873108,-160.27009650869635
6.870813184,1.000292623950337,-160.4121015011781
6.87320576,1.0003925538686296,-160.5556985837896
6.875598336,1.0004677878784172,-160.70054176577966
6.8779904,1.0005136513747206,-160.84628591463832
6.880382976,1.000527134954088,-160.99241718357547
6.88277504,1.0005074024988543,-161.1385401218829
6.885167616,1.000455756779842,-161.28408822584004
6.88755968,1.000375359758731,-161.42870644812382
6.889952256,1.0002713080042611,-161.5719965965029
6.89234432,1.0001500632622948,-161.71360232063063
6.894736896,1.00001941377414,-161.8533923006995
6.89712896,0.9998875023888278,-161.99128607152866
6.899521536,0.9997627524245192,-162.12730260595302
6.901914112,0.9996529239101664,-162.26158747953662
6.904306176,0.9995651367781363,-162.39440271893136
6.906698752,0.9995048088953552,-162.52618838510818
6.909090816,0.9994759174400458,-162.65728144030763
6.911483392,0.9994801094361774,-162.78819274641333
6.913875456,0.9995173087569357,-162.9193969543428
6.916268032,0.9995851351049364,-163.05133598258345
6.918660096,0.9996792544753571,-163.18443553045776
6.921052672,0.9997938364200685,-163.3190660697162
6.923444736,0.9999214859653677,-163.45545916555915
6.925837312,1.0000542974666233,-163.59370381678934
6.928229888,1.0001837712194386,-163.73387952255143
6.930621952,1.0003017742880338,-163.87581693087324
6.933014528,1.0004008931299784,-164.0193016380916
6.935406592,1.0004748557478909,-164.16406131417153
6.937799168,1.0005188448845215,-164.30966029086753
6.940191232,1.0005301595363025,-164.4556601979324
6.942583808,1.0005080936795898,-164.60154027675807
6.944975872,1.0004539882465278,-164.74691443875057
6.947368448,1.0003712847839163,-164.89123650332502
