freq,mag,phase
6.0,1.0000314471524632,-95.50983197976558
6.041884672,1.0000345613762869,-97.5051647842688
6.083769856,1.0000370295208219,-99.50102014419893
6.125654528,1.000039062547864,-101.49740703088695
6.1675392,1.0000407184079283,-103.49431496075378
6.209423872,1.0000419718546023,-105.49168936681512
6.251309056,1.0000427739215447,-107.4895001751619
6.293193728,1.0000431139364359,-109.48772758198984
6.3350784,1.000043045389826,-111.48632156408317
6.376963584,1.0000425163823414,-113.48530040899242
6.418848256,1.0000414159157496,-115.48461036830335
6.460732928,1.0000399757061957,-117.48427438235485
6.5026176,1.0000381322603944,-119.48415184057843
6.544502784,1.0000358232788378,-121.4843278282996
6.586387456,1.0000331133678593,-123.48469469575055
6.628272128,1.0000300939531201,-125.48527738762105
6.670157312,1.0000267547363744,-127.48603210716499
6.712041984,1.0000231356815,-129.48692938645178
6.753926656,1.000019245485097,-131.4879423695559
6.795811328,1.0000151505891746,-133.48903909113042
6.837696512,1.00001083273973,-135.49021490286907
6.879581184,1.000006432423729,-137.49142904037313
6.921465856,1.0000019402574594,-139.49264458850772
6.96335104,0.9999974567487964,-141.4938248607329
7.005235712,0.9999930053348947,-143.49500613163414
7.047120384,0.9999885515823197,-145.49610041306352
7.089005056,0.9999842545630192,-147.49709113710858
7.13089024,0.999980083153663,-149.4980108420938
7.172774912,0.9999761680246746,-151.49877510324538
7.214659584,0.9999724714417318,-153.49937419698992
7.256544256,0.9999690824300845,-155.49981234329363
7.29842944,0.9999660047580985,-157.50003083934348
7.340314112,0.9999632899505726,-159.50003168518714
7.382198784,0.9999609946100091,-161.4997501162456
7.424083968,0.9999590110791652,-163.4992251883814
7.46596864,0.9999576177587964,-165.49840860809002
7.507853312,0.9999566243544703,-167.4972623090298
7.549737984,0.9999559571145853,-169.49579495005722
7.591623168,0.9999559963378495,-171.4939803633146
7.63350784,0.999956351316079,-173.491797995114
7.675392512,0.9999571773816189,-175.4892084833834
7.717277696,0.999958471827997,-177.48619967199986
7.759162368,0.9999603398641169,-179.48275889392917
7.80104704,0.9999626371317546,178.52112292489699
7.842931712,0.9999652568868101,176.52547347189412
7.884816896,0.9999682945835237,174.53031565069287
7.926701568,0.999971597809119,172.53566429901903
7.96858624,0.9999753324869561,170.54154872238422
8.010471424,0.9999793695673306,168.5479552981474
8.052356096,0.9999835803794307,166.5549357438075
8.094240768,0.9999880272027103,164.5625029232842
8.13612544,0.9999926497478615,162.57066896919378
8.178010624,0.9999973375477147,160.579435864302
8.219895296,1.0000021634206029,158.58883378027804
8.261779968,1.0000068480856863,156.59892486915837
8.303665152,1.0000115048062703,154.60965377364477
8.345549824,1.0000161143122013,152.62105643405948
8.387434496,1.0000206751298204,150.6331548864953
8.429319168,1.000024946062896,148.64602833762632
8.471204352,1.0000290120816193,146.6596003962585
8.513089024,1.0000326160312614,144.67393328034595
8.554973696,1.0000361728210188,142.68905653561953
8.59685888,1.0000390811338107,140.7049512208143
8.638743552,1.0000418159725952,138.72164973336083
8.680628224,1.0000440948892786,136.73920112286157
8.722512896,1.0000458564918258,134.7575559758669
8.764397568,1.0000472456086686,132.77677947417507
8.80628224,1.0000480439865642,130.79686798033748
8.848167936,1.0000483513783893,128.81783720936485
8.890052608,1.0000481801200791,126.83971307770696
8.93193728,1.0000474634627863,124.8624949589817
8.973821952,1.0000462612256842,122.88619421932398
9.015706624,1.0000445815043877,120.91085112900358
9.057591296,1.0000423583240836,118.93643772661723
9.099475968,1.0000398226501535,116.96299949917625
9.141361664,1.000036783366664,114.99053450457592
9.183246336,1.0000334615139141,113.01905021756909
9.225131008,1.0000295883367185,111.04856396379613
9.26701568,1.0000254549458243,109.07909053948164
9.308900352,1.0000210501117632,107.1106284937339
9.350785024,1.0000165098054807,105.14319120270552
9.392669696,1.0000116427617503,103.17676508792948
9.434555392,1.0000066109020604,101.21137576001574
9.476440064,1.0000016516097312,99.24703749802174
9.518324736,0.9999966079386079,97.28371775649332
9.560209408,0.9999914872743871,95.32147905416603
9.60209408,0.9999866206547786,93.360273118223
9.643978752,0.9999817028805187,91.4001322951878
9.685863424,0.9999771326271955,89.44103990639843
9.72774912,0.9999726671488134,87.48301474301485
9.769633792,0.9999685610035985,85.52603511491571
9.811518464,0.9999647750444309,83.57011323330693
9.853403136,0.9999613125709861,81.61524473662408
9.895287808,0.9999583192500779,79.66143497008828
9.93717248,0.9999558292092258,77.70866668222598
9.979057152,0.9999537744116742,75.75695761467169
10.020942848,0.9999521379892098,73.8062629220799
10.06282752,0.9999510722447752,71.85664449061869
10.104712192,0.9999504907605375,69.90804058109903
10.146596864,0.9999505690505703,67.96047651597428
10.188481536,0.9999511203870269,66.01392304820708
10.230366208,0.9999522331624031,64.06838113290478
10.27225088,0.9999539197707691,62.1238421203108
10.314136576,0.9999560897391397,60.180309341015445
10.356021248,0.9999586795538765,58.23776512390144
10.39790592,0.9999618652620578,56.29621020002823
10.439790592,0.9999653910781519,54.35562400748291
10.481675264,0.9999693977655337,52.41600740118319
10.523559936,0.9999737606328911,50.47736049638566
10.565444608,0.9999784021584888,48.53965254834432
10.607330304,0.9999833353250697,46.60289759475666
10.649214976,0.9999885007654201,44.66706319899687
10.691099648,0.9999938060736243,42.732156938063696
10.73298432,0.9999992072959165,40.79817326588073
10.774868992,1.0000047203893987,38.865089167560704
10.816753664,1.0000101889268007,36.9328966324937
10.858638336,1.0000156045124815,35.00159704257526
10.900524032,1.0000208690582713,33.07118023206067
10.942408704,1.0000259841636254,31.14162087922275
10.984293376,1.0000307631595664,29.212931702067145
11.026178048,1.0000353205825987,27.285096111996417
11.06806272,1.0000394769007814,25.358111199286363
11.109947392,1.0000433415690464,23.43194016362642
11.151832064,1.0000467395150388,21.50660622055645
11.19371776,1.000049567041399,19.58208314403884
11.235602432,1.0000519569863693,17.658370120057217
11.277487104,1.0000537729561885,15.735458740207235
11.319371776,1.0000550300480333,13.813324702149991
11.361256448,1.000055680306471,11.891993274144182
11.40314112,1.000055791817737,9.971389265873766
11.445025792,1.0000551942838232,8.05159042626658
11.486911488,1.0000541082959462,6.1325033207166255
11.52879616,1.0000524287149588,4.2141811755816345
11.570680832,1.0000502004622305,2.2965714705813087
11.612565504,1.0000472307669768,0.3796894161358879
11.654450176,1.000044014074696,-1.5364817801415118
11.696334848,1.0000401344152148,-3.4519664269656376
11.73821952,1.000035747022685,-5.366774522454019
11.780105216,1.0000311110521036,-7.2808942114094855
11.821989888,1.0000260349701224,-9.194370368824508
11.86387456,1.0000206256157835,-11.107209217701334
11.905759232,1.0000149735123,-13.019384672105376
11.947643904,1.0000090799956116,-14.930972921291232
11.989528576,1.0000031991903071,-16.841946201219688
12.031413248,0.9999971385925239,-18.752346372799167
12.07329792,0.9999911270438345,-20.662183510015304
12.115183616,0.9999852080174305,-22.571466294012737
12.157068288,0.9999793893662957,-24.48019572669776
12.19895296,0.9999736446709196,-26.388435016295965
12.240837632,0.9999683367509219,-28.296160279838766
12.282722304,0.9999632149995801,-30.20339894709183
12.324606976,0.9999584874042292,-32.11018170891506
12.366491648,0.9999542640860835,-34.01653723885149
12.408377344,0.9999504455843673,-35.922453452273935
12.450262016,0.9999472242161865,-37.827973330534974
12.492146688,0.9999444339927933,-39.733112512432335
12.53403136,0.9999423948634032,-41.63790999022402
12.575916032,0.9999408700324965,-43.54234960539495
12.617800704,0.9999399808097206,-45.44648629572437
12.659685376,0.9999397653587574,-47.350308582112845
12.701571072,0.999940394103545,-49.25388866299532
12.743455744,0.9999414058456875,-51.15720495671584
12.785340416,0.9999432475670895,-53.060293158706884
12.827225088,0.9999455858911298,-54.96317747580968
12.86910976,0.9999486339568773,-56.86586972209188
12.910994432,0.9999522866219914,-58.768413455687295
12.952879104,0.9999565068190875,-60.67080603956321
12.9947648,0.9999612565580285,-62.57309260104277
13.036649472,0.999966362575353,-64.47526915506991
13.078534144,0.9999719744945754,-66.37737374454059
13.120418816,0.9999778828639316,-68.27942961422657
13.162303488,0.9999841585012867,-70.18143908630061
13.20418816,0.9999905692319367,-72.08344830921625
13.246072832,0.9999972313338763,-73.98545513310235
13.287958528,1.0000039120723838,-75.88748776389299
13.3298432,1.0000106708717165,-77.78955576733703
13.371727872,1.0000173562429082,-79.69168934591806
13.413612544,1.0000238814496556,-81.59390123849788
13.455497216,1.0000302204390261,-83.49621846993585
13.497381888,1.000036325922519,-85.39863620328288
13.53926656,1.0000420950253217,-87.30118584921419
13.581152256,1.000047422329087,-89.20388331141329
13.623036928,1.0000522698841872,-91.10672904523027
13.6649216,1.000056615539802,-93.00976880947627
13.706806272,1.0000604654415037,-94.9129752196912
13.748690944,1.0000636286616684,-96.81641418793279
13.790575616,1.0000662166342484,-98.72003820381671
13.832460288,1.000068025387717,-100.62391094755866
13.874345984,1.000069115924429,-102.52802256770829
13.916230656,1.0000694752997101,-104.43239636938384
13.958115328,1.0000691466970124,-106.33704587638725
14.0,1.0000679708377336,-108.24195493727709
