freq,mag,phase
6.0,1.0000141287752033,-12.987287260602843
6.041884672,1.0000131018654235,-14.371007762835399
6.083769856,1.000011567019111,-15.755348260262123
6.125654528,1.0000098099526626,-17.14036176356318
6.1675392,1.0000078815175888,-18.526008796299493
6.209423872,1.0000060308883425,-19.91230849818444
6.251309056,1.0000040836796633,-21.299311835449643
6.293193728,1.000002058998195,-22.686966967919442
6.3350784,0.9999999656700597,-24.075253988753772
6.376963584,0.9999980647778768,-25.464231748121957
6.418848256,0.9999960046377595,-26.85385089222967
6.460732928,0.9999942439380034,-28.244163177709716
6.5026176,0.9999924034244587,-29.63512792447583
6.544502784,0.9999907460590278,-31.026757386712053
6.586387456,0.9999892468179287,-32.41905617870413
6.628272128,0.9999879244186197,-33.81204652173793
6.670157312,0.9999866475452588,-35.20566595491011
6.712041984,0.9999856568583165,-36.59998282461172
6.753926656,0.9999849057541518,-37.994974408317205
6.795811328,0.9999844275103833,-39.39062191077851
6.837696512,0.999984106403905,-40.78699304880753
6.879581184,0.9999841028351971,-42.18400853038289
6.921465856,0.9999842109883931,-43.58170793732165
6.96335104,0.9999844911658675,-44.98007487429591
7.005235712,0.9999852347159,-46.37914352645232
7.047120384,0.9999860853708918,-47.778880652141495
7.089005056,0.9999871487172862,-49.17931059502977
7.13089024,0.9999884128372143,-50.580425411195264
7.172774912,0.9999898863954299,-51.982203397399694
7.214659584,0.9999914996896332,-53.38466513984584
7.256544256,0.9999933073301084,-54.78784039086996
7.29842944,0.9999952101641054,-56.191693847182435
7.340314112,0.9999971270390247,-57.596206140825714
7.382198784,0.9999992296970621,-59.001419846258436
7.424083968,1.000001394543179,-60.40733247354637
7.46596864,1.0000035615394431,-61.81389299661025
7.507853312,1.0000056319571409,-63.22112926159707
7.549737984,1.0000078405771269,-64.62909056558719
7.591623168,1.0000098301992932,-66.03770069598184
7.63350784,1.000011853727988,-67.4469597950286
7.675392512,1.000013655485016,-68.85691984814487
7.717277696,1.0000152738821133,-70.26753680844571
7.759162368,1.0000169587980066,-71.67882019603093
7.80104704,1.0000183068624995,-73.09075661573809
7.842931712,1.0000193327447342,-74.50336363976547
7.884816896,1.0000203651844506,-75.91661166975051
7.926701568,1.0000211599211688,-77.3305119287356
7.96858624,1.0000216569797726,-78.7451021325942
8.010471424,1.0000218232566442,-80.16029443915677
8.052356096,1.0000218664633176,-81.57610628319178
8.094240768,1.0000216304164788,-82.99256775357668
8.13612544,1.0000211062978317,-84.40968570199531
8.178010624,1.0000203313618,-85.82738612980728
8.219895296,1.000019401038452,-87.2457146766048
8.261779968,1.0000182596438092,-88.6646598910668
8.303665152,1.0000169348641699,-90.08420766637182
8.345549824,1.000015241013876,-91.50436162217184
8.387434496,1.000013534704122,-92.92514722970733
8.429319168,1.0000116380846713,-94.34648417213039
8.471204352,1.000009648734443,-95.76843889077733
8.513089024,1.0000075088291207,-97.1909650735179
8.554973696,1.0000053014298647,-98.61408684180488
8.59685888,1.0000030873386236,-100.03773677520903
8.638743552,1.0000007947160396,-101.4619873785076
8.680628224,0.9999985998033114,-102.8868562651874
8.722512896,0.9999963791407951,-104.31222250374222
8.764397568,0.9999943081314376,-105.73816260926806
8.80628224,0.9999922468329815,-107.16468463158321
8.848167936,0.9999903725668468,-108.59171358054095
8.890052608,0.9999886166413399,-110.01932843722055
8.93193728,0.9999870037036481,-111.44745524400739
8.973821952,0.9999856962849369,-112.87614657243846
9.015706624,0.9999844878077554,-114.30535594660427
9.057591296,0.9999835677344172,-115.73511994395541
9.099475968,0.99998289650041,-117.1653975664142
9.141361664,0.9999824256652968,-118.59620537472395
9.183246336,0.9999822274855917,-120.0275217739556
9.225131008,0.9999822968987676,-121.45935376547465
9.26701568,0.9999826830651031,-122.89171788335722
9.308900352,0.9999832644992749,-124.32457644903018
9.350785024,0.9999840861098618,-125.75793321653362
9.392669696,0.9999851598702579,-127.1918266421865
9.434555392,0.9999864196021135,-128.62617325982865
9.476440064,0.9999879558159278,-130.06105177990298
9.518324736,0.9999896871702025,-131.49638856777275
9.560209408,0.9999915860587871,-132.93220910431472
9.60209408,0.9999934942180664,-134.36851542624126
9.643978752,0.9999956644311238,-135.80530554652074
9.685863424,0.9999979570943975,-137.2425234049942
9.72774912,1.0000002425074852,-138.68022382821346
9.769633792,1.0000026142844942,-140.11839209466427
9.811518464,1.0000049666490753,-141.5569780164386
9.853403136,1.0000072204597878,-142.99602112234544
9.895287808,1.0000095461342982,-144.43548270860498
9.93717248,1.0000117402186683,-145.87539141786056
9.979057152,1.000013879293418,-147.3157175612746
10.020942848,1.0000157941586219,-148.75644098230165
10.06282752,1.000017525747031,-150.19755652690597
10.104712192,1.0000191607667617,-151.63908521352948
10.146596864,1.0000204825106633,-153.08099827593549
10.188481536,1.000021665325837,-154.52327310420375
10.230366208,1.0000225210289102,-155.96592064108557
10.27225088,1.0000231704538516,-157.40894044586395
10.314136576,1.000023556004597,-158.85229132598025
10.356021248,1.00002364466561,-160.29598699613618
10.39790592,1.0000234292782768,-161.7400172412811
10.439790592,1.000022971007818,-163.18435252122117
10.481675264,1.000022213634774,-164.62902386621363
10.523559936,1.0000212083090436,-166.07397376154074
10.565444608,1.0000199774785852,-167.5192290342967
10.607330304,1.00001847058997,-168.96475303122236
10.649214976,1.000016689937091,-170.41058089242546
10.691099648,1.0000148896326633,-171.85663230093763
10.73298432,1.0000127703883723,-173.3029482041179
10.774868992,1.000010503123269,-174.74952088726704
10.816753664,1.000008106588196,-176.19631918595346
10.858638336,1.000005594761327,-177.64334392985302
10.900524032,1.0000031158749707,-179.09059016885664
10.942408704,1.0000005206236777,179.46195681365657
10.984293376,0.9999978826837452,178.01431141733295
11.026178048,0.9999953931869171,176.5664749068416
11.06806272,0.9999928985281779,175.11844474013026
11.109947392,0.9999904917908308,173.67025256398063
11.151832064,0.9999882448088152,172.22189479778285
11.19371776,0.999986059429762,170.77337036520674
11.235602432,0.99998426176903,169.3247004076273
11.277487104,0.9999824756565722,167.87587718783473
11.319371776,0.9999810057414642,166.42691093562541
11.361256448,0.9999797911273501,164.9778384379565
11.40314112,0.9999787642231933,163.52862833756905
11.445025792,0.9999780720308453,162.0793134695055
11.486911488,0.9999777405327842,160.629890179926
11.52879616,0.9999776283255356,159.1803566474752
11.570680832,0.9999777630113234,157.7307276125638
11.612565504,0.9999783984114837,156.2810236439484
11.654450176,0.9999791942489923,154.83122721857248
11.696334848,0.999980273118002,153.38138158171097
11.73821952,0.9999815740107384,151.93145315146165
11.780105216,0.9999831724077156,150.48147538211416
11.821989888,0.9999850749070093,149.03142263187524
11.86387456,0.9999872052908683,147.58135096580244
11.905759232,0.9999894803768902,146.13123497878485
11.947643904,0.9999919131657763,144.68108714808977
11.989528576,0.9999944795834691,143.2309397776686
12.031413248,0.999997145980466,141.7807573323408
12.07329792,0.9999999854549787,140.3305732686833
12.115183616,1.0000027087550474,138.88040273542674
12.157068288,1.000005506761229,137.43024125065998
12.19895296,1.0000082120448575,135.9800914986266
12.240837632,1.000010868038252,134.5300050310036
12.282722304,1.0000135816593168,133.07993203556543
12.324606976,1.0000160335528976,131.62992367399877
12.366491648,1.0000182529150288,130.17996913276656
12.408377344,1.00002025011418,128.73008347005793
12.450262016,1.0000221603597514,127.28029490521524
12.492146688,1.0000237443116273,125.8305857925473
12.53403136,1.0000250391606607,124.38098510121475
12.575916032,1.0000260379679609,122.93150151235623
12.617800704,1.0000267653745807,121.48212682643845
12.659685376,1.0000270612107074,120.03290048130694
12.701571072,1.0000271849657612,118.58382625440325
12.743455744,1.0000268559882388,117.13489512450231
12.785340416,1.0000262970505003,115.68613177086124
12.827225088,1.0000253118328717,114.23754934770436
12.86910976,1.0000240348029281,112.78915760932334
12.910994432,1.0000224938708409,111.34096673467491
12.952879104,1.0000206156619063,109.89297802432074
12.9947648,1.0000185186809807,108.4452092163635
13.036649472,1.0000161610880147,106.99768411445183
13.078534144,1.0000135464229643,105.55038788179306
13.120418816,1.0000107955468385,104.10334934626236
13.162303488,1.0000078472976917,102.65657488794602
13.20418816,1.0000047567676564,101.21006687997689
13.246072832,1.0000017314190108,99.76383442153201
13.287958528,0.9999985993849954,98.31788124633641
13.3298432,0.999995371593577,96.87223597008811
13.371727872,0.9999922071741241,95.4268946890762
13.413612544,0.9999891809535376,93.9818677328886
13.455497216,0.9999862947588775,92.53715577614938
13.497381888,0.9999835586804583,91.09274884580013
13.53926656,0.9999808878035442,89.64869906118552
13.581152256,0.9999785739202929,88.20499047400608
13.623036928,0.9999764117527822,86.76161084469163
13.6649216,0.9999747470642073,85.31860664161044
13.706806272,0.9999732719791918,83.875956606109
13.748690944,0.9999721015695093,82.43366207630811
13.790575616,0.9999712587334172,80.99172159528585
13.832460288,0.999970895415679,79.55017737727914
13.874345984,0.999970870205529,78.10900678159788
13.916230656,0.9999712378499724,76.66821533657024
13.958115328,0.999971997377588,75.22781271898704
14.0,0.9999731056432629,73.7877964256738
