freq,mag,phase
6.0,1.0001930745903722,168.01886691960976
6.002285568,1.0002377726030294,167.85900453861436
6.004571648,1.0002682361954183,167.6985480644975
6.006857216,1.0002814311896853,167.53780832740765
6.009142784,1.000276590813781,167.37704527318442
6.011428352,1.0002540573607486,167.21647214985566
6.013714432,1.000215163471886,167.05636509954226
6.016,1.0001623431951128,166.8968974196768
6.018285568,1.000099163113558,166.73831770798267
6.020571648,1.0000291348922627,166.5806872900252
6.022857216,0.9999570282913741,166.4241031849513
6.025142784,0.9998873733344237,166.26857360799062
6.027428352,0.9998244871043114,166.11397380578524
6.029714432,0.9997724254637547,165.96027529844818
6.032,0.9997344128036932,165.80721002957688
6.034285568,0.9997130160849028,165.65458787052484
6.036571648,0.9997091335245458,165.5021614411807
6.038857216,0.9997237164054558,165.34966898945453
6.041142784,0.999755362839239,165.19687569713494
6.043428352,0.9998020901131646,165.043481568252
6.045714432,0.9998611380879208,164.88934946739977
6.048,0.9999286757960452,164.7342986724937
6.050285568,1.0000005510328118,164.5782715955879
6.052571648,1.0000721724845276,164.4211990853621
6.054857216,1.0001388483511655,164.26313317508692
6.057142784,1.0001966480762858,164.10416736738088
6.059428352,1.000241604197367,163.9444828334295
6.061714432,1.0002713270856052,163.78425828212647
6.064,1.0002834325744054,163.6237355186983
6.066285568,1.0002773809174594,163.46314952680774
6.068571648,1.0002535875297867,163.30282876991842
6.070857216,1.000213607532352,163.14298022199887
6.073142784,1.0001596255215335,162.98381476238887
6.075428352,1.0000953103357684,162.82551639325814
6.077714432,1.0000246910674397,162.66818742484998
6.08,0.9999522770113856,162.51193287970605
6.082285568,0.9998824583929883,162.35672088794826
6.084571648,0.9998197878972865,162.2024498654825
6.086857216,0.9997681289867896,162.04906890190563
6.089142784,0.9997308980201061,161.89629085163136
6.091428352,0.9997104050457422,161.74397772665526
6.093714432,0.9997078260217879,161.59183576783875
6.096,0.999723561419003,161.4396063888538
6.098285568,0.9997564022625766,161.2870243324937
6.100571648,0.9998042855529259,161.13389078781879
6.102857216,0.9998643721216459,160.97997341043487
6.105142784,0.9999328469287359,160.82513357276216
6.107428352,1.0000052366602583,160.66929075026877
6.109714432,1.000077110503098,160.51239839404553
6.112,1.0001437973917948,160.3544981096447
6.114285568,1.0002012101838431,160.19572594439097
6.116571648,1.000245567105174,160.03623301538337
6.118857216,1.000274206381135,159.87620656922624
6.121142784,1.0002853494734831,159.71590611355475
6.123428352,1.000278080940616,159.55560582082936
6.125714432,1.0002530048822498,159.3955237885778
6.128,1.0002116486864001,159.23592509247504
6.130285568,1.0001567237030269,159.0770627375731
6.132571648,1.0000914411915425,158.91907196383676
6.134857216,1.0000201390253123,158.76209934431714
6.137142784,0.9999472658353551,158.60616169032892
6.139428352,0.9998772983877009,158.4512463033246
6.141714432,0.9998149491968609,158.2973467592594
6.144,0.9997638402379259,158.1442761657073
6.146285568,0.9997273653465949,157.991823424639
6.148571648,0.9997079342510359,157.8398330148331
6.150857216,0.9997064567156788,157.6879505544948
6.153142784,0.9997234291678543,157.53600491594526
6.155428352,0.9997575394161526,157.38370547958993
6.157714432,0.999806695465045,157.230813056959
6.16,0.9998678268988086,157.07710324275834
6.162285568,0.9999370699357204,156.92247976188716
6.164571648,1.000010047977907,156.76684576670044
6.166857216,1.0000820062673716,156.6101457949619
6.169142784,1.0001487225495498,156.45246660756186
6.171428352,1.0002056992588704,156.29390059444634
6.173714432,1.0002495488966832,156.13459375172405
6.176,1.0002772408340865,155.97480802565013
6.178285568,1.0002870593046271,155.81473740117045
6.180571648,1.0002787084109288,155.65467994585424
6.182857216,1.0002523352629387,155.49486220358347
6.185142784,1.0002097841416127,155.33557170666003
6.187428352,1.0001536431472111,155.17702253417488
6.189714432,1.000087512750105,155.01934942069812
6.192,1.0000155543671674,154.86269018409754
6.194285568,0.9999421726093901,154.70708877860255
6.196571648,0.9998722152000279,154.55254563926533
6.198857216,0.9998099214341839,154.3989869047671
6.201142784,0.9997594820479236,154.24624663809652
6.203428352,0.9997238925907516,154.09415764676288
6.205714432,0.9997053404830816,153.9424663317237
6.208,0.999705194484654,153.79092069615538
6.210285568,0.9997234049898395,153.63927750733762
6.212571648,0.9997587805049646,153.48720804570905
6.214857216,0.9998091600282158,153.3345462932076
6.217142784,0.9998713096228687,153.1811063697103
6.219428352,0.9999413503798255,153.02670937461195
6.221714432,1.0000148894987078,152.87126540968794
6.224,1.00008714991193,152.7148159704937
6.226285568,1.0001537604070851,152.55730212649868
6.228571648,1.000210185240849,152.39896892336367
6.230857216,1.0002533133268636,152.239898254146
6.233142784,1.0002800632562325,152.08031813104796
6.235428352,1.0002888796746572,151.92048893792392
6.237714432,1.000279177839258,151.76070530889783
6.24,1.0002515336124704,151.6012041497304
6.242285568,1.0002077740987156,151.44219328180853
6.244571648,1.0001503872010937,151.28395052402652
6.246857216,1.000083400799814,151.12663223434288
6.249142784,1.0000105516653162,150.97031883025147
6.251428352,0.999937063666699,150.8151001675097
6.253714432,0.9998670314447281,150.6609180012231
6.256,0.9998050341793578,150.50771036964585
6.258285568,0.9997550996569692,150.35535058763105
6.260571648,0.9997202916155833,150.20357959714138
6.262857216,0.9997028237352183,150.05220903208087
6.265142784,0.9997039332463938,149.90097478360366
6.267428352,0.9997234801823962,149.74961128497665
6.269714432,0.9997601472918812,149.59785126541752
6.272,0.9998117208157267,149.44545815934347
6.274285568,0.9998749010654141,149.29224304622556
6.276571648,0.9999458033062854,149.1380813129945
6.278857216,1.0000199435202948,148.9828723231381
6.281142784,1.0000923712958638,148.82661154476105
6.283428352,1.0001587226641862,148.66936764957566
6.285714432,1.0002148609181851,148.51124290285708
6.288,1.0002572738596787,148.35238763639217
6.290285568,1.0002830583467104,148.19305283903083
6.292571648,1.0002906841038026,148.03351823984426
6.294857216,1.0002795859201457,147.8739823071319
6.297142784,1.0002506520245316,147.71476986289008
6.299428352,1.0002056383502071,147.55609057712078
6.301714432,1.0001471634150034,147.3981884454181
6.304,1.0000791778668043,147.2412179827089
6.306285568,1.0000057531147768,147.08527273321883
6.308571648,0.9999317133120211,146.93041241410046
6.310857216,0.9998616793081769,146.77662316319064
6.313142784,0.9998000025820997,146.62380596911885
6.315428352,0.9997506193974787,146.47176600267315
6.317714432,0.9997168254187188,146.3203628973003
6.32,0.9997005093079877,146.1693538177913
6.322285568,0.9997028154911565,146.01845417077493
6.324571648,0.9997235834702003,145.86739745589014
6.326857216,0.999761527326832,145.7159249427034
6.329142784,0.9998144434669104,145.56380963134993
6.331428352,0.9998786266304208,145.4108493533251
6.333714432,0.9999503188165427,145.2569192416215
6.336,1.0000249580766927,145.10194232137587
6.338285568,1.0000977236755577,144.94590284409932
6.340571648,1.0001639396214788,144.78887127486297
6.342857216,1.0002196746276872,144.6309542114994
6.345142784,1.0002611994654105,144.4723612199567
6.347428352,1.0002858878964236,144.31329596377688
6.349714432,1.0002924400550541,144.1540210782071
6.352,1.0002801003546269,143.9947977911316
6.354285568,1.0002497534038357,143.83588155332438
6.356571648,1.000203393025282,143.6775476008785
6.358857216,1.0001438890562007,143.5199717875701
6.361142784,1.0000747713228038,143.36336998497407
6.363428352,1.000000800004443,143.20778888742964
6.365714432,0.999926439818528,143.0533171603424
6.368,0.9998563520860766,142.89990563603524
6.370285568,0.9997950472060393,142.74745809281922
6.372571648,0.9997462495434951,142.59584576641467
6.374857216,0.9997132497543132,142.44479694488342
6.377142784,0.9996980813228709,142.2941220703373
6.379428352,0.9997016992285516,142.14353123318526
6.381714432,0.999723860136064,141.9928047463264
6.384,0.9997632436733852,141.84165508258064
6.386285568,0.9998171623602826,141.68982543160132
6.388571648,0.9998825899578994,141.53711833164968
6.390857216,0.9999550686744821,141.38342902865688
6.393142784,1.0000301038518231,141.22870873061225
6.395428352,1.000102950954693,141.07290259186576
6.397714432,1.000169172480414,140.9161160842217
6.4,1.0002243578458214,140.75845394823202
6.402285568,1.0002650095487486,140.60009283502131
6.404571648,1.0002887628786903,140.44129768571793
6.406857216,1.0002939935234385,140.28227187214824
6.409142784,1.0002804150946798,140.12336814654603
6.411428352,1.0002486379905016,139.96476706603698
6.413714432,1.000201047830099,139.80675962435927
6.416,1.0001402774338153,139.64955465621634
6.418285568,1.0000704886445313,139.49330485770858
6.420571648,0.999995788791399,139.33814639503956
6.422857216,0.9999210330430122,139.18406231000407
6.425142784,0.9998509277279525,139.03101751803712
6.427428352,0.9997899172374244,138.87896635619256
6.429714432,0.9997418366466624,138.7277301914385
6.432,0.9997096794688255,138.57706561100898
6.434285568,0.99969575266602,138.4267576671205
6.436571648,0.9997006082664868,138.27652849409176
6.438857216,0.9997241505470863,138.12611968602874
6.441142784,0.9997648833169229,137.97525778668415
6.443428352,0.9998201635883689,137.8236985019072
6.445714432,0.9998864910506866,137.67127823070882
6.448,0.9999597746742468,137.5178449670204
6.450285568,1.0000354067055623,137.36336396705994
6.452571648,1.0001084228465358,137.20782018345125
6.454857216,1.0001743608612734,137.05124997848608
6.457142784,1.0002290508727572,136.89383844627125
6.459428352,1.000268990104652,136.73574012700783
6.461714432,1.000291705883968,136.5772069819598
6.464,1.0002956507332597,136.4184999885533
6.466285568,1.0002806136794309,136.25987009327187
6.468571648,1.00024758147729,136.1016415926755
6.470857216,1.000198524556915,135.94396946445067
6.473142784,1.000136672660982,135.78711525865626
6.475428352,1.0000658239173081,135.63127227695657
6.477714432,0.9999904760931153,135.47648142763032
6.48,0.9999153730963731,135.32279124639803
6.482285568,0.9998453315832943,135.17019044490695
6.484571648,0.9997847912876285,135.01854269098564
6.486857216,0.9997373768083692,134.86767555562724
6.489142784,0.9997062421486649,134.7173896195946
6.491428352,0.9996934423404913,134.56747474269838
6.493714432,0.9996996200776392,134.41758827943391
6.496,0.9997246542259228,134.2675057457077
6.498285568,0.9997666656907286,134.11695513757962
6.500571648,0.9998232714994382,133.9656845670652
6.502857216,0.99989067207872,133.81352602784855
6.505142784,0.9999647336361156,133.66038125401028
6.507428352,1.0000407932296067,133.50615108124646
6.509714432,1.0001139523868532,133.35082243412552
6.512,1.0001797936180747,133.19450803115302
6.514285568,1.000233902211802,133.03734916382336
6.516571648,1.0002729007280091,132.87953479099332
6.518857216,1.000294568158821,132.72129540116697
6.521142784,1.0002972648437825,132.56286875014464
6.523428352,1.0002808356985318,132.40458247492333
6.525714432,1.0002464216520286,132.24665185485938
6.528,1.0001960887445576,132.0893441208866
6.530285568,1.000132995017662,131.93287823784905
6.532571648,1.0000613025352822,131.77739885330982
6.534857216,0.9999852451492531,131.62303915635832
6.537142784,0.9999098340022431,131.46973949251648
6.539428352,0.9998399730681814,131.31754936994417
6.541714432,0.9997795445813129,131.16630439438035
6.544,0.9997328826048479,131.01584416101653
6.546285568,0.9997028929147765,130.86596118956317
6.548571648,0.9996912254953377,130.7164053779981
6.550857216,0.9996988206382265,130.56689272825858
6.553142784,0.9997252040259669,130.41713065278475
6.555428352,0.9997685841218024,130.26689738357493
6.557714432,0.9998264115446479,130.11591048120795
6.56,0.9998949394665293,129.96406644379368
6.562285568,0.9999697926076008,129.81116160538642
6.564571648,1.000046374814073,129.65717504775327
6.566857216,1.0001196788630764,129.50212922215488
6.569142784,1.0001852235305828,129.34608037790375
6.571428352,1.0002386825234815,129.1891798969086
6.573714432,1.0002768972530636,129.0316174561569
6.576,1.000297320453758,128.8736647171212
6.578285568,1.000298710399376,128.7155467640552
6.580571648,1.0002809329035998,128.55757061050875
6.582857216,1.0002450743569566,128.39997634571168
6.585142784,1.0001933972767945,128.24304958399418
6.587428352,1.0001292361883911,128.08696613911528
6.589714432,1.0000564982617735,127.93189861680388
6.592,0.9999798873630046,127.77791623443044
6.594285568,0.9999041598647196,127.62506246516827
6.596571648,0.9998342242787256,127.47327776755061
6.598857216,0.9997743394227078,127.3224614788083
6.601142784,0.9997284287458722,127.17241515235621
6.603428352,0.9996994629221367,127.02292981170358
6.605714432,0.9996891401677787,126.87372647408665
6.608,0.9996980514608989,126.72458095243925
6.610285568,0.9997258486447381,126.5751707481352
6.612571648,0.9997705872709457,126.42525172921185
6.614857216,0.9998296410269323,126.27457961153193
6.617142784,0.9998992480479546,126.1229664963624
6.619428352,0.9999748958417921,125.97035205659854
6.621714432,1.0000518378552505,125.81662447423126
6.624,1.0001252385996375,125.66184171006667
6.626285568,1.000190613200957,125.50605231400245
6.628571648,1.0002435244363843,125.34941268831524
6.630857216,1.0002808859095582,125.1921291835382
6.633142784,1.0003000410953278,125.034462273444
6.635428352,1.000300114431503,124.87665995881652
6.637714432,1.0002808040952305,124.71900309624249
6.64,1.0002435553540476,124.56177174572196
6.642285568,1.0001905148101897,124.40522558017737
6.644571648,1.0001251836532647,124.24952551372735
6.646857216,1.0000515638842091,124.09485539678796
6.649142784,0.9999742935463573,123.94130586314317
6.651428352,0.9998983549246798,123.78886626512814
6.653714432,0.9998284854533284,123.63751387090517
6.656,0.9997690063968421,123.48709326553302
6.658285568,0.9997240693852616,123.33745910328135
6.660571648,0.9996960151213875,123.1883822761032
6.662857216,0.9996869518135596,123.0396045214748
6.665142784,0.9996973341335555,122.89079353797514
6.667428352,0.999726542648102,122.74171194392427
6.669714432,0.9997727768318386,122.59212637957486
6.672,0.9998330914735364,122.44175267849997
6.674285568,0.9999037093038593,122.29044211891006
6.676571648,0.9999801765142309,122.13810141780877
6.678857216,1.0000575652421735,121.98462808642435
6.681142784,1.000131097580594,121.8300968922501
6.683428352,1.0001960992957748,121.67455137129159
6.685714432,1.000248407491616,121.51819806402973
6.688,1.000284714148361,121.36119356060385
6.690285568,1.0003028252145436,121.20382020318232
6.692571648,1.0003014830527743,121.04634061853098
6.694857216,1.000280697766571,120.88900323177737
6.697142784,1.0002419484001261,120.7321358935682
6.699428352,1.0001875509419973,120.57597354341435
6.701714432,1.0001210196055692,120.42065147100826
6.704,1.0000464093611827,120.26638322811498
6.706285568,0.9999685726561924,120.11327033721011
6.708571648,0.9998924300236116,119.96126868522457
6.710857216,0.9998226371612564,119.8103166583877
6.713142784,0.9997637956034172,119.66035566143407
6.715428352,0.9997194617297451,119.51111879035992
6.717714432,0.9996925711131275,119.3624470862458
6.72,0.9996848570503039,119.21402903031179
6.722285568,0.9996967061298712,119.06558515063811
6.724571648,0.9997273706417165,118.91687571073918
6.726857216,0.9997751216022497,118.76760322118373
6.729142784,0.9998367582108887,118.61752283509834
6.731428352,0.9999083829492084,118.46651003401847
6.733714432,0.9999855674018329,118.31442217225705
6.736,1.0000634759960816,118.16123382055952
6.738285568,1.000137036301901,118.00697037947347
6.740571648,1.0002017232354423,117.8516991595356
6.742857216,1.0002532945503442,117.69560486553972
6.745142784,1.000288690899119,117.5388850196496
6.747428352,1.0003055084210977,117.38178950140141
6.749714432,1.000302721673676,117.22463588046814
6.752,1.000280548713407,117.06764724785386
6.754285568,1.0002402676465665,116.91114877861843
6.756571648,1.0001845518675525,116.75532883664317
6.758857216,1.0001167855839712,116.60044779280143
6.761142784,1.0000413362464557,116.44659582430901
6.763428352,0.9999628187367179,116.29389653638411
6.765714432,0.9998864319387745,116.14232244471498
6.768,0.999816798112336,115.99182753559921
6.770285568,0.9997584783086534,115.8422661683993
6.772571648,0.999715003199632,115.69346390782447
6.774857216,0.9996892630670996,115.54518350264763
6.777142784,0.9996828419805437,115.39716181206644
6.779428352,0.9996961817400377,115.24908003243307
6.781714432,0.9997284884197456,115.10071097224103
6.784,0.9997776322772528,114.95175450121901
6.786285568,0.9998403947731958,114.80197913106196
6.788571648,0.9999131548463769,114.65127601047521
6.790857216,0.9999911915619251,114.499450848397
6.793142784,1.000069386028752,114.34651649509158
6.795428352,1.0001430080343863,114.19251565123407
6.797714432,1.0002073271442105,114.0375140245881
6.8,1.0002582462144043,113.88168300974934
6.802285568,1.0002925574773487,113.72525201273078
6.804571648,1.000308100826244,113.56848062075069
6.806857216,1.0003039448871642,113.4116157186819
6.809142784,1.000280238501753,113.25497613267108
6.811428352,1.0002384869434562,113.09882760867677
6.813714432,1.0001813865404883,112.94341236105448
6.816,1.0001123482844272,112.78892832042125
6.818285568,1.0000360085982976,112.63549185835203
6.820571648,0.9999569843845085,112.48323151481065
6.822857216,0.9998803034744418,112.33208760831768
6.825142784,0.9998108658074023,112.1820381488333
6.827428352,0.9997530122863512,112.0329113496136
6.829714432,0.9997104517247074,111.88452564874534
6.832,0.9996858648361469,111.73666889033092
6.834285568,0.999680872484227,111.58900842263294
6.836571648,0.9996957154765883,111.44132937619817
6.838857216,0.9997295103178945,111.29328355077561
6.841142784,0.9997801097306702,111.14462863519604
6.843428352,0.9998443107083146,110.99518558207684
6.845714432,0.9999181908642493,110.84473695738315
6.848,0.9999969049703731,110.693197096598
6.850285568,1.000075432948712,110.54054536740423
6.852571648,1.0001491144387478,110.38678328094187
6.854857216,1.0002129797328296,110.2320487821067
6.857142784,1.0002631396547133,110.07650071356807
6.859428352,1.0002964330335098,109.92034499207307
6.861714432,1.0003107486820333,109.76386821535735
6.864,1.000305063136773,109.60733587001516
6.866285568,1.0002798290358261,109.45104523510159
6.868571648,1.0002365440727559,109.29525732982036
6.870857216,1.0001779553683947,109.14023004817837
6.873142784,1.000107843880752,108.98616206086731
6.875428352,1.000030544074814,108.83315277271977
6.877714432,0.9999509663585693,108.68130907892602
6.88,0.9998741016123025,108.53059676056051
6.882285568,0.9998049196565555,108.38099057978312
6.884571648,0.9997475295945977,108.2323066046308
6.886857216,0.999705907311528,108.08434486934493
6.889142784,0.9996826286805487,107.93687511593006
6.891428352,0.9996790304174495,107.78961857456828
6.893714432,0.9996954221882053,107.64227208447997
6.896,0.9997307383496664,107.4945907742161
6.898285568,0.999782779557641,107.3462733635461
6.900571648,0.9998483790150371,107.19710523930107
6.902857216,0.9999231640433475,107.0469633400947
6.905142784,1.000002621305448,106.89569099820632
6.907428352,1.0000816191666473,106.7432898177588
6.909714432,1.0001552799663815,106.58979489350509
6.912,1.0002187402136358,106.43531444775569
6.914285568,1.0002681092455408,106.28005078619945
6.916571648,1.0003003248826243,106.12417863857726
6.918857216,1.000313209374117,105.96799237472571
6.921142784,1.0003060016563943,105.81179472270527
6.923428352,1.0002792446109694,105.65585008501739
6.925714432,1.000234402999681,105.50043258968498
6.928,1.0001744566277728,105.3457962743055
6.930285568,1.000103133133334,105.19211755118775
6.932571648,1.0000249098019975,105.03955792013923
6.934857216,0.9999447162612742,104.88813305808671
