freq,mag,phase
6.0,0.9999297344906761,-153.84495107757164
6.002286592,0.9999384641140212,-153.97622498120052
6.004572672,0.9999517342767552,-154.10768120233604
6.006859264,0.9999681159103544,-154.23932590788579
6.009145344,0.9999865810622588,-154.3712129966289
6.011431936,1.0000059926285125,-154.50340314405108
6.013718016,1.0000250526396637,-154.6358188229893
6.016004608,1.0000424907200338,-154.76851453237464
6.018290688,1.0000573812476332,-154.90143190853436
6.02057728,1.0000687048027246,-155.03453156436294
6.022863872,1.0000756567699556,-155.16773914435439
6.025149952,1.0000778628082476,-155.30103185876104
6.027436544,1.0000751506645085,-155.43428738606076
6.029722624,1.0000677501399837,-155.56747887756873
6.032009216,1.0000561212286365,-155.7005329752822
6.034295296,1.0000408882465461,-155.83336188852186
6.036581888,1.000023167655597,-155.9659633367112
6.03886848,1.0000039348654577,-156.09825989328556
6.04115456,0.9999845960589941,-156.2303023350991
6.043441152,0.9999662689598129,-156.36201768264948
6.045727232,0.9999500758665782,-156.49349290715253
6.048013824,0.999937120398458,-156.62476706888717
6.050299904,0.9999281647726636,-156.75583849352265
6.052586496,0.9999238530857146,-156.88683404708888
6.054872576,0.9999243889994518,-157.0177763123806
6.057159168,0.9999298435795954,-157.14876786264622
6.05944576,0.9999397470122935,-157.27984601904697
6.06173184,0.9999535329717816,-157.4111069346323
6.064018432,0.9999703271349659,-157.54254885222605
6.066304512,0.9999890281822662,-157.67427404949825
6.068591104,1.000008502484131,-157.8062385471069
6.070877184,1.000027490221511,-157.9385067507317
6.073163776,1.0000447693021044,-158.071011837156
6.075450368,1.0000593504854334,-158.20375391317387
6.077736448,1.0000700418589183,-158.33665184775234
6.08002304,1.000076437934377,-158.4696579169943
6.08230912,1.0000780252345476,-158.60272054120986
6.084595712,1.0000746381638035,-158.73580186316644
6.086881792,1.000066634490438,-158.86874770864387
6.089168384,1.000054378307673,-159.00153242450966
6.091454464,1.000038807583502,-159.13413912738497
6.093741056,1.000020670815603,-159.26645326632567
6.096027648,1.0000013688061455,-159.3985293832284
6.098313728,0.9999819483791907,-159.5302913957891
6.10060032,0.9999638245559733,-159.66177089887978
6.1028864,0.9999479095638328,-159.79297892703192
6.105172992,0.999935334305401,-159.92400147871768
6.107459072,0.9999270033098446,-160.05485174865208
6.109745664,0.9999233015015228,-160.18559521366177
6.112032256,0.9999245299010442,-160.3163224162869
6.114318336,0.9999306182511527,-160.4470941406358
6.116604928,0.9999411985611575,-160.57795955879573
6.118891008,0.9999553735375988,-160.70900429611285
6.1211776,0.9999725459875395,-160.84029844859074
6.12346368,0.9999915278098227,-160.97180298294907
6.125750272,1.0000110984245962,-161.1035999036904
6.128036352,1.0000300060126865,-161.23565196948536
6.130322944,1.0000469616774346,-161.36797066263895
6.132609536,1.0000611318747217,-161.50051203266364
6.134895616,1.000071420816738,-161.63320074722827
6.137182208,1.000077194647094,-161.76601056913748
6.139468288,1.000078074396958,-161.89887016533666
6.14175488,1.000074101507857,-162.03169849042604
6.14404096,1.0000654358537278,-162.16441331920976
6.146327552,1.0000526919665422,-162.29696061306637
6.148614144,1.0000365858220017,-162.42931128332432
6.150900224,1.0000182638259683,-162.56137925285822
6.153186816,0.9999986479310715,-162.69315097159003
6.155472896,0.9999792920709549,-162.8246683039277
6.157759488,0.9999612598006578,-162.95586711100805
6.160045568,0.999945752581801,-163.08681912912712
6.16233216,0.9999337152736425,-163.21758726165214
6.16461824,0.9999259310094465,-163.34819532276143
6.166904832,0.9999228606505337,-163.47870570308993
6.169191424,0.9999246874956896,-163.60918816379552
6.171477504,0.999931465388038,-163.73972780479386
6.173764096,0.9999425091946977,-163.87039899890584
6.176050176,0.9999572447420318,-164.00123191089355
6.178336768,0.9999749733062346,-164.1323205791812
6.180622848,0.9999940450667558,-164.26362848892714
6.18290944,1.0000136531676498,-164.39525059059392
6.18519552,1.000032457866914,-164.5271141088783
6.187482112,1.0000491711342854,-164.6592241208377
6.189768704,1.0000629050502852,-164.79154129979662
6.192054784,1.0000725571911673,-164.9240448104875
6.194341376,1.000077701569075,-165.05663468338682
6.196627456,1.0000780121283002,-165.18923943911383
6.198914048,1.00007337347313,-165.32183347375704
6.201200128,1.0000640828572418,-165.45431277237032
6.20348672,1.00005079916987,-165.58661222810682
6.205773312,1.0000343392043212,-165.71868380987223
6.208059392,1.000015573340621,-165.85047904929712
6.210345984,0.9999959895535689,-165.98198875107988
6.212632064,0.9999767020930862,-166.11320380946478
6.214918656,0.9999588179486213,-166.24417333684065
6.217204736,0.9999436766205044,-166.3748637618368
6.219491328,0.9999320617569363,-166.50534299544162
6.221777408,0.9999248632203682,-166.6356851009686
6.224064,0.9999224912406023,-166.76594915904937
6.226350592,0.9999249733060102,-166.89620019988587
6.228636672,0.9999323920514176,-167.02650733147996
6.230923264,0.9999440128635673,-167.15694805972663
6.233209344,0.9999593068183087,-167.2876132690913
6.235495936,0.9999771898846007,-167.41844248625458
6.237782016,0.9999965734047122,-167.54958047084457
6.240068608,1.0000161883079124,-167.68096987613347
6.2423552,1.0000348528432434,-167.81264169833523
6.24464128,1.0000513299916123,-167.94454563710187
6.246927872,1.0000646166496867,-168.07668210497738
6.249213952,1.0000737220111213,-168.2089484213354
6.251500544,1.0000782582967083,-168.3413238647889
6.253786624,1.000077951975341,-168.4736864918985
6.256073216,1.0000726062001641,-168.60602535415163
6.258359296,1.0000627488286653,-168.73826042316878
6.260645888,1.0000488457442689,-168.87027255094642
6.26293248,1.0000318873781768,-169.0020684073409
6.26521856,1.0000130477048694,-169.1335996293831
6.267505152,0.9999933232818106,-169.26485014045434
6.269791232,0.9999739753217229,-169.39579577255617
6.272077824,0.9999564225051848,-169.52643683865062
6.274363904,0.9999416374947825,-169.6568558983673
6.276650496,0.9999305992627228,-169.78707940574296
6.278937088,0.9999240054461096,-169.9171668164979
6.281223168,0.9999221594561206,-170.04719050003573
6.28350976,0.9999254243244492,-170.17718674779323
6.28579584,0.9999334018256645,-170.3072664415028
6.288082432,0.9999456737421532,-170.43749181164944
6.290368512,0.9999613979171345,-170.56788741675138
6.292655104,0.9999796264642604,-170.69853778525018
6.294941184,0.9999991580593472,-170.8294727110137
6.297227776,1.0000188260307854,-170.96066842784208
6.299514368,1.0000373388175918,-171.09212403616672
6.301800448,1.000053466155666,-171.22381654420565
6.30408704,1.0000662530582551,-171.35573209545953
6.30637312,1.0000748647892053,-171.4877643096008
6.308659712,1.0000788526455524,-171.61990817578413
6.310945792,1.0000777349655812,-171.7520525579948
6.313232384,1.000071747674321,-171.88412967143918
6.315518464,1.0000612357198098,-172.01607170771405
6.317805056,1.0000469198289845,-172.1478249292823
6.320091648,1.0000296030620273,-172.27937296262493
6.322377728,1.0000104715520615,-172.41058480798307
6.32466432,0.9999905954159448,-172.5415545721109
6.3269504,0.9999713997644796,-172.67219752621594
6.329236992,0.9999540821909587,-172.8025798209146
6.331523072,0.9999396650977532,-172.93271403698216
6.333809664,0.9999291322407772,-173.0626596726379
6.336096256,0.9999231703706228,-173.19247877599008
6.338382336,0.9999220328810339,-173.32221501917593
6.340668928,0.999925904054866,-173.4520098469085
6.342955008,0.9999345454725588,-173.5818341853366
6.3452416,0.9999473910855554,-173.71182712527718
6.34752768,0.9999635650758417,-173.8420177853083
6.349814272,0.9999820637579342,-173.97244266348216
6.352100352,1.0000018373296058,-174.1031676556957
6.354386944,1.000021470650593,-174.2341326065589
6.356673536,1.0000396739881976,-174.36537367505122
6.358959616,1.0000555801280056,-174.4968579583465
6.361246208,1.0000678481167913,-174.62854664167867
6.363532288,1.000075861889482,-174.76035617789572
6.36581888,1.0000792449089109,-174.89223293881412
6.36810496,1.0000774233888488,-175.02412941767693
6.370391552,1.0000707940689106,-175.15594361806632
6.372678144,1.0000597261243092,-175.28762253571438
6.374964224,1.0000448759352256,-175.41911517904347
6.377250816,1.0000270630147845,-175.55033200177982
6.379536896,1.0000077854115295,-175.68129217845362
6.381823488,0.9999878557087252,-175.81194485445243
6.384109568,0.9999688411726404,-175.94229833021515
6.38639616,0.9999517892727353,-176.07239611460517
6.38868224,0.9999377944075212,-176.20224666304097
6.390968832,0.999927769079969,-176.33191493772205
6.393255424,0.9999224016394378,-176.46146138722054
6.395541504,0.999921962514385,-176.59095533461493
6.397828096,0.9999264512129683,-176.72044942679474
6.400114176,0.9999357563872597,-176.8500583559331
6.402400768,0.9999491307325489,-176.9798294787169
6.404686848,0.999965744451363,-177.10977736251553
6.40697344,0.9999846331590979,-177.24000894385358
6.409260032,1.0000044259896506,-177.37049016012693
6.411546112,1.0000240537240794,-177.5012546701871
6.413832704,1.0000422086861798,-177.632261353031
6.416118784,1.0000576129790364,-177.7635040429555
6.418405376,1.0000694149276335,-177.89496213816943
6.420691456,1.0000769172510118,-178.02655152953017
6.422978048,1.0000794783456346,-178.15817132011554
6.425264128,1.0000770453247776,-178.28981861258148
6.42755072,1.000069806616311,-178.42135939942668
6.429837312,1.0000581255533862,-178.5527546488211
6.432123392,1.000042722233162,-178.68395151725187
6.434409984,1.0000246073527457,-178.81489371065425
6.436696064,1.0000050735734325,-178.94554625987402
6.438982656,0.9999850947214544,-179.07592733305867
6.441268736,0.9999661475736843,-179.20595870293806
6.443555328,0.9999494165263854,-179.33576690593037
6.44584192,0.9999359515591633,-179.46532846013287
6.448128,0.9999264295316577,-179.5947154050189
6.450414592,0.9999216601222441,-179.7239738998347
6.452700672,0.9999219215087473,-179.8532040773884
6.454987264,0.9999272099171316,-179.9824715262699
6.457273344,0.9999370545864378,179.88817600337487
6.459559936,0.9999509937687432,179.75867215410307
6.461846016,0.99996804184728,179.62893282613595
6.464132608,0.9999871542780364,179.49895705046444
6.4664192,1.0000071218984214,179.3686709326693
6.46870528,1.0000266576922456,179.23812963612968
6.470991872,1.0000445417512678,179.10732812343372
6.473277952,1.0000596539303424,178.97632581070175
6.475564544,1.0000709473357507,178.84511575120254
6.477850624,1.000077811988547,178.7137952845128
6.480137216,1.0000797076972063,178.58240154599804
6.482423296,1.0000767105016704,178.4510424810734
6.484709888,1.0000686182233463,178.31975303765276
6.48699648,1.0000563673115395,178.18865554986743
6.48928256,1.000040541907778,178.05772944438357
6.491569152,1.0000221785441952,177.92709304576294
6.493855232,1.000002256408646,177.7967447884644
6.496141824,0.9999823355884134,177.6667059206045
6.498427904,0.9999636070215435,177.53692945778548
6.500714496,0.9999471527788241,177.40744074529334
6.503001088,0.9999340740798166,177.27816596083835
6.505287168,0.9999252639469531,177.1490788860745
6.50757376,0.9999211546003172,177.02007435951825
6.50985984,0.9999221185336216,176.89112801381967
6.512146432,0.9999279114933126,176.76211873550074
6.514432512,0.9999384971657315,176.63303219920448
6.516719104,0.9999529310903005,176.5037559242665
6.519005184,0.9999703798515018,176.37425471264555
6.521291776,0.9999898170491611,176.24450994263734
6.523578368,1.0000099127869284,176.1144586921978
6.525864448,1.0000293237342162,175.98415407630563
6.52815104,1.0000468909069946,175.8535906614529
6.53043712,1.000061538970966,175.72279057718362
6.532723712,1.0000724186159866,175.59182690944726
6.535009792,1.000078577082959,175.46075216988234
6.537296384,1.0000798993607831,175.32961204246766
6.539582976,1.0000760306762444,175.19852898746115
6.541869056,1.0000674985567544,175.0675427638183
6.544155648,1.0000545549433264,174.93671261592132
6.546441728,1.0000382684913114,174.806105232978
6.54872832,1.0000195570865777,174.6757635476975
6.5510144,0.9999995422961147,174.5457124110747
6.553300992,0.9999796383191009,174.41597893194552
6.555587072,0.9999610890793745,174.28651450283823
6.557873664,0.9999449449484981,174.15731676181986
6.560160256,0.9999323416022461,174.02837023823332
6.562446336,0.999924126008733,173.89955908646405
6.564732928,0.9999206112191035,173.77083745210416
6.567019008,0.9999222829292406,173.64216714208084
6.5693056,0.9999289078800939,173.51342213564152
6.57159168,0.9999399989237276,173.38458192304964
6.573878272,0.9999549233080315,173.2555525154581
6.576164864,0.9999728431925434,173.12628710400648
6.578450944,0.9999924368073762,172.99674359192267
6.580737536,1.0000125525227141,172.86696942224037
6.583023616,1.000031902825815,172.7368801018103
6.585310208,1.0000492736581363,172.60654974706893
6.587596288,1.0000635660484414,172.4759968094716
6.58988288,1.0000737972496174,172.34529089368237
6.59216896,1.0000793433109259,172.2144720931631
6.594455552,1.0000798807754185,172.08360243540943
6.596742144,1.0000754585735658,171.95278394452058
6.599028224,1.0000661476954122,171.82207931240697
6.601314816,1.00005281015154,171.69154417280006
6.603600896,1.0000359233127156,171.5612400573484
6.605887488,1.0000168764981943,171.4312220404828
6.608173568,0.9999967887743022,171.30148577367885
6.61046016,0.9999769514277106,171.17205321962646
6.612746752,0.9999585003023481,171.04291453086483
6.615032832,0.9999427682115228,170.9140337096817
6.617319424,0.9999306492571004,170.7853618027728
6.619605504,0.9999230252042781,170.656836283964
6.621892096,0.9999202756303648,170.5284256774463
6.624178176,0.9999225047323365,170.40000938885112
6.626464768,0.9999298331647867,170.27152836388797
6.628750848,0.9999415025348721,170.1429572328945
6.63103744,0.9999569641531143,170.0141639439572
6.633324032,0.9999753683068254,169.88511955791748
6.635610112,0.9999951830922511,169.75583964115353
6.637896704,1.000015402762592,169.6263063147391
6.640182784,1.0000345525099268,169.49645969234376
6.642469376,1.000051623421692,169.36634044654002
6.644755456,1.000065271546741,169.23605117435156
6.647042048,1.000075076769165,169.10559457902062
6.649328128,1.0000799608165751,168.9750058036454
6.65161472,1.000079882817443,168.844439971196
6.653901312,1.0000746152564397,168.7139066871402
6.656187392,1.0000647392704487,168.58347881413553
6.658473984,1.0000507360029998,168.4532372043669
6.660760064,1.0000335082862282,168.32324370846942
6.663046656,1.0000142586367065,168.19354256313034
6.665332736,0.9999938978125102,168.06412370922772
6.667619328,0.9999741377057075,167.93500831604493
6.66990592,0.999955890063636,167.806171019672
6.672192,0.9999405989291861,167.67760840104197
6.674478592,0.9999290026004692,167.54924764369852
6.676764672,0.9999219445004452,167.42102363243106
6.679051264,0.9999198835694539,167.29287883900204
6.681337344,0.9999229192926113,167.16475641459292
6.683623936,0.99993090940798,167.03654018196832
6.685910016,0.9999431433088912,166.9081981248133
6.688196608,0.9999591747180977,166.7796645166421
6.6904832,0.9999778059948469,166.65089463905448
6.69276928,0.9999978698953979,166.5218522572497
6.695055872,1.0000180559213885,166.3925213039889
6.697341952,1.0000370812948003,166.26292229246636
6.699628544,1.0000537972245322,166.1330717229122
6.701914624,1.0000672225593017,166.00301695233375
6.704201216,1.000076328985594,165.87279983974193
6.706487808,1.000080509632625,165.74248995037112
6.708773888,1.0000796593414156,165.61219314547006
6.71106048,1.000073731473979,165.48194403401556
6.71334656,1.0000632877360593,165.35181816394487
6.715633152,1.000048674367861,165.22189537282307
6.717919232,1.0000310039915912,165.09222075022674
6.720205824,1.000011547802348,164.962817775775
6.722491904,0.9999911441837938,164.8336968596591
6.724778496,0.999971368944457,164.70492115417744
6.727065088,0.9999533977479362,164.57641738153967
6.729351168,0.9999385785537162,164.4481562039966
6.73163776,0.9999274112379134,164.3200934884739
6.73392384,0.9999210811945077,164.19216087084592
6.736210432,0.9999195320257962,164.06433048339952
6.738496512,0.9999233866669494,163.93647716429155
6.740783104,0.9999319812325748,163.8085379149445
6.743069696,0.9999449073666253,163.6804499620401
6.745355776,0.9999614029721211,163.55217266348913
6.747642368,0.9999803720707988,163.4236467122257
6.749928448,1.0000005253946034,163.29483906246364
6.75221504,1.0000207347829557,163.16574546229364
6.75450112,1.0000396680125152,163.0363878376221
6.756787712,1.0000560069835531,162.90678414903343
6.759073792,1.0000688765495835,162.77698460439214
6.761360384,1.000077345567249,162.64703629430662
6.763646976,1.0000809780477211,162.51699667481782
6.765933056,1.000079375638452,162.38695964660155
6.768219648,1.0000728674707582,162.2570092057309
6.770505728,1.0000616391879171,162.12718585823342
6.77279232,1.0000466202625686,161.9975747063324
6.7750784,1.0000285331076362,161.86820740874631
6.777364992,1.000008651737618,161.7391283335599
6.779651584,0.9999882614831264,161.6103468812489
6.781937664,0.9999686269834646,161.48188716371834
6.784224256,0.9999509963423473,161.35367998937312
6.786510336,0.9999364502987553,161.22573991199977
6.788796928,0.999925947612663,161.09799666156667
6.791083008,0.9999201860663322,160.9703732765573
6.7933696,0.9999196014038696,160.8427967351511
6.79565568,0.9999239545332691,160.7152239007762
6.797942272,0.999933250925955,160.58757286291745
6.800228864,0.999946752417091,160.4597408992326
6.802514944,0.9999636644131952,160.33171772885106
6.804801536,0.9999829517586918,160.20344048050143
6.807087616,1.000003278965298,160.07486473827387
6.809374208,1.0000234532273244,159.9460336666695
6.811660288,1.0000421680315026,159.81690750509873
6.81394688,1.0000582042574515,159.68755130957862
6.81623296,1.0000705653338289,159.55800348244682
6.818519552,1.0000783880101745,159.4283194841192
6.820806144,1.0000813787986305,159.2985631921077
6.823092224,1.0000791173781438,159.1688158771395
6.825378816,1.0000718525924313,159.03914247786508
6.827664896,1.0000599400356487,158.90963810516206
6.829951488,1.000044361436741,158.78033173682994
6.832237568,1.0000258864079845,158.6512738911029
6.83452416,1.0000058857385443,158.52252005608702
6.836810752,0.9999853313537757,158.39408085595295
6.839096832,0.9999658899110682,158.26592266859947
6.841383424,0.9999485574076122,158.13805423185883
6.843669504,0.9999344650992099,158.0104198179026
6.845956096,0.9999245087953584,157.88297149486016
6.848242176,0.999919415062169,157.7556594904191
6.850528768,0.9999194610537793,157.62839037919872
6.852814848,0.9999246097628235,157.50110743756954
6.85510144,0.9999345283329015,157.37368929565133
6.857388032,0.9999486660618099,157.2461439083862
6.859674112,0.9999661492566729,157.1183469833849
6.861960704,0.999985595734378,156.99031492398944
6.864246784,1.0000061441362615,156.86200195477772
6.866533376,1.0000261880261496,156.73341023489562
6.868819456,1.0000446411993031,156.60454096684273
6.871106048,1.000060386106829,156.47543311098272
6.87339264,1.0000721316710839,156.34614693144704
6.87567872,1.0000793149907394,156.21673078242412
6.877965312,1.0000816198669438,156.08725038571882
6.880251392,1.0000787011602499,155.95778203858833
6.882537984,1.0000706909319579,155.82841444183347
6.884824064,1.0000581416009082,155.6991895332682
6.887110656,1.0000419788651906,155.57020069407068
6.889396736,1.0000232249175594,155.44146210848072
6.891683328,1.0000029594743292,155.313046454649
6.89396992,0.9999824393564719,155.18493038633343
6.896256,0.9999630871706261,155.05709553150788
6.898542592,0.9999461045845525,154.92955972809136
6.900828672,0.9999324747412695,154.80223936466507
6.903115264,0.9999231375515159,154.6751140391061
6.905401344,0.9999188386193737,154.54809224695308
6.907687936,0.999919521703012,154.42111727669544
6.909974528,0.9999253253718569,154.29407876563891
6.912260608,0.999935951513132,154.16698284958542
6.9145472,0.9999506848812829,154.03967385585608
