freq,mag,phase
6.0,1.0000675812846325,114.14469599433774
6.003319296,1.000069334106972,113.89280564345967
6.006639104,1.0000658475443738,113.64095007104133
6.0099584,1.0000588385105122,113.38915958035366
6.013278208,1.0000485603777531,113.137540778577
6.016597504,1.0000357719449828,112.88608927552977
6.0199168,1.000021226003503,112.63486267448893
6.023236608,1.0000058353097514,112.38386344494447
6.026555904,0.9999904766901834,112.13308105980589
6.029875712,0.9999761419440754,111.88256772167074
6.033195008,0.9999637033594,111.63223203849434
6.036514304,0.9999538911227365,111.38209919251679
6.039834112,0.9999472833117594,111.13208846477052
6.043153408,0.9999443370286187,110.88216495359292
6.046473216,0.9999451643047031,110.63229825162266
6.049792512,0.9999498727848647,110.38238731892638
6.053111808,0.9999580496275225,110.13241374703948
6.056431616,0.9999692423955605,109.88234149244688
6.059750912,0.999982705366768,109.63207500962253
6.06307072,0.999997789031614,109.38165241483505
6.066390016,1.000013368567905,109.13101373093022
6.069709312,1.0000286229007818,108.88018789045759
6.07302912,1.0000425505147108,108.62917384981702
6.076348416,1.000054451313055,108.37797819314422
6.079668224,1.000063391068296,108.12666501934919
6.08298752,1.000068883869277,107.87525830485465
6.086306816,1.0000706921128875,107.62385030660577
6.089626624,1.0000685539372478,107.37243096592363
6.09294592,1.0000626749035162,107.12109966815933
6.096265728,1.0000535280935792,106.869883011184
6.099585024,1.000041393471677,106.6188682506466
6.10290432,1.0000272642346195,106.36804505464417
6.106224128,1.0000118344672735,106.11743043466707
6.109543424,0.9999961189928996,105.86708295968823
6.112863232,0.9999810415028744,105.6169712088438
6.116182528,0.9999675664778268,105.36707130116919
6.119501824,0.9999564709456701,105.11738458063444
6.122821632,0.9999483983048609,104.86784454139881
6.126140928,0.9999440396449175,104.61841846069565
6.129460736,0.9999433965376174,104.36905550111807
6.132780032,0.9999467561966594,104.11966837093611
6.13609984,0.999953691586403,103.87024036102339
6.139419136,0.9999640793604901,103.6207089009346
6.142738432,0.999976877687958,103.37103635434242
6.14605824,0.9999917151077047,103.12118049884705
6.149377536,1.0000074709053206,102.87113760814758
6.152697344,1.000023219039226,102.62088983338892
6.15601664,1.0000379637879349,102.37043068327263
6.159335936,1.0000508562125923,102.11980761742261
6.162655744,1.000061127873941,101.86902680826867
6.16597504,1.000068141868916,101.61818182960059
6.169294848,1.0000713905532435,101.367237498994
6.172614144,1.000070729489874,101.11631422777346
6.17593344,1.0000662309923787,100.86544514630462
6.179253248,1.0000581751561246,100.61469324909768
6.182572544,1.0000468880027453,100.36408554418954
6.185892352,1.0000332266119774,100.11366727811156
6.189211648,1.000017857330312,99.86350626198836
6.192530944,1.0000018467400145,99.6135681925083
6.195850752,0.9999862452070185,99.36387375900733
6.199170048,0.9999718159631672,99.1144092560703
6.202489856,0.9999594944196869,98.86517927300198
6.205809152,0.9999501835645311,98.61610931180134
6.209128448,0.9999442751226786,98.36717603564398
6.212448256,0.9999421111550256,98.11830954161098
6.215767552,0.9999440184635441,97.86947504943214
6.21908736,0.9999496861585523,97.62059225821928
6.222406656,0.99995901693873,97.37163770743092
6.225725952,0.9999711389033956,97.12255987756234
6.22904576,0.9999856154750498,96.87330606047101
6.232365056,1.000001259070366,96.62385915157247
6.235684864,1.0000173595312092,96.37419696285983
6.23900416,1.0000327908458995,96.12432708090958
6.242323456,1.0000467613466941,95.8742766984512
6.245643264,1.0000582796153994,95.62406554580335
6.24896256,1.0000667505630323,95.37373889115855
6.252282368,1.0000714873601406,95.12333020838649
6.255601664,1.0000723723579792,94.87290027776717
6.25892096,1.0000692727786595,94.62251272669128
6.262240768,1.0000624147294679,94.37220155810881
6.265560064,1.0000521437992138,94.12205738767459
6.268879872,1.0000390353631892,93.87208632921867
6.272199168,1.0000240080970522,93.62233789567289
6.275518464,1.0000079924289305,93.37283123177487
6.278838272,0.9999918327900701,93.12356552497926
6.282157568,0.9999766236696441,92.87455400450739
6.285477376,0.9999632364517972,92.62576137767837
6.288796672,0.99995250208545,92.37716533011528
6.292115968,0.9999451275231738,92.1287269448605
6.295435776,0.9999414515151684,91.88036944470508
6.298755072,0.9999418745815126,91.63209385941987
6.30207488,0.9999461956544219,91.38374808323081
6.305394176,0.9999542726629942,91.13538935946673
6.308713472,0.9999655417819158,90.88690136821096
6.31203328,0.9999793702416095,90.63824415141154
6.315352576,0.9999949603086252,90.38939137645276
6.318672384,1.0000112249171724,90.14033241884783
6.32199168,1.000027317422618,89.89109020714696
6.325310976,1.000042211767715,89.64162654844978
6.328630784,1.0000548790485693,89.39197866496644
6.33195008,1.0000647515624264,89.14219784099708
6.335269888,1.0000710674422222,88.89233222057666
6.338589184,1.0000734625025443,88.64243973362967
6.34190848,1.0000717549616243,88.39253320391526
6.345228288,1.0000662442631318,88.14271500523338
6.348547584,1.0000570782554645,87.89299539829129
6.351867392,1.0000448112857494,87.64347783893344
6.355186688,1.0000302250609552,87.39416490010036
6.358505984,1.0000142602100268,87.14508136185927
6.361825792,0.9999977804326577,86.89626258666213
6.365145088,0.9999819354823463,86.64768766532791
6.368464896,0.9999673983654448,86.39934132307664
6.371784192,0.9999554216504033,86.15122788379516
6.375103488,0.9999465859758864,85.90326779560985
6.378423296,0.9999414256891733,85.65543510379223
6.381742592,0.999940273356899,85.40768330407992
6.3850624,0.9999430922859213,85.15990182342662
6.388381696,0.9999498545254769,84.91211151979546
6.391700992,0.9999601527852215,84.66419487607489
6.3950208,0.999973316230199,84.41613910986325
6.398340096,0.9999885715013057,84.16792327342576
6.401659904,1.0000049460123266,83.9194750151954
6.4049792,1.0000214441802895,83.67083711603705
6.408299008,1.0000371155677852,83.42196277322749
6.411618304,1.000050953231586,83.17292411256156
6.4149376,1.000062051469012,82.92370750236772
6.418257408,1.000069873296619,82.67440350456772
6.421576704,1.0000739997756007,82.42501323216842
6.424896512,1.000073876240181,82.17561860317376
6.428215808,1.0000696870479011,81.92628390174748
6.431535104,1.000061760847132,81.67703269718571
6.434854912,1.0000503952196815,81.4279663989917
6.438174208,1.0000363751411236,81.17908420903197
6.441494016,1.0000205443510257,80.9304515191277
6.444813312,1.0000039070886233,80.682071397616
6.448132608,0.9999875039272088,80.43391453849263
6.451452416,0.9999721708304501,80.18604329818086
6.454771712,0.9999588907973588,79.9383890363952
6.45809152,0.9999486273004144,79.69091580788023
6.461410816,0.9999419634681801,79.44357838698585
6.464730112,0.9999390916878521,79.19634423693736
6.46804992,0.9999405168621269,78.94912786460118
6.471369216,0.9999458814720564,78.7018898466043
6.474689024,0.9999550522549189,78.45456500840304
6.47800832,0.9999673458583683,78.20712745788717
6.481327616,0.9999821194694136,77.95950911591814
6.484647424,0.9999984345890067,77.71169236467061
6.48796672,1.0000151931936574,77.4636539153612
6.491286528,1.0000315890945133,77.21540546595246
6.494605824,1.0000463847521173,76.96694257713959
6.49792512,1.0000588924038945,76.71831960677545
6.501244928,1.0000682256700146,76.46956047175937
6.504564224,1.0000737514171143,76.22069888413296
6.507884032,1.0000753606426682,75.971828361146
6.511203328,1.0000726846069476,75.72298343466451
6.514522624,1.0000660058071302,75.47421515704606
6.517842432,1.000055775986312,75.22560150792677
6.521161728,1.0000424393803995,74.97716461521776
6.524481536,1.000027006408945,74.72894931741759
6.527800832,1.000010340801897,74.48099051257293
6.531120128,0.9999934814317883,74.23328618738493
6.534439936,0.9999773686499415,73.9858550834263
6.537759232,0.9999630584350555,73.73864422568685
6.54107904,0.9999514022902787,73.4916442792776
6.544398336,0.9999430580033409,73.24481306738515
6.547717632,0.9999387831454822,72.99809275297817
6.55103744,0.9999384850529437,72.75142513291378
6.554356736,0.999942444583119,72.50474402980925
6.557676544,0.9999503176981609,72.25800938140203
6.56099584,0.9999616470276012,72.01115870358187
6.564315136,0.9999757216934481,71.76414369567729
6.567634944,0.9999918358387275,71.51692776764969
6.57095424,1.0000087913295195,71.26951612846747
6.574274048,1.0000256483239651,71.0218799816378
6.577593344,1.0000414310396915,70.77401762565809
6.58091264,1.0000551369118076,70.52598196045224
6.584232448,1.0000658401537643,70.27777961226384
6.587551744,1.0000730200582388,70.02947198414229
6.590871552,1.0000761617193994,69.78112592296732
6.594190848,1.0000751119082805,69.53276854476324
6.597510144,1.0000698908486654,69.2844763966345
6.600829952,1.0000607683843212,69.03631376492285
6.604149248,1.0000484444559337,68.78832592270004
6.607469056,1.0000335590017517,68.54054682208215
6.610788352,1.0000169291889933,68.2930116893813
6.614107648,0.9999997826282984,68.04573318740482
6.617427456,0.9999829540442163,67.79873457991299
6.620746752,0.9999676080529588,67.55195743611817
6.62406656,0.999954693061719,67.30542960446638
6.627385856,0.9999448979899711,67.05907367214753
6.630705152,0.9999388959380889,66.81285284222126
6.63402496,0.9999369855122014,66.56670467213156
6.637344256,0.9999393472006314,66.3205934217452
6.640664064,0.9999458690229281,66.07442165006758
6.64398336,0.9999561555699207,65.82815677020331
6.647302656,0.9999694264625556,65.58173302686048
6.650622464,0.9999850897511648,65.33514469872497
6.65394176,1.0000020658849418,65.08834043786028
6.657261568,1.000019395802582,64.84129517026494
6.660580864,1.0000359394831049,64.59405333833826
6.66390016,1.0000506703810141,64.34658784877001
6.667219968,1.0000628418300608,64.09896355404575
6.670539264,1.0000716005587396,63.851192644526144
6.673859072,1.000076345870318,63.6033566494033
6.677178368,1.0000769185974125,63.35552124429738
6.680498176,1.000073223632238,63.107704621001915
6.683817472,1.000065510569066,62.85997547784373
6.687136768,1.000054172258258,62.61243650070004
6.690456576,1.0000398736256586,62.36507654220905
6.693775872,1.0000236094971422,62.117966533610975
6.69709568,1.0000063255690843,61.87112336995289
6.700414976,0.9999889971350414,61.624525244907
6.703734272,0.9999727243751216,61.378195909077014
6.70705408,0.9999585655606847,61.1321142874524
6.710373376,0.9999473134883958,60.886232161322226
6.713693184,0.9999397136285788,60.64048053447108
6.71701248,0.9999361422213566,60.39483739200834
6.720331776,0.9999368720136635,60.14925779044453
6.723651584,0.9999419426133036,59.90365334623091
6.72697088,0.9999509108472344,59.657972066824776
6.730290688,0.9999633108416808,59.412138405129745
6.733609984,0.999978431454386,59.16614872503444
6.73692928,0.999995207503595,58.91992659581931
6.740249088,1.0000128005042166,58.6734935856873
6.743568384,1.0000299940711248,58.42683328398145
6.746888192,1.0000458124283227,58.179964574576154
6.750207488,1.0000592799033166,57.93291765648198
6.753526784,1.0000694965773451,57.685688460128986
6.756846592,1.0000760128832735,57.43837759169195
6.760165888,1.0000782348477602,57.19103223892649
6.763485696,1.0000760634212593,56.94368540559015
6.766804992,1.0000697916599879,56.69642192851397
6.770124288,1.0000596030741895,56.44931558029763
6.773444096,1.0000462222156632,56.20237977140857
6.776763392,1.0000303808489188,55.95567032853725
6.7800832,1.000013075325384,55.70923831035468
6.783402496,0.9999954065069577,55.4630534754733
6.786721792,0.9999783844907035,55.21713679960861
6.7900416,0.9999630766010494,54.97147530887098
6.793360896,0.9999504196972946,54.726026570404365
6.796680704,0.9999412385616931,54.480764978917904
6.8,0.9999360155334057,54.235617638799184
6.803319296,0.9999350576871219,53.990533493155276
6.806639104,0.9999384727448896,53.74546124751968
6.8099584,0.9999461193861346,53.50033001074664
6.813278208,0.9999574847199874,53.255081787098185
6.816597504,0.9999718464215345,53.00966966243827
6.8199168,0.9999883767294151,52.76404937917605
6.823236608,1.0000059678475783,52.51821461004043
6.826555904,1.000023696228607,52.2721444125051
6.829875712,1.0000403923123795,52.025857622384834
6.833195008,1.0000550720665344,51.779341409928236
6.836514304,1.0000668080237005,51.53269340227333
6.839834112,1.0000749333209975,51.28589669594825
6.843153408,1.0000788593492467,51.03904253047899
6.846473216,1.0000784251296684,50.79216792368486
6.849792512,1.000073631243942,50.54536213266164
6.853111808,1.0000646859874887,50.29867678549838
6.856431616,1.0000523159544068,50.05215374534006
6.859750912,1.000037027888504,49.8058390265272
6.86307072,1.0000199290086245,49.55979573478487
6.866390016,1.0000020832272076,49.31400585883552
6.869709312,0.9999843880034402,49.06848463553006
6.87302912,0.9999681058949685,48.82323953414058
6.876348416,0.9999541209330554,48.57820562850505
6.879668224,0.9999433800676855,48.33340340702635
6.88298752,0.9999364045617233,48.08872258437796
6.886306816,0.9999338029559172,47.8441161211703
6.889626624,0.9999355548038281,47.599577938505675
6.89294592,0.9999417165442218,47.35497124854587
6.896265728,0.9999518266941919,47.11027409474984
6.899585024,0.9999652890262662,46.86543775081526
6.90290432,0.9999813896373009,46.62040103872271
6.906224128,0.9999989004040811,46.375139039968715
6.909543424,1.0000170303947151,46.1296492810921
6.912863232,1.0000344434260637,45.88393621596104
6.916182528,1.0000502639936715,45.637995419397924
6.919501824,1.000063412334857,45.391867538990645
6.922821632,1.0000730905554358,45.145580011093244
6.926140928,1.0000787854214395,44.899210196787756
6.929460736,1.0000800461173587,44.652815638645436
6.932780032,1.0000768669414317,44.40645611153781
6.93609984,1.00006943968611,44.16016982780634
6.939419136,1.0000580980163678,43.91403883336806
6.942738432,1.0000436597252012,43.66813653147105
6.94605824,1.0000268750332721,43.42245494830401
6.949377536,1.0000088822800315,43.17705039740508
6.952697344,0.9999907637786141,42.93190776561833
6.95601664,0.9999735348843175,42.68705395435372
6.959335936,0.9999583507664873,42.442435077789625
6.962655744,0.9999460968925199,42.198036293496514
6.96597504,0.9999374996526706,41.95379236214352
6.969294848,0.9999330581700113,41.70967424709492
6.972614144,0.9999332034368434,41.46560716915874
6.97593344,0.9999377496342171,41.221521626541005
6.979253248,0.9999465081365658,40.97736721738757
6.982572544,0.9999589428807991,40.73307970017529
6.985892352,0.9999743236909072,40.488595767662595
6.989211648,0.9999916875016459,40.24390834938124
6.992530944,1.0000099805311375,39.99898713193979
6.995850752,1.0000281348965478,39.753815179879204
6.999170048,1.0000448908004549,39.50844132647852
7.002489856,1.0000594061772812,39.26283553824077
7.005809152,1.0000706255074465,39.017065142263476
7.009128448,1.000078114048676,38.77117125636112
7.012448256,1.0000811243814536,38.52523877050792
7.015767552,1.000079651294007,38.27930837988036
7.01908736,1.000073719321139,38.03344052866997
7.022406656,1.0000636733355068,37.78771518286014
7.025725952,1.0000500881235863,37.542175602277716
7.02904576,1.0000339040689523,37.29684907707293
7.032365056,1.000016054565574,37.051797995096635
7.035684864,0.999997574234507,36.80702080825673
7.03900416,0.999979593422658,36.5625129445267
7.042323456,0.9999632405943718,36.31828804252097
7.045643264,0.9999495642480106,36.074279519813494
7.04896256,0.9999393103197194,35.83046044984157
7.052282368,0.9999331700171729,35.5867820261965
7.055601664,0.9999314698033169,35.34316548917144
7.05892096,0.9999343606491905,35.099569646694995
7.062240768,0.9999416844707283,34.85593299302776
7.065560064,0.9999529409378366,34.612145893252304
7.068879872,0.9999674860222307,34.36820444599677
7.072199168,0.9999844747504467,34.12407483252594
7.075518464,1.0000028071993794,33.87971202960803
7.078838272,1.0000213634500057,33.63509170795743
7.082157568,1.0000391269144437,33.39022159937276
7.085477376,1.0000547902405568,33.14515182246388
7.088796672,1.0000676549282015,32.89987957642271
7.092115968,1.000076784639287,32.65447498940021
7.095435776,1.0000815649639423,32.40897452275549
7.098755072,1.0000817896362986,32.163471501860975
7.10207488,1.0000775538058353,31.917998975686327
7.105394176,1.000068872770335,31.67264870366741
7.108713472,1.0000563608714725,31.427466492427246
7.11203328,1.0000409037656601,31.182492849425575
7.115352576,1.0000232004091079,30.937779124953135
7.118672384,1.0000045505148742,30.693336550264174
7.12199168,0.9999859929713741,30.44918631210018
7.125310976,0.9999686337428831,30.205296809391225
7.128630784,0.9999536036858475,29.961652796361168
7.13195008,0.9999417498516666,29.718218119007933
7.135269888,0.9999338791971009,29.474945383858973
7.138589184,0.999930342719839,29.231767849782806
7.14190848,0.9999315024901995,28.988625269634717
7.145228288,0.9999372344904667,28.7454619164155
7.148547584,0.999947213573764,28.502191807173258
7.151867392,0.9999608528374067,28.258791783932462
7.155186688,0.9999771597208806,28.015179124907558
7.158505984,0.9999953609096749,27.77132795336625
7.161825792,1.0000142817415536,27.52722576153529
7.165145088,1.0000327202936765,27.282900132028704
7.168464896,1.0000495523079613,27.038327001901106
7.171784192,1.000063837716187,26.793539177007798
7.175103488,1.0000746127334101,26.548605160846947
7.178423296,1.0000812024100645,26.30355132754279
7.181742592,1.0000833148205843,26.058457019146708
7.1850624,1.0000807184239962,25.81337995440993
7.188381696,1.000073548224421,25.56838411163656
7.191700992,1.000062382756015,25.323541817311952
7.1950208,1.0000477414307127,25.078889257174232
7.198340096,1.000030486610258,24.83449890257819
7.201659904,1.0000118249091603,24.590366882560772
7.2049792,0.9999928199964119,24.34650550159695
7.208299008,0.9999745994469164,24.10296193113969
7.211618304,0.9999582744375152,23.85965755531502
7.2149376,0.9999449551238059,23.616571385860603
7.218257408,0.9999352565375175,23.37367734562898
7.221576704,0.9999299547104715,23.130918368914177
7.224896512,0.9999292520504018,22.888193132057207
7.228215808,0.9999333473464612,22.645484594491574
7.231535104,0.9999418636458409,22.40268620006705
7.234854912,0.9999543308736484,22.15976401591166
7.238174208,0.999969923061216,21.916658957139596
7.241494016,0.9999878315433095,21.673320326710716
7.244813312,1.0000068800726032,21.429752928619774
7.248132608,1.000025903067245,21.18589603426705
7.251452416,1.0000437700452922,20.941833643453414
7.254771712,1.0000594138225705,20.697517101851528
7.25809152,1.0000718259706098,20.453030588383758
7.261410816,1.0000802391293495,20.208409787561695
7.264730112,1.000084210688622,19.96370259752026
7.26804992,1.0000833300763072,19.719004468205107
7.271369216,1.0000778777321442,19.47436324361103
7.274689024,1.0000680162186923,19.22983090479016
7.27800832,1.0000543438474487,18.985513888400234
7.281327616,1.0000377731639023,18.741397096185278
7.284647424,1.000019241020314,18.497555980559014
7.28796672,0.9999998725520624,18.253994617067995
7.291286528,0.9999810073003468,18.010723161342945
7.294605824,0.9999635724714364,17.767724748880564
7.29792512,0.9999486944824074,17.524962019768893
7.301244928,0.9999373715311137,17.28241909764591
7.304564224,0.9999302479629327,17.040037381823364
7.307884032,0.9999277238886354,16.797697441522658
7.311203328,0.9999300208763489,16.55540682101684
7.314522624,0.9999369133751594,16.31307398854203
7.317842432,0.9999481453166095,16.070595718773948
7.321161728,0.9999628980621199,15.827974026424503
7.324481536,0.9999802472972152,15.585124936204192
7.327800832,0.9999993194041392,15.342046387682904
7.331120128,1.0000188313308638,15.098674582653532
7.334439936,1.0000375505343837,14.855071166793143
7.337759232,1.000054341599693,14.611213650942828
7.34107904,1.0000683926104488,14.367176868425652
7.344398336,1.0000785816954312,14.122969417765288
7.347717632,1.0000842619539043,13.878652686744905
7.35103744,1.0000853590776406,13.63429675329822
7.354356736,1.0000815796487479,13.389983073943611
