freq,mag,phase
6.0,1.0003515421638385,95.64275667063325
6.002285056,1.0005452850827086,95.49323938372687
6.004570112,1.0007043538885179,95.3412161306452
6.006855168,1.0008189037273618,95.18722284092311
6.009140224,1.000881443418323,95.03198166364888
6.01142528,1.00088799365648,94.876248931191
6.013710336,1.0008383132620848,94.72085824958017
6.015995392,1.0007352519435904,94.56661637804649
6.018280448,1.0005855859776855,94.41421043531113
6.020565504,1.0003984866860478,94.264296138644
6.02285056,1.000185948031564,94.11730716208625
6.025135616,0.999961347726702,93.97350607522849
6.027420672,0.999738886983985,93.83303210117165
6.029705728,0.9995328726354032,93.69566209485548
6.031990784,0.9993562090885847,93.56111077137388
6.03427584,0.9992202537855117,93.42888029841882
6.036560896,0.9991333990982272,93.29829286073544
6.038845952,0.999101637029729,93.16860681338889
6.041131008,0.9991266052345645,93.03902133197668
6.043416064,0.9992069681020814,92.90867125307751
6.04570112,0.9993376537438281,92.776836017704
6.047986176,0.9995101618476677,92.64283373349974
6.050271232,0.9997138047976339,92.50608703943888
6.052556288,0.9999355130012606,92.36628915532566
6.054841344,1.0001614261920462,92.22327710697992
6.0571264,1.0003769912069036,92.07704355361044
6.059411456,1.0005687640745433,91.92791800900784
6.061696512,1.0007244159439241,91.77628330063486
6.063981568,1.000834107092063,91.62273475949424
6.066266624,1.0008909406282256,91.46801745963727
6.06855168,1.0008911207963078,91.31292667835943
6.070836736,1.0008348613733937,91.15822262757055
6.073121792,1.0007256014870156,91.0047729550449
6.075406848,1.0005701387233148,90.85323928150011
6.077691904,1.0003782515154345,90.70430242850964
6.07997696,1.0001624003721068,90.5583048620105
6.082262016,0.9999357590835035,90.41554526944351
6.084547072,0.9997130485936643,90.27611113503532
6.086832128,0.9995083166622327,90.13980814712404
6.089117184,0.9993344605443426,90.00628266226214
6.09140224,0.9992026022417019,89.87501471130369
6.093687296,0.9991212843547748,89.74531918047629
6.095972352,0.9990954752297986,89.61643984668979
6.098257408,0.9991270593408828,89.4875356855934
6.100542464,0.999213871991548,89.35781998150051
6.10282752,0.9993505392283402,89.22649465948328
6.105112576,0.999528321999713,89.09289997083744
6.107397632,0.9997362180927084,88.95653359616531
6.1096832,0.9999605880551321,88.8170151425516
6.111968256,1.000187495782572,88.67428563004923
6.114253312,1.000402581192814,88.52833901660772
6.116538368,1.000591987662441,88.37949177600692
6.118823424,1.0007440603360709,88.22818992134779
6.12110848,1.0008487655428517,88.07502702286858
6.123393536,1.0008996597510733,87.92077708269181
6.125678592,1.0008934805580234,87.76622938485987
6.127963648,1.0008305737167322,87.6121703413466
6.130248704,1.0007149094776737,87.45944338632258
6.13253376,1.000553766912671,87.30874192647345
6.134818816,1.000357286510736,87.16069099843213
6.137103872,1.0001379085545592,87.0156367620067
6.139388928,0.9999095170848097,86.87386418566356
6.141673984,0.9996866797339753,86.73541889695595
6.14395904,0.9994833402415706,86.6000946097309
6.146244096,0.999312617159435,86.46750086956999
6.148529152,0.999185259698406,86.33713927560109
6.150814208,0.9991094496368278,86.20822746709207
6.153099264,0.9990900661954075,86.08010679911911
6.15538432,0.9991282364736699,85.95180874429523
6.157669376,0.9992217307647744,85.82263435952159
6.159954432,0.9993644994254227,85.6917376772277
6.162239488,0.9995475286077328,85.55848668038931
6.164524544,0.9997593015898643,85.4224027291216
6.1668096,0.99998629531792,85.28312679323417
6.169094656,1.0002141110681362,85.14056799403947
6.171379712,1.000428372564812,84.99482562372522
6.173664768,1.0006154432249834,84.84619969314475
6.175949824,1.0007634722509529,84.6951436080427
6.17823488,1.0008631171648854,84.5423109315741
6.180519936,1.000908033629345,84.38845143265108
6.182804992,1.0008952460111455,84.23439237590054
6.185090048,1.0008256525005812,84.0809169089222
6.187375104,1.000703583972367,83.92884929515928
6.18966016,1.000536734870462,83.77893315742992
6.191945216,1.000335633791531,83.63168688128987
6.194230272,1.000113031222335,83.48753007357138
6.196515328,0.9998829639775116,83.34666798426433
6.198800384,0.9996600626374997,83.20916028539476
6.20108544,0.999458510971855,83.07474730120221
6.203370496,0.9992910586819396,82.94303044363332
6.205655552,0.9991683481145107,82.8134881745976
6.207940608,0.9990983122938663,82.68532338334553
6.210225664,0.9990854468807939,82.55780358978434
6.21251072,0.999130358009737,82.4300846157462
6.214795776,0.9992304954457676,82.30134035772332
6.217080832,0.9993793079440334,82.17078642504745
6.219365888,0.9995675981871023,82.03781117030765
6.221650944,0.9997832068513693,81.90189476909482
6.223936,1.0000125389660948,81.76278365994207
6.226221056,1.000241143869575,81.62033634957697
6.228506112,1.0004545515987167,81.4747004477234
6.230791168,1.000638939950891,81.32621813799797
6.233076224,1.000782894678029,81.17536016061449
6.23536128,1.00087714234293,81.02279002268135
6.237646336,1.0009157783906706,80.86925468164243
6.239931392,1.0008962869980762,80.71561461849177
6.242216448,1.0008198517822142,80.56266768741139
6.244501504,1.0006913874961598,80.41122875895068
6.24678656,1.0005188361029167,80.26198411025527
6.249071616,1.0003132133444308,80.11550959109722
6.251356672,1.0000874481245545,79.97218792864287
6.253641728,0.9998558563240731,79.83219946244189
6.255926784,0.9996331480720766,79.69552555959665
6.25821184,0.999433468211317,79.56195845062088
6.260496896,0.9992695286034158,79.43106184494108
6.262781952,0.9991517274703232,79.30222906030208
6.265067008,0.9990875905054898,79.1747488382617
6.267352064,0.9990811916736453,79.04780047971349
6.26963712,0.9991330485439567,78.92055943004566
6.271922176,0.9992399111479063,78.79215122629321
6.274207232,0.999394780601562,78.66187352720152
6.276492288,0.9995882487878461,78.52908163696769
6.278777344,0.9998077165672996,78.39328415916913
6.2810624,1.000039329295994,78.2542371317168
6.283347456,1.000268483005804,78.1118410357253
6.285632512,1.000480543696067,77.96626568872327
6.287917568,1.0006621493913668,77.81784672094494
6.290202624,1.0008018394117488,77.66710225908612
6.29248768,1.0008905926020217,77.5146934378047
6.294772736,1.0009228945997832,77.36144047538743
6.297057792,1.0008965068495292,77.20815788198705
6.299342848,1.0008132261280165,77.05568147594745
6.301627904,1.0006782424772453,76.9048030563296
6.30391296,1.000500101337945,76.75619642704767
6.306198016,1.0002900074832386,76.61043294369439
6.308483072,1.0000611162375326,76.46786695539765
6.310768128,0.9998282237499164,76.32866420859476
6.313053184,0.999605930796393,76.19279699623803
6.31533824,0.9994084239184531,76.060032578639
6.317623296,0.9992481112864627,75.92986010385157
6.319908352,0.9991353481516607,75.80167459691054
6.322193408,0.9990773398039775,75.67480423022216
6.324478976,0.9990777690476318,75.54833335672869
6.326764032,0.9991365577647424,75.42146195163933
6.329049088,0.999250143864469,75.29333058588463
6.331334144,0.9994112936238324,75.16322237012251
6.3336192,0.9996096687975582,75.03053972228544
6.335904256,0.9998328176206962,74.89478424932113
6.338189312,1.000066642747267,74.75571299624279
6.340474368,1.0002960888515002,74.61329868463521
6.342759424,1.0005068338908798,74.46767622683862
6.34504448,1.0006854741169007,74.3192613853351
6.347329536,1.0008205807960953,74.16857402836304
6.349614592,1.0009037106449583,74.01630438090667
6.351899648,1.0009294460509761,73.86327412291331
6.354184704,1.0008960406676723,73.71028157752087
6.35646976,1.000805899437847,73.55820556951291
6.358754816,1.0006643531644726,73.40782294850185
6.361039872,1.0004806445439047,73.25980630728822
6.363324928,1.0002660917761177,73.11469102959566
6.365609984,1.0000344956729328,72.97281886885659
6.36789504,0.999800345596901,72.83435670512249
6.370180096,0.999578719941884,72.69921874924188
6.372465152,0.9993833942926851,72.56714756435993
6.374750208,0.9992271092919173,72.4376361961003
6.377035264,0.9991195783998794,72.31007990706425
6.37932032,0.9990678257782877,72.18368314564495
6.381605376,0.9990751610924015,72.05762337114395
6.383890432,0.9991410501148388,71.93103941115565
6.386175488,0.9992612801305155,71.80312239564329
6.388460544,0.9994285936582668,71.67313315177486
6.3907456,0.9996319054668694,71.54044684999609
6.393030656,0.9998586548516877,71.40463931681161
6.395315712,1.0000943904173496,71.26549626690961
6.397600768,1.0003240533904714,71.1229687307088
6.399885824,1.000533265618408,70.97725581565726
6.40217088,1.0007086081089924,70.82878042594636
6.404455936,1.0008390234799922,70.67806502514088
6.406740992,1.000916144151095,70.5258598784914
6.409026048,1.0009351816359253,70.372952585443
6.411311104,1.000894870928332,70.22020838623538
6.41359616,1.0007976738628435,70.06847819126457
6.415881216,1.0006497296378871,69.91854085712026
6.418166272,1.000460380508324,69.77104495614961
6.420451328,1.0002416450540264,69.62651932656925
6.422736384,1.0000072377468805,69.48530573007481
6.42502144,0.9997721867312895,69.34750834522309
6.427306496,0.9995513021400769,69.21305996982063
6.429591552,0.9993585382441529,69.08160215039908
6.431876608,0.9992063566449558,68.95269200836698
6.434161664,0.9991042686584318,68.82563081386895
6.43644672,0.9990589110715119,68.69965525176745
6.438731776,0.9990732244068009,68.573926299455
6.441016832,0.9991462149859796,68.44757305886836
6.443301888,0.9992733638604107,68.31979001053877
6.445586944,0.9994465725552703,68.18980465592139
6.447872,0.9996549384707225,68.05706645548732
6.450157056,0.9998851802687194,67.92110627210737
6.452442112,1.000122619625992,67.78181034315897
6.454727168,1.000352393319143,67.63908696078595
6.457012224,1.000559804688397,67.49321784523423
6.45929728,1.000731610634888,67.34456291676972
6.461582336,1.0008571208623847,67.1938045221225
6.463867392,1.0009282401666357,67.04157407763131
6.466152448,1.0009403888258357,66.88880116170237
6.468437504,1.000892952218032,66.73624104692567
6.47072256,1.0007887127350403,66.5847904126007
6.473007616,1.0006342660078513,66.43523544827205
6.475292672,1.0004394113335655,66.28821102557794
6.477577728,1.000216464996169,66.1442127102541
6.479862784,0.9999795825453061,66.00357266315117
6.48214784,0.9997435981563497,65.86638843615032
6.484432896,0.9995237369944816,65.73253266306278
6.486717952,0.9993337675456402,65.60165209593889
6.489003008,0.9991858309006151,65.47325058886338
6.491288064,0.9990894018780088,65.34662399259689
6.49357312,0.9990506553955782,65.22099876947895
6.495858176,0.999072102425381,65.09552772285329
6.498143232,0.9991522715081721,64.96932073303859
6.500428288,0.9992861381352711,64.84155221254049
6.502713344,0.9994654525676444,64.71153823547085
6.5049984,0.9996785583575293,64.5786262014693
6.507283456,0.9999120687074828,64.44249023251687
6.509568512,1.0001511759886796,64.30292741086402
6.511853568,1.000380730443778,64.15996073507327
6.514138624,1.0005861501626712,64.01383448087896
6.51642368,1.0007543155981224,63.86501198840904
6.518708736,1.000874627567316,63.7140859371767
6.520993792,1.0009395997404344,63.56179988823137
6.523278848,1.0009448059473627,63.40903709019654
6.525563904,1.0008900952361548,63.25662054177112
6.52784896,1.0007787709063651,63.10539587755493
6.530134016,1.0006179033472111,62.95616903209968
6.532419072,1.000417671076482,62.80953037809449
6.534704128,1.0001906693952691,62.666021315511344
6.536989184,0.9999512827357372,62.52591071181224
6.53927424,0.9997147841304146,62.38924950807114
6.541559808,0.9994959953367214,62.255911745645534
6.543844864,0.9993089666236425,62.12555182658823
6.54612992,0.999165626569026,61.99758611032346
6.548414976,0.9990750094073454,61.871336725052025
6.550700032,0.9990429241268305,61.74600163635845
6.552985088,0.9990715391779752,61.62067044067029
6.555270144,0.9991589907406045,61.494545042663006
6.5575552,0.9992997017049454,61.36669505719801
6.559840256,0.9994848878302168,61.236538661802825
6.562125312,0.999702782332705,61.10341444603002
6.564410368,0.9999394383313672,60.96701249084541
6.566695424,1.0001799651662189,60.82714015734233
6.56898048,1.0004091351975637,60.683844812458254
6.571265536,1.0006122821722687,60.537378853891504
6.573550592,1.0007766838172927,60.38829703041536
6.575835648,1.0008916528012834,60.237166007668876
6.578120704,1.000950218837402,60.084767204395774
6.58040576,1.0009484160964062,59.93195379473234
6.582690816,1.0008864022814614,59.779602598690474
6.584975872,1.0007679801621467,59.628576234374094
6.587260928,1.0006007259792788,59.479613670375215
6.589545984,1.000395148323251,59.33333737879282
6.59183104,1.0001642284085306,59.19024268294894
6.594116096,0.9999226250293745,59.05055927570283
6.596401152,0.999685647287241,58.914381648110094
6.598686208,0.9994683662191551,58.781525067774346
6.600971264,0.9992844471514821,58.65159389195195
6.60325632,0.9991457910742102,58.523978115949475
6.605541376,0.99906109719118,58.39802863730196
6.607826432,0.9990359594311355,58.272877711523776
6.610111488,0.9990718161502019,58.147647971971615
6.612396544,0.9991664822565024,58.021485418614134
6.6146816,0.9993140263806567,57.893549242606035
6.616966656,0.9995051606331888,57.76314098730434
6.619251712,0.9997276248754132,57.62972932918941
6.621536768,0.9999672821957578,57.49294836796971
6.623821824,1.000209093613989,57.35268946652109
6.62610688,1.0004376647803208,57.20899605989904
6.628391936,1.0006384296911806,57.062181051222275
6.630676992,1.0007986765833166,56.91272476537976
6.632962048,1.000908289077424,56.76132575854429
6.635247104,1.0009602382542213,56.60874355416016
6.63753216,1.0009512935770537,56.45584943458084
6.639817216,1.0008818788498988,56.303510595437245
6.642102272,1.000756403361367,56.1526020789027
6.644387328,1.0005827685712585,56.0038142149618
6.646672384,1.0003719417520216,55.85784741522164
6.64895744,1.0001373506490268,55.71512624351668
6.651242496,0.9998935662869666,55.57584989612419
6.653527552,0.9996563135509542,55.440086115095085
6.655812608,0.9994406043791977,55.30759215187556
6.658097664,0.9992601176947504,55.17801936593058
6.66038272,0.9991263272173674,55.05073439367032
6.662667776,0.9990478361689954,54.92498901737295
6.664952832,0.9990296081133163,54.79994095711034
6.667237888,0.9990728484611663,54.674721889995155
6.669522944,0.9991748706887936,54.54844670197491
6.671808,0.9993292109640064,54.42030844684067
6.674093056,0.9995261762417716,54.28960769133269
6.676378112,0.9997530290013517,54.155821970213864
6.678663168,0.9999956522381006,54.018614884724755
6.680948224,1.0002384999869238,53.877876229052625
6.68323328,1.0004662424680426,53.733715074166966
6.685518336,1.0006644396502642,53.586426033646354
6.687803392,1.0008204125646822,53.436596161342806
6.690088448,1.0009244116220921,53.28485656495469
6.692373504,1.0009697562172786,53.132032060309086
6.69465856,1.0009534845262134,52.97897739150371
6.696943616,1.0008766275518253,52.82661002953629
6.699228672,1.000744196010431,52.67573364207636
6.701513728,1.0005642492461724,52.52714132004061
6.703798784,1.0003482552126433,52.381379440007706
6.70608384,1.0001098929345043,52.23894897455696
6.708368896,0.9998643385778108,52.10001022245946
6.710653952,0.9996269630257396,51.964572777054315
6.712939008,0.9994130938782577,51.832426242937956
6.715224064,0.9992361143631893,51.70314284574855
6.71750912,0.9991074475670652,51.57606869925003
6.719794176,0.9990352980179777,51.45045965375136
6.722079232,0.999024097802697,51.325448948544654
6.724364288,0.9990747826472609,51.20017977432487
6.726649344,0.9991841191495686,51.07369341491424
6.7289344,0.9993451875740537,50.94527424666805
6.731219456,0.9995478046220239,50.81420922439694
6.733504512,0.9997790797627802,50.67995745173478
6.735789568,1.0000244005651227,50.542222424316776
6.738074624,1.0002681404483451,50.40094605347554
6.74035968,1.0004948357689185,50.25622794015078
6.742644736,1.0006902836211367,50.10845463888433
6.744929792,1.0008418358048508,49.95814793397763
6.747214848,1.0009400051006123,49.806018342055594
6.749499904,1.0009784613076917,49.65288016077728
6.75178496,1.0009548941548398,49.4996260085167
6.754070016,1.0008706773750962,49.34715197673412
6.756355072,1.0007310671872,49.19628520287968
6.75864064,1.000544906265228,49.04777160747426
6.760925696,1.0003238712911424,48.902194719378635
6.763210752,1.000082060745543,48.759986579147984
6.765495808,0.9998346832560884,48.621315364985634
6.767780864,0.999597476634225,48.48615782912737
6.77006592,0.9993856402693646,48.35428809622106
6.772350976,0.9992124482136708,48.225198902027245
6.774636032,0.9990889563251382,48.09827029522091
6.776921088,0.9990231435888687,47.97273196093699
6.779206144,0.9990192091791112,47.84769736803652
6.7814912,0.9990773679170498,47.722247100298624
6.783776256,0.9991940650260578,47.595530359023044
6.786061312,0.9993617786586639,47.46673927502746
6.788346368,0.9995700710289026,47.33516702666718
6.790631424,0.9998055815565708,47.20040649846966
6.79291648,1.0000534068280018,47.06208383204594
6.795201536,1.0002978143784331,46.920217832904704
6.797486592,1.0005234059764554,46.774873241521426
6.799771648,1.0007157429192863,46.62650938301787
6.802056704,1.0008627218844222,46.47568346513003
6.80434176,1.0009549800406528,46.32308050946226
6.806626816,1.0009865619841187,46.16959188928667
6.808911872,1.000955628039578,46.01605210727586
6.811196928,1.0008638396632934,45.86342644195805
6.813481984,1.000717228628239,45.712487847291484
6.81576704,1.0005248450368658,45.56401451097129
6.818052096,1.0002989018799042,45.4185702165302
6.820337152,1.0000538190211408,45.27652602720822
6.822622208,0.9998049211157354,45.13804704601256
6.824907264,0.9995680634654343,45.003121317021375
6.82719232,0.9993583260175233,44.871443267119744
6.829477376,0.9991890119574354,44.7424870456988
6.831762432,0.9990710401862316,44.61563758573957
6.834047488,0.9990117960926588,44.49007718454932
6.836332544,0.9990151427956152,44.36490911518497
6.8386176,0.9990808679923369,44.23923518588789
6.840902656,0.999204889418794,44.11217562272246
6.843187712,0.9993793247500676,43.98291063518132
6.845472768,0.9995931441321388,43.85084086068226
6.847757824,0.9998327383434146,43.7154336675499
6.85004288,1.0000829850296253,43.57646416539287
6.852327936,1.0003279117609836,43.43390818952967
6.854612992,1.0005520671867711,43.28789742437437
6.856898048,1.0007411554457626,43.13887482061864
6.859183104,1.0008833635697125,42.98744066293709
6.86146816,1.0009695382502655,42.83434261931988
6.863753216,1.0009941306914292,42.68039806992109
6.866038272,1.0009556380059883,42.52655637750528
6.868323328,1.000856352125958,42.37370156192536
6.870608384,1.0007027172058642,42.22265190809434
6.87289344,1.0005042541789932,42.074160332418224
6.875178496,1.0002735710849486,41.92874760277331
6.877463552,1.0000251479948086,41.786796952280454
6.879748608,0.9997748917906325,41.64848800146543
6.882033664,0.9995385582361465,41.513696933998894
6.88431872,0.9993312119176163,41.38212162496105
6.886603776,0.9991660767838573,41.25324458903494
6.888888832,0.9990536325971446,41.12637854187156
6.891173888,0.9990010004171566,41.000741922688626
6.893458944,0.9990116522484712,40.87536363230334
6.895744,0.9990849616847816,40.74938938257126
6.898029056,0.9992162844568955,40.62190794979582
6.900314112,0.999397290079366,40.492117781251395
6.902599168,0.9996165330687014,40.35941720016681
6.904884224,0.9998601041808527,40.223337549606754
6.90716928,1.000112485363028,40.08363265665294
6.909454336,1.0003577885128343,39.940295565922426
6.911739392,1.000580375505371,39.79353424219326
6.914024448,1.0007661259681202,39.64381924389906
6.916309504,1.0009033274066013,39.49171984864498
6.91859456,1.000983240030933,39.33802787168085
6.920879616,1.0010006774118418,39.1836158463892
6.923164672,1.0009546670002303,39.02939094751404
6.925449728,1.000848018776524,38.876252579356034
6.927734784,1.00068731818342,38.72503511879352
6.93001984,1.0004828443758638,38.57645468519024
6.932304896,1.00024752855248,38.431034442478584
6.934589952,0.9999961042969708,38.28915124830954
6.936875008,0.9997446094404303,38.150886771441336
