freq,mag,phase
6.0,0.9999940920920555,15.908354424596746
6.041451008,0.9999914404541217,14.771951799639522
6.082901504,0.9999890965332745,13.63553531608781
6.124352512,0.9999867854571266,12.4991091559778
6.165803008,0.9999847066072558,11.362648543540184
6.207254016,0.9999827153788422,10.226115953277413
6.248704512,0.9999808641572753,9.089558256855684
6.29015552,0.9999792471923342,7.952906986253957
6.331606016,0.9999778393877493,6.816237755850998
6.373057024,0.9999765844515953,5.679549494732638
6.41450752,0.9999756432659602,4.54280539909148
6.455958528,0.9999750561670467,3.406010144133771
6.497409536,0.9999745738530603,2.2691538713655257
6.538860032,0.9999744706076723,1.1322479652769748
6.58031104,0.9999746118253345,-0.004727575599696795
6.621761536,0.9999750298847128,-1.1417794816670455
6.663212544,0.9999757507578165,-2.2788566655104296
6.70466304,0.9999767739672415,-3.4159844560197774
6.746114048,0.9999779179963861,-4.553230081896352
6.787564544,0.9999793919025854,-5.6905083203498075
6.829015552,0.9999810426725091,-6.827892099358683
6.87046656,0.9999829301346086,-7.965342503569077
6.911917056,0.9999849208819104,-9.102826460701982
6.953368064,0.9999871224946822,-10.240375150581214
6.99481856,0.9999893646509798,-11.37804162037759
7.036269568,0.9999916809048146,-12.515780334292764
7.077720064,0.9999939482945354,-13.653575290283737
7.119171072,0.9999963831098828,-14.791456756624122
7.160621568,0.999998785328532,-15.92940616193509
7.202072576,1.0000009843595383,-17.067445598465202
7.243523072,1.000003184336007,-18.205532404021763
7.28497408,1.0000052087579498,-19.343740932062957
7.326425088,1.0000070585886258,-20.482016064361517
7.367875584,1.0000087221198648,-21.62033511718959
7.409326592,1.0000102326912532,-22.758751881847974
7.450777088,1.0000114834939118,-23.897228525838212
7.492228096,1.000012478236454,-25.035759366396988
7.533678592,1.0000131044989204,-26.1743835187316
7.5751296,1.0000134875477666,-27.313052222902403
7.616580096,1.0000137131582154,-28.451829495369907
7.658031104,1.0000134962685623,-29.590624294557195
7.699482112,1.000013147150678,-30.729512344841222
7.740932608,1.000012338973124,-31.86843029559641
7.782383616,1.0000113213801114,-33.007426876829385
7.823834112,1.0000101103054766,-34.146464888059725
7.86528512,1.0000085719827085,-35.28555964792176
7.906735616,1.0000067607014096,-36.424718106541235
7.948186624,1.0000048852569907,-37.56390830622037
7.98963712,1.0000026842556407,-38.70317148132726
8.031088128,1.000000445181778,-39.842461666003985
8.072538624,0.9999980501291909,-40.9818137112417
8.113989632,0.9999955198652557,-42.121223000254915
8.15544064,0.9999931820129799,-43.260674062102865
8.196891136,0.9999905515777741,-44.40016212726785
8.238342144,0.9999881246292317,-45.53971586851103
8.27979264,0.999985535108314,-46.679307800771305
8.321243648,0.9999832985115934,-47.8189361984484
8.362694144,0.9999811779662393,-48.95863124996862
8.404145152,0.9999791298696101,-50.09837700466126
8.445595648,0.9999772486334806,-51.2381683997544
8.487046656,0.999975650289443,-52.37802583268736
8.528497664,0.99997429207146,-53.51790883723678
8.56994816,0.9999731597087554,-54.65785862643687
8.611398656,0.9999724121462071,-55.79786963726172
8.652850176,0.9999718343668517,-56.93796085956211
8.694300672,0.9999715807696035,-58.07812627974451
8.735751168,0.999971648752919,-59.21831228735173
8.777201664,0.9999720536307158,-60.358599690762524
8.818653184,0.9999727718080156,-61.49892592854058
8.86010368,0.9999737857620703,-62.6393576991081
8.901554176,0.9999751359432668,-63.77984758491212
8.943004672,0.9999765514088478,-64.92041598797708
8.984456192,0.9999783417793167,-66.06106940624386
9.025906688,0.9999804343235893,-67.20178373906369
9.067357184,0.9999826365674925,-68.3426090364105
9.108808704,0.9999850625527462,-69.48349754756248
9.1502592,0.9999876378107987,-70.62447838550389
9.191709696,0.9999901420042052,-71.76555395879029
9.233160192,0.9999928632169536,-72.90666309927082
9.274611712,0.9999955683134585,-74.0479240951681
9.316062208,0.9999982158368681,-75.1892298182805
9.357512704,1.0000008090186245,-76.33063718736682
9.398964224,1.0000033892257885,-77.47214204198642
9.44041472,1.000005677025118,-78.61373359802883
9.481865216,1.0000080201645425,-79.7553799952592
9.523315712,1.0000100313904412,-80.89713082553854
9.564767232,1.0000119409193915,-82.03894614223724
9.606217728,1.0000134732642099,-83.18086785906608
9.647668224,1.0000147058159767,-84.32285169126372
9.68911872,1.0000158428954247,-85.46490533307556
9.73057024,1.0000163861598788,-86.60705298201746
9.772020736,1.0000167687101864,-87.74926162595855
9.813471232,1.00001684910924,-88.8915309565528
9.854922752,1.000016506623528,-90.0338916015943
9.896373248,1.000015952010763,-91.1762923453386
9.937823744,1.0000149292736409,-92.31876898621049
9.97927424,1.0000136849685146,-93.46131537413599
10.02072576,1.0000121267408542,-94.60393061498031
10.062176256,1.000010303081667,-95.74658117537855
10.103626752,1.0000082884761525,-96.889286642542
10.145077248,1.000005962802827,-98.03206547780556
10.186528768,1.000003582739101,-99.17488229179415
10.227979264,1.0000008717144804,-100.3177513350695
10.26942976,0.9999981981000061,-101.46068643219034
10.31088128,0.9999953755795119,-102.60365651720845
10.352331776,0.9999925363454969,-103.74668176317195
10.393782272,0.9999897706179943,-104.88976137872672
10.435232768,0.9999869841995097,-106.03287729444472
10.476684288,0.9999843126293816,-107.17605421071634
10.518134784,0.9999817221240404,-108.31926532876261
10.55958528,0.9999793180650592,-109.46255925405993
10.601035776,0.9999770997309385,-110.60587538907734
10.642487296,0.999975176357139,-111.74927806042331
10.683937792,0.9999734422653596,-112.89272378396828
10.725388288,0.9999720827251417,-114.03620202197624
10.766839808,0.9999709447414183,-115.17977801815921
10.808290304,0.999970204398815,-116.32339448180988
10.8497408,0.9999697997113743,-117.467090188858
10.891191296,0.9999696746077783,-118.61084479675696
10.932642816,0.9999699863511732,-119.75467881226467
10.974093312,0.9999706616524648,-120.89855627455998
11.015543808,0.9999716891481497,-122.04253118275217
11.056995328,0.9999729191498101,-123.18659072920173
11.098445824,0.9999746014944897,-124.33070503171238
11.13989632,0.9999765008393019,-125.47489723387784
11.181346816,0.9999787446772035,-126.61920103513641
11.222798336,0.999981210405177,-127.76357847356248
11.264248832,0.9999839031953869,-128.90803859746273
11.305699328,0.9999867644460338,-130.05256471148974
11.347149824,0.9999897168143845,-131.19721903434387
11.388601344,0.9999928293828976,-132.34195157502043
11.43005184,0.9999959204480442,-133.48676102311666
11.471502336,0.9999990242583667,-134.63167416055632
11.512953856,1.0000021687925589,-135.77667216960708
11.554404352,1.0000051672374974,-136.92175854068722
11.595854848,1.0000080506897835,-138.06692979409533
11.637305344,1.0000107883910379,-139.21219698861668
11.678756864,1.0000133339443795,-140.35754694513966
11.72020736,1.0000155848309962,-141.50298595605753
11.761657856,1.0000175518689423,-142.64850713168332
11.803108352,1.0000192813487503,-143.79411696486713
11.844559872,1.0000205956357282,-144.93979851365066
11.886010368,1.0000215624266469,-146.08554865612007
11.927460864,1.0000222059362145,-147.2313852333724
11.968912384,1.0000224227592955,-148.37728667256627
12.01036288,1.000022293570403,-149.52327679880284
12.051813376,1.0000217026460267,-150.6693029313495
12.093263872,1.0000208047410608,-151.81542589367845
12.134715392,1.0000195627851567,-152.96158396708822
12.176165888,1.0000177929635132,-154.1078139344295
12.217616384,1.0000157720449399,-155.25409932500767
12.25906688,1.000013466161377,-156.40043097229776
12.3005184,1.0000108997996768,-157.54680400918403
12.341968896,1.000008112875072,-158.69325284746523
12.383419392,1.000005032369891,-159.8397230158678
12.424870912,1.0000018211715433,-160.98626059987
12.466321408,0.9999985031927465,-162.13282979998357
12.507771904,0.9999950883981152,-163.279464610603
12.5492224,0.9999916441972952,-164.42611348063681
12.59067392,0.9999882712678412,-165.5728304093064
12.632124416,0.9999849727224209,-166.71958314626787
12.673574912,0.9999817283097411,-167.86637278135123
12.715025408,0.9999786932498348,-169.01320987803715
12.756476928,0.9999758695909583,-170.160107253532
12.797927424,0.9999733820783184,-171.30704681395625
12.83937792,0.9999710935573035,-172.4540175833612
12.88082944,0.9999691371604599,-173.6010580822745
12.922279936,0.9999675786718799,-174.74814509966032
12.963730432,0.9999664253521344,-175.895292172924
13.005180928,0.9999656815821614,-177.0424929460827
13.046632448,0.9999652928707574,-178.18975926692588
13.088082944,0.9999653661149781,-179.33707275400062
13.12953344,0.9999658919704582,179.51551990821227
13.17098496,0.999966896368843,178.36807094917015
13.212435456,0.9999683235891714,177.2205244753496
13.253885952,0.9999700560305665,176.07290743178706
13.295336448,0.9999723022315801,174.92521681345985
13.336787968,0.9999748816203964,173.77744653791214
13.378238464,0.9999776958782303,172.6295923848385
13.41968896,0.99998091857015,171.4816475965349
13.461139456,0.9999843072275695,170.33363380104853
13.502590976,0.9999879416611509,169.18550827562848
13.544041472,0.9999917530325114,168.0373069957423
13.585491968,0.9999956505972802,166.88900347092093
13.626943488,0.9999995859598059,165.7406299305644
13.668393984,1.0000035324258572,164.59215756245598
13.70984448,1.0000073526493356,163.44359092661549
13.751294976,1.0000110983156234,162.2949255119908
13.792746496,1.0000146906373688,161.14618399236656
13.834196992,1.000018036184575,159.99734997262593
13.875647488,1.0000211503598841,158.84842621311032
13.917097984,1.0000238148858092,157.6994244197386
13.958549504,1.000026186727498,156.5503330817228
14.0,1.0000282358061985,155.4011623256203
