freq,mag,phase
6.0,1.0004857317048215,4.313530021578442
6.010796032,1.0005741155413312,3.973201944507634
6.021592576,1.0006337407343644,3.631896431421977
6.032388608,1.0006614192787513,3.289826744165467
6.04318464,1.0006558643969183,2.9475632870289052
6.053981184,1.0006172122130317,2.6054467283962213
6.064777216,1.0005472794637125,2.2639644928467013
6.07557376,1.0004496123766582,1.9234582408833263
6.086369792,1.0003289399906947,1.584193337464217
6.097165824,1.000191288071359,1.246550964071999
6.107962368,1.0000435083907369,0.9106114905731654
6.1187584,0.9998931397946511,0.5765054673530166
6.129554432,0.999747537823328,0.2442348054713697
6.140350976,0.9996140622976987,-0.08633617495200087
6.151147008,0.9994996037859207,-0.41541371956286965
6.161943552,0.9994097224302916,-0.7432577886016177
6.172739584,0.9993490519764876,-1.0702401314140084
6.183535616,0.9993208793792316,-1.3967059342558228
6.19433216,0.9993263918661731,-1.7231558243718135
6.205128192,0.9993655308255311,-2.0499632981123264
6.215924224,0.9994366042846534,-2.3775870579480767
6.226720768,0.9995357362788205,-2.706359766374112
6.2375168,0.9996581853369284,-3.0366936950676107
6.248313344,0.999797833786923,-3.3688361788796546
6.259109376,0.9999476879209224,-3.702912600704453
6.269905408,1.0001003474248176,-4.03906912409092
6.280701952,1.000248196870451,-4.377207367983193
6.291497984,1.0003833952532568,-4.717357561207222
6.302294016,1.0004997112243448,-5.059199223884682
6.31309056,1.0005909397395607,-5.402518016795497
6.323886592,1.000652519168126,-5.74690327472449
6.334682624,1.0006812690619382,-6.09198336153556
6.345479168,1.000675827826449,-6.437331892768097
6.3562752,1.0006362339428487,-6.782479872530798
6.367071744,1.0005644657206803,-7.1270882305711645
6.377867776,1.0004640516211152,-7.470639098140569
6.388663808,1.000339945826683,-7.812846176127547
6.399460352,1.000198385812748,-8.153449554610859
6.410256384,1.0000462878143241,-8.492321933544291
6.421052416,0.9998913392002149,-8.82929713788898
6.43184896,0.9997413465617904,-9.164393599391735
6.442644992,0.9996036535963053,-9.497726492725493
6.453441536,0.9994854786142319,-9.829503265310334
6.464237568,0.9993926265542101,-10.160042097987295
6.4750336,0.9993298473086797,-10.489679961507957
6.485830144,0.9993003802627615,-10.81876214396139
6.496626176,0.9993056594851225,-11.147858025569983
6.507422208,0.9993456860349201,-11.47728761062235
6.518218752,0.9994183892891673,-11.807567402118458
6.529014784,0.9995202873422088,-12.139075662992003
6.539810816,0.9996462320454781,-12.472164855101136
6.55060736,0.999790088041974,-12.807046054915077
6.561403392,0.9999445103984999,-13.144024363600941
6.572199936,1.0001018241479263,-13.483069989303342
6.582995968,1.0002541626717425,-13.824235115750762
6.593792,1.000393953693363,-14.167420779255156
6.604588544,1.0005140738090283,-14.512388142534599
6.615384576,1.000608464475056,-14.858827697721436
6.626180608,1.000672434955853,-15.206390966731096
6.636977152,1.0007026468179334,-15.55471531914966
6.647773184,1.0006974934441215,-15.90332545359574
6.658569728,1.000657237921572,-16.251754760922257
6.66936576,1.0005837080511477,-16.59955411840465
6.680161792,1.0004804912449843,-16.946358768892505
6.690958336,1.0003528956409673,-17.291777495485235
6.701754368,1.0002069751576417,-17.635553894472164
6.7125504,1.0000502746240312,-17.97748436291626
6.723346944,0.9998904067501369,-18.317489932249554
6.734142976,0.99973549658342,-18.655605415889376
6.74493952,0.9995932998344257,-18.991863663204057
6.755735552,0.9994709188301911,-19.326528396089223
6.766531584,0.9993747493256884,-19.659884983577285
6.777328128,0.9993092045560703,-19.992328632434273
6.78812416,0.9992781857937623,-20.324202905103636
6.798920192,0.9992829638373163,-20.656024820068136
6.809716736,0.9993236343883141,-20.988244994051225
6.820512768,0.9993980858776156,-21.321347178889077
6.8313088,0.9995026346165171,-21.6556632567538
6.842105344,0.9996322050428468,-21.991604049106314
6.852901376,0.9997803239239511,-22.329439368982616
6.86369792,0.9999395675029099,-22.66938077596097
6.874493952,1.0001019794180999,-23.011539142390113
6.885289984,1.0002594346706164,-23.3558263014603
6.896086528,1.0004041860479989,-23.70218536062382
6.90688256,1.0005286062555707,-24.05042140543131
6.917678592,1.000626761185604,-24.40018674745775
6.928475136,1.0006935187793378,-24.75120409986121
6.939271168,1.000725554661436,-25.102909181825552
6.950067712,1.0007212140338124,-25.45494200815087
6.960863744,1.0006802801856567,-25.80682125209037
6.971659776,1.0006051078714453,-26.158050273822145
6.98245632,1.0004994535410643,-26.50824651744118
6.993252352,1.000368051456468,-26.857061077736773
7.004048384,1.0002178217210664,-27.204182165479804
7.014844928,1.000056080389215,-27.54937577575891
7.02564096,0.9998908710220694,-27.89263285324409
7.036436992,0.9997307165949848,-28.233861681769973
7.047233536,0.9995832488464261,-28.573218551455945
7.058029568,0.9994561391380403,-28.910959326565116
7.068826112,0.9993558220309843,-29.247282517869237
7.079622144,0.9992874288042918,-29.58266678287078
7.090418176,0.9992542375182035,-29.917468300391242
7.10121472,0.9992584155114754,-30.25219970463359
7.112010752,0.9992992555870657,-30.587346294659945
7.122806784,0.9993753257008111,-30.92333841976328
7.133603328,0.9994826583442024,-31.26061479530304
7.14439936,0.9996159862325957,-31.5995914614484
7.155195904,0.9997686406925627,-31.94046206123163
7.165991936,0.9999331718427662,-32.283529486248476
7.176787968,1.0001010065772777,-32.62890565626026
7.187584512,1.0002640891194883,-32.97648580143877
7.198380544,1.000414205082731,-33.32621005661658
7.209176576,1.0005437133614907,-33.67786031803856
7.21997312,1.000646112153056,-34.031157695683476
7.230769152,1.000716213785469,-34.38566951138906
7.241565696,1.000750395214164,-34.74098452491731
7.252361728,1.0007470724796812,-35.096641064982435
7.26315776,1.0007060955579432,-35.45212980080383
7.273954304,1.0006293002190552,-35.807018425705486
7.284750336,1.0005208867413675,-36.16082377240917
7.295546368,1.0003858464547724,-36.51320885946191
7.306342912,1.0002309020909927,-36.863824960799434
7.317138944,1.0000637766666853,-37.21252452142455
7.327934976,0.9998928507852293,-37.55912961580988
7.33873152,0.9997266510924523,-37.90369994124216
7.349527552,0.999573662995411,-38.24637744576527
7.360324096,0.9994412340449705,-38.58725527762714
7.371120128,0.9993363374292987,-38.92677835175905
7.38191616,0.9992642742753896,-39.26523536794543
7.392712704,0.9992285807831915,-39.60310392711029
7.403508736,0.9992314311351472,-39.94085614510983
7.414304768,0.9992725340813918,-40.27905031172376
7.425101312,0.9993499336973329,-40.61808628318157
7.435897344,0.9994600129503414,-40.95844854490955
7.446693888,0.9995970560576886,-41.30053776273518
7.45748992,0.9997545274383638,-41.644620926362045
7.468285952,0.9999245057420924,-41.990959740202086
7.479082496,1.0000983708353832,-42.33963862569862
7.489878528,1.0002676206952468,-42.69064822968545
7.50067456,1.0004236876449262,-43.0438925359481
7.511471104,1.0005589415749911,-43.39910401860729
7.522267136,1.0006661802936856,-43.756039638444115
7.53306368,1.0007402099583964,-44.11427871333503
7.543859712,1.0007772978406773,-44.4733686833793
7.554655744,1.000775361584589,-44.832824678808954
7.565452288,1.0007343716682624,-45.192150269536
7.57624832,1.0006563871179113,-45.5508406110651
7.587044352,1.0005453612887438,-45.908453314475835
7.597840896,1.0004064550333782,-46.26458875963378
7.608636928,1.0002464768793409,-46.618957095844635
7.61943296,1.0000737660739543,-46.9712862145993
7.630229504,0.9998964866857045,-47.321511578483694
7.641025536,0.9997239085458943,-47.66960194151326
7.65182208,0.9995645676183835,-48.01564548630107
7.662618112,0.9994261737307863,-48.35994386231316
7.673414144,0.9993160884221282,-48.70270016394049
7.684210688,0.9992398047376506,-49.04440356320511
7.69500672,0.9992011311715088,-49.38547860837392
7.705802752,0.9992021437021492,-49.72639492203215
7.716599296,0.9992430390803617,-50.06775108000153
7.727395328,0.9993216325463018,-50.40995801022849
7.738191872,0.9994342840017101,-50.75351169636525
7.748987904,0.9995753396046726,-51.098853569126334
7.759783936,0.9997377891908285,-51.44624816480799
7.77058048,0.9999137264374017,-51.79594988074494
7.781376512,1.0000940806474266,-52.14808498521514
7.792172544,1.0002701092878477,-52.50264959986577
7.802969088,1.00043287992211,-52.85955445872694
7.81376512,1.0005743374969995,-53.21851144160251
7.824561152,1.0006871171152463,-53.57927941000242
7.835357696,1.0007657504753311,-53.94139574799443
7.846153728,1.0008061522282872,-54.304425958302964
7.856950272,1.0008060615960686,-54.66786119970274
7.867746304,1.00076566282544,-55.03119122597814
7.878542336,1.0006866743036047,-55.39389681113404
7.88933888,1.0005728620268057,-55.75551216494235
7.900134912,1.0004300073856687,-56.11557732368567
7.910930944,1.000265098727089,-56.47386543727302
7.921727488,1.000086080072886,-56.830052150755705
7.93252352,0.9999022321016273,-57.1840223029683
7.943320064,0.9997224928378875,-57.5357941612896
7.954116096,0.9995560471686605,-57.88545407119194
7.964912128,0.9994110265818452,-58.233241355044605
7.975708672,0.999295064331803,-58.57946682382635
7.986504704,0.9992137395500696,-58.92452655200663
7.997300736,0.99917146113137,-59.26889832016458
8.00809728,0.9991702453187522,-59.613152614143765
8.018893312,0.9992104940337899,-59.95774794071232
8.029689856,0.9992900678834743,-60.30324520570101
8.040485888,0.9994052630926655,-60.65010652150367
8.05128192,0.9995503045003858,-60.99877339438616
8.062078464,0.9997180834940079,-61.34960628456543
8.072874496,0.9999001819292765,-61.702836903454035
8.083670528,1.0000876395892033,-62.05854610588777
8.094467072,1.0002709797608969,-62.416786056385206
8.105263104,1.0004412087074337,-62.77742334867843
8.116059136,1.0005896803367786,-63.14031561800582
8.12685568,1.0007089197906658,-63.50501644267431
8.137651712,1.0007928216323612,-63.87117161012906
8.148448256,1.0008372154401324,-64.23835265623987
8.159244288,1.000839599976645,-64.60596026648999
8.17004032,1.0008001579689876,-64.97346341237765
8.180836864,1.0007202802900106,-65.3403617053512
8.191632896,1.000604069448234,-65.7061518872821
8.202428928,1.0004572029250502,-66.07041871090907
8.213225472,1.0002867063645076,-66.4327745662136
8.224021504,1.0001012509081482,-66.79298445451114
8.234818048,0.9999101838574085,-67.15091345747419
8.24561408,0.9997228702635189,-67.50651790782781
8.256410112,0.99954855856384,-67.85995371152907
8.267206656,0.9993961254129424,-68.21140843047543
8.278002688,0.9992733325548341,-68.56121352049652
8.28879872,0.9991864016584889,-68.9097694394196
8.299595264,0.9991396481605913,-69.25760000067991
8.310391296,0.9991356392345117,-69.60523370910711
8.32118784,0.9991746520053576,-69.95322267974531
8.331983872,0.9992550489746224,-70.30208867021281
8.342779904,0.999372566532085,-70.65235767221665
8.353576448,0.9995217365743602,-71.00448591808471
8.36437248,0.9996950242377451,-71.35881015216508
8.375168512,0.9998838607669841,-71.71562273094233
8.385965056,1.000078963391856,-72.0750240380344
8.396761088,1.000270445434783,-72.4370661034325
8.40755712,1.0004487275299414,-72.80164923368116
8.418353664,1.0006050541249836,-73.16852523285779
8.429149696,1.0007314926293203,-73.53736349831941
8.43994624,1.0008214957459107,-73.90773841460471
8.450742272,1.0008707536347599,-74.27916798734519
8.461538304,1.000876312711838,-74.65110501371647
8.472334848,1.0008380583251268,-75.02301755256437
8.48313088,1.0007578232203944,-75.39430983784452
8.493926912,1.000639223105285,-75.76447211685014
8.504723456,1.0004881738504756,-76.13308265594262
8.515519488,1.000312126101223,-76.4997059686782
8.526316032,1.0001198582761979,-76.86412025764332
8.537112064,0.9999207566043484,-77.22618856779525
8.547908096,0.9997249592906949,-77.58581792462924
8.55870464,0.9995419744823002,-77.9431732598373
8.569500672,0.9993812430997658,-78.29842828929122
8.580296704,0.9992507646179579,-78.65195216705386
8.591092736,0.999157221809026,-79.00412796636182
8.601889792,0.9991052246813246,-79.3555329712337
8.612685824,0.9990977449239158,-79.70664703692216
8.623481856,0.9991351111943368,-80.05812785771289
8.634277888,0.9992157873671113,-80.41042002272384
8.64507392,0.9993356846194483,-80.76419536552889
8.655869952,0.9994888855304995,-81.1198716011147
8.666667008,0.999667887350172,-81.47779365060605
8.67746304,0.9998640008199502,-81.83827830406024
8.688259072,1.00006721601676,-82.20146493524899
8.699055104,1.0002676049055772,-82.56742436140793
8.709851136,1.0004550247550463,-82.9359995043156
8.720648192,1.0006201689922716,-83.30701960411226
8.731444224,1.0007547308419635,-83.68008323871608
8.742240256,1.0008518037649823,-84.05482106101273
8.753036288,1.0009065769414123,-84.43070270066549
8.76383232,1.0009161148264611,-84.80714762827829
8.774629376,1.000879916929181,-85.18360623733967
8.785425408,1.0007995386488668,-85.55944904453503
8.79622144,1.0006788781362217,-85.93417578008983
8.807017472,1.0005237024140285,-86.30731533514891
8.817813504,1.0003417194304036,-86.67842982666036
8.828609536,1.0001421448175714,-87.04722078788731
8.839406592,0.9999345483360271,-87.41358283983155
8.850202624,0.9997294652734411,-87.7773962960857
8.860998656,0.9995369716595982,-88.13882442101819
8.871794688,0.9993669124042934,-88.49803535561543
8.88259072,0.9992278272380681,-88.85539247081087
8.893387776,0.9991265487389566,-89.21134855032919
8.904183808,0.9990685615106865,-89.56636263671633
8.91497984,0.9990566903689994,-89.92110448214657
8.925775872,0.9990917809495943,-90.27609664402345
8.936571904,0.999172311984905,-90.63196898953558
8.947367936,0.999294220487161,-90.98927762072789
8.958164992,0.9994516460775064,-91.34852756720676
8.968961024,0.9996366985863399,-91.71012396405644
8.979757056,0.9998404208463143,-92.07438023016658
8.990553088,1.000052535529537,-92.44140891679962
9.00134912,1.0002626069461757,-92.81135968014661
9.012146176,1.0004600160150816,-93.18406842032354
9.022942208,1.0006351133022429,-93.55929828819943
9.03373824,1.0007787879213927,-93.93676741655135
9.044534272,1.0008840289841074,-94.31599676183087
9.055330304,1.000945404431497,-94.69648563309477
9.06612736,1.0009597306131637,-95.07757344265454
9.076923392,1.000926135102955,-95.45874624845591
9.087719424,1.0008461353688385,-95.8393612760707
9.098515456,1.0007234610217077,-96.21883986188269
9.109311488,1.0005642533703294,-96.59668273404453
9.12010752,1.0003762835264016,-96.97244126902176
9.130904576,1.0001687875042438,-97.345812526784
9.141700608,0.9999519976565,-97.71662968284832
9.15249664,0.9997366583980535,-98.0848016094713
9.163292672,0.9995336393173805,-98.4504234230641
9.174088704,0.9993530788714121,-98.81375455581951
9.18488576,0.999204111460567,-99.1750473171946
9.195681792,0.9990942133500796,-99.5348420620106
9.206477824,0.9990290195893196,-99.89363898786239
9.217273856,0.9990119545499939,-100.25202151139842
9.228069888,0.9990439764882756,-100.61062346734616
9.23886592,0.9991238026027212,-100.97010169009029
9.249662976,0.9992474403151658,-101.33100174868
9.260459008,0.9994088298188893,-101.69388983726232
9.27125504,0.999600294940759,-102.05921236885015
9.282051072,0.9998120340386507,-102.4272314297114
9.292847104,1.0000338157336575,-102.79820543480325
9.30364416,1.0002543962054304,-103.17217364696225
9.314440192,1.0004630016219522,-103.54909367670588
9.325236224,1.000649046843343,-103.92867464990651
9.336032256,1.000803235314334,-104.3106302828885
9.346828288,1.0009177652130896,-104.69446696227605
9.35762432,1.0009868617156943,-105.07966067142092
9.368421376,1.0010068445543117,-105.4655822951755
9.379217408,1.0009767119795643,-105.8516368449979
9.39001344,1.0008976255426112,-106.23716530377271
9.400809472,1.000773496963849,-106.62157162628709
9.411605504,1.0006102216210806,-107.00428283010211
9.42240256,1.0004158947921125,-107.38486104037476
9.433198592,1.000200014571564,-107.76297584817188
9.443994624,0.9999731982857308,-108.13843882289972
9.454790656,0.9997468060160352,-108.51110066176757
9.465586688,0.9995321909746337,-108.88108919511191
9.476383744,0.9993399068492296,-109.24861183335452
9.487179776,0.9991797552222059,-109.61400823219323
9.497975808,0.9990599500875238,-109.97769827251054
9.50877184,0.9989863365490818,-110.3403030289406
9.519567872,0.9989629566532933,-110.70241823753194
9.530363904,0.9989911788804564,-111.06468962688324
9.54116096,0.9990696214929049,-111.42777416873153
9.551956992,0.999194647662556,-111.79233200016395
9.562753024,0.9993601745591625,-112.15886718349304
9.573549056,0.9995580259385007,-112.52790883450544
9.584345088,0.999778428560088,-112.89976434418739
9.595142144,1.0000106038244014,-113.27471349541185
9.605938176,1.0002428823299574,-113.6527726613428
9.616734208,1.000463710400744,-114.03393861281118
9.62753024,1.0006621016857766,-114.41794228616217
9.638326272,1.0008280637048947,-114.80444324233368
9.649122304,1.0009533409523483,-115.19301220362343
9.65991936,1.0010314051724236,-115.5830468469958
9.670715392,1.0010582739392246,-115.97393966954644
9.681511424,1.0010325043742039,-116.36502673554942
9.692307456,1.0009552118965988,-116.75562635250807
9.703103488,1.0008298873979224,-117.14511896983939
9.713900544,1.0006626477426155,-117.53289137948401
9.724696576,1.0004617458947667,-117.91848144998785
9.735492608,1.0002369533572457,-118.30151239832786
9.74628864,0.9999994517650859,-118.68174369034631
9.757084672,0.9997609000868555,-119.0590619306072
9.767881728,0.999533280290588,-119.43353300046536
9.77867776,0.9993279841695247,-119.80536851133999
9.789473792,0.9991552096517132,-120.17490689447013
9.800269824,0.9990239658513763,-120.54263619330156
9.811065856,0.9989406213055615,-120.9091158285249
9.821861888,0.9989097620608727,-121.27497309823195
9.832658944,0.9989330163469394,-121.64094332181763
9.843454976,0.9990093057248507,-122.00766679001694
9.854251008,0.9991353842748496,-122.37583009535817
9.86504704,0.9993046952990045,-122.74604665370191
9.875843072,0.9995092755623451,-123.11881481680663
9.886640128,0.9997388664811261,-123.49449889080756
9.89743616,0.9999822641095597,-123.87340663546374
9.908232192,1.0002271867731227,-124.25560127777798
9.919028224,1.0004617036772954,-124.64102885354534
9.929824256,1.0006738672562965,-125.02948822030473
9.940620288,1.0008532469988112,-125.42064488858252
9.951417344,1.000990605303649,-125.81402128892722
9.962213376,1.0010792252267844,-126.20903636635967
9.973009408,1.0011142901973318,-126.6050152267567
9.98380544,1.001094016412487,-127.00127001304226
9.994601472,1.0010190919798427,-127.39709147131033
10.005398528,1.0008931520887832,-127.79182956534825
10.01619456,1.0007221530189947,-128.18483872338578
10.026990592,1.0005144692172936,-128.57559960302834
10.037786624,1.000280313261037,-128.96370521499972
10.048582656,1.0000310928487095,-129.3488556721462
10.059379712,0.9997792049078452,-129.73094918836344
10.070175744,0.9995373614513912,-130.1100476173046
10.080971776,0.9993173675532405,-130.48629282334045
10.091767808,0.999130412275573,-130.86008674522753
10.10256384,0.9989859830278496,-131.23188247884488
10.113359872,0.9988913710521254,-131.60224648494926
10.124156928,0.9988514838781609,-131.97190804642466
10.13495296,0.9988686850143351,-132.3415548609301
10.145748992,0.9989421824067531,-132.71189682055197
10.156545024,0.9990684263826434,-133.08366523046266
10.167341056,0.9992415112760591,-133.45751208876487
10.178138112,0.9994529800293409,-133.83397095144625
10.188934144,0.9996923441736532,-134.21348187053184
10.199730176,0.9999477986072837,-134.5963235862892
10.210526208,1.000206759121861,-134.98263367115266
10.22132224,1.000456233854987,-135.3723550851666
10.232118272,1.0006839016479332,-135.76531889692612
10.242915328,1.0008783111507662,-136.16118285777378
10.25371136,1.001029735367243,-136.55942618124087
10.264507392,1.0011304682909419,-136.9594757526904
10.275303424,1.001175291332751,-137.36064508821912
10.286099456,1.0011618023323752,-137.76220985742688
10.296896512,1.0010903569263507,-138.1634137014472
10.307692544,1.0009644043734645,-138.56355732194277
