freq,mag,phase
6.0,0.9997693791830465,113.94876784732257
6.041025536,0.9997796669558703,111.19924800418458
6.082051072,0.9997940729364702,108.45440376818492
6.12307712,0.9998103679036141,105.71405025557469
6.164102656,0.9998286151731967,102.97795520389192
6.205128192,0.9998483592160998,100.2459073955152
6.246153728,0.9998695421673907,97.51765799399264
6.287179264,0.9998918761182937,94.79302695913431
6.328205312,0.9999150485608288,92.07175782045776
6.369230848,0.9999388113018669,89.35365892986366
6.410256384,0.9999630009244744,86.63847975301661
6.45128192,0.9999872953759116,83.92600605592627
6.492307456,1.0000114205178305,81.21601174424208
6.533333504,1.000035180342453,78.50827946407918
6.57435904,1.000058173605853,75.80255880835006
6.615384576,1.0000802863999976,73.0986493771051
6.656410112,1.0001012124512658,70.39630471836935
6.697435648,1.0001208927481295,67.69533146967069
6.738461696,1.0001389757185992,64.99547030105366
6.779487232,1.0001552633716886,62.29652237065381
6.820512768,1.0001696527008996,59.598258462237595
6.861538304,1.0001821382910336,56.90044558569603
6.902564352,1.000192436459769,54.20285769667958
6.943589888,1.0002004235056141,51.505317073458365
6.984615424,1.0002062794057893,48.807545825909635
7.02564096,1.0002098345818213,46.10934526772123
7.066666496,1.0002110726962972,43.41050988833866
7.107692544,1.000210144182149,40.71079238053624
7.14871808,1.0002069027458413,38.00999815709881
7.189743616,1.0002016426045526,35.30790292337115
7.230769152,1.0001943483975804,32.60426964186349
7.271794688,1.0001851672425621,29.898904724633013
7.312820736,1.0001742574995576,27.19157169408662
7.353846272,1.00016183233919,24.48207215143542
7.394871808,1.000147974980595,21.770183910242878
7.435897344,1.0001329131138614,19.055685336844498
7.47692288,1.000116967151041,16.338392100768274
7.517948928,1.0001002503789347,13.61803069430581
7.558974464,1.0000829933116104,10.894431145827204
7.6,1.0000654021608542,8.167389944683258
7.641025536,1.0000477938020582,5.4366858935878595
7.682051072,1.0000302395052223,2.7020989323871043
7.72307712,1.0000130780583703,-0.0365484603839853
7.764102656,0.9999965551358639,-2.7794818310058274
7.805128192,0.9999806670421096,-5.5268781007247485
7.846153728,0.9999656991489628,-8.278952114459713
7.887179264,0.9999518649778136,-11.035892941422281
7.928205312,0.9999392586666958,-13.797908351850577
7.969230848,0.9999281017331866,-16.565138371579057
8.010256384,0.9999181921072393,-19.33779591106546
8.05128192,0.9999098936493745,-22.116056398237646
8.092307456,0.9999031624395974,-24.90007063002772
8.133333504,0.9998979810240869,-27.690017963634734
8.17435904,0.9998944172573694,-30.486068908780332
8.215384576,0.9998924837899366,-33.28833377210457
8.256410112,0.9998920036127723,-36.0969903482731
8.297435648,0.9998930196194896,-38.91216308545962
8.338461696,0.9998953749500767,-41.73398490869492
8.379487232,0.9998990585727567,-44.56256674242213
8.420512768,0.9999037951126902,-47.39801333022935
8.461538304,0.999909622353714,-50.24044704863077
8.502564352,0.9999161195989752,-53.089944983340544
8.543589888,0.9999235886542653,-55.94657282371577
8.584615424,0.999931300565621,-58.810424560012045
8.625641472,0.9999395735750195,-61.68156252415746
8.666667008,0.9999478438348378,-64.56001227042297
8.707692544,0.9999561713681938,-67.44581783228953
8.74871808,0.9999644081890087,-70.33901725378341
8.789743616,0.99997218738664,-73.23960177635408
8.830769152,0.9999795427354067,-76.14759202232085
8.871794688,0.9999862203650621,-79.06295863056648
8.912820224,0.999992151914976,-81.98568461204404
8.95384576,0.9999972784993922,-84.91575161852657
8.994871296,1.0000014092082101,-87.8530915216333
9.035897856,1.0000045138683324,-90.79763543322832
9.076923392,1.000006482954216,-93.74933292382403
9.117948928,1.0000074313432559,-96.70808383392178
9.158974464,1.0000072152810915,-99.67380478544543
9.2,1.0000059365472558,-102.64635743856682
9.241025536,1.0000035845585282,-105.6256490829204
9.282051072,1.0000002945972224,-108.61153886366407
9.323076608,0.9999960140449518,-111.60385668091617
9.364102144,0.9999910454390303,-114.60248565984105
9.405128704,0.9999853293356488,-117.60721386037993
9.44615424,0.9999790734513929,-120.61789968608484
9.487179776,0.9999723940249985,-123.63432083378348
9.528205312,0.9999655477223641,-126.65629338410376
9.569230848,0.9999586067658065,-129.68360025022753
9.610256384,0.9999517925229359,-132.71604507566857
9.65128192,0.999945313722595,-135.75336633434927
9.692307456,0.9999392698529854,-138.79533462533814
9.733332992,0.9999338841733691,-141.84169325447948
9.774358528,0.9999294060396345,-144.89219878952687
9.815385088,0.9999258348908441,-147.94657265771744
9.856410624,0.9999234588832542,-151.00457515043692
9.89743616,0.9999223672969314,-154.06591024723602
9.938461696,0.9999227029519294,-157.13027424501735
9.979487232,0.9999244894614502,-160.1973995641803
10.020512768,0.9999279173850514,-163.26696058531886
10.061538304,0.9999330018539339,-166.33870953491203
10.10256384,0.9999396836518567,-169.4122794701098
10.143589376,0.9999480248530094,-172.48739740641653
10.184614912,0.9999580737276866,-175.56373251514765
10.225641472,0.9999697882948178,-178.64098117618548
10.266667008,0.9999828671641842,178.28118273880517
10.307692544,0.9999975180435021,175.2030844636596
10.34871808,1.0000133390820156,172.12503814182466
10.389743616,1.0000303298166136,169.04738961946657
10.430769152,1.0000482737508645,165.9704462436708
10.471794688,1.0000669104620759,162.89452148221122
10.512820224,1.0000861202003148,159.81994507445864
10.55384576,1.0001055994376296,156.74705570476013
10.594871296,1.0001252423355396,153.67613283348174
10.635897856,1.0001445452738154,150.60754756265123
10.676923392,1.0001633825530454,147.54157083967704
10.717948928,1.0001813685726648,144.47853142188615
10.758974464,1.0001983169479576,141.41872078159972
10.8,1.0002139506542775,138.36246037524882
10.841025536,1.0002281837051563,135.31002717460825
10.882051072,1.0002403580948012,132.26170534115903
10.923076608,1.0002506364726667,129.21778928308342
10.964102144,1.0002585327898887,126.17854529607224
11.005128704,1.000264042424269,123.14422415395313
11.04615424,1.000266829269679,120.1151114912273
11.087179776,1.0002668719883003,117.09144217533779
11.128205312,1.000264102052033,114.07345434153575
11.169230848,1.0002582215942892,111.06137344936226
11.210256384,1.0002494138739546,108.05540722338965
11.25128192,1.0002375662524423,105.05579375376274
11.292307456,1.0002227490681774,102.06268618634633
11.333332992,1.0002049870710177,99.07629856434099
11.374358528,1.0001844272564107,96.09678989785778
11.415385088,1.0001611728096913,93.12430695928309
11.456410624,1.0001354588865732,90.15901641715394
11.49743616,1.000107461471737,87.20104452565758
11.538461696,1.0000774962558328,84.25049855307253
11.579487232,1.0000458413429643,81.30748290683474
11.620512768,1.0000127008520674,78.37210702309088
11.661538304,0.9999784930082015,75.44442939580756
11.70256384,0.9999435841755557,72.52451955345545
11.743589376,0.9999083105492973,69.6124320084701
11.784614912,0.9998729776308258,66.70819561465959
11.825641472,0.999838158303335,63.811829886138355
11.866667008,0.9998041795783404,60.92335669969502
11.907692544,0.9997715042088952,58.0427364139427
11.94871808,0.9997403584614718,55.17000815507843
11.989743616,0.9997113675242149,52.30508560299799
12.030769152,0.9996846121203203,49.44795476680647
12.071794688,0.9996606408415653,46.59853603693958
12.112820224,0.9996397598766807,43.75678457437638
12.15384576,0.9996222142959212,40.922620644060046
12.194871296,0.999608333134352,38.09595143480582
12.235897856,0.999598249214751,35.276643567659086
12.276923392,0.9995923514211682,32.46463099414821
12.317948928,0.9995906069825852,29.659741813828113
12.358974464,0.9995931456825558,26.86190482181685
12.4,0.9995999746258569,24.070949114640698
12.441025536,0.9996112434198272,21.286727727118738
12.482051072,0.9996268354566995,18.509092244158122
12.523076608,0.9996466647317389,15.73788758170636
12.564102144,0.9996706905359775,12.972951724340174
12.605128704,0.9996985816728299,10.214097083275028
12.64615424,0.9997301547202337,7.461168626379669
12.687179776,0.9997653016421837,4.713960307762632
12.728205312,0.9998034353332323,1.9723030937757737
12.769230848,0.9998444418216444,-0.7639726303468737
12.810256384,0.9998877482207336,-3.4950928485989707
12.85128192,0.9999330723436852,-6.221220138175799
12.892307456,0.9999798791904161,-8.942559484084462
12.933332992,1.0000277737654393,-11.65930957528665
12.974358528,1.0000762307059454,-14.371654186824696
13.015385088,1.000124768889456,-17.07981211577264
13.056410624,1.00017293097294,-19.783953016345976
13.09743616,1.0002199665558569,-22.484309604778975
13.138461696,1.0002657352562103,-25.181052343229492
13.179487232,1.000309374057538,-27.874380036206365
13.220512768,1.0003507064909756,-30.56449322364106
13.261538304,1.000389088531244,-33.25160383880639
13.30256384,1.0004241741506978,-35.935893492503006
13.343589376,1.0004554535224837,-38.617552186700834
13.384614912,1.0004826092632768,-41.29678560817682
13.425641472,1.0005052163987835,-43.97379580740547
13.466667008,1.0005231958615541,-46.648751518453395
13.507692544,1.000536076668793,-49.321857541872596
13.54871808,1.0005437025225175,-51.993327097439895
13.589743616,1.0005458475111177,-54.66331435745508
13.630769152,1.0005426368411472,-57.33204490077165
13.671794688,1.0005337792797167,-59.99968731639194
13.712820224,1.0005194790595324,-62.66645569811048
13.75384576,1.0004995841383604,-65.33252528481111
13.794871296,1.0004743352279897,-67.99809243244862
13.835897856,1.0004438900847317,-70.66336732877654
13.876923392,1.0004085891229069,-73.32852559573247
13.917948928,1.000368573931166,-75.99376490128397
13.958974464,1.0003241751128564,-78.65929772926033
14.0,1.000275827255195,-81.32529781356288
