freq,mag,phase
6.0,1.0001223092934706,-120.51420373724976
6.02739712,1.0001316487621308,-121.94097317422478
6.054794752,1.0001385205522484,-123.3678307094927
6.082191872,1.0001421812056268,-124.79468922706717
6.109588992,1.0001427301362793,-126.22157009422733
6.136986112,1.0001399063422172,-127.64843922294493
6.164383744,1.0001339746071942,-129.07521526269986
6.191780864,1.000124944463532,-130.5018565515085
6.219177984,1.0001130957998794,-131.9283897358499
6.246575104,1.0000987658907703,-133.3547009880863
6.273972736,1.0000821116472627,-134.78081067644393
6.301369856,1.0000637443962117,-136.206655391003
6.328766976,1.0000437614120643,-137.632260498678
6.356164608,1.0000229868890882,-139.0575278566509
6.383561728,1.000001717733892,-140.48247599382256
6.410958848,0.9999804657523919,-141.90712970746895
6.438355968,0.9999598733223802,-143.3314456999767
6.4657536,0.9999403387483271,-144.75544838889942
6.49315072,0.999922240317553,-146.17906497070442
6.52054784,0.9999060954377208,-147.60238540450766
6.54794496,0.9998923134738789,-149.02537258990975
6.575342592,0.9998812305816306,-150.44804015502794
6.602739712,0.9998730620766477,-151.87039688528156
6.630136832,0.9998680131249249,-153.29247924428378
6.657534464,0.9998662745244075,-154.71431893753368
6.684931584,0.9998678133219756,-156.13590962929402
6.712328704,0.9998726557050328,-157.5572741541344
6.739725824,0.9998806651599517,-158.97842978843846
6.767123456,0.9998916394628619,-160.3994021342014
6.794520576,0.9999053905874435,-161.82018141093886
6.821917696,0.999921625089443,-163.2408247768503
6.849314816,0.999939770514297,-164.6612902756785
6.876712448,0.9999596453503189,-166.08164579419378
6.904109568,0.9999806396938278,-167.50186395106246
6.931506688,1.0000022553241743,-168.92192665543678
6.95890432,1.0000239677382219,-170.34185502437558
6.98630144,1.0000453860793819,-171.7616301597126
7.01369856,1.0000658263514632,-173.1812381404684
7.04109568,1.0000848876360364,-174.60065394103637
7.068493312,1.0001021000508998,-176.01985892792155
7.095890432,1.000117121272571,-177.43883257358647
7.123287552,1.000129553186539,-178.8575427975205
7.150685184,1.0001390333355185,179.7240624904109
7.178082304,1.0001452886161089,178.30597918574628
7.205479424,1.0001483051159048,176.888283711246
7.232876544,1.0001478519744007,175.4709633840494
7.260274176,1.0001441184131479,174.054133101707
7.287671296,1.0001370322195067,172.63773838336778
7.315068416,1.0001268065545048,171.22189112695858
7.342465536,1.0001136611158752,169.806576010817
7.369863168,1.0000978694301996,168.39186846486965
7.397260288,1.0000798977314593,166.97774701295054
7.424657408,1.000060103988145,165.56429187868812
7.45205504,1.0000389264154064,164.15147806181062
7.47945216,1.0000168728797578,162.73933642160705
7.50684928,0.9999944800690904,161.32788834912273
7.5342464,0.9999723184622236,159.91711993440873
7.561644032,0.9999508812048438,158.50706668877777
7.589041152,0.9999307132521714,157.0977206950601
7.616438272,0.9999123895545904,155.68901369215558
7.643835392,0.9998959931084442,154.2810139254556
7.671233024,0.9998824457739998,152.87365923049995
7.698630144,0.9998715189249796,151.466967423754
7.726027264,0.9998638531938211,150.06087952263636
7.753424896,0.9998596973399148,148.65538083367272
7.780822016,0.9998587423322108,147.25046092030706
7.808219136,0.9998615080159159,145.84608372263924
7.835616256,0.9998675664379604,144.44221126532955
7.863013888,0.9998770995688946,143.03885548343402
7.890411008,0.9998895398489519,141.63594755398987
7.917808128,0.9999049150050765,140.23348239204907
7.945205248,0.9999227101589118,138.83146368689356
7.97260288,0.9999425182805801,137.42983364994313
8.0,0.9999637926930998,136.02861967408
8.02739712,0.999986229488893,134.62777659638314
8.054794752,1.000009251028068,133.22733293525494
8.082191872,1.0000321376171386,131.82726423452328
8.109588992,1.0000545795361457,130.42756993377435
8.136986112,1.0000756731830303,129.02828542710168
8.164383744,1.0000953692291317,127.62942391565939
8.191780864,1.0001128183684764,126.23099501901038
8.219177984,1.000127809950739,124.83302182578863
8.246575104,1.0001400452536395,123.43552299262117
8.273972736,1.0001488874723745,122.03853415224381
8.301369856,1.0001543789800664,120.64209419640046
8.328766976,1.0001563752697984,119.24623315978847
8.356164608,1.0001546922860625,117.85095624685769
8.383561728,1.000149409451693,116.45633441574614
8.410958848,1.0001407693087956,115.06239063534893
8.438355968,1.0001287316021725,113.66914937231505
8.4657536,1.000113779165904,112.276621894932
8.49315072,1.0000961243118955,110.88485962345756
8.52054784,1.0000763050106385,109.49388833730961
8.54794496,1.0000547498960455,108.1037240842619
8.575342592,1.00003183499907,106.71436720556183
8.602739712,1.000008206145408,105.32581050504619
8.630136832,0.9999844745847812,103.93810868975059
8.657533952,0.9999611552070434,102.55122198682061
8.684931072,0.9999389004784837,101.16514836303774
8.712329216,0.999918099211342,99.77989670154867
8.739726336,0.9998992485760717,98.39542602890153
8.767123456,0.9998830108007495,97.0117345390573
8.794520576,0.9998695662194812,95.62877402381011
8.821917696,0.9998593243309565,94.2465467906335
8.849314816,0.9998526784184136,92.86501391759828
8.876711936,0.9998495746022251,91.48412942892172
8.90411008,0.9998501870605845,90.10385275348047
8.9315072,0.9998545986020996,88.72417765499233
8.95890432,0.999862553985178,87.34505534155653
8.98630144,0.999874074016608,85.96645332166968
9.01369856,0.999888690421071,84.58832823667554
9.04109568,0.9999061964183281,83.21064887178659
9.0684928,0.9999261207815286,81.83342874398916
9.09588992,0.9999480298309708,80.45658953871062
9.123288064,0.9999714880124194,79.08015643835513
9.150685184,0.9999957136344189,77.70408247760771
9.178082304,1.000020303809512,76.32840029957879
9.205479424,1.0000446233087972,74.95306863013639
9.232876544,1.0000679781392374,73.57811240429861
9.260273664,1.000089993041903,72.20352980978227
9.287670784,1.0001100416542135,70.82931436923134
9.315068928,1.0001276614538996,69.45551801502667
9.342466048,1.0001423662768638,68.08212414457924
9.369863168,1.000153850199839,66.70917813414637
9.397260288,1.0001617686461632,65.33668513028978
9.424657408,1.0001659847817164,63.964715863758386
9.452054528,1.0001662916310181,62.59327550467965
9.479451648,1.0001627596859537,61.22236728440454
9.506849792,1.0001553625689252,59.85205934610632
9.534246912,1.0001443901541003,58.48236152153644
9.561644032,1.0001300291922584,57.11331412440152
9.589041152,1.0001126098064035,55.74493156063601
9.616438272,1.0000925289441587,54.377232223344826
9.643835392,1.0000702573411662,53.01022720849053
9.671232512,1.000046325068056,51.6439678133467
9.698629632,1.0000213144802002,50.27840780446227
9.726027776,0.999995915922801,48.91359646425938
9.753424896,0.9999705800648688,47.54948157081839
9.780822016,0.9999459724888017,46.186101580171865
9.808219136,0.9999227561900644,44.823415647495004
9.835616256,0.99990140840907,43.461427039047386
9.863013376,0.9998825251111682,42.10007432615732
9.890410496,0.9998665312391638,40.73936652203808
9.91780864,0.9998537873329018,39.379237686490065
9.94520576,0.9998447431466208,38.01966868336423
9.97260288,0.9998394667405212,36.66061869005555
10.0,0.9998381979214391,35.302040129477724
10.02739712,0.9998409353487362,33.94390476118483
10.05479424,0.999847676570259,32.586163613132975
10.08219136,0.9998582701238651,31.228781857964414
10.109589504,0.9998724295536794,29.8716872762257
10.136986624,0.9998898352381478,28.514900988145964
10.164383744,0.9999101425928685,27.158327696650314
10.191780864,0.9999329548164214,25.801983607819633
10.219177984,0.9999573962379182,24.445822654971412
10.246575104,0.9999831563295468,23.089813536780348
10.273972224,1.0000095786467176,21.733974685139344
10.301370368,1.0000359814951654,20.37826104146523
10.328767488,1.0000617306996527,19.022681162557763
10.356164608,1.0000862512654807,17.667241563852073
10.383561728,1.000108951030596,16.31192041513768
10.410958848,1.0001291076008532,14.956764164850071
10.438355968,1.0001465025157832,13.601795273559256
10.465753088,1.0001603946561515,12.246991240448562
10.493150208,1.0001706870379576,10.892402852398027
10.520548352,1.000177050945754,9.538078256475332
10.547945472,1.0001792502361104,8.183997407088897
10.575342592,1.0001772615737543,6.830236980423052
10.602739712,1.0001709816808055,5.476774005123274
10.630136832,1.0001608612646398,4.123684411931613
10.657533952,1.0001467812764766,2.7709775237674106
10.684931072,1.000129245706542,1.418682303182457
10.712329216,1.0001086836607624,0.0668163426030645
10.739726336,1.0000854745795955,-1.2846100984761082
10.767123456,1.0000601136131464,-2.6355544260196924
10.794520576,1.0000334960050763,-3.986030397259157
10.821917696,1.0000059161021584,-5.33604213906478
10.849314816,0.9999782356980539,-6.685578742604817
10.876711936,0.9999511402687477,-8.034637708304379
10.90411008,0.9999251585002704,-9.38326634446283
10.9315072,0.999900982777355,-10.731461806458524
10.95890432,0.9998791943723873,-12.07926985533572
10.98630144,0.9998603947005982,-13.426688622188262
11.01369856,0.99984481374931,-14.773791218199232
11.04109568,0.9998331645524199,-16.120582864736477
11.0684928,0.9998255649320371,-17.467133758230354
11.09588992,0.9998223175944148,-18.813468155383156
11.123288064,0.9998232820897447,-20.159658130957602
11.150685184,0.9998287591145271,-21.505725941050557
11.178082304,0.9998384568318724,-22.851743302665867
11.205479424,0.9998522710075901,-24.19772963641611
11.232876544,0.9998697372289062,-25.543732947550055
11.260273664,0.9998905264122666,-26.889805827585963
11.287670784,0.9999141872255914,-28.23598347314247
11.315068928,0.9999400201851429,-29.582275534208087
11.342466048,0.9999675535767816,-30.92872505413253
11.369863168,0.9999961774362608,-32.27536757666978
11.397260288,1.0000250270603852,-33.62218031066696
11.424657408,1.0000536351627223,-34.9692068527433
11.452054528,1.000081016346409,-36.31642627564335
11.479451648,1.0001067124432923,-37.66385533683611
11.506849792,1.0001299973753852,-39.01146146398045
11.534246912,1.0001503881196745,-40.359237423252566
11.561644032,1.0001673692375626,-41.70718347576031
11.589041152,1.0001804304808362,-43.05526368698005
11.616438272,1.0001892806765935,-44.40342259326583
11.643835392,1.000193733621374,-45.75164595224199
11.671232512,1.0001936559859406,-47.099947432382926
11.698629632,1.0001889153589705,-48.4482253616328
11.726027776,1.000179763791817,-49.79648484785202
11.753424896,1.0001662724075548,-51.14468830109812
11.780822016,1.000148834366038,-52.49279081087465
11.808219136,1.000127792067582,-53.8407942711668
11.835616256,1.0001036964495313,-55.188661892885094
11.863013376,1.0000770512088841,-56.53637517416442
11.890410496,1.0000485116448035,-57.88391908662411
11.91780864,1.0000188234880993,-59.231293992953844
11.94520576,0.9999885903273084,-60.57849997239504
11.97260288,0.999958624453168,-61.925536345701836
12.0,0.9999296802799958,-63.272430351031836
12.02739712,0.9999023353351114,-64.61917923406466
12.05479424,0.9998772524871226,-65.9658192067687
12.08219136,0.9998552637762641,-67.3123799982768
12.109589504,0.9998366656895503,-68.65890096535013
12.136986624,0.9998221201153895,-70.00541636612316
12.164383744,0.9998119086275351,-71.35197093840249
12.191780864,0.9998063348441725,-72.6986218165776
12.219177984,0.9998054564539357,-74.04541030930639
12.246575104,0.9998094783025948,-75.39237866559732
12.273972224,0.9998182418895936,-76.73958921432032
12.301370368,0.9998315073122686,-78.08709462726344
12.328767488,0.9998490085885668,-79.43491494841625
12.356164608,0.9998705013433774,-80.78312446177179
12.383561728,0.9998953834817633,-82.13175424141598
12.410958848,0.999922930432935,-83.48084191522366
12.438355968,0.9999527121401279,-84.8304013885891
12.465753088,0.9999838843500513,-86.18046956435462
12.493150208,1.0000158533688055,-87.53107678868325
12.520548352,1.0000476192793464,-88.88218952286671
12.547945472,1.0000785445838822,-90.23385761661578
12.575342592,1.0001080247897867,-91.58605420872033
12.602739712,1.0001351811965968,-92.93878105658959
12.630136832,1.0001592714263285,-94.29202245653553
12.657533952,1.0001798043267185,-95.64573120328781
12.684931072,1.00019629319296,-96.99991264055026
12.712329216,1.0002082634181388,-98.35451585099086
12.739726336,1.0002154433858736,-99.7095172287833
12.767123456,1.0002175590131182,-101.06487859884969
12.794520576,1.000214554256746,-102.42054915188301
12.821917696,1.000206554740457,-103.77650471951134
12.849314816,1.0001936250951602,-105.13268313714902
12.876711936,1.0001760345012911,-106.48908687566718
12.90411008,1.0001541964026186,-107.84564620533827
12.9315072,1.0001287432977017,-109.20234808686747
12.95890432,1.000100117985709,-110.55916301853034
12.98630144,1.0000689197626307,-111.91607208041287
13.01369856,1.000036103764978,-113.27306275781758
13.04109568,1.000002255801849,-114.63011535576821
13.0684928,0.9999682423777891,-115.98724355653094
13.09588992,0.9999350045235129,-117.34444631085925
13.123288064,0.9999031668170375,-118.701761262917
13.150685184,0.9998735260021948,-120.05915634431312
13.178082304,0.99984691460724,-121.41671241498366
13.205479424,0.9998239630654245,-122.77442855555265
13.232876544,0.9998052034811461,-124.13237409655189
13.260273664,0.9997910570465214,-125.49054641776983
13.287670784,0.9997820562463141,-126.84904804701618
13.315068928,0.999778344427717,-128.20790043477572
13.342466048,0.9997800606540929,-129.56714936069395
13.369863168,0.9997871555371439,-130.92684917395778
13.397260288,0.9997997056957463,-132.2870623178643
13.424657408,0.9998171274112476,-133.647859711113
13.452054528,0.9998393742563418,-135.00924306415064
13.479451648,0.9998657080737449,-136.37128053266332
13.506849792,0.9998954770972642,-137.73401973312224
13.534246912,0.9999282626790903,-139.09747428298184
13.561644032,0.9999631520042296,-140.4616887874871
13.589041152,0.9999992612029291,-141.82665841434442
13.616438272,1.000035806209557,-143.19243448999651
13.643835392,1.0000718893709208,-144.55898439386354
13.671232512,1.0001066509646022,-145.92631655039776
13.698629632,1.0001392604184736,-147.2944113934722
13.726027776,1.000168905905356,-148.66327473267728
13.753424896,1.000194859572854,-150.03286674426488
13.780822016,1.0002164515171754,-151.40315010881187
13.808219136,1.0002331620969063,-152.77408594093745
13.835616256,1.0002444578365686,-154.14565815837022
13.863013376,1.0002501875414023,-155.51777891326728
13.890410496,1.000249956995681,-156.89043550936427
13.91780864,1.0002439226125972,-158.2635622259085
13.94520576,1.0002320389021666,-159.63712449114198
13.97260288,1.0002146173361026,-161.0110370224213
14.0,1.0001919903170116,-162.38526945907324
