freq,mag,phase
6.0,0.9991951080568843,110.01153493797973
6.002285056,0.9990904810623114,109.88235785073833
6.004570112,0.9990429131089411,109.7543757182676
6.006855168,0.9990558565866422,109.62668179553401
6.009140224,0.999128522812578,109.49836754729239
6.01142528,0.9992562535414219,109.36866329113528
6.013710336,0.9994309343240368,109.23680056335218
6.015995392,0.999641659628245,109.10220302188247
6.018280448,0.9998749547112102,108.96437999843637
6.020565504,1.0001160890658225,108.82314739715808
6.02285056,1.0003495404831264,108.67849145718415
6.025135616,1.0005608075634012,108.53065793821793
6.027420672,1.0007362190012716,108.38004311648713
6.029705728,1.0008649270092431,108.22725265069518
6.031990784,1.0009385047228014,108.07302031868895
6.03427584,1.0009522599753433,107.9182047990741
6.036560896,1.0009055332867276,107.76365077231142
6.038845952,1.0008009237815734,107.61024429425149
6.041131008,1.0006452871507416,107.45873497536736
6.043416064,1.0004482960035492,107.30983558223163
6.04570112,1.0002224240291289,107.16403364383497
6.047986176,0.9999819790793087,107.02167006126594
6.050271232,0.9997421522535312,106.88283572869221
6.052556288,0.9995182871199368,106.74743490193495
6.054841344,0.9993244973881686,106.61507872179935
6.0571264,0.9991732448203328,106.4853039174457
6.059411456,0.9990741385887187,106.35737096657186
6.061696512,0.999033426623654,106.23051892230714
6.063981568,0.9990539913727159,106.10385154271728
6.066266624,0.9991341560348418,105.97647648459318
6.06855168,0.9992692132431413,105.84758635985278
6.070836736,0.9994504626878535,105.71644047949344
6.073121792,0.9996664904470038,105.58241095731786
6.075406848,0.9999034356243227,105.44515517991319
6.077691904,1.0001464163520157,105.30440618968248
6.07997696,1.0003800511812477,105.16026727608387
6.082262016,1.0005893071865068,105.01290837765414
6.084547072,1.0007610896041828,104.86283264962768
6.086832128,1.0008845339478694,104.71064948126111
6.089117184,1.000951617474974,104.5571088692697
6.09140224,1.00095806081271,104.40306619462812
6.093687296,1.0009035918014881,104.24941266969492
6.095972352,1.0007914322935165,104.09697806559431
6.098257408,1.0006286779721338,103.94658938892223
6.100542464,1.0004257235992944,103.7988960622654
6.10282752,1.000195427676501,103.65436705980282
6.105112576,0.9999520616001808,103.51332327749283
6.107397632,0.9997114305408081,103.37582537791853
6.1096832,0.9994887125498858,103.24176012646056
6.111968256,0.9992978890959756,103.1107052176829
6.114253312,0.9991512935696042,102.98218096478776
6.116538368,0.9990582493181622,102.85542760915827
6.118823424,0.9990247112930559,102.72964080198504
6.12110848,0.9990528280183631,102.60393430072146
6.123393536,0.9991408744812181,102.47739595389044
6.125678592,0.9992832615875012,102.34926238872876
6.127963648,0.9994711909350451,102.21872568875246
6.130248704,0.9996923708823465,102.08524350108092
6.13253376,0.9999329615849648,101.94844933654211
6.134818816,1.0001776737486843,101.80817033246817
6.137103872,1.0004111111889884,101.66442050394866
6.139388928,1.0006182297550947,101.51754035774731
6.141673984,1.0007859926630278,101.36792754675004
6.14395904,1.0009038166672815,101.21627714393793
6.146244096,1.0009641247448804,101.06337553431061
6.148529152,1.0009630993266887,100.91006397132956
6.150814208,1.0009006974181018,100.75723292168948
6.153099264,1.0007808340494306,100.60577398061822
6.15538432,1.0006111547096794,100.4564557137825
6.157669376,1.0004023803163584,100.30988185946347
6.159954432,1.0001675286333973,100.16656008453458
6.162239488,0.9999216246846947,100.02680080272522
6.164524544,0.9996803374869369,99.89057254749525
6.1668096,0.9994589130390189,99.75778663104583
6.169094656,0.9992712924625734,99.62801464189015
6.171379712,0.9991296871706781,99.50067092881267
6.173664768,0.9990428512287622,99.37503128732334
6.175949824,0.9990167729405582,99.25023235109462
6.17823488,0.9990527179700049,99.12542517211757
6.180519936,0.9991486713512103,98.999684329666
6.182804992,0.9992985213155543,98.87216603419932
6.185090048,0.9994928332197248,98.74221904884956
6.187375104,0.9997190860752959,98.60921086288269
6.18966016,0.9999631977504797,98.47281032706039
6.191945216,1.0002094844056306,98.33289859537922
6.194230272,1.0004423355060095,98.18950823325635
6.196515328,1.0006470465213608,98.04297838581442
6.198800384,1.000810574383016,97.89379910638151
6.20108544,1.0009225265440196,97.74261455702815
6.203370496,1.000975752417606,97.5903156315221
6.205655552,1.0009670177644372,97.43768019805088
6.207940608,1.0008965285928442,97.2856640426348
6.210225664,1.0007690323013338,97.13510232697183
6.21251072,1.0005923722045258,96.98678144973249
6.214795776,1.0003776403106222,96.84133499853039
6.217080832,1.00013860985461,96.69921319620293
6.219365888,0.9998902985532409,96.56066324106702
6.221650944,0.9996484830590331,96.42570243988501
6.223936,0.9994286531745156,96.29414073774231
6.226221056,0.9992446431726518,96.16556315330668
6.228506112,0.999108214378186,96.0393390670956
6.230791168,0.9990281170148304,95.91471061804356
6.233076224,0.999009517909539,95.79089613605085
6.23536128,0.999053544680494,95.66689290131572
6.237646336,0.999157568598633,95.54186575018552
6.239931392,0.9993149331077241,95.41492675634528
6.242216448,0.9995156713576554,95.28542059011856
6.244501504,0.9997470352571849,95.1528280156966
6.24678656,0.9999943902093925,95.01673770672336
6.249071616,1.0002418164563494,94.8770997121132
6.251356672,1.0004740127322527,94.73402023658306
6.253641728,1.0006759504220029,94.58779573125443
6.255926784,1.0008348993556802,94.43898495766176
6.25821184,1.0009408145242538,94.28825264727371
6.260496896,1.0009867332074833,94.13647281305217
6.262781952,1.0009699539499208,93.9844669751672
6.265067008,1.0008913433319127,93.83322393371832
6.267352064,1.0007559617623343,93.68353736517444
6.26963712,1.0005722635983396,93.5361647751437
6.271922176,1.0003518416760144,93.39180149204373
6.274207232,1.0001086207169394,93.25079086095573
6.276492288,0.9998582048550817,93.11342108354285
6.278777344,0.9996162453409081,92.97968830206794
6.2810624,0.999398249833425,92.84927955964638
6.283347456,0.9992180774519763,92.72184280013461
6.285632512,0.999087235616383,92.59669340003018
6.287917568,0.9990140415018516,92.47304532906888
6.290202624,0.9990033191092765,92.3500647959849
6.29248768,0.9990555921940107,92.22681212573433
6.294772736,0.9991676800133281,92.10239426033147
6.297057792,0.9993325823584828,91.97598130743529
6.299342848,0.9995397032076919,91.84689821991407
6.301627904,0.9997759487161644,91.71460372642183
6.30391296,1.0000262848480148,91.57877732714384
6.306198016,1.000274972953239,91.43937478923218
6.308483072,1.0005060042201808,91.29651355735592
6.310768128,1.000704931072052,91.15052811902159
6.313053184,1.0008588850298614,91.00200272907918
6.31533824,1.0009583998483378,90.8516841137405
6.317623296,1.000996867756259,90.70037080537872
6.319908352,1.0009718465942699,90.54898675474439
6.322193408,1.0008850106448168,90.39843489823943
6.324478976,1.0007416780039,90.24958249118384
6.326764032,1.0005510577007177,90.10317034651605
6.329049088,1.0003248532187181,89.95979131857082
6.331334144,1.0000777776434566,89.81989816775378
6.3336192,0.9998252800382167,89.68364901246632
6.335904256,0.999583533760731,89.55103538506302
6.338189312,0.9993676420667287,89.42177944620269
6.340474368,0.9991916725647753,89.29541605254187
6.342759424,0.9990666112771885,89.17126287585826
6.34504448,0.9990006038065534,89.04853743232404
6.347329536,0.9989977841900116,88.92633685779056
6.349614592,0.9990584901868486,88.80375512349191
6.351899648,0.999178847973956,88.67987758192987
6.354184704,0.9993512050927229,88.5538881182747
6.35646976,0.9995646768060656,88.42514095916083
6.358754816,0.9998057487339618,88.29309217246963
6.361039872,1.0000588779185258,88.15747437863536
6.363324928,1.0003083316732866,88.01822274649338
6.365609984,1.0005381266363063,87.87550345382695
6.36789504,1.0007336989770748,87.72972427238831
6.370180096,1.0008825649295112,87.581451094694
6.372465152,1.0009753118956972,87.4314626486006
6.374750208,1.0010059759457022,87.28059241984472
6.377035264,1.0009726672886303,87.12974802355772
6.37932032,1.0008774737049457,86.97986978405729
6.381605376,1.0007261669948153,86.83179930216096
6.383890432,1.0005285806110258,86.68628935849169
6.386175488,1.0002969668293282,86.54389035163547
6.388460544,1.0000460737851822,86.40503635438562
6.3907456,0.9997919142853264,86.26989536537356
6.393030656,0.9995504781727585,86.13834614442457
6.395315712,0.9993371225456794,86.01018335462348
6.397600768,0.999165586893468,85.88481835486151
6.399885824,0.9990466546481745,85.76162761001221
6.40217088,0.9989881717249643,85.63971386887097
6.404455936,0.9989935503073624,85.51824649401185
6.406740992,0.9990628109098553,85.3962604606238
6.409026048,0.9991913905977747,85.27287672604204
6.411311104,0.9993712407178432,85.14723622611804
6.41359616,0.9995910330106218,85.01871720609239
6.415881216,0.9998365610084913,84.88684128600156
6.418166272,1.0000924102142215,84.7513344871501
6.420451328,1.0003425112466051,84.61216616368533
6.422736384,1.000570618849873,84.4695531637472
6.42502144,1.0007625064057641,84.32390478978652
6.427306496,1.0009058105801898,84.17585092049357
6.429591552,1.0009915428005864,84.02614014911799
6.431876608,1.0010143595132859,83.8756408645726
6.434161664,1.0009725675213652,83.72532534124237
6.43644672,1.0008687367381826,83.57607078752538
6.438731776,1.0007095294108705,83.4287296853326
6.441016832,1.0005049604375815,83.2840599114675
6.443301888,1.000267937573882,83.14261608703026
6.445586944,1.0000134938341576,83.00476882339508
6.447872,0.9997577599744174,82.87064630599794
6.450157056,0.999516948603951,82.74015566942526
6.452442112,0.9993065046480467,82.61300570179495
6.454727168,0.9991398057628323,82.4886071825451
6.457012224,0.999027187204727,82.36625371222631
6.45929728,0.9989763384222711,82.24516284984006
6.461582336,0.9989902276272182,82.12434170977203
6.463867392,0.9990680970425577,82.00288141130689
6.466152448,0.9992050873486676,81.87985831255149
6.468437504,0.9993924898763911,81.75452047926142
6.47072256,0.9996183199019446,81.62619204430767
6.473007616,0.9998683452709304,81.4944275519909
6.475292672,1.0001266510170934,81.35896337326326
6.477577728,1.0003769115192938,81.21981287476672
6.479862784,1.000603192670127,81.07723749743637
6.48214784,1.0007910674735236,80.93167224779374
6.484432896,1.00092873065258,80.7837439275823
6.486717952,1.0010072506809746,80.63425234216123
6.489003008,1.0010217704529245,80.48411882076644
6.491288064,1.0009712584715087,80.33425958688879
6.49357312,1.0008588842534696,80.18558518700634
6.495858176,1.000691729164823,80.03896144615437
6.498143232,1.0004802723742812,79.89511030769047
6.500428288,1.0002379399972785,79.75455612328187
6.502713344,0.9999800870334254,79.61765786687793
6.5049984,0.9997231865989503,79.4845356799373
6.507283456,0.999483403037897,79.35504091770186
6.509568512,0.999275951771884,79.22883617715257
6.511853568,0.999114268949645,79.10532616136067
6.514138624,0.9990084995443907,78.98382853229839
6.51642368,0.9989654157872461,78.86340444646177
6.518708736,0.9989879723519125,78.74319018177425
6.520993792,0.9990745860466611,78.62214573215157
6.523278848,0.9992199470417635,78.49950211115836
6.525563904,0.9994147871939381,78.37433589822305
6.52784896,0.9996467414284153,78.24611091865538
6.530134016,0.9999010052905597,78.11436169975974
6.532419072,1.000161518139116,77.9788788020859
6.534704128,1.0004117542971422,77.83971049078278
6.536989184,1.0006357018437764,77.69709839810963
6.53927424,1.000819303572228,77.5515509297821
6.541559808,1.0009508906122444,77.40370100621385
6.543844864,1.001022004626211,77.25441584084844
6.54612992,1.0010280843894206,77.10458266456122
6.548414976,1.0009687144380532,76.9551243354256
6.550700032,1.0008476572992364,76.8070080145246
6.552985088,1.0006725441361897,76.66107033134011
6.555270144,1.0004543430090351,76.51796541478168
6.5575552,1.0002069066524928,76.37828506623721
6.559840256,0.9999460022166733,76.2423040615713
6.562125312,0.9996879579050233,76.11012585207361
6.564410368,0.9994494579321039,75.98158269437847
6.566695424,0.9992454912762989,75.85628032030137
6.56898048,0.9990891643869388,75.73360606247829
6.571265536,0.9989904092717582,75.61281804108253
6.573550592,0.998955529957811,75.49306623699903
6.575835648,0.9989868805893023,75.37334316039062
6.578120704,0.9990824323203629,75.25268982251404
6.58040576,0.9992361436139591,75.13027189493889
6.582690816,0.999438407695517,75.00525123128399
6.584975872,0.9996762548275805,74.87704346595945
6.587260928,0.999934594782393,74.74523999992535
6.589545984,1.0001971025363763,74.60969836632707
6.59183104,1.0004469684244128,74.47041330863257
6.594116096,1.0006685215631215,74.32769637349902
6.596401152,1.000847629952898,74.18209303185935
6.598686208,1.0009727573006109,74.03430926008366
6.600971264,1.00103606109909,73.88517184458429
6.60325632,1.0010335507922872,73.7356061584235
6.605541376,1.0009652412577315,73.58653235116383
6.607826432,1.000835476312839,73.43893856275015
6.610111488,1.0006523603133963,73.29359908694983
6.612396544,1.0004275122793584,73.15123982079618
6.6146816,1.0001751344386254,73.01235644888936
6.616966656,0.9999112436039809,72.87727628994764
6.619251712,0.9996526196545545,72.74598023884968
6.621536768,0.9994156331344985,72.61830726582116
6.623821824,0.9992153597479404,72.4938580274467
6.62610688,0.9990647054534195,72.3719784248075
6.628391936,0.9989731280341371,72.25188259035232
6.630676992,0.9989466751847439,72.13264761254345
6.632962048,0.9989869542376804,72.01337558410304
6.635247104,0.9990914792801997,71.89304165298843
6.63753216,0.999253638558009,71.77077537395249
6.639817216,0.9994631684688224,71.6458157939569
6.642102272,0.9997068254057041,71.51757462988388
6.644387328,0.9999689596559667,71.38566005774138
6.646672384,1.0002330569041138,71.24994837940399
6.64895744,1.0004824799108736,71.11049163292549
6.651242496,1.0007011513347182,70.96764820858878
6.653527552,1.0008752338941562,70.82197091201596
6.655812608,1.000993798000225,70.67417371604124
6.658097664,1.0010490971752286,70.52511313776759
6.66038272,1.0010377753586421,70.37576379844006
6.662667776,1.0009603466712056,70.22703818078718
6.664952832,1.0008218279392085,70.07990280553372
6.667237888,1.000630727040999,69.93516138185983
6.669522944,1.0003993557308,69.79351424978417
6.671808,1.000142288815757,69.65539114485325
6.674093056,0.9998756783619539,69.52112575605132
6.676378112,0.9996166587089765,69.3906818420124
6.678663168,0.9993814964797842,69.26385761495894
6.680948224,0.9991853596734541,69.14017989998045
6.68323328,0.9990405815467973,69.01902642903899
6.685518336,0.9989566341269903,68.89954578992072
6.687803392,0.9989387353350836,68.78082929221186
6.690088448,0.9989881084087252,68.66189064638239
6.692373504,0.999101643319006,68.54179029837421
6.69465856,0.9992722990259859,68.41962058939123
6.696943616,0.9994891284638997,68.2946477808752
6.699228672,0.9997383694334642,68.166296613573
6.701513728,1.0000042031624479,68.03419202535466
6.703798784,1.000269773318217,67.89824425958766
6.70608384,1.000518144378096,67.75858612190474
6.708368896,1.0007335986486205,67.6155372992168
6.710653952,1.000902534460705,67.4696970734169
6.712939008,1.0010141110109496,67.32184778606819
6.715224064,1.0010612647242796,67.17284739728728
6.71750912,1.0010409400117979,67.02366845807015
6.719794176,1.0009543584071172,66.8752401994049
6.722079232,1.0008068663981549,66.72854310116053
6.724364288,1.0006080616444881,66.5843629777672
6.726649344,1.0003702628726063,66.44334792283549
6.7289344,1.000108509163785,66.30599799988326
6.731219456,0.9998395492829876,66.17248144224843
6.733504512,0.9995803226427038,66.04283171479584
6.735789568,0.9993474309233337,65.9167921747743
6.738074624,0.9991556594466685,65.79385220183661
6.74035968,0.9990171867401376,65.67335133636655
6.742644736,0.9989409516085384,65.55441155358267
6.744929792,0.9989318552489688,65.43612223232982
6.747214848,0.998990554448276,65.31747436779618
6.749499904,0.9991132488221119,65.19752578137236
6.75178496,0.9992922881607401,65.075379619546
6.754070016,0.9995161874389679,64.95030920533603
6.756355072,0.9997708221218208,64.82177526574569
6.75864064,1.0000400439252897,64.68944130833239
6.760925696,1.0003067591635686,64.55319624329265
6.763210752,1.0005539727362525,64.41322805985415
6.765495808,1.0007660453014025,64.26992866601165
6.767780864,1.0009293417154148,64.12391350989967
6.77006592,1.0010336837667635,63.975954696443445
6.772350976,1.0010724261876542,63.826962180079526
6.774636032,1.001042880892513,63.67790278048759
6.776921088,1.0009470074417686,63.52977625808046
6.779206144,1.0007908096451528,63.38344395694345
6.7814912,1.000584081810646,63.23977872897607
6.783776256,1.0003399893662785,63.09937626092073
6.786061312,1.0000739411866244,62.96270624754133
6.788346368,0.9998026947304587,62.82994026241856
6.790631424,0.9995438008771508,62.701042943458155
6.79291648,0.9993133144375977,62.57571760499693
6.795201536,0.9991262383393238,62.45346442098411
6.797486592,0.9989943470766047,62.33353395176907
6.799771648,0.9989261571407732,62.215079332622544
6.802056704,0.998926077394573,62.09714574763458
6.80434176,0.9989941532437125,61.97871244128117
6.806626816,0.9991260017311018,61.8588512200344
6.808911872,0.9993133801100821,61.73665495984783
6.811196928,0.9995443475834728,61.61142699172491
6.813481984,0.9998042623581097,61.482627139879874
6.81576704,1.0000766644328927,61.34995241246343
6.818052096,1.0003441762480814,61.21337830340869
6.820337152,1.0005898057877718,61.07306562121272
6.822622208,1.0007980394923879,60.92944673385419
6.824907264,1.0009556166013491,60.78319601265628
6.82719232,1.0010524142123052,60.6350932394356
6.829477376,1.0010824635745237,60.486079549659934
6.831762432,1.001043572436219,60.33710867028796
6.834047488,1.000938421211388,60.18918455051365
6.836332544,1.0007733794401719,60.04322260014306
6.8386176,1.0005589157261399,59.90004203533271
6.840902656,1.0003087108714948,59.76020808749068
6.843187712,1.0000384959389534,59.624166996911256
6.845472768,0.9997654024457313,59.49209107877076
6.847757824,0.9995068485479482,59.36389842575936
6.85004288,0.9992793024208267,59.23925587448361
6.852327936,0.999097194020264,59.11758642863933
6.854612992,0.9989721985597824,58.99819288658046
6.856898048,0.998912327555303,58.88017208310193
6.859183104,0.998921413000564,58.762497803605534
6.86146816,0.9989988775624239,58.64422632279173
6.863753216,0.9991400158411449,58.52436850273102
6.866038272,0.9993356393797381,58.40203947768965
6.868323328,0.9995736088817313,58.27657922836963
6.870608384,0.9998386289607812,58.147456022326836
6.87289344,1.0001138723081897,58.014403231026876
6.875178496,1.0003819161084755,57.877404471490415
6.877463552,1.0006258339364236,57.73669717276164
6.879748608,1.000829873804743,57.59270571219867
6.882033664,1.0009814070592467,57.446167117070246
6.88431872,1.0010704697954345,57.297851365197474
6.886603776,1.0010916511917731,57.14875974304458
6.888888832,1.0010433298883812,56.99983398206932
6.891173888,1.0009286698095095,56.85211066037052
6.893458944,1.000754843774096,56.70648066491574
6.895744,1.0005327255819532,56.56371632140606
6.898029056,1.0002765412680656,56.42443918835362
6.900314112,1.000002454726374,56.28900086443025
6.902599168,0.9997277493444313,56.15757720591789
6.904884224,0.9994700375182837,56.03001255569273
6.90716928,0.999245585716452,55.90599067280535
6.909454336,0.9990687711911651,55.784886831375914
6.911739392,0.9989509102106758,55.665941667646706
6.914024448,0.9988994700572458,55.54824823954366
6.916309504,0.9989179769062053,55.4308077893482
6.91859456,0.9990050466344321,55.312609513305446
6.920879616,0.9991553816590318,55.192672085189194
6.923164672,0.999359312576294,55.07015693776819
6.925449728,0.999603998067219,54.94437311111692
6.927734784,0.9998737992605362,54.81484957088962
6.93001984,1.0001517195424001,54.681355057918736
6.932304896,1.0004200309788343,54.5438775468193
6.934589952,1.0006616968393784,54.40268710141891
