freq,mag,phase
6.0,1.000017879552288,-152.71329522727441
6.003726336,1.000059628907429,-152.92474752966277
6.00745216,1.000097777099089,-153.1367743230393
6.011178496,1.0001302268184915,-153.34931331870223
6.01490432,1.0001551021332953,-153.5622460262251
6.018630656,1.0001706858634851,-153.77548763168116
6.022356992,1.0001762209360554,-153.98885503934642
6.026082816,1.0001713471462432,-154.20224644304827
6.029809152,1.0001561832892136,-154.41551557206665
6.033534976,1.0001319122990038,-154.6284704357567
6.037261312,1.0000998011567024,-154.84104612605708
6.040987648,1.0000618382389312,-155.053134160898
6.044713472,1.0000203788670192,-155.2646403932171
6.048439808,0.9999779019420124,-155.47555695355135
6.052165632,0.9999369454865705,-155.68586604452884
6.055891968,0.9998999655839315,-155.89565795219886
6.059618304,0.9998693308394049,-156.10493400786282
6.063344128,0.9998468084275657,-156.31387421463822
6.067070464,0.9998338379254604,-156.5225435099328
6.070796288,0.9998310559091256,-156.73110625013118
6.074522624,0.9998387796705489,-156.93968772480613
6.07824896,0.9998565578332349,-157.14846031441
6.081974784,0.9998831286912975,-157.35756336677903
6.08570112,0.9999171750381513,-157.56709629875448
6.089426944,0.9999563146713227,-157.77712301293113
6.09315328,0.9999984234624388,-157.98774815506846
6.096879616,1.0000408070373081,-158.1989798763858
6.10060544,1.0000810258215047,-158.4107921321887
6.104331776,1.000116520379149,-158.6231401265579
6.1080576,1.0001451141840174,-158.83596076256953
6.111783936,1.000165236902516,-159.04911877860027
6.11550976,1.0001755823186373,-159.26248317590162
6.119236096,1.0001754550279662,-159.47596166694626
6.122962432,1.000164862768696,-159.68931054332774
6.126688256,1.0001446374973815,-159.90250470060394
6.130414592,1.0001157597694466,-160.11529277563122
6.134140416,1.0000801951820724,-160.32765982453176
6.137866752,1.0000398855777044,-160.53946927196665
6.141593088,0.9999973729812779,-160.75071673339835
6.145318912,0.9999552350527725,-160.96134757927018
6.149045248,0.9999159839153788,-161.17141941915312
6.152771072,0.999882215566601,-161.38093318410955
6.156497408,0.9998556134728088,-161.5900339760753
6.160223744,0.9998380482002106,-161.7988503161595
6.163949568,0.9998304447078715,-162.00744963527885
6.167675904,0.9998334217190874,-162.2160235571334
6.171401728,0.9998467499318039,-162.42475583948845
6.175128064,0.9998694568383122,-162.63368919749138
6.1788544,0.9999003770044149,-162.843044050199
6.182580224,0.9999376454381977,-163.05289109067806
6.18630656,0.9999787855016266,-163.2632685361131
6.190032384,1.00002147481295,-163.4742369612194
6.19375872,1.000063083384384,-163.68582503087
6.197485056,1.0001012222140901,-163.89798045897098
6.20121088,1.0001333165064235,-164.11062539289998
6.204937216,1.0001576641791432,-164.32369150918956
6.20866304,1.0001726391250285,-164.53702846968733
6.212389376,1.000177330888163,-164.75049741704566
6.216115712,1.0001716056075582,-164.9639710638223
6.219841536,1.0001556782395828,-165.17729273664807
6.223567872,1.0001304717651498,-165.39031676445438
6.227293696,1.0000975409083772,-165.60291180238886
6.231020032,1.0000590446401165,-165.81503715575755
6.234746368,1.0000170643380975,-166.0265806698749
6.238472192,0.99997432665411,-166.23750023941875
6.242198528,0.999933369052637,-166.44786662782616
6.245924352,0.9998966142167178,-166.65763253696002
6.249650688,0.9998664115895074,-166.86695909014833
6.253377024,0.9998444496109866,-167.07590595108152
6.257102848,0.9998321043758616,-167.28461465582322
6.260829184,0.9998301871221876,-167.4932074390282
6.264555008,0.9998388399780314,-167.70186176532528
6.268281344,0.9998573911058999,-167.91070773113415
6.27200768,0.9998848187655747,-168.11988094957437
6.275733504,0.9999195626267507,-168.3294744596009
6.27945984,0.9999592924682229,-168.5396352271123
6.283185664,1.0000017548931488,-168.75037854776087
6.286912,1.0000443842672655,-168.96170766944883
6.290638336,1.0000844350092433,-169.1736278049741
6.29436416,1.0001198037734962,-169.38608046862564
6.298090496,1.0001479939404505,-169.5989946432528
6.30181632,1.000167412929143,-169.81223902335265
6.305542656,1.0001770707795725,-170.02571268820105
6.309268992,1.0001760603355059,-170.23923873995756
6.312994816,1.0001647126358006,-170.45267684069802
6.316721152,1.000143561226364,-170.66588690024338
6.320446976,1.000113987550457,-170.87871401110766
6.324173312,1.0000776057577698,-171.09110041742215
6.327899648,1.0000367818188212,-171.3029478871348
6.331625472,0.999993968865545,-171.51418211823147
6.335351808,0.9999517293291789,-171.7248183374442
6.339077632,0.9999125934618518,-171.93485978446776
6.342803968,0.9998790313267404,-172.1444078990142
6.346529792,0.9998528996572541,-172.35352695283245
6.350256128,0.999836028151713,-172.56235165705496
6.353982464,0.9998291286454762,-172.77099303193697
6.357708288,0.9998329699467317,-172.9796042795161
6.361434624,0.9998470998475323,-173.1883667242526
6.365160448,0.9998707814954095,-173.39738850093326
6.368886784,0.9999023904012296,-173.6067866426439
6.37261312,0.9999402765013096,-173.81670923916346
6.376338944,0.9999819117325996,-174.027151315082
6.38006528,1.0000250264253556,-174.23823511410504
6.383791104,1.0000666373713745,-174.44992411912918
6.38751744,1.000104609521144,-174.6621726980799
6.391243776,1.0001364191374358,-174.87491030730115
6.3949696,1.0001601816920251,-175.088029022699
6.398695936,1.0001744785160405,-175.30145319122838
6.40242176,1.0001783896374947,-175.5149913135394
6.406148096,1.0001717804288535,-175.7284990983844
6.409874432,1.0001549726939296,-175.9418669125346
6.413600256,1.0001290107650702,-176.15490388330537
6.417326592,1.0000954068099648,-176.3675432717421
6.421052416,1.0000562743420975,-176.5796383002516
6.424778752,1.0000138490590988,-176.79118108138596
6.428505088,0.999970945118036,-177.0021139314022
6.432230912,0.9999298824090519,-177.21244912664616
6.435957248,0.9998932591319853,-177.4222265037817
6.439683072,0.9998634756580113,-177.6315242153669
6.443409408,0.9998420331004558,-177.84045613193993
6.447135744,0.9998304810339986,-178.04920324611982
6.450861568,0.9998293604506764,-178.25779849180617
6.454587904,0.9998388306938644,-178.46647235179557
6.458313728,0.9998582576062972,-178.67535216449457
6.462040064,0.9998866173746069,-178.88458185638362
6.4657664,0.9999219820390668,-179.0942618930333
6.469492224,0.9999622749507258,-179.30447683005116
6.47321856,1.0000051497299702,-179.51527264936192
6.476944384,1.0000478568583253,-179.726676997804
6.48067072,1.0000880719013303,-179.93870516590067
6.484397056,1.0001230505500887,179.84877373877643
6.48812288,1.0001508641461416,179.6357521656886
6.491849216,1.0001697779022514,179.42248334325615
6.49557504,1.0001785290365643,179.20896353775126
6.499301376,1.0001767449648984,178.9953961781017
6.503027712,1.0001645618524102,178.7819139199725
6.506753536,1.0001425319163508,178.5687076621492
6.510479872,1.0001121097163284,178.35585198247415
6.514205696,1.0000750525014455,178.1434843095207
6.517932032,1.000033793306791,177.93165476007923
6.521658368,0.9999906059019187,177.72045369342362
6.525384192,0.9999482626748458,177.50983577440317
6.529110528,0.9999092031987965,177.29981396288403
6.532836352,0.9998758864268502,177.09031060913807
6.536562688,0.9998502570748274,176.8811843427487
6.540289024,0.9998340219777968,176.672389250962
6.544014848,0.9998279510935044,176.46376413618898
6.547741184,0.9998326972297177,176.25513053330454
6.551467008,0.999847655235275,176.0463513833416
6.555193344,0.9998721301493595,175.83729375330017
6.558919168,0.9999045229701309,175.627855573835
6.562645504,0.9999430660891475,175.41790214179613
6.56637184,0.9999852573128353,175.2073736931162
6.570097664,1.000028476761901,174.99621752623668
6.573824,1.000070347241912,174.78449819491092
6.577549824,1.0001080460429035,174.57217593595553
6.58127616,1.0001395488088518,174.3593768377933
6.585002496,1.000162821055949,174.14617897532975
6.58872832,1.000176454432966,173.93272994600537
6.592454656,1.0001796548018715,173.71917934347158
6.59618048,1.0001720844468802,173.50563761470377
6.599906816,1.0001543857219022,173.29227844058218
6.603633152,1.0001275377515397,173.07920864469318
6.607358976,1.000093192104661,172.86662741577976
6.611085312,1.0000533889069074,172.6545127115674
6.614811136,1.0000107091434207,172.44302834880602
6.618537472,0.9999674568051544,172.23213563783082
6.622263808,0.9999263683592841,172.02184654277266
6.625989632,0.9998900622250438,171.8121252553763
6.629715968,0.9998605976837835,171.60285484034443
6.633441792,0.9998398405863359,171.39393630097135
6.637168128,0.9998289080707436,171.18524632036818
6.640894464,0.999828607229809,170.97663347508106
6.644620288,0.999838941462764,170.7679461008535
6.648346624,0.9998592872127674,170.55905390634254
6.652072448,0.9998884771763104,170.3498170045902
6.655798784,0.9999244639018515,170.1401174891873
6.65952512,0.9999653900097492,169.92986251486596
6.663250944,1.0000086338552663,169.71899633034738
6.66697728,1.0000515257782014,169.50753668786476
6.670703104,1.0000916792778147,169.29550387911397
6.67442944,1.000126415808791,169.08291120248356
6.678155776,1.0001536899366779,168.86986726909248
6.6818816,1.0001720467280253,168.6565277705302
6.685607936,1.0001801450031431,168.4429696132915
6.68933376,1.0001775337622245,168.22941977455972
6.693060096,1.0001644187737826,168.0159442418839
6.696786432,1.0001415371935256,167.80273826171828
6.700512256,1.0001102727348492,167.58991126579224
6.704238592,1.0000726558736937,167.37755721768713
6.707964416,1.0000307089484002,167.16579835670262
6.711690752,0.9999872482990623,166.95464522449595
6.715417088,0.9999447529197185,166.74408786662687
6.719142912,0.9999057935225737,166.53411178649495
6.722869248,0.9998727400862533,166.32465174040118
6.726595072,0.9998476788634711,166.1156288005908
6.730321408,0.9998320534140144,165.90686469473735
6.734047744,0.9998267956623565,165.69823855379875
6.737773568,0.9998322877354385,165.48964990480954
6.741499904,0.9998482346512023,165.28086971272697
6.745225728,0.9998735405034904,165.07182702950485
6.748952064,0.9999067918652429,164.86236429108197
6.7526784,0.9999458826177037,164.65238560703523
6.756404224,0.9999885466038326,164.4418187243625
6.76013056,1.0000321056076271,164.23063926728415
6.763856384,1.000074051516139,164.01886231364907
6.76758272,1.0001116750475503,163.80651525230655
6.771309056,1.0001426851071251,163.59368544975067
6.77503488,1.000165390011976,163.38045819418744
6.778761216,1.0001783543954312,163.16700592862614
6.78248704,1.0001807096306543,162.9534319935078
6.786213376,1.0001722135333762,162.7399024453938
6.7899392,1.000153704077135,162.5265604440523
6.793665536,1.0001260286500917,162.31355254680687
6.797391872,1.000090920044961,162.10097320612954
6.801117696,1.0000505884693716,161.88895117952197
6.804844032,1.000007300982056,161.6775145650234
6.808569856,0.999963873026317,161.46669511565037
6.812296192,0.9999228890078647,161.25649022513448
6.816022528,0.9998867125626613,161.04681028060023
6.819748352,0.9998576767702892,160.8375973444073
6.823474688,0.9998373487838369,160.62875799018192
6.827200512,0.9998272864743573,160.42013417413028
6.830926848,0.9998278355681166,160.21156692880632
6.834653184,0.9998389702849246,160.00291261331162
6.838379008,0.9998602384216081,159.79403054335728
6.842105344,0.99989014339472,159.58478942303117
6.845831168,0.9999270201089991,159.37507789384685
6.849557504,0.9999684796065699,159.16481977473708
6.85328384,1.0000120782405546,158.95394802399966
6.857009664,1.0000551555210893,158.7424469151876
6.860736,1.0000953184188466,158.530381407518
6.864461824,1.0001297569043304,158.3177611435566
6.86818816,1.000156617402102,158.10473131184125
6.871914496,1.0001742912426659,157.89136831279836
6.87564032,1.0001815673614125,157.6778326148841
6.879366656,1.0001782141013622,157.46426723113365
6.88309248,1.000164184974606,157.25084624003634
6.886818816,1.0001404307912467,157.0376725998154
6.890545152,1.0001083365533567,156.82488372811392
6.894270976,1.0000699441811591,156.61260383139546
6.897997312,1.000027707905046,156.40093465597516
6.901723136,0.9999837883838865,156.18983710184165
6.905449472,0.9999411168101413,155.9793775020002
6.909175808,0.9999023166512048,155.76947863689082
6.912901632,0.9998695947961317,155.56011230577292
6.916627968,0.9998449531953852,155.3511394899264
6.920353792,0.9998300709151179,155.1424509789068
6.924080128,0.9998256926111844,154.93390374495962
6.927806464,0.9998320070096497,154.72533935260262
6.931532288,0.9998487720813449,154.5166244960965
6.935258624,0.9998749617907118,154.30760501304079
6.938984448,0.9999090034085706,154.09812476769378
6.942710784,0.9999488507091618,153.8881640268756
6.94643712,0.9999918555838213,153.67759456009014
6.950162944,1.0000357111672495,153.46640349271584
6.95388928,1.0000777124818219,153.2546140669521
6.957615104,1.0001151461327191,153.04227008056023
6.96134144,1.0001459280028737,152.82940876359032
6.965067776,1.000168092390695,152.6161923617582
6.9687936,1.000180231187445,152.40273769242873
6.972519936,1.000181770641446,152.1891980511183
6.97624576,1.000172516623216,151.97571002045086
6.979972096,1.00015300322058,151.76240059699975
6.983698432,1.0001244945872736,151.5494598096072
6.987424256,1.0000887247585972,151.3369744600946
6.991150592,1.0000477013338043,151.1250091153927
6.994876416,1.0000040569316657,150.91366230418205
6.998602752,0.9999603643522212,150.70294759978196
7.002328576,0.9999193376098092,150.4928384031702
7.006054912,0.9998833941254291,150.28326511731558
7.009781248,0.9998547259398617,150.07415019910567
7.013507072,0.9998351577476282,149.8653813704961
7.017233408,0.999825681369716,149.65683084988223
7.020959232,0.9998271568105205,149.4483205050082
7.024685568,0.9998392113770537,149.23974261356784
7.028411904,0.9998612450466471,149.03090070382802
7.032137728,0.9998921196149699,148.8216931830405
7.035864064,0.9999297119480739,148.61201416041192
7.039589888,0.9999717470532792,148.40173360089787
7.043316224,1.0000157089296349,148.19087454828585
7.04704256,1.0000589754662248,147.97938982711614
7.050768384,1.0000989753793106,147.7673161631163
7.05449472,1.000133301972971,147.5547105520397
7.058220544,1.0001596997189124,147.34168263401742
7.06194688,1.0001766937248302,147.12833749230757
7.065673216,1.0001832222321956,146.91484017928718
7.06939904,1.0001788526714182,146.7013147539591
7.073125376,1.0001639310796258,146.48791978260456
7.0768512,1.0001393064695177,146.2748349882487
7.080577536,1.0001064494085428,146.06213494792095
7.084303872,1.0000674621622263,145.84996214177895
7.088029696,1.0000245772109189,145.63836818881717
7.091756032,0.9999804005789058,145.42738048133353
7.095481856,0.9999377010266013,145.2170146452625
7.099208192,0.9998989112731844,145.00725035310532
7.102934528,0.9998664604463975,144.79798121219937
7.106660352,0.9998424445943872,144.58909657692794
7.110386688,0.9998281494682406,144.38050774811978
7.114112512,0.9998245642705594,144.17205911794406
7.117838848,0.9998318025510827,143.9635577382371
7.121565184,0.9998495310977906,143.75489579926509
7.125291008,0.9998765693331504,143.54592392123328
7.129017344,0.9999114073419599,143.33651437749418
7.132743168,0.9999517817674737,143.12654706926114
7.136469504,0.9999953114159819,142.91599627813028
7.14019584,1.0000395139994225,142.7048424037954
7.143921664,1.0000815092003985,142.4930545749603
7.147648,1.00011879704224,142.28072815456017
7.151373824,1.0001492407273294,142.06790002029095
7.15510016,1.000170811158,141.8547016247211
7.158826496,1.0001822293630735,141.64129383917668
7.16255232,1.0001830007509425,141.42778245433726
7.166278656,1.0001728228699533,141.21434429294015
7.17000448,1.000152383146891,141.00112053581194
7.173730816,1.0001230823284848,140.78827045422545
7.177457152,1.000086488491681,140.57585391870214
7.181182976,1.0000448525805858,140.3640230168759
7.184909312,1.0000007920182152,140.1527866661498
7.188635136,0.9999568573507388,139.94219758239856
7.192361472,0.9999158525646613,139.73220279748006
7.196087808,0.9998801165210214,139.52274179418038
7.199813632,0.999851829362198,139.31375195173433
7.203539968,0.9998328327768488,139.10509162030044
7.207265792,0.9998242881789802,138.89665738910668
7.210992128,0.9998265020511412,138.68823875115655
7.214718464,0.9998396058733106,138.47972790042138
7.218444288,0.9998625533401877,138.27095094919497
7.222170624,0.9998941581556385,138.0618062850617
7.225896448,0.9999323810235865,137.852150302643
7.229622784,0.9999749933923818,137.64192291319554
7.233348608,1.0000193796013117,137.43108729174315
7.237074944,1.0000629098838154,137.21963101297152
7.24080128,1.0001027201200605,137.00756401865561
7.244527104,1.000136800979061,136.7949960939701
7.24825344,1.00016267694564,136.58200210829617
7.251979264,1.0001790094493774,136.36869905430365
7.2557056,1.0001847348138588,136.1552337571313
7.259431936,1.000179562720504,135.9417923727076
7.26315776,1.000163730517459,135.7285024197472
7.266884096,1.0001381984103377,135.51548158397378
7.27060992,1.0001045729057205,135.30288683263063
7.274336256,1.000064881152616,135.09082580675354
7.278062592,1.0000214186983818,134.8793572613505
7.281788416,0.9999768908775062,134.66850346340377
7.285514752,0.9999340821759516,134.45828423685487
7.289240576,0.9998954547837334,134.24863460840623
7.292966912,0.9998633163245043,134.0395011988936
7.296693248,0.9998398456386881,133.83075994374994
7.300419072,0.9998263286474179,133.62228250437622
7.304145408,0.999823460645536,133.41392372238923
7.307871232,0.9998316808377397,133.20553608868522
7.311597568,0.9998502465008078,132.99696761568748
7.315323904,0.9998782145973557,132.78804585148526
7.319049728,0.9999138136664495,132.5786945723842
7.322776064,0.999954910143429,132.36878671894752
7.326501888,0.9999989875478041,132.1582841420312
7.330228224,1.0000433670097855,131.9471508576666
7.33395456,1.0000854059782016,131.7354067148192
7.337680384,1.0001225742250257,131.52311805104063
7.34140672,1.0001524695360822,131.31033257970503
7.345132544,1.0001735772296936,131.09719137687057
7.34885888,1.0001842552710356,130.88383861989706
7.352585216,1.0001841223159043,130.670393607828
7.35631104,1.00017305963229,130.45703717640487
7.360037376,1.0001516808131306,130.24390774314108
7.3637632,1.0001215098973049,130.03116111242625
7.367489536,1.0000841818966104,129.8188849166452
7.371215872,1.0000418657448769,129.6071639771516
7.374941696,0.9999973872792501,129.39608398728487
7.378668032,0.9999533270887238,129.18562013357086
7.382393856,0.999912274173049,128.97577169467334
7.386120192,0.9998767784074839,128.76647189213116
7.389846528,0.9998489051145696,128.55763098648868
7.393572352,0.9998306165590553,128.34911879904578
7.397298688,0.9998227403809077,128.14077685237982
7.401024512,0.9998258788844471,127.93247225133629
7.404750848,0.9998398797389523,127.72406440894355
7.408477184,0.99986383518299,127.51538718098391
7.412203008,0.9998962641258156,127.3063006009054
7.415929344,0.9999352372700274,127.09672301989066
7.419655168,0.9999784176970616,126.88655547094075
7.423381504,1.0000232168914978,126.67575570360479
7.42710784,1.00006684721083,126.46434337035012
7.430833664,1.0001068015384031,126.2523406668791
7.43456,1.0001404051275333,126.03979546650473
7.438285824,1.0001658669835753,125.82685941366404
7.44201216,1.0001814381032443,125.61362458563887
7.445737984,1.0001864714486046,125.40024874371841
7.44946432,1.000180238046687,125.18687395480498
7.453190656,1.0001635576896368,124.97368223818843
7.45691648,1.00013707570024,124.76077405418458
7.460642816,1.000102534632631,124.54831389426975
7.46436864,1.0000620955889858,124.33637940615306
7.468094976,1.000018196624962,124.1250509543833
7.471821312,0.9999733510889905,123.91437028276337
7.475547136,0.9999304247520439,123.7042894283669
7.479273472,0.9998918293206007,123.49482151989518
7.482999296,0.999860141083092,123.28582834447676
7.486725632,0.9998371984002568,123.07724349299902
7.490451968,0.999824251627502,122.8689106521386
7.494177792,0.9998223301806898,122.66066387099903
7.497904128,0.9998314406781716,122.45240118560302
