freq,mag,phase
6.0,0.9998112790265224,46.690256616133645
6.002285568,0.9999202715420906,46.541484081735305
6.004571648,1.0000345270888167,46.39105137966725
6.006857216,1.0001467647991766,46.23894079484361
6.009142784,1.0002497785097086,46.085209736084614
6.011428352,1.0003371438499349,45.93002134521952
6.013714432,1.0004032058378864,45.77370289516501
6.016,1.0004439690940174,45.616540557237236
6.018285568,1.0004565802882537,45.45893789837494
6.020571648,1.0004404282416322,45.301322383273636
6.022857216,1.0003964180496907,45.14407738555586
6.025142784,1.0003273186959423,44.98761111389701
6.027428352,1.0002375114254933,44.832232615755224
6.029714432,1.000132543968419,44.67822293679702
6.032,1.000019234717473,44.52575395871855
6.034285568,0.9999046880425453,44.37488863311041
6.036571648,0.999796066398578,44.22558567992256
6.038857216,0.9997003080655952,44.07774025441857
6.041142784,0.99962367367396,43.93106717260479
6.043428352,0.9995706926795809,43.78532126715066
6.045714432,0.9995450476065001,43.64007258439755
6.048,0.9995482376148217,43.494950224872234
6.050285568,0.9995800954877413,43.34950877917489
6.052571648,0.9996386843016682,43.203369601917856
6.054857216,0.9997202739869098,43.05616396929101
6.057142784,0.9998197273823294,42.90758577845838
6.059428352,0.9999307134401532,42.75742963679128
6.061714432,1.0000461974275359,42.60558140004915
6.064,1.0001589442331207,42.45199464028978
6.066285568,1.0002617839738581,42.29680951119187
6.068571648,1.0003481794770555,42.140182724315004
6.070857216,1.0004126107549192,41.98241483119492
6.073142784,1.0004511303401677,41.82381987255098
6.075428352,1.0004611073206149,41.66484913955886
6.077714432,1.0004420337438518,41.505858267460304
6.08,1.0003949010815312,41.34730987739957
6.082285568,1.0003228472262273,41.18955974914346
6.084571648,1.0002304052762234,41.03294264075256
6.086857216,1.0001233511399148,40.87773163012857
6.089142784,1.0000084325248384,40.72406760481964
6.091428352,0.9998929159691101,40.57200618000435
6.093714432,0.99978415380496,40.42154009774378
6.096,0.9996890275667185,40.27249705766635
6.098285568,0.9996136118070409,40.12461979944297
6.100571648,0.9995626313826532,39.97762806687839
6.102857216,0.9995394729128734,39.83110604259464
6.105142784,0.9995454767846674,39.68464304465012
6.107428352,0.9995803153381384,39.53785845735403
6.109714432,0.999641815644591,39.39030253322047
6.112,0.999726266844707,39.24162675892114
6.114285568,0.9998280484710217,39.091541782766434
6.116571648,0.9999409235493775,38.93984330116528
6.118857216,1.0000576289791987,38.78641631600658
6.121142784,1.0001709348013132,38.63124594059662
6.123428352,1.0002734791529537,38.474445466198055
6.125714432,1.0003589580189984,38.3162399612022
6.128,1.000421748762789,38.15686977791419
6.130285568,1.000457971956014,37.99674692622241
6.132571648,1.0004653566723658,37.83622715442413
6.134857216,1.0004433231328471,37.67575059303231
6.137142784,1.0003933593675156,37.51574399655467
6.139428352,1.0003184323198595,37.35656684649205
6.141714432,1.0002233081886653,37.19856374265511
6.144,1.0001141471129849,37.041972392059755
6.146285568,0.9999976959647063,36.88696906024128
6.148571648,0.9998812957229664,36.73358832698517
6.150857216,0.9997723490961831,36.581794254533385
6.153142784,0.9996779194381475,36.43139605689532
6.155428352,0.9996038605257059,36.28217902610564
6.157714432,0.9995548094964767,36.13379830867477
6.16,0.9995340659235086,35.98584754418074
6.162285568,0.9995428643522476,35.83793916822868
6.164571648,0.9995806018397309,35.68962190654552
6.166857216,0.9996451368970143,35.54050223466552
6.169142784,0.999732237591587,35.39022335369868
6.171428352,0.9998363906350889,35.23847658575679
6.173714432,0.9999510863856507,35.08507195042396
6.176,1.0000689920988846,34.92994173752644
6.178285568,1.000182746207587,34.773027962207316
6.180571648,1.0002850976618258,34.61449230996141
6.182857216,1.0003695731825581,34.45454688301179
6.185142784,1.0004307299082529,34.29346498815288
6.187428352,1.000464740851841,34.131632795199444
6.189714432,1.0004695539269965,33.96943228647591
6.192,1.0004446796651416,33.80731668823
6.194285568,1.000391703788419,33.64569735427554
6.196571648,1.0003139513697579,33.484934156429425
6.198857216,1.0002164109609457,33.32539755537025
6.201142784,1.0001051162169343,33.16729729933531
6.203428352,0.9999871107257381,33.01080815566837
6.205714432,0.9998699152908453,32.8559280537112
6.208,0.999761002956871,32.702661516825245
6.210285568,0.9996671523064142,32.550783746011895
6.212571648,0.9995943495933882,32.4000558003844
6.214857216,0.9995472724428023,32.25012555593803
6.217142784,0.9995289260211825,32.10061329479344
6.219428352,0.9995404096599145,31.95106268345097
6.221714432,0.999581158307568,31.801096301282573
6.224,0.9996485516906083,31.650243043928622
6.226285568,0.9997382673588453,31.498209520282106
6.228571648,0.999844726557393,31.344661773739077
6.230857216,0.9999612110717708,31.18943221463414
6.233142784,1.0000803130911395,31.032406071933366
6.235428352,1.0001944929059423,30.87360857891189
6.237714432,1.0002965363940095,30.71319188537466
6.24,1.0003799714003443,30.551364477801506
6.242285568,1.0004395418024785,30.388398996158003
6.244571648,1.0004713696266998,30.224698313646268
6.246857216,1.000473567559054,30.060676680834963
6.249142784,1.000445865582656,29.89676577971908
6.251428352,1.0003899834594043,29.73337831558193
6.253714432,1.000309509693828,29.570917814932475
6.256,1.0002094553922474,29.409692866723127
6.258285568,1.0000961064019787,29.24993556874211
6.260571648,0.9999766784709143,29.091778958488668
6.262857216,0.9998587474697808,28.93530184155575
6.265142784,0.9997496081574898,28.780368332930976
6.267428352,0.9996563501204145,28.626836808508994
6.269714432,0.9995849452034533,28.474455906293763
6.272,0.9995398042454886,28.32283535889886
6.274285568,0.9995237774196791,28.171571713703603
6.276571648,0.9995380024244966,28.02025966392427
6.278857216,0.9995816123802717,27.868459126367522
6.281142784,0.9996518270281965,27.715739571527564
6.283428352,0.9997441585310402,27.561789964530465
6.285714432,0.9998528980505974,27.406288657000246
6.288,0.9999710299670794,27.24904910326035
6.290285568,1.000091255517707,27.09003184600068
6.292571648,1.000205861906837,26.929205145247963
6.294857216,1.0003076781670048,26.766736686196072
6.297142784,1.0003901164048616,26.602844171562356
6.299428352,1.0004479807419673,26.437882835566004
6.301714432,1.00047774171149,26.272151245382144
6.304,1.0004773107536806,26.106167441814918
6.306285568,1.0004469183310254,25.9403120713195
6.308571648,1.0003881287443437,25.7750235683475
6.310857216,1.0003050222574497,25.61067381847817
6.313142784,1.0002024982955664,25.447594367439518
6.315428352,1.0000872278450115,25.28602333929751
6.317714432,0.9999663404601954,25.126055992674615
6.32,0.9998476096967839,24.96777658747192
6.322285568,0.9997384764435534,24.811072117362663
6.324571648,0.9996459260413131,24.65574156800998
6.326857216,0.9995756583098311,24.5015120193003
6.329142784,0.9995324144015713,24.34805203188557
6.331428352,0.9995187501110129,24.194896084462858
6.333714432,0.9995356164774108,24.041647767713588
6.336,0.9995820014619178,23.887858414504578
6.338285568,0.9996549410776815,23.733135830470307
6.340571648,0.999749852630582,23.57708573470037
6.342857216,0.9998607911555226,23.4194903074414
6.345142784,0.9999806667498509,23.26011659344229
6.347428352,1.0001019868796839,23.09890165047171
6.349714432,1.0002170154523469,22.935891504651995
6.352,1.0003184854844702,22.771235903841994
6.354285568,1.0003999618040784,22.60515335049193
6.356571648,1.000456385536126,22.43798300484093
6.358857216,1.0004840550923773,22.270124629886606
6.361142784,1.000481180464671,22.10199336368125
6.363428352,1.0004480222606311,21.934023664708523
6.365714432,1.0003865655893835,21.766661995664748
6.368,1.00030075467199,21.60029144902705
6.370285568,1.000195927707767,21.435195216600995
6.372571648,1.000078655667332,21.27162422765008
6.374857216,0.9999564269624449,21.10971195572681
6.377142784,0.999836937733219,20.94946931247338
6.379428352,0.9997277221107046,20.790791519933464
6.381714432,0.9996357875064777,20.633504615079538
6.384,0.9995668551988854,20.47728487057931
6.386285568,0.9995254865949935,20.321799684871365
6.388571648,0.9995140698983903,20.166587920163526
6.390857216,0.9995335292188596,20.011255006437842
6.393142784,0.9995826377078968,19.855315056534035
6.395428352,0.9996582612055294,19.698397044945285
6.397714432,0.9997557185375852,19.540132161120948
6.4,0.9998688101309658,19.38024979268115
6.402285568,0.9999903973435788,19.218571412176097
6.404571648,1.0001127226578377,19.055024557885247
6.406857216,1.0002281693005217,18.88966821159566
6.409142784,1.000329328048048,18.722656492841754
6.411428352,1.0004099134484492,18.554216964627262
6.413714432,1.000464742553868,18.384705459579017
6.416,1.000490271331261,18.214520762212835
6.418285568,1.0004851012618146,18.04409819814319
6.420571648,1.0004493431026729,17.873878332065413
6.422857216,1.000385122108366,17.704275865543618
6.425142784,1.0002966600161707,17.53568372286722
6.427428352,1.0001894638537545,17.368439494132392
6.429714432,1.00007037275453,17.202693719417717
6.432,0.9999468438795207,17.038652873204672
6.434285568,0.9998265614848505,16.876284779117256
6.436571648,0.9997172495108014,16.715485096271074
6.438857216,0.9996258935342982,16.556067586243696
6.441142784,0.99955819192496,16.397676824809515
6.443428352,0.9995184768339854,16.24000794878298
6.445714432,0.9995093568422595,16.08258905021705
6.448,0.9995313460827496,15.924996234596831
6.450285568,0.9995830627622542,15.766756363748492
6.452571648,0.9996613664817193,15.607485552393639
6.454857216,0.9997612499353089,15.446818305058398
6.457142784,0.9998762888093784,15.284513993601763
6.459428352,0.9999995669573515,15.12037003725644
6.461714432,1.0001229043541593,14.95433553957489
6.464,1.0002388372022963,14.78645299046195
6.466285568,1.0003397983759235,14.616941096891665
6.468571648,1.0004195018848379,14.445992710916105
6.470857216,1.000472799887907,14.273977924204972
6.473142784,1.000496430472315,14.10130421743033
6.475428352,1.0004888254937232,13.928418994369798
6.477714432,1.0004504773063132,13.75574176149893
6.48,1.0003836655494527,13.583759510854883
6.482285568,1.0002926672175938,13.412803342784935
6.484571648,1.0001833037419134,13.243183178412908
6.486857216,1.0000621955091884,13.07515440979076
6.489142784,0.9999372944208181,12.90880311108808
6.491428352,0.999816334135204,12.74413853809389
6.493714432,0.9997069334176952,12.58103571286668
6.496,0.9996160456478572,12.41930548299186
6.498285568,0.9995494707493119,12.258609230116527
6.500571648,0.9995114970587234,12.098580640383053
6.502857216,0.9995044310704322,11.938777902000611
6.505142784,0.9995289233909105,11.778750064382429
6.507428352,0.9995832645615961,11.618042399966829
6.509714432,0.999663996899389,11.456246776048978
6.512,0.9997662692290106,11.293035290206264
6.514285568,0.9998834893068603,11.128134081486014
6.516571648,1.0000083223087177,10.961351454031222
6.518857216,1.000132841100199,10.792682982620468
6.521142784,1.0002490812066616,10.622124490449993
6.523428352,1.000349805790878,10.449928475361444
6.525714432,1.0004287142254396,10.276290235205002
6.528,1.000480625361051,10.101617368629421
6.530285568,1.0005024258094088,9.926285854046705
6.532571648,1.000492571638882,9.750775961494147
6.534857216,1.000451746756485,9.575496656061063
6.537142784,1.0003824750906967,9.40091873999213
6.539428352,1.0002890357970746,9.227445843189196
6.541714432,1.0001774671796473,9.05530208193721
6.544,1.0000545588400551,8.884787519699275
6.546285568,0.9999283352596899,8.71594788796055
6.548571648,0.9998065744798742,8.548812385951877
6.550857216,0.9996970118558343,8.383236269798713
6.553142784,0.9996066626259899,8.21902049465337
6.555428352,0.9995412092460472,8.055828092093044
6.557714432,0.9995048266282975,7.893270900868003
6.56,0.9994998339565928,7.730908578699541
6.562285568,0.9995263703552992,7.568283345680392
6.564571648,0.9995833398629855,7.404935428303669
6.566857216,0.9996666275828497,7.24046422306383
6.569142784,0.9997711692105283,7.074517052701324
6.571428352,0.9998902963545006,6.9068530241679005
6.573714432,1.0000167002856777,6.737298298063475
6.576,1.000142197570761,6.565786339093573
6.578285568,1.0002590245442764,6.392419736968394
6.580571648,1.00035962593934,6.217351582348926
6.582857216,1.0004377133396058,6.040879838822377
6.585142784,1.0004883085743908,5.863361641019118
6.587428352,1.0005083292420478,5.685217042205029
6.589714432,1.0004963763247385,5.506886866257537
6.592,1.0004531162305565,5.328852438692123
6.594285568,1.0003813546211802,5.151539492703095
6.596571648,1.0002856190486693,4.9753108118855
6.598857216,1.0001718594961966,4.800495913187317
6.601142784,1.000047201350904,4.627294578911672
6.603428352,0.9999195465639078,4.455809684436594
6.605714432,0.9997970192578449,4.286014666144621
6.608,0.999687341293057,4.117799893811826
6.610285568,0.999597382759075,3.950928223042268
6.612571648,0.9995328575923147,3.7850529669443955
6.614857216,0.9994980087039734,3.6197857321438835
6.617142784,0.9994948953316312,3.4546893837260018
6.619428352,0.99952384309585,3.289296268425997
6.621714432,0.9995829646375183,3.1231593122744417
6.624,0.9996686120284819,2.95582732613086
6.626285568,0.9997754524975385,2.7870002777726715
6.628571648,0.9998965602158799,2.616390676424433
6.630857216,1.0000244903836573,2.4438854895432653
6.633142784,1.0001510095277708,2.269393457966457
6.635428352,1.0002683943242188,2.093019369724172
6.637714432,1.0003688322186193,1.9149463628263887
6.64,1.0004462633443976,1.7354661815400525
6.642285568,1.0004957262377219,1.554925071586697
6.644571648,1.000514082615111,1.3737873694611782
6.646857216,1.0005001706833385,1.1924970547320446
6.649142784,1.0004546390242952,1.0115058181238124
6.651428352,1.0003805368118983,0.8312603111016421
6.653714432,1.0002824689804242,0.6521418622353223
6.656,1.0001666126335202,0.47444784352947605
6.658285568,1.0000402637366432,0.29838221029991935
6.660571648,0.9999113278036512,0.12406368836766686
6.662857216,0.999788106876679,-0.04855578726783913
6.665142784,0.9996780274074238,-0.2196072387060887
6.667428352,0.9995884392812419,-0.38932421890415225
6.669714432,0.9995249153626743,-0.5580537631754385
6.672,0.9994913824023792,-0.7261806361516641
6.674285568,0.9994900824919828,-0.8941721119913711
6.676571648,0.9995210961310425,-1.0625143961181327
6.678857216,0.9995825587001206,-1.2316416922913513
6.681142784,0.9996704375387061,-1.4020035801682178
6.683428352,0.9997794063181809,-1.5738896096973987
6.685714432,0.9999024704947369,-1.7475873261776675
6.688,1.0000319503324506,-1.923228470718762
6.690285568,1.000159615317805,-2.1008775510348876
6.692571648,1.000277430833019,-2.2804316038824615
6.694857216,1.0003779730997315,-2.4616789464661784
6.697142784,1.0004549198511594,-2.6443546457106355
6.699428352,1.000503263559507,-2.828060320252412
6.701714432,1.0005200852427143,-3.012368358314286
6.704,1.0005041298709718,-3.1968231168494463
6.706285568,1.0004565658329694,-3.3809314811506894
6.708571648,1.0003802080211581,-3.5642794575117147
6.710857216,1.0002799669466609,-3.746485294183781
6.713142784,1.0001620575012697,-3.927226514570166
6.715428352,1.0000340207504972,-4.106336937877213
6.717714432,0.999903630377337,-4.283666661568087
6.72,0.9997794976137176,-4.459302427099105
6.722285568,0.9996691722742662,-4.633362913392539
6.724571648,0.9995798252921798,-4.806092134566231
6.726857216,0.999516968748899,-4.977862174612391
6.729142784,0.999484697218745,-5.149040658005808
6.731428352,0.9994850294780367,-5.320140422897433
6.733714432,0.999518086695187,-5.491583584972005
6.736,0.9995816507501456,-5.663876689319477
6.738285568,0.9996717251720564,-5.837410273774079
6.740571648,0.9997827281383733,-6.012516179433424
6.742857216,0.9999077496820814,-6.18948577017892
6.745142784,1.00003874400089,-6.368428616425475
6.747428352,1.0001675568269264,-6.5493917260315575
6.749714432,1.0002859326376228,-6.732284487826856
6.752,1.0003865978778395,-6.916898726532126
6.754285568,1.0004630929439444,-7.102929562368039
6.756571648,1.0005104465114503,-7.289966991244532
6.758857216,1.0005259294348587,-7.477627551693467
6.761142784,1.0005082462168757,-7.665410268804135
6.763428352,1.000458701790275,-7.852819163706315
6.765714432,1.0003802403128705,-8.039458463317265
6.768,1.0002778825596308,-8.224930101301807
6.770285568,1.0001580275372646,-8.408910954227238
6.772571648,1.0000282110426926,-8.591234165438218
6.774857216,0.9998966130744626,-8.771778095619123
6.777142784,0.9997714742793894,-8.950621696217008
6.779428352,0.9996608177437303,-9.127882561073662
6.781714432,0.9995715493179795,-9.303800256673908
6.784,0.9995093385393298,-9.478768342892819
6.786285568,0.9994781044183654,-9.653189292532447
6.788571648,0.9994799859599054,-9.827545647360795
6.790857216,0.9995148042550879,-10.002278757256116
6.793142784,0.9995804239822011,-10.177890146459307
6.795428352,0.9996725601103378,-10.354782094958686
6.797714432,0.999785581056216,-10.533290669541529
6.8,0.9999124195956888,-10.713683429443268
6.802285568,1.000044943348805,-10.896095720614628
6.804571648,1.0001748590430803,-11.08054048033628
6.806857216,1.0002940047846742,-11.266932766540771
6.809142784,1.0003948986668527,-11.455064001504477
6.811428352,1.0004710837130757,-11.644623142965997
6.813714432,1.0005176700684313,-11.835202851538249
6.816,1.0005318578568436,-12.026381081588465
6.818285568,1.0005126475459762,-12.217676188657812
6.820571648,1.0004612434509976,-12.408591256657356
6.822857216,1.0003808501389109,-12.598670297539005
6.825142784,1.0002765170924082,-12.787577138410322
6.827428352,1.000154708494875,-12.974992906079528
6.829714432,1.0000231779067528,-13.16071728573386
6.832,0.999890248911708,-13.344647865378471
6.834285568,0.9997641461370782,-13.526876364596522
6.836571648,0.999652989291372,-13.707501695162257
6.838857216,0.9995636412650405,-13.88681812592743
6.841142784,0.9995019552489015,-14.065164089916498
6.843428352,0.9994716499205925,-14.243013688860618
6.845714432,0.9994748254141067,-14.420783622506738
6.848,0.9995113499959281,-14.598974105189932
6.850285568,0.9995786874490075,-14.778088001671785
6.852571648,0.9996729076318869,-14.95850516447271
6.854857216,0.9997878916538241,-15.140570729380803
6.857142784,0.9999165118933215,-15.324548398276876
6.859428352,1.0000505641507078,-15.51059922189675
6.861714432,1.0001818260600768,-15.69870149283533
6.864,1.0003016668180869,-15.888757741950979
6.866285568,1.0004028489773862,-16.080575866203397
6.868571648,1.0004788658260773,-16.273841208046584
6.870857216,1.0005248450440756,-16.46811778670424
6.873142784,1.0005380084916422,-16.66298956251173
6.875428352,1.000517347952205,-16.85793733025029
6.877714432,1.0004643798098096,-17.052506860740788
6.88,1.0003820846246936,-17.246268247302186
6.882285568,1.0002757593211025,-17.43879734607515
6.884571648,1.0001521483669358,-17.629809334364214
6.886857216,1.000018963558954,-17.819131129364564
6.889142784,0.9998845007746163,-18.006649113059535
6.891428352,0.9997574714447429,-18.192418333664733
6.893714432,0.9996455350183585,-18.37660663529703
6.896,0.9995561789570973,-18.559490310050197
6.898285568,0.9994946789329195,-18.74139181124565
6.900571648,0.999465242139055,-18.922807682053755
6.902857216,0.9994695085408514,-19.104174417840362
6.905142784,0.999507439917535,-19.286019057821136
6.907428352,0.9995764975092808,-19.468782075352877
6.909714432,0.9996724830478049,-19.652887165961356
6.912,0.9997894111665523,-19.838672685969993
6.914285568,0.9999197366169705,-20.026422711066992
6.916571648,1.0000554501136898,-20.216225133824178
6.918857216,1.0001878855312052,-20.408137439718246
6.921142784,1.0003086608442988,-20.602041252697116
6.923428352,1.0004103798057966,-20.797708093481386
6.925714432,1.0004863250183607,-20.994824673457828
6.928,1.0005318393564053,-21.192973812831767
6.930285568,1.0005442081572973,-21.39168556905548
6.932571648,1.0005223827467473,-21.59049975118996
6.934857216,1.0004677242141864,-21.78892318491495
