freq,mag,phase
6.0,0.9999880215513298,-43.349452659859026
6.01002496,0.9999808607083839,-43.72825695571334
6.02004992,0.9999728269057316,-44.106995814561635
6.030075392,0.9999661365766684,-44.4856662040401
6.040100352,0.9999608508457609,-44.8643121404666
6.050125312,0.9999575481920256,-45.24288080823308
6.060150272,0.9999560481443416,-45.62145421497937
6.070175232,0.9999566858889437,-46.00002718544621
6.080200704,0.9999592764467197,-46.378669636140806
6.090225664,0.9999638823379335,-46.75738372695115
6.100250624,0.9999699728991704,-47.13616797521891
6.110275584,0.9999775248633364,-47.51508087044395
6.120300544,0.9999861755873721,-47.89410221399466
6.130326016,0.9999951789718329,-48.27326199109867
6.140350976,1.000004513587368,-48.65258631950259
6.150375936,1.0000133498372978,-49.03201996185987
6.160400896,1.0000214130455385,-49.41159603124832
6.170425856,1.0000284310374816,-49.791311788596076
6.180451328,1.000033540827339,-50.17114132415102
6.190476288,1.0000369665238273,-50.551010280137255
6.200501248,1.0000384565468732,-50.93092915361861
6.210526208,1.000037798889547,-51.310928036765155
6.220551168,1.000035089605215,-51.690850584507906
6.23057664,1.0000301621661734,-52.070826366783095
6.2406016,1.0000238909032397,-52.45072697105353
6.25062656,1.000016060512675,-52.830579465649116
6.26065152,1.0000070470370495,-53.21028687008532
6.27067648,0.9999977686301867,-53.589958999425605
6.280701952,0.9999881140912587,-53.969498839933124
6.290726912,0.999979008917819,-54.34893392863818
6.300751872,0.9999709192376048,-54.72830478010792
6.310776832,0.9999639016113178,-55.10759665712626
6.320801792,0.9999584676744147,-55.486792261522304
6.330827264,0.999955056731859,-55.86597009247359
6.340852224,0.9999539119530936,-56.24517857420842
6.350877184,0.9999546105334026,-56.624370299522134
6.360902144,0.9999576095960495,-57.003625773090526
6.370927104,0.9999626830303652,-57.382949775710415
6.380952576,0.9999694675734447,-57.76233438336406
6.390977536,0.9999774419957899,-58.1418834021587
6.401002496,0.9999865747212704,-58.5215487899406
6.411027456,0.9999963971510125,-58.90138797063635
6.421052416,1.0000061203806916,-59.2813520088106
6.431077888,1.0000155786123237,-59.66141097413146
6.441102848,1.000023975604124,-60.041664712443826
6.451127808,1.0000308754026024,-60.422030198666675
6.461152768,1.0000363477532672,-60.80250913160637
6.471177728,1.0000398341818895,-61.18308338384541
6.4812032,1.0000410013162677,-61.56369642567596
6.49122816,1.000040023688478,-61.94431445640447
6.50125312,1.0000368776354707,-62.324923082749415
6.51127808,1.0000316550918145,-62.705546226409425
6.52130304,1.000024832959199,-63.08605201675144
6.531328512,1.0000161469512463,-63.46653850629424
6.541353472,1.0000067747332813,-63.84688666027295
6.551378432,0.9999969087499574,-64.22716426214762
6.561403392,0.9999866914709639,-64.60732886792259
6.571428352,0.9999772177335365,-64.9873958753975
6.581453824,0.9999687566984522,-65.36732710745535
6.591478784,0.9999614336227044,-65.7471912442072
6.601503744,0.9999561651144255,-66.12700881503388
6.611528704,0.9999525376124344,-66.5068382326686
6.621553664,0.9999514083462165,-66.88661486935081
6.631579136,0.999952560240237,-67.26639773742754
6.641604096,0.9999559789826993,-67.64624847823112
6.651629056,0.9999614277418838,-68.02613643239428
6.661654016,0.9999687633631533,-68.40618255433729
6.671678976,0.9999775110882764,-68.78632907327477
6.681704448,0.9999873647289799,-69.16658539715839
6.691729408,0.9999974727652128,-69.54705541392788
6.701754368,1.0000077640706482,-69.92763971371254
6.711779328,1.0000176027155512,-70.30838262170535
6.721804288,1.0000264294382104,-70.68928900756808
6.73182976,1.000033646675424,-71.07030792093319
6.74185472,1.0000391673361544,-71.45141589344165
6.75187968,1.0000425370885313,-71.83264047579563
6.76190464,1.0000436199971816,-72.21389903899536
6.7719296,1.000042343182528,-72.59517012012101
6.781955072,1.000038743945538,-72.97643274733717
6.791980032,1.0000330645112327,-73.35768387651397
6.802004992,1.0000255013893717,-73.73884291439707
6.812029952,1.0000164500905175,-74.11990565142702
6.822054912,1.000006348260663,-74.50090874684088
6.832080384,0.9999957972498348,-74.88176489091637
6.842105344,0.9999853225289133,-75.26254072602606
6.852130304,0.9999752846948678,-75.64313881264651
6.862155264,0.9999662761247389,-76.02369388534366
6.872180224,0.9999588548956339,-76.4041442773066
6.882205696,0.9999533106591475,-76.7845303838387
6.892230656,0.9999500499202078,-77.16489781046636
6.902255616,0.9999491296313281,-77.54526062075391
6.912280576,0.9999505131109356,-77.92564292612958
6.922305536,0.999954427231475,-78.30599865957173
6.932331008,0.9999603949797722,-78.68652873448256
6.942355968,0.9999682559659488,-79.06715202421782
6.952380928,0.9999776154795197,-79.44790373068057
6.962405888,0.9999879685183111,-79.82882099268676
6.972430848,0.9999988468046408,-80.20985445023989
6.98245632,1.0000097619846127,-80.59107930461494
6.99248128,1.0000198849271271,-80.97246697811977
7.00250624,1.0000291188334467,-81.353981182794
7.0125312,1.000036623102027,-81.73563414774178
7.02255616,1.0000420618805261,-82.11740633544656
7.032581632,1.0000454253799265,-82.49923653289358
7.042606592,1.000046169294986,-82.88112923976715
7.052631552,1.0000447052565926,-83.26303352135021
7.062656512,1.000040676289813,-83.64490942279748
7.072681472,1.0000342912611058,-84.02675711379608
7.082706944,1.0000261350765896,-84.40853009495372
7.092731904,1.000016398503713,-84.79022533167517
7.102756864,1.0000056868828213,-85.17179909189169
7.112781824,0.9999945728909945,-85.55325803857714
7.122806784,0.9999835660576722,-85.9345631593045
7.132832256,0.9999731592659125,-86.31577774524173
7.142857216,0.9999637924013367,-86.69686631765188
7.152882176,0.9999561726113527,-87.07787411802393
7.162907136,0.9999505163232544,-87.45881043340782
7.172932096,0.9999473301854822,-87.83970062866717
7.182957568,0.9999466146244643,-88.22064203534585
7.192982528,0.9999484874902043,-88.601559331159
7.203007488,0.9999526821813288,-88.98253871846
7.213032448,0.9999592830751912,-89.36359371788147
7.223057408,0.9999676608400379,-89.74478128434086
7.23308288,0.9999777454962488,-90.12609951265809
7.24310784,0.9999888185355288,-90.50760801611143
7.2531328,1.0000003343395631,-90.88924849927308
7.26315776,1.0000117622648022,-91.27107641534606
7.27318272,1.0000223824629795,-91.6530798680595
7.283208192,1.0000318030667161,-92.03521192629707
7.293233152,1.0000395302574832,-92.41748241888898
7.303258112,1.0000451435011637,-92.7998452469908
7.313283072,1.0000484076572045,-93.18228607782629
7.323308032,1.0000489087244713,-93.56479969957874
7.333333504,1.0000469853088336,-93.94731609258766
7.343358464,1.000042454093718,-94.3298036730435
7.353383424,1.0000355927103013,-94.71223102487609
7.363408384,1.0000267578628752,-95.09458980984276
7.373433344,1.0000164556862006,-95.47685697843637
7.383458816,1.0000050680157717,-95.85898016256377
7.393483776,0.9999933074723422,-96.24099948257125
7.403508736,0.9999816410244825,-96.62285424927343
7.413533696,0.9999707069068773,-97.0046050579836
7.423558656,0.9999611505185324,-97.38622337768957
7.433584128,0.9999533230522623,-97.76776457417614
7.443609088,0.9999476268473267,-98.14922197897415
7.453634048,0.9999445428615404,-98.5306661426176
7.463659008,0.9999440188820377,-98.91207080978346
7.473683968,0.9999463058082356,-99.29354180396709
7.48370944,0.9999510191222835,-99.67503618221298
7.4937344,0.9999583207006697,-100.05665585804907
7.50375936,0.9999673552178449,-100.4383791495082
7.51378432,0.9999780405422142,-100.82027535118105
7.52380928,0.9999898251041756,-101.20233950441634
7.533834752,1.0000019589970284,-101.58454716661129
7.543859712,1.0000138747888794,-101.96696086349583
7.553884672,1.0000250169556069,-102.3495122441805
7.563909632,1.000034828282872,-102.73223498986796
7.573934592,1.0000426716176911,-103.11511056998286
7.583960064,1.0000483509364713,-103.4980538062859
7.593985024,1.0000514497333122,-103.88108089277092
7.604009984,1.0000516857747102,-104.26419622830586
7.614034944,1.0000493104740047,-104.64726519100576
7.624059904,1.0000442996078722,-105.03031869300457
7.634085376,1.0000367616493737,-105.41334856469169
7.644110336,1.0000273349050839,-105.79625437205797
7.654135296,1.000016336374482,-106.17902811616898
7.664160256,1.000004300013452,-106.56171626432501
7.674185216,0.9999917362621966,-106.94425093192963
7.684210688,0.9999795424225074,-107.32662925030914
7.694235648,0.9999682028643972,-107.70890820483757
7.704260608,0.9999582667870013,-108.09103006954578
7.714285568,0.9999502655455006,-108.4730566767056
7.724310528,0.9999446117793492,-108.85501396300597
7.734336,0.9999416750648447,-109.23693913349591
7.74436096,0.9999414901409259,-109.61886328267731
7.75438592,0.9999441151551314,-110.00081904636095
7.76441088,0.9999494521464058,-110.38282255034764
7.77443584,0.9999573151621985,-110.76494326058474
7.784461312,0.9999671030529068,-111.14721322006626
7.794486272,0.9999784531967648,-111.52962362274029
7.804511232,0.9999908877963977,-111.91219639409722
7.814536192,1.000003653497471,-112.29497751434094
7.824561152,1.0000161506638254,-112.6779350765334
7.834586624,1.0000277594399736,-113.06102896192702
7.844611584,1.000037851651345,-113.44433327807566
7.854636544,1.000046038877839,-113.8277386912395
7.864661504,1.000051634084114,-114.21125518166636
7.874686464,1.0000545251620334,-114.59485062738976
7.884711936,1.0000545838237707,-114.97851756222659
7.894736896,1.0000517869669976,-115.36212667346155
7.904761856,1.0000461430306415,-115.74575651390987
7.914786816,1.0000380145590986,-116.12928261785255
7.924811776,1.000027847641119,-116.51271132658297
7.934837248,1.0000160054171208,-116.89601622384376
7.944862208,1.0000032682234492,-117.27919596855537
7.954887168,0.9999901591058068,-117.66220549743095
7.964912128,0.9999774155297636,-118.04508259250586
7.974937088,0.9999655035469966,-118.42780479731746
7.98496256,0.9999552933161743,-118.81039229990436
7.99498752,0.9999471314951967,-119.19290047873025
8.00501248,0.9999414730927291,-119.57533035920946
8.01503744,0.9999386924981863,-119.95770853246364
8.025062912,0.9999387573308077,-120.34008094355896
8.035087872,0.9999419364854334,-120.7224939310491
8.045112832,0.9999478135499318,-121.10498590181689
8.055137792,0.9999563208739229,-121.48759426823335
8.065162752,0.9999668323732834,-121.87034888266899
8.075188224,0.9999790214841642,-122.25322983060008
8.085213184,0.9999921899784852,-122.63631209400025
8.095238144,1.0000056207966215,-123.01960445988536
8.105263104,1.000018686243679,-123.40306858820595
8.115288064,1.000030756360386,-123.78669936744947
8.125313536,1.0000412003925252,-124.17051732761016
8.135338496,1.0000494246443847,-124.55446820857357
8.145363456,1.0000551102068362,-124.9385116085135
8.155388416,1.0000578458484557,-125.3226314632134
8.165413376,1.0000575489636208,-125.70679841913103
8.175438848,1.000054246896094,-126.09095263764897
8.185463808,1.000048004953722,-126.4750568238627
8.195488768,1.0000392138101217,-126.85908861226284
8.205513728,1.000028226131977,-127.2430175216223
8.215538688,1.0000157700059609,-127.6268081156802
8.22556416,1.0000021580707623,-128.01045022581243
8.23558912,0.9999884141486658,-128.3939136232693
8.24561408,0.9999750542474479,-128.777224131167
8.25563904,0.9999627892305869,-129.1603981065149
8.265664,0.9999522020167113,-129.54340395192528
8.275689472,0.9999439096516588,-129.92634032265798
8.285714432,0.9999382418792635,-130.30918216513317
8.295739392,0.9999356598734038,-130.69198687191704
8.305764352,0.999936157208759,-131.07479948007983
8.315789312,0.9999397234614963,-131.4576480016386
8.325814784,0.99994627129725,-131.8405650207232
8.335839744,0.9999553579822726,-132.22362091923844
8.345864704,0.9999667095096826,-132.60681458396675
8.355889664,0.9999796983384872,-132.99016881529477
8.365914624,0.999993537752739,-133.37370713574077
8.375940096,1.0000076997415102,-133.75746428664294
8.385965056,1.0000213098955777,-134.14140551943208
8.395990016,1.0000339745181455,-134.52554602841707
8.406014976,1.0000446740006246,-134.90985572706012
8.416039936,1.0000530896418969,-135.29431319131623
8.426065408,1.0000586700047627,-135.67885180725747
8.436090368,1.0000611794966041,-136.06344413048274
8.446115328,1.0000605177957684,-136.4481184443115
8.456140288,1.0000566310551737,-136.83274126828653
8.466165248,1.0000497537817432,-137.21732827864508
8.47619072,1.0000402608037968,-137.60180015123322
8.48621568,1.0000285747466633,-137.98617343965148
8.49624064,1.0000152666892836,-138.37039821913174
8.5062656,1.0000009596149204,-138.7544548295084
8.51629056,0.9999864243772867,-139.13834858539573
8.526316032,0.9999724241489355,-139.52204727124413
8.536340992,0.9999597027427471,-139.90562896437993
8.546365952,0.9999487828908293,-140.28903851195244
8.556390912,0.9999403598221128,-140.67233528391742
8.566415872,0.9999347643749926,-141.05557262524647
8.576441344,0.9999323023584193,-141.43873560651264
8.586466304,0.9999331700559623,-141.821943282989
8.596491264,0.9999373538480489,-142.2051945828897
8.606516224,0.999944534868925,-142.5885224574578
8.616541184,0.9999544920454925,-142.97195968488202
8.626566144,0.9999666038041527,-143.35557705965755
8.636591104,0.9999803704033545,-143.73935271374557
8.646616064,0.9999950411783082,-144.12330204141622
8.656642048,1.000009907022629,-144.50752698301048
8.666667008,1.0000242002746487,-144.8919134890112
8.676691968,1.0000372173813699,-145.2764947910348
8.686716928,1.0000482648592932,-145.66123894000123
8.696741888,1.000056810622552,-146.04615494214312
8.706766848,1.0000623369415074,-146.431146591877
8.716791808,1.000064625429365,-146.81622539510218
8.726816768,1.000063583832373,-147.20131027867586
8.736841728,1.0000591987372733,-147.58637324410478
8.746866688,1.0000516111689146,-147.9713964584839
8.756892672,1.0000413537959811,-148.35629185791154
8.766917632,1.0000288150880023,-148.7410589593429
8.776942592,1.0000146357530373,-149.1256854960647
8.786967552,0.9999995450297354,-149.51012182129404
8.796992512,0.9999842702303938,-149.89436924209286
8.807017472,0.9999696998901104,-150.2784666522902
8.817042432,0.9999564750104353,-150.66235293324831
8.827067392,0.9999452115384552,-151.04614175767824
8.837092352,0.999936679470519,-151.42977788423315
8.847117312,0.9999312026341964,-151.8133508771858
8.857143296,0.9999289992581475,-152.19687777403502
8.867168256,0.9999302471899699,-152.58040271641866
8.877193216,0.9999349801032215,-152.96399544689356
8.887218176,0.9999429048735099,-153.3476675771924
8.897243136,0.9999535904387462,-153.73147857613066
8.907268096,0.9999665563194106,-154.1154428160492
8.917293056,0.999981232348481,-154.49961067770423
8.927318016,0.9999966852779664,-154.88397595501831
8.937342976,1.000012285947651,-155.26856087256974
8.947367936,1.000027293015613,-155.65338741466906
8.95739392,1.0000407375359852,-156.03836625024402
8.96741888,1.0000520882632151,-156.42354275815185
8.97744384,1.0000606799533915,-156.808827536834
8.9874688,1.0000662608057573,-157.19426370634355
8.99749376,1.0000682595624193,-157.57974461698484
9.00751872,1.0000667881206038,-157.96524240821694
9.01754368,1.000061774783121,-158.35069770040678
9.02756864,1.0000534902123501,-158.73609986463512
9.0375936,1.000042383057085,-159.1213907405319
9.04761856,1.0000290042237159,-159.5065106568437
9.057644544,1.0000138549679627,-159.8914914069558
9.067669504,0.9999979659599892,-160.27627119165223
9.077694464,0.9999820175184492,-160.66084894664553
9.087719424,0.9999667498318286,-161.04524360007827
9.097744384,0.9999529771985541,-161.42943995681293
9.107769344,0.9999415037881647,-161.81353114556134
9.117794304,0.9999328172333082,-162.19746071869415
9.127819264,0.9999273583409354,-162.58132324391067
9.137844224,0.9999255565399279,-162.96512945335164
9.147869184,0.9999272323896129,-163.34895911109817
9.157895168,0.9999325742243826,-163.73285152637962
9.167920128,0.9999412062275491,-164.11683801672493
9.177945088,0.9999527997963462,-164.50095633873354
9.187970048,0.999966792578758,-164.8852585872291
9.197995008,0.9999822646940163,-165.2697867158131
9.208019968,0.9999986422306543,-165.65448318535354
9.218044928,1.0000149645782044,-166.0394305874046
9.228069888,1.0000305711588038,-166.42457789613792
9.238094848,1.0000445209629651,-166.80996734305208
9.248119808,1.0000561298283623,-167.19548993770204
9.258145792,1.0000649461842575,-167.58118567917145
9.268170752,1.0000703221010148,-167.9669722447714
9.278195712,1.0000720256449187,-168.3528103844813
9.288220672,1.0000700872812447,-168.73868449726373
9.298245632,1.0000643596407366,-169.12448409198058
9.308270592,1.0000554056132165,-169.51023727659424
9.318295552,1.0000432798884855,-169.89586538444368
9.328320512,1.000029017909742,-170.28133258498724
9.338345472,1.0000130173279904,-170.6665852156567
9.348370432,0.9999962140686819,-171.05164839438564
9.358396416,0.9999794652051334,-171.43651044163872
9.368421376,0.9999635083918317,-171.8211548005477
9.378446336,0.9999493575339653,-172.2056202620743
9.388471296,0.9999375334577337,-172.5899565631049
9.398496256,0.999928735535935,-172.97411175404454
9.408521216,0.9999234039439437,-173.3582362405977
9.418546176,0.9999218144625426,-173.74228839773943
9.428571136,0.9999240877334845,-174.1263678658998
9.438596096,0.9999300995875731,-174.51053301518823
9.448621056,0.9999395727238272,-174.89476562347272
9.45864704,0.9999519824908906,-175.2791714474941
9.468672,0.9999668293664989,-175.6637392168687
9.47869696,0.9999833365900413,-176.04853442958498
9.48872192,1.0000005724343202,-176.4335737529336
9.49874688,1.0000177233756877,-176.81882162151004
9.50877184,1.0000340176870042,-177.20431320178267
9.5187968,1.0000484769124434,-177.5899801236852
9.52882176,1.0000604358254934,-177.9758690727297
9.53884672,1.0000692664975575,-178.361872717977
9.54887168,1.0000745445145862,-178.7479934389954
9.558897664,1.0000759797978014,-179.13417044259955
9.568922624,1.0000734273255805,-179.52035823746843
9.578947584,1.0000670169465489,-179.90646425827663
9.588972544,1.000057139795524,179.70749236816803
9.598997504,1.0000442340156772,179.32158240487027
9.609022464,1.000028947626173,178.935853472107
9.619047424,1.0000119693998486,178.55033966324368
9.629072384,0.9999942292202014,178.16503806069045
9.639097344,0.999976587816607,177.77995953094262
9.649122304,0.9999600619736375,177.39506076727392
9.659148288,0.9999453642903701,177.01039188969472
9.669173248,0.9999333202413142,176.62586991432568
9.679198208,0.9999242651426896,176.24150853805278
9.689223168,0.9999191630973506,175.85719666718637
9.699248128,0.9999179656298548,175.4729451804516
9.709273088,0.9999207729030077,175.08866174448872
9.719298048,0.9999275586424596,174.70432147975544
9.729323008,0.999937875562585,174.31987211709608
9.739347968,0.9999512650940764,173.9352471707778
9.749372928,0.9999670849596908,173.5504270223333
9.759398912,0.9999846225214308,173.1653711346849
9.769423872,1.000002804050583,172.7801004824674
9.779448832,1.0000208047152226,172.39457429150514
9.789473792,1.0000377269858776,172.0088118086714
9.799498752,1.0000527542291238,171.62284195001888
9.809523712,1.0000649861273483,171.23667269417035
9.819548672,1.0000739529834242,170.8503699379678
9.829573632,1.0000790342395611,170.46397688103804
9.839598592,1.000080061300747,170.07751881327985
9.849623552,1.000076954463681,169.69106433338092
9.859649536,1.0000698992043535,169.30466429265397
9.869674496,1.0000590550534687,168.91838723810594
9.879699456,1.0000452496125207,168.53225788429984
9.889724416,1.0000287402588999,168.14632087670563
9.899749376,1.0000107687029167,167.76058053891737
9.909774336,0.9999921273910563,167.37509433218773
9.919799296,0.9999736679989311,166.98982314638556
9.929824256,0.999956416327093,166.60477968265855
9.939849216,0.9999411127240461,166.21994273128504
9.949874176,0.999928740555495,165.83529479746863
9.95990016,0.9999197622056711,165.45077329290382
9.96992512,0.999914775608184,165.06633305757913
9.97995008,0.9999139088592242,164.68191600085157
9.98997504,0.9999173764401628,164.29750247498126
10.0,0.999924946688347,163.91297857409847
