freq,mag,phase
6.0,0.9996397790317575,-91.21173682638494
6.003372544,0.9996248525936307,-91.38549138317535
6.0067456,0.9996349044495604,-91.55921550490575
6.010118144,0.9996674589009096,-91.73330161348566
6.013490688,0.9997202666665992,-91.90797729543493
6.016863232,0.9997901248479841,-92.0835820149436
6.020236288,0.9998727975178276,-92.26032182605462
6.023608832,0.9999631930679763,-92.43831568149366
6.026981376,1.0000559227414423,-92.61765256405667
6.03035392,1.0001450106127203,-92.7983413520367
6.033726976,1.000225219242791,-92.98021856044893
6.03709952,1.000291545960748,-93.16315675975261
6.040472064,1.0003398673602912,-93.34698508738593
6.043844608,1.0003673252479566,-93.53136006943485
6.047217664,1.0003720762922699,-93.71600872147886
6.050590208,1.0003540522216328,-93.90054711560975
6.053962752,1.0003140967009465,-94.08472226850071
6.057335808,1.0002547701154203,-94.26822069690323
6.060708352,1.0001797709907474,-94.45078099311907
6.064080896,1.0000936389110855,-94.63222545992589
6.06745344,1.0000015480441906,-94.81242449495946
6.070826496,0.999909380102108,-94.99129534395249
6.07419904,0.9998224399190572,-95.1689270245423
6.077571584,0.9997464673145064,-95.34543856309845
6.080944128,0.9996858724350267,-95.52095719088705
6.084317184,0.9996445373572858,-95.69576906242129
6.087689728,0.9996247334433386,-95.87019373327271
6.091062272,0.9996280164760991,-96.04454624630905
6.094435328,0.9996541104504479,-96.21911891050559
6.097807872,0.9997012555228395,-96.39417973308821
6.101180416,0.9997665841576556,-96.57013406980393
6.10455296,0.9998463857425369,-96.74714135094219
6.107926016,0.9999354028079517,-96.9253814369944
6.11129856,1.0000283447992422,-97.10494847727809
6.114671104,1.00011957055745,-97.28582696327994
6.118043648,1.0002033134185027,-97.46800389892483
6.121416704,1.0002745244906308,-97.65131566322282
6.124789248,1.0003288964253148,-97.83552533920167
6.128161792,1.0003629450402889,-98.02041301265453
6.131534336,1.0003746990550004,-98.20564082723085
6.134907392,1.0003633321106056,-98.39092602366512
6.138279936,1.0003295551963813,-98.57588546951763
6.14165248,1.0002755869888187,-98.76023535352822
6.145025536,1.0002044544593454,-98.94374443141227
6.14839808,1.00012082660319,-99.12613752201693
6.151770624,1.0000296430441036,-99.30731524111229
6.155143168,0.999936427242347,-99.48721627204827
6.158516224,0.999847018959739,-99.6658248272708
6.161888768,0.9997668591484682,-99.84324963236926
6.165261312,0.9997008536192588,-100.01962985177373
6.168633856,0.9996532397000021,-100.19522559721251
6.172006912,0.9996267900103979,-100.37031090460299
6.175379456,0.9996230082768987,-100.5452155329199
6.178752,0.9996423881311094,-100.72025298532213
6.182124544,0.9996836188907698,-100.89577529527212
6.1854976,0.9997441340903872,-101.07201189359552
6.188870144,0.9998203561506974,-101.2492556431871
6.192242688,0.9999075200601424,-101.42767082907454
6.195615744,1.0000003311767893,-101.60741952735549
6.198988288,1.000093076941502,-101.7885090653643
6.202360832,1.0001799067322876,-101.97092913104122
6.205733376,1.0002557591484074,-102.15449466625412
6.209106432,1.000315807214593,-102.33908050379729
6.212478976,1.0003564021338949,-102.52441962252263
6.21585152,1.0003751125800848,-102.71015353342877
6.219224064,1.0003707393049643,-102.89608620035544
6.22259712,1.000343528641026,-103.08174157696415
6.225969664,1.0002950944710067,-103.26694264574064
6.229342208,1.0002284580274483,-103.45127095420163
6.232715264,1.0001476452198972,-103.63465222961732
6.236087808,1.0000578597989709,-103.81675838917549
6.239460352,0.9999642389321556,-103.99766815985144
6.242832896,0.9998726970496765,-104.17721032053407
6.246205952,0.999788853724561,-104.35552334487694
6.249578496,0.9997179230767422,-104.53276760533468
6.25295104,0.9996641365179114,-104.70911956490954
6.256323584,0.999630760874237,-104.8848820595335
6.25969664,0.9996201617267331,-105.06035999579662
6.263069184,0.9996326304028281,-105.23583517759255
6.266441728,0.9996677049452407,-105.41171545103563
6.269814272,0.9997229775971096,-105.58821975965573
6.273187328,0.9997952476199352,-105.7656869697122
6.276559872,0.9998799648224435,-105.94429666927394
6.279932416,0.9999720366121985,-106.12418971754069
6.283305472,1.0000657339087173,-106.30545242497645
6.286678016,1.0001554154455663,-106.48798362779782
6.29005056,1.0002355151154425,-106.67182377238615
6.293423104,1.0003009527703814,-106.85669534208887
6.29679616,1.0003479656893326,-107.04238451600268
6.300168704,1.0003736340421898,-107.22861459587358
6.303541248,1.0003762501346203,-107.4150704123945
6.306913792,1.0003556574484065,-107.6014265554203
6.310286848,1.0003132677731719,-107.78733827781674
6.313659392,1.0002514308463781,-107.97252871440602
6.317031936,1.0001742090462549,-108.15677735549717
6.32040448,1.000086096239672,-108.33982437342094
6.323777536,0.9999926928231838,-108.52160557508722
6.32715008,0.9998995126395277,-108.7020828064892
6.330522624,0.9998123366526479,-108.88129148033599
6.33389568,0.9997366410180905,-109.05934674769682
6.337268224,0.9996770169559452,-109.23644866739048
6.340640768,0.9996370879393719,-109.41287613651997
6.344013312,0.9996194018365222,-109.58891605939804
6.347386368,0.9996247927142901,-109.76484297879678
6.350758912,0.9996533330048488,-109.94107149237391
6.354131456,0.9997029542677235,-110.11787554127294
6.357504,0.9997708785557468,-110.29551942927525
6.360877056,0.9998526706855699,-110.47426956393545
6.3642496,0.9999434734493257,-110.6542543309957
6.367622144,1.000037709393507,-110.83559816909676
6.370994688,1.0001296304371057,-111.0182949499112
6.374367744,1.0002134503414646,-111.20225213796985
6.377740288,1.000284162351648,-111.38736736610191
6.381112832,1.0003373161542504,-111.57333816139277
6.384485888,1.000369908076723,-111.75996328323858
6.387858432,1.0003796125755386,-111.94690940330831
6.391230976,1.0003659528424769,-112.13384441029385
6.39460352,1.000329776283045,-112.32047927367535
6.397976576,1.0002732997150339,-112.50641071163118
6.40134912,1.0001998974034785,-112.691475693317
6.404721664,1.0001141566174983,-112.87540601499948
6.408094208,1.0000213806090223,-113.05807795809294
6.411467264,0.9999270776599543,-113.23946397190002
6.414839808,0.9998370863624241,-113.41951662421802
6.418212352,0.9997571202899765,-113.59835671317293
6.421585408,0.9996919112150776,-113.7761899196459
6.424957952,0.9996453895500325,-113.95327757998433
6.428330496,0.9996206631536252,-114.12982417581122
6.43170304,0.9996191451862072,-114.30623452847036
6.435076096,0.9996408484072169,-114.48279928333633
6.43844864,0.9996844746754665,-114.65983392385803
6.441821184,0.999747513163261,-114.83765864948228
6.445193728,0.9998260225374748,-115.01649976361827
6.448566784,0.9999149738550172,-115.19656790083013
6.451939328,1.0000091770306674,-115.37795628725361
6.455311872,1.0001027996701464,-115.56071388111573
6.458684416,1.0001900064411633,-115.74479773034501
6.462057472,1.000265581881355,-115.93002465107492
6.465430016,1.0003248222314944,-116.1162722750059
6.46880256,1.0003640537874199,-116.30319778041628
6.472175616,1.000380880749268,-116.49059422929075
6.47554816,1.0003742376961104,-116.67804118860683
6.478920704,1.000344665077269,-116.86523612881302
6.482293248,1.0002938062218245,-117.05188007891277
6.485666304,1.0002248830315301,-117.23771436124765
6.489038848,1.0001420200959288,-117.4224875861953
6.492411392,1.00005037041649,-117.60600506616655
6.495783936,0.9999554366009492,-117.78822805018251
6.499156992,0.9998632184745524,-117.96910987988733
6.502529536,0.9997791669174282,-118.14875161249175
6.50590208,0.9997086660555109,-118.32730556955421
6.509274624,0.9996559667379694,-118.50499744384248
6.51264768,0.9996241911254411,-118.68208305163972
6.516020224,0.9996153311574492,-118.85891205464998
6.519392768,0.9996300979979871,-119.0357840864591
6.522765824,0.9996675831306943,-119.21304247904571
6.526138368,0.999725248653913,-119.39100381815543
6.529510912,0.999799794135292,-119.56993686095834
6.532883456,0.9998865304861473,-119.75004989749849
6.536256512,0.9999802115137422,-119.9314463693246
6.539629056,1.0000750077124085,-120.1142142299378
6.5430016,1.0001651933740099,-120.29831839332277
6.546374144,1.0002452176226646,-120.48364475268363
6.5497472,1.000310101201284,-120.67004737269535
6.553119744,1.0003559612027204,-120.85724618540404
6.556492288,1.0003798317948114,-121.04495831466414
6.559865344,1.0003804854045073,-121.23283662748001
6.563237888,1.0003576447087488,-121.42059892653151
6.566610432,1.0003127507075,-121.60788828398734
6.569982976,1.000248742857075,-121.79441495497836
6.573356032,1.000169245056611,-121.97993642906174
6.576728576,1.0000792879985243,-122.16426353004552
6.58010112,0.9999843500398061,-122.34729856712269
6.583473664,0.9998902132652591,-122.52895616198892
6.58684672,0.9998027764736652,-122.70936088285815
6.590219264,0.9997273139569517,-122.88860029354062
6.593591808,0.9996683805779799,-123.0669121859504
6.596964352,0.9996298227789587,-123.24453936223979
6.600337408,0.9996138514729641,-123.42176129902745
6.603709952,0.9996214803423943,-123.59894489562
6.607082496,0.9996522328625524,-123.77645076328535
6.610455552,0.9997043791672674,-123.95451410942509
6.613828096,0.9997744548843035,-124.13348196890979
6.61720064,0.9998583401954837,-124.31358762742533
6.620573184,0.9999509806059832,-124.49494864719516
6.62394624,1.0000464527270172,-124.67767193316595
6.627318784,1.000139123552413,-124.86172916008888
6.630691328,1.000223194693779,-125.04710688902726
6.634063872,1.0002935097091452,-125.23358199753554
6.637436928,1.0003457970746155,-125.4209518227249
6.640809472,1.0003768254146357,-125.60895155661164
6.644182016,1.0003846454229168,-125.79722142638522
6.64755456,1.0003688143702008,-125.9854299106164
6.650927616,1.0003302946488433,-126.17328100687082
6.65430016,1.0002714873070657,-126.36043975654542
6.657672704,1.0001958266934354,-126.54666656729799
6.66104576,1.0001081806689247,-126.73175343904322
6.664418304,1.0000137045354922,-126.91554249633502
6.667790848,0.9999182761288655,-127.09796324246446
6.671163392,0.9998277665275886,-127.27909925040204
6.674536448,0.9997476316164664,-127.45899726702079
6.677908992,0.9996829866631565,-127.63787530699958
6.681281536,0.9996376565032524,-127.8160160278575
6.68465408,0.9996144455277475,-127.99366989901098
6.688027136,0.9996149048201295,-128.17112268670834
6.69139968,0.9996388387438165,-128.34879775471833
6.694772224,0.9996848184217875,-128.52699564872137
6.69814528,0.9997501780842718,-128.70599014724493
6.701517824,0.99983078375859,-128.88601341008786
6.704890368,0.9999216696875761,-129.0672976078842
6.708262912,1.0000173337984533,-129.2499560746583
6.711635968,1.0001119165753154,-129.4339341724868
6.715008512,1.0001996039618937,-129.61927655040878
6.718381056,1.0002749905114245,-129.8057822298451
6.7217536,1.000333417153138,-129.99320757115962
6.725126656,1.0003714596965623,-130.1813842919608
6.7284992,1.0003865741848532,-130.36994527824615
6.731871744,1.0003779861978603,-130.55856036496368
6.735244288,1.0003460721402084,-130.74689798501956
6.738617344,1.0002928665160893,-130.93465750208995
6.741989888,1.0002215787064983,-131.12151967158323
6.745362432,1.000136716083603,-131.30725723351387
6.748735488,1.0000432526146557,-131.49178633256133
6.752108032,0.9999470731975237,-131.67493527775994
6.755480576,0.9998540957385746,-131.85676274002495
6.75885312,0.9997698047301298,-132.03730477155224
6.762226176,0.999699538648654,-132.21677681279257
6.76559872,0.9996476818306946,-132.39537824445105
6.768971264,0.9996173288330599,-132.57339885701396
6.772343808,0.999610361765459,-132.75114276425285
6.775716864,0.9996272054096683,-132.92898937224803
6.779089408,0.9996668738268613,-133.10727623727786
6.782461952,0.9997269921390389,-133.28623751343306
6.785834496,0.9998036672481658,-133.46622251028091
6.789207552,0.9998924197162208,-133.6473551886526
6.792580096,0.9999877160363859,-133.82984594961573
6.79595264,1.000083751315932,-134.0137132241734
6.799325696,1.0001745666973612,-134.19894583230965
6.80269824,1.0002546557636498,-134.3853683976052
6.806070784,1.0003190534399313,-134.57288735999597
6.809443328,1.000363848377446,-134.76112607187275
6.812816384,1.0003862615520664,-134.94992113831265
6.816188928,1.0003849810133325,-135.13883601025663
6.819561472,1.0003599569476347,-135.32758926000758
6.822934016,1.0003128341395147,-135.5158406255074
6.826307072,1.0002464076908935,-135.70328383896847
6.829679616,1.0001648138915744,-135.88968877519576
6.83305216,1.0000729853156476,-136.074840416611
6.836424704,0.9999765039648769,-136.25869048928413
6.83979776,0.9998814346266243,-136.44115676601413
6.843170304,0.9997934534980719,-136.62233913564464
6.846542848,0.9997180865554322,-136.8023240073359
6.849915904,0.9996599017890946,-136.9813891442326
6.853288448,0.9996225058250792,-137.15979199021746
6.856660992,0.9996081918503984,-137.33781728349084
6.860033536,0.9996177752608354,-137.51582942199346
6.863406592,0.999650728746171,-137.69415492413714
6.866779136,0.9997050965305909,-137.87309348045721
6.87015168,0.9997775009722222,-138.0529336802084
6.873524224,0.9998634529414849,-138.23392908417875
6.87689728,0.9999578118286793,-138.4162226730517
6.880269824,1.000054718694336,-138.59989124109524
6.883642368,1.0001482561690827,-138.78494844058545
6.887015424,1.000232528382947,-138.97128648505625
6.890387968,1.0003025726228887,-139.15872314727795
6.893760512,1.0003540522806957,-139.34700945222008
6.897133056,1.0003836539104456,-139.53591679670308
6.900506112,1.0003898640054656,-139.72506757467136
6.903878656,1.0003720048654985,-139.91416568194472
6.9072512,1.0003311932660175,-140.10283571358548
6.910623744,1.000269995321054,-140.2908143954573
6.9139968,1.000192205172985,-140.47774681174843
6.917369344,1.0001024622731745,-140.66356572390225
6.920741888,1.0000063274767481,-140.84803698519826
6.924114432,0.9999097851475566,-141.0311111003181
6.927487488,0.9998185441962469,-141.21286206201657
6.930860032,0.9997383971223304,-141.39339328398842
6.934232576,0.9996741347113836,-141.5729056231149
6.937605632,0.9996298255588227,-141.75163582695257
6.940978176,0.9996080640410703,-141.9299184860895
6.94435072,0.9996102640494755,-142.10805640294657
6.947723264,0.99963633478733,-142.28638967827553
6.95109632,0.9996846870644043,-142.4652580517254
6.954468864,0.9997522560480776,-142.645011777451
6.957841408,0.9998350363228982,-142.82580882920345
6.961213952,0.9999277824995093,-143.00784465742055
6.964587008,1.0000250435280016,-143.19126927607033
6.967959552,1.0001206544379746,-143.37609411180475
6.971332096,1.0002087749456876,-143.56222992199906
6.97470464,1.000284164548738,-143.74952057564207
6.978077696,1.0003420612647576,-143.93776791350487
6.98145024,1.0003788743203477,-144.12673949540292
6.984822784,1.0003924899790824,-144.31605442082943
6.98819584,1.0003818911648084,-144.50540292570147
6.991568384,1.0003477731276962,-144.69444388860674
6.994940928,1.0002923484876094,-144.8828123042957
6.998313472,1.000218807380521,-145.07030462317383
7.001686528,1.000131884280022,-145.25664913657303
7.005059072,1.0000366303222765,-145.44170141795055
7.008431616,0.9999390302912313,-145.62535923431196
7.01180416,0.999845109184366,-145.80765035776287
7.015177216,0.9997605589763331,-145.98870031466873
7.01854976,0.9996905878789215,-146.1686437129289
7.021922304,0.999639477799187,-146.34773088155828
7.02529536,0.9996104433580107,-146.5262198242044
7.028667904,0.9996051132569558,-146.70444750003415
7.032040448,0.9996240270771162,-146.88280819232975
7.035412992,0.9996658956682819,-147.06163275126258
7.038786048,0.9997282468104121,-147.24119432034823
7.042158592,0.9998072298541616,-147.42176360705778
7.045531136,0.9998979658719385,-147.60353387965455
7.04890368,0.9999948983452694,-147.78663943517637
7.052276736,1.000092162245429,-147.97116610375028
7.05564928,1.000183722787627,-148.15704050933098
7.059021824,1.0002639565450955,-148.34416082615286
7.062394368,1.0003279543069425,-148.53229533114876
7.065767424,1.000371869655665,-148.72120311859496
7.069139968,1.000392927871091,-148.9105657458878
7.072512512,1.0003897318979944,-149.10010089275113
7.075885568,1.0003626378063606,-149.289398687959
7.079258112,1.0003133419368606,-149.47816483632428
7.082630656,1.0002445955308037,-149.66610175759627
7.0860032,1.0001608363833885,-149.85294038239056
7.089376256,1.000067069640874,-150.03850966868993
7.0927488,0.9999690448105363,-150.22272129666615
7.096121344,0.9998728865360226,-150.40553269039944
7.099493888,0.9997843697998723,-150.5870287852959
7.102866944,0.9997090096489532,-150.76738897155948
7.106239488,0.999651375089841,-150.9467709588145
7.109612032,0.9996150208458512,-151.12549501492288
7.112984576,0.9996022745194698,-151.30386546660608
7.116357632,0.9996137949754953,-151.48218926208557
7.119730176,0.9996489574389504,-151.66088051522112
7.12310272,0.9997056011846627,-151.8402456340511
7.126475776,0.9997802613938043,-152.02052938225307
7.12984832,0.9998683488714647,-152.2019972953321
7.133220864,0.9999645594760107,-152.38475994284764
7.136593408,1.0000628124116029,-152.5689463022647
7.139966464,1.000157214212942,-152.75451583555514
7.143339008,1.000241972955768,-152.94133024588692
7.146711552,1.000311838724981,-153.12926662208667
7.150084096,1.0003625517555854,-153.31807502653498
7.153457152,1.0003910329066585,-153.5074508634233
7.156829696,1.0003955030749092,-153.6970718450563
7.16020224,1.000375579073989,-153.886561504587
7.163575296,1.0003325916362733,-154.07562800939132
7.16694784,1.0002691327832463,-154.26391471260524
7.170320384,1.0001891461219128,-154.45117590623286
7.173692928,1.0000974820302968,-154.63724555699497
7.177065984,0.9999996320848277,-154.82195133905202
7.180438528,0.9999017706816664,-155.0052301351295
7.183811072,0.9998097700522453,-155.18719654724532
7.187183616,0.999729401955269,-155.36790304554304
7.190556672,0.9996655210498319,-155.54758947787872
7.193929216,0.9996220618697541,-155.72649145533785
7.19730176,0.9996017184239987,-155.904949036158
7.200674304,0.999605740304227,-156.08325242821542
7.20404736,0.9996338543574337,-156.26184687833342
7.207419904,0.9996844255451517,-156.44096795376356
7.210792448,0.9997543238723625,-156.62096280554954
7.214165504,0.9998392567971901,-156.8020777453628
7.217538048,0.9999340115214751,-156.98444922497575
7.220910592,1.0000327400167164,-157.16822910826235
7.224283136,1.0001295359219522,-157.35338256382
7.227656192,1.0002183123467205,-157.53986770647754
7.231028736,1.0002936774887232,-157.72753101533547
7.23440128,1.000350953733191,-157.91614483621592
7.237773824,1.0003868404697935,-158.10543723167882
7.24114688,1.0003988121794767,-158.29504601295898
7.244519424,1.0003863452840847,-158.48468017138018
7.247891968,1.0003501395329806,-158.67395341690357
7.251264512,1.0002923661147178,-158.86254089992502
7.254637568,1.0002165556665392,-159.0501876648657
7.258010112,1.0001274538437968,-159.2366745238338
7.261382656,1.0000304327173966,-159.42181130906883
7.264755712,0.9999313967861954,-159.60553067971253
7.268128256,0.9998364372317947,-159.7878778781307
7.2715008,0.9997514625317921,-159.96894412721767
7.274873344,0.9996816415394221,-160.14887689315387
7.2782464,0.9996312300430797,-160.327981973543
7.281618944,0.9996033890719412,-160.50651504690262
7.284991488,0.9995997199626211,-160.6848183900971
7.288364032,0.9996207372603011,-160.8632480001944
7.291737088,0.9996647406141149,-161.0421215230834
7.295109632,0.9997294356123458,-161.2218061028198
7.298482176,0.9998106682076733,-161.40248696691842
7.30185472,0.9999033758378162,-161.5844402725764
7.305227776,1.0000021432145305,-161.76776707424793
7.30860032,1.0001006538729171,-161.9524706817562
7.311972864,1.0001930059533009,-162.1385416263671
7.31534592,1.000273476301432,-162.32585280779153
7.318718464,1.000337114883555,-162.5142155352639
7.322091008,1.0003801587008743,-162.70332220729725
7.325463552,1.0003998339327307,-162.89287984293952
7.328836608,1.0003948844491033,-163.082521874905
7.332209152,1.0003657601513811,-163.27192073108773
7.335581696,1.000314050483776,-163.46076559096042
7.33895424,1.0002431234122942,-163.6487344975081
