freq,mag,phase
6.0,1.0000944970814893,-168.02310884425458
6.002284544,1.0000850368801948,-168.1741258954675
6.004568576,1.0000705471596247,-168.3249724513673
6.00685312,1.0000520921923246,-168.47555127108762
6.009137664,1.0000308634227,-168.6258096703111
6.011422208,1.0000083105430606,-168.77577474260673
6.01370624,0.9999857190725139,-168.9253977229039
6.015990784,0.9999645848131868,-169.07465409301093
6.018275328,0.999946282316397,-169.2236266662425
6.020559872,0.9999317976793979,-169.37235399878944
6.022843904,0.9999222721517856,-169.52084697003608
6.025128448,0.9999182693724802,-169.66927896601297
6.027412992,0.9999199087601053,-169.81764637055974
6.029697536,0.9999272522278516,-169.96606197639932
6.031981568,0.9999395906534936,-170.11466009475436
6.034266112,0.9999564421661926,-170.26340678178772
6.036550656,0.9999766113892036,-170.41238536011957
6.0388352,0.9999987296540894,-170.5616823894845
6.041119232,1.000021569504154,-170.71129904251117
6.043403776,1.0000435324614312,-170.86119749631123
6.04568832,1.0000633877674616,-171.011423816929
6.047972352,1.0000796145121922,-171.161845911873
6.050256896,1.0000916108076208,-171.31249892904063
6.05254144,1.0000980924669707,-171.4632441341969
6.054825984,1.000099107048896,-171.61404824560256
6.057110016,1.000094354773836,-171.76479836236783
6.05939456,1.0000841349849867,-171.91542302773044
6.061679104,1.000069167436057,-172.06584544126036
6.063963648,1.0000503453340754,-172.21601050634658
6.06624768,1.0000289730549268,-172.3658623632089
6.068532224,1.0000062786377066,-172.51537313119096
6.070816768,0.999983721720078,-172.66456929458826
6.073101312,0.9999626737263803,-172.81340951834343
6.075385344,0.9999445871822538,-172.96194990812037
6.077669888,0.9999305624788344,-173.11021824966772
6.079954432,0.9999214544195442,-173.2583341193992
6.082238976,0.9999178773421138,-173.40633834953078
6.084523008,0.99991998999937,-173.5542933273536
6.086807552,0.9999277938086786,-173.7023178297613
6.089092096,0.9999406932384024,-173.85047699736688
6.091376128,0.9999578652714123,-173.99883616419334
6.093660672,0.9999782716032082,-174.14745423425882
6.095945216,1.000000635633802,-174.29636184376076
6.09822976,1.0000234695832821,-174.44561234416196
6.100513792,1.0000453617321141,-174.59511112511328
6.102798336,1.0000649608995282,-174.74493974776732
6.10508288,1.0000810483895828,-174.8949900567082
6.107367424,1.0000924808072986,-175.04521039698432
6.109651456,1.0000986515748167,-175.19554431013557
6.111936,1.0000991181558656,-175.3459390995252
6.114220544,1.0000938229102216,-175.49627262028116
6.116505088,1.0000831548294211,-175.6464744680371
6.11878912,1.0000679195030229,-175.79646510609604
6.121073664,1.0000486472660837,-175.946181843683
6.123358208,1.000027075187912,-176.09559208974323
6.12564224,1.0000042600004013,-176.24467720072295
6.127926784,0.9999816400305706,-176.39339361188615
6.130211328,0.9999607379116758,-176.54177931996625
6.132495872,0.9999429897868386,-176.68984565476313
6.134779904,0.9999293308306118,-176.83769149816257
6.137064448,0.9999206501694825,-176.9853549172004
6.139348992,0.9999174855259524,-177.1329420980683
6.141633536,0.9999201808537792,-177.2804559629567
6.143917568,0.9999284809101675,-177.42805559138253
6.146202112,0.9999418147227863,-177.5758013024297
6.148486656,0.9999593315461969,-177.7237430455548
6.1507712,0.9999800498229299,-177.87196322532844
6.153055232,1.0000025665413388,-178.02047753819627
6.155339776,1.0000254424897512,-178.1692659314067
6.15762432,1.0000472533633387,-178.31838964456819
6.159908864,1.0000666413009731,-178.46779246888994
6.162192896,1.0000823933921457,-178.61747528442044
6.16447744,1.000093421537337,-178.76726642121093
6.166761984,1.0000990136293555,-178.9172053731182
6.169046016,1.000099116142704,-179.06713694195957
6.17133056,1.0000933207729874,-179.2170238036124
6.173615104,1.0000821797980706,-179.36675665365382
6.175899648,1.000066392614235,-179.5163037266016
6.17818368,1.0000469576371127,-179.66556385410055
6.180468224,1.0000250287793093,-179.81451893883155
6.182752768,1.0000022339497812,-179.96309943594332
6.185037312,0.9999795367875476,179.88864646459425
6.187321344,0.9999588573787086,179.74074661803297
6.189605888,0.9999412891025541,179.59312711202458
6.191890432,0.9999280512505475,179.44575441253264
6.194174976,0.9999198452991892,179.29853711495957
6.196459008,0.9999172576009073,179.15143239306158
6.198743552,0.9999203577753449,179.00435836318627
6.201028096,0.9999291271597508,178.85718695317476
6.20331264,0.9999429901961102,178.70990068593298
6.205596672,0.9999608258140157,178.56237355684286
6.207881216,0.9999818404729792,178.41458882763632
6.21016576,1.0000044849343679,178.2664983969134
6.212449792,1.0000274160693432,178.11812526215277
6.214734336,1.0000491032213796,177.96940260726325
6.21701888,1.0000683262038188,177.82044222577676
6.219303424,1.0000836488561051,177.67121062628465
6.221587456,1.0000942832573674,177.52184999728573
6.223872,1.0000995274810558,177.37236217516775
6.226156544,1.0000989202021908,177.22288662935222
6.228441088,1.000092657195094,177.07346624206585
6.23072512,1.0000810671169167,176.924184630852
6.233009664,1.0000648646282455,176.77514230534126
6.235294208,1.0000451179455818,176.6263687809292
6.237578752,1.0000230032417357,176.4778997588016
6.239862784,1.0000000183849698,176.32979852937555
6.242147328,0.9999775215248922,176.182034246119
6.244431872,0.9999570058193207,176.03461804514458
6.246716416,0.9999396342295716,175.88749019351005
6.249000448,0.9999266789399421,175.74060790795306
6.251284992,0.999918959473864,175.59387145917734
6.253569536,0.9999168639862385,175.44724679037895
6.255853568,0.9999205311790934,175.30062819037312
6.258138112,0.9999297492509186,175.1539172373599
6.260422656,0.9999440101537662,175.00706438773835
6.2627072,0.9999623626770598,174.8600028991316
6.264991232,0.9999835923003704,174.71265072368658
6.267275776,1.0000064459197975,174.56502944089274
6.26956032,1.0000294051225764,174.4170674862133
6.271844864,1.0000509941779687,174.26881225834936
6.274128896,1.0000698263180727,174.12028938017485
6.27641344,1.000084945400322,173.97151510652887
6.278697984,1.0000952222165305,173.8226268425866
6.280982528,1.0000999600292053,173.67358683861505
6.28326656,1.0000987752665609,173.5245655453928
6.285551104,1.0000920824328035,173.37562009190364
6.287835648,1.0000799844741413,173.22683718921232
6.29011968,1.0000633412586115,173.0782788960854
6.292404224,1.0000432322873476,172.93001202093464
6.294688768,1.0000209939533495,172.78206381671387
6.296973312,0.999997825178866,172.634441134178
6.299257344,0.9999754596540722,172.4872059780101
6.301541888,0.9999549508782012,172.3402964868156
6.303826432,0.9999380583291307,172.1936879098552
6.306110976,0.999925406059393,172.047281025475
6.308395008,0.9999181761412178,171.90105038035645
6.310679552,0.9999166046484079,171.7549184574979
6.312964096,0.9999208364983329,171.6087785108854
6.31524864,0.9999306201885305,171.462544485631
6.317532672,0.9999451970515576,171.31616793417723
6.319817216,0.9999639087600568,171.16956622093448
6.32210176,0.9999853999574911,171.0226956982446
6.324386304,1.0000083327502256,170.87550855064754
6.326670336,1.000031442830756,170.72801819766445
6.32895488,1.0000527921340325,170.5802188021419
6.331239424,1.0000714589116608,170.43214866736517
6.333523456,1.000086151922801,170.28384543889464
6.335808,1.0000959356138093,170.13538598267095
6.338092544,1.0001001935165674,169.98687596738398
6.340377088,1.0000985982348367,169.8383414573697
6.34266112,1.000091265102093,169.68987719531162
6.344945664,1.0000787789884686,169.54159616580944
6.347230208,1.0000617744087898,169.3935716439603
6.349514752,1.0000412592745398,169.24579721466282
6.351798784,1.0000188570129935,169.09839123122657
6.354083328,0.9999956392843372,168.9513079019087
6.356367872,0.9999732383457505,168.80458841663992
6.358652416,0.9999531308371625,168.65819573166473
6.360936448,0.9999364397738344,168.51210951990862
6.363220992,0.9999242541414205,168.36621900939508
6.365505536,0.9999174545941323,168.2204767558174
6.36779008,0.999916445153325,168.07485177566585
6.370074112,0.9999212236755735,167.92921135690793
6.372358656,0.9999314194183408,167.78347820626973
6.3746432,0.9999465327909276,167.6375642863216
6.376927232,0.9999655343343309,167.49147491312328
6.379211776,0.9999873188733736,167.34506245156783
6.38149632,1.000010407630274,167.19832576464128
6.383780864,1.000033386933169,167.0513381526284
6.386064896,1.000054692588293,166.90399492763618
6.38834944,1.000073151067453,166.75641299609825
6.390633984,1.000087464216982,166.60858602744014
6.392918528,1.0000968386359121,166.46063503489145
6.39520256,1.000100576359879,166.31259519463785
6.397487104,1.000098515857149,166.16457486161914
6.399771648,1.0000906049582068,166.0166243090478
6.402056192,1.0000775032437346,165.8688534830068
6.404340224,1.0000600760129466,165.7213495950383
6.406624768,1.0000393970883763,165.57413669651223
6.408909312,1.0000166826395607,165.42724785132216
6.411193856,0.9999934520688225,165.2806897324069
6.413477888,0.9999711896712105,165.13450385483182
6.415762432,0.9999511511124277,164.98867440999678
6.418046976,0.9999348012070611,164.84309045724692
6.420331008,0.9999231054496226,164.69775062285657
6.422615552,0.9999169076717122,164.55255117868398
6.424900096,0.9999162798135909,164.40742411998002
6.42718464,0.9999215508803442,164.26228947286728
6.429468672,0.999932228957282,164.11706094373227
6.431753216,0.9999478540542049,163.97164867733173
6.43403776,0.9999671756666664,163.8260238287517
6.436322304,0.9999893156714088,163.68009715046074
6.438606336,1.0000124712418217,163.53387691184255
6.44089088,1.0000354766443547,163.38733133842717
6.443175424,1.0000566053999465,163.24050021699517
6.445459968,1.0000747138430273,163.09339331317813
6.447744,1.0000887058097891,162.94609200614264
6.450028544,1.0000975287643175,162.798631571875
6.452313088,1.000100776240359,162.65111020442993
6.45459712,1.0000980952640048,162.50357879962115
6.456881664,1.000089691609767,162.3561772281769
6.459166208,1.0000761511884566,162.20895073204292
6.461450752,1.0000583308011557,162.0619841887657
6.463734784,1.0000374129874736,161.9152921429145
6.466019328,1.0000144969682212,161.76895844239738
6.468303872,0.9999912968320854,161.62298062740092
6.470588416,0.9999690379411783,161.4773226524051
6.472872448,0.999949284769355,161.33204215458488
6.475156992,0.9999332718108735,161.1870290846119
6.477441536,0.9999219484712578,161.04219339446584
6.47972608,0.9999161380170629,160.89754216337636
6.482010112,0.9999160971355012,160.75296853345526
6.484294656,0.9999219126032548,160.6083348339337
6.4865792,0.9999332390153131,160.46362825509726
6.488863744,0.9999492492356086,160.3187206771931
6.491147776,0.9999689957260073,160.17357675922455
6.49343232,0.9999912318839699,160.02816878410235
6.495716864,1.0000145341469435,159.88243721001388
6.498000896,1.0000374019896838,159.73639443455522
6.50028544,1.0000584705034037,159.5900895152425
6.502569984,1.000076425380025,159.44346437791225
6.504854528,1.0000899052135734,159.29665240101465
6.50713856,1.0000982751591514,159.14970202646649
6.509423104,1.0001009859505579,159.00268533118924
6.511707648,1.0000977245697364,158.85570338289835
6.513992192,1.0000889191787814,158.70883004141353
6.516276224,1.0000748636074956,158.56214771149746
6.518560768,1.0000567320477434,158.41572071604665
6.520845312,1.0000353437539842,158.26960808316417
6.523129856,1.00001234938965,158.1238316706558
6.525413888,0.9999889871219949,157.97839932393867
6.527698432,0.9999668668218574,157.8333486165082
6.529982976,0.999947330342951,157.68861963225268
6.53226752,0.9999317452548031,157.54413326941676
6.534551552,0.9999208585082567,157.3998719205627
6.536836096,0.9999155052770777,157.25575379281656
6.53912064,0.9999160349598981,157.11170401123067
6.541404672,0.9999224612791541,156.9676338371167
6.543689216,0.9999341952251918,156.82342451266507
6.54597376,0.9999506692346212,156.67905179640667
6.548258304,0.9999708086180378,156.53442999564058
6.550542336,0.9999930866676283,156.38951700582606
6.55282688,1.0000166204182028,156.24428028077276
6.555111424,1.0000394265583799,156.09875391771465
6.557395968,1.0000604064895058,155.9529319115033
6.55968,1.0000779643209468,155.80683782649103
6.561964544,1.0000911057475528,155.66054183266064
6.564249088,1.0000989618704292,155.5141208510226
6.566533632,1.0001010777730355,155.3676305867902
6.568817664,1.0000973671232722,155.22118537979213
6.571102208,1.0000878911278475,155.07486257461835
6.573386752,1.00007348024581,154.92873227765708
6.575671296,1.0000547904280876,154.7828607290303
6.577955328,1.000033283524401,154.6373273340985
6.580239872,1.0000100420559432,154.49211346829085
6.582524416,0.9999867297295357,154.3472663064
6.584808448,0.9999646933626977,154.20276856040894
6.587092992,0.9999454842338021,154.05861124355332
6.589377536,0.9999301634542848,153.91470402617202
6.59166208,0.9999197864504106,153.77100607715337
6.593946112,0.9999150416814288,153.6274589174469
6.596230656,0.9999160675855827,153.48396172560595
6.5985152,0.9999229145312243,153.3403877884646
6.600799744,0.9999352459744714,153.19674016048296
6.603083776,0.9999521979624004,153.05285501604908
6.60536832,0.999972621079227,152.90878324339738
6.607652864,0.9999953688786707,152.76438719841508
6.609937408,1.000018734611824,152.61968237717343
6.61222144,1.000041580721982,152.47464258460099
6.614505984,1.0000622710020863,152.32931066302507
6.616790528,1.0000794113885643,152.18373796127895
6.61907456,1.0000922970438915,152.03799430306623
6.621359104,1.0000997765833557,151.89207966746224
6.623643648,1.0001012860117946,151.7461471208113
6.625928192,1.0000969326996871,151.60026816346937
6.628212224,1.0000870154398063,151.45450712368748
6.630496768,1.0000721064375988,151.30894134303887
6.632781312,1.000053121818532,151.1636325105014
6.635065856,1.000031117394649,151.01865545841108
6.637349888,1.0000078456511616,150.87404772391758
6.639634432,0.999984582776412,150.7297701560112
6.641918976,0.9999626055321498,150.58586844148317
6.64420352,0.9999436623896497,150.44224362593795
6.646487552,0.9999286336030963,150.29891429764675
6.648772096,0.9999188132534526,150.15580300947437
6.65105664,0.9999145351236828,150.0128067681147
6.653341184,0.9999161412119079,149.86984416390206
6.655625216,0.9999236317187132,149.72684184758833
6.65790976,0.9999363398229721,149.58372538292952
6.660194304,0.9999537154973743,149.44038975127913
6.662478336,0.9999744791912467,149.29683524999714
6.66476288,0.9999974090833197,149.1529560081055
6.667047424,1.0000209842351226,149.00876199840542
6.669331968,1.000043774573674,148.8642535362755
6.671616,1.0000642733715819,148.71948336817817
6.673900544,1.0000811707816037,148.574418523293
6.676185088,1.0000935511799418,148.4291912360858
6.678469632,1.000100334160742,148.283835856019
6.680753664,1.0001013894574846,148.13844024944936
6.683038208,1.0000965899386438,147.9930969036531
6.685322752,1.000086049919051,147.84791962578345
6.687607296,1.0000705801422454,147.70291898228098
6.689891328,1.00005124154869,147.55820423183724
6.692175872,1.000028996424408,147.4137972534846
6.694460416,1.0000054764351032,147.26976153559758
6.69674496,0.9999822189742895,147.12609339022146
6.699028992,0.9999604247026457,146.98275709959213
6.701313536,0.999941734357003,146.83974204277703
6.70359808,0.9999272397365657,146.69699328886676
6.705882112,0.9999178265120361,146.55444427189371
6.708166656,0.9999140111416417,146.41200623761642
6.7104512,0.9999163750697363,146.26960493962162
6.712735744,0.9999242403029694,146.12715865573807
6.715019776,0.9999375891646599,145.9845731788786
6.71730432,0.9999553266534477,145.84177368007147
6.719588864,0.9999765095470443,145.6987397365766
6.721873408,0.9999996141764778,145.55540258133394
6.72415744,1.000023225596746,145.4117627608376
6.726441984,1.0000458276380648,145.26777442344437
6.728726528,1.0000661656238734,145.12351334100123
6.731011072,1.0000826840658283,144.9789887876854
6.733295104,1.0000946231484926,144.8342747221676
6.735579648,1.000100901848897,144.68949909665508
6.737864192,1.000101438172557,144.54464226378983
6.740148736,1.0000959417995734,144.3998774327383
6.742432768,1.0000849599452186,144.2552325345758
6.744717312,1.0000691351215794,144.11083272269784
6.747001856,1.0000492806550192,143.9666722298826
6.749285888,1.000026957614911,143.82289552682272
6.751570432,1.0000032154165532,143.67944950813103
6.753854976,0.9999798610174788,143.53635583299194
6.75613952,0.9999583872712927,143.39363250993756
6.758423552,0.9999399344193338,143.25119394530122
6.760708096,0.9999257405711908,143.10903990129017
6.76299264,0.9999167869750788,142.96706561226517
6.765277184,0.9999136868685803,142.82521866865932
6.767561216,0.9999164173066611,142.6833715817428
6.76984576,0.9999250599398319,142.5414693137278
6.772130304,0.9999389396754045,142.39941874563897
6.774414848,0.9999570496450311,142.25718004611508
6.77669888,0.9999784006436199,142.1146786672325
6.778983424,1.000001826974704,141.97187002493058
6.781267968,1.000025521358115,141.828723052967
6.783552,1.0000480261730105,141.68529085821748
6.785836544,1.000068046322587,141.5415419268783
6.788121088,1.0000841825969513,141.39756132186022
6.790405632,1.0000956538454864,141.2534317315317
6.792689664,1.0001015760801757,141.10916549321414
6.794974208,1.0001014321037076,140.9648838897421
6.797258752,1.0000953694990127,140.8206650545165
6.799543296,1.0000838068393088,140.67660499693298
6.801827328,1.0000674568121153,140.53278369433806
6.804111872,1.0000471920501646,140.3892587801918
6.806396416,1.000024629573923,140.24603109043022
6.80868096,1.0000009566131645,140.10317975917272
6.810964992,0.999977567784181,139.96067928893936
6.813249536,0.9999561151146709,139.81856193205027
6.81553408,0.9999380912596189,139.67672349953446
6.817818624,0.9999244027109483,139.53514334434797
6.820102656,0.9999158692092694,139.3937654018101
6.8223872,0.9999133106137733,139.25246146267241
6.824671744,0.9999167320582087,139.1112113465042
6.826955776,0.999925789125253,138.96987766106292
6.82924032,0.9999402118991987,138.82836620193004
6.831524864,0.9999587617512155,138.68668305495925
6.833809408,0.9999804687273467,138.54469231332888
6.83609344,1.000004036790598,138.40240870686276
6.838377984,1.0000277480795845,138.25980647011744
6.840662528,1.00005016936129,138.11688699689444
6.842947072,1.0000699065980796,137.97369425357806
6.845231104,1.0000858465167968,137.83026331879003
6.847515648,1.0000966808771838,137.68665571173824
6.849800192,1.0001020720593277,137.5429466037857
6.852084736,1.0001013165449928,137.39924805574736
6.854368768,1.0000947056623581,137.25561384942824
6.856653312,1.000082673814658,137.11213869068462
6.858937856,1.000065685193449,136.96885463413898
6.8612224,1.000045167411216,136.8259444486699
6.863506432,1.0000222498083455,136.683319206489
6.865790976,0.9999983727542959,136.54107135927035
6.86807552,0.9999751166885434,136.39916595321347
6.870359552,0.9999539254736609,136.25763675697652
6.872644096,0.9999361086188358,136.1163880776347
6.87492864,0.999922890906688,135.9754096019146
6.877213184,0.9999149699944838,135.8346003706192
6.879497216,0.9999128995931796,135.69389374453027
6.88178176,0.9999168579663772,135.55317772464412
6.884066304,0.9999265903760577,135.4124299625927
6.886350848,0.9999414957476208,135.27146867310438
6.88863488,0.9999605071043274,135.1303243279463
6.890919424,0.9999825951542473,134.988855335329
6.893203968,1.000006197292028,134.84713436853852
6.895488512,1.0000300061589948,134.70506907166438
6.897772544,1.000052334794895,134.56268932828468
6.900057088,1.0000717474283116,134.42000487407572
6.902341632,1.0000872942526957,134.27710706457535
6.904626176,1.0000977227645587,134.13405504748053
6.906910208,1.0001023998909653,133.99091511829238
6.909194752,1.0001011451550437,133.84775131855247
6.911479296,1.0000939889863198,133.70470515631177
6.913763328,1.0000812425854617,133.56179783046974
6.916047872,1.0000639343599755,133.41912916704123
6.918332416,1.0000431261434737,133.27678277278608
6.92061696,1.000019873760946,133.13475350212116
