freq,mag,phase
6.0,0.9988084671881209,158.2741505800292
6.002286592,0.998550631177061,158.13980520550228
6.004572672,0.9983844350006825,158.00858700478392
6.006859264,0.9983207830843775,157.8791122914548
6.009145344,0.9983636251730519,157.74981628750953
6.011431936,0.9985102766563858,157.61919727274739
6.013718016,0.9987515458426307,157.48579475924714
6.016004608,0.9990720408260206,157.3483307090784
6.018290688,0.9994514282131086,157.20585700863424
6.02057728,0.9998658729153778,157.05761873385745
6.022863872,1.0002889093730185,156.90334697309305
6.025149952,1.0006939917715967,156.74308198077884
6.027436544,1.0010552879933279,156.57733926027686
6.029722624,1.001350212077803,156.40686172288557
6.032009216,1.0015599662791017,156.23276151666158
6.034295296,1.0016715341082219,156.0564028260121
6.036581888,1.0016775348863198,155.87923221374785
6.03886848,1.0015777596247124,155.7027936390416
6.04115456,1.0013785658177616,155.5285209979329
6.043441152,1.0010922501285802,155.35781988384505
6.045727232,1.0007370552811352,155.19179896871847
6.048013824,1.0003351923781636,155.03129498739696
6.050299904,0.9999118765894096,154.87682608977366
6.052586496,0.9994941772622175,154.7285267683523
6.054872576,0.9991085393038398,154.58610706155238
6.057159168,0.9987792335308436,154.44892784337006
6.05944576,0.9985272578418107,154.3160260918748
6.06173184,0.998368805241037,154.18616645752337
6.064018432,0.9983136070199651,154.0579447416353
6.066304512,0.9983656174908652,153.92974603591304
6.068591104,0.9985212381009153,153.80009344445463
6.070877184,0.998770740625034,153.66756168404243
6.073163776,0.9990985345967383,153.53082762272814
6.075450368,0.9994833033502476,153.38896319150334
6.077736448,0.9999011528209095,153.2413225532543
6.08002304,1.0003255294851683,153.08757988091898
6.08230912,1.000729272009712,152.92790024678374
6.084595712,1.0010874129034513,152.76273096361294
6.086881792,1.0013768667185845,152.5928790942122
6.089168384,1.0015795320736163,152.41952866426212
6.091454464,1.0016828208971797,152.24401352961857
6.093741056,1.0016798284005504,152.06779884717162
6.096027648,1.001570875296616,151.89243347363566
6.098313728,1.001362878263827,151.7193922115153
6.10060032,1.0010686945067735,151.55004054867584
6.1028864,1.0007071451729708,151.38547874136498
6.105172992,1.0003007473460908,151.22649406731537
6.107459072,0.999875270128571,151.07360421613848
6.109745664,0.9994575860594084,150.92691481159417
6.112032256,0.9990741707224371,150.7860508149867
6.114318336,0.9987494038490203,150.65042125548487
6.116604928,0.9985039752280086,150.51896489050452
6.118891008,0.9983531479455418,150.3904689585333
6.1211776,0.9983071382867811,150.2634398199498
6.12346368,0.9983683875014101,150.13635045835824
6.125750272,0.9985332689512991,150.00769341537705
6.128036352,0.9987912366344367,149.87592629926468
6.130322944,0.999125908951098,149.73993351595078
6.132609536,0.9995163819587369,149.59870432302603
6.134895616,0.9999374389707062,149.45159032126645
6.137182208,1.0003627596670852,149.29837226959594
6.139468288,1.0007653252649724,149.13918243792125
6.14175488,1.0011197430823988,148.97459663047115
6.14404096,1.0014036172926417,148.8053740361079
6.146327552,1.001599045832086,148.63276459668262
6.148614144,1.0016935339681048,148.45808151828444
6.150900224,1.0016812136058033,148.28283116087604
6.153186816,1.0015629553106868,148.10854966310998
6.155472896,1.0013458681283403,147.93678486389055
6.157759488,1.0010439474975406,147.7687635113034
6.160045568,1.000675814467287,147.6056676804719
6.16233216,1.000265083667703,147.4482339494694
6.16461824,0.9998374705465678,147.29694934582946
6.166904832,0.9994200782498669,147.15183099636084
6.169191424,0.9990393032447892,147.01255034159607
6.171477504,0.9987193423621352,146.8784616567566
6.173764096,0.9984805926336976,146.74843834314868
6.176050176,0.9983381867644615,146.62127789350754
6.178336768,0.998301223360557,146.49548074295487
6.180622848,0.998371992924009,146.36945431308212
6.18290944,0.9985462380920155,146.24166774315105
6.18519552,0.9988128769303345,146.11073353146026
6.187482112,0.9991548597782205,145.97542137134906
6.189768704,0.9995505167133429,145.83481890996651
6.192054784,0.9999749090895313,145.68824601015595
6.194341376,1.0004010190473938,145.53551026311874
6.196627456,1.000802012494436,145.37682645629604
6.198914048,1.0011525696376498,145.21273822931192
6.201200128,1.0014303231071517,145.04418272360925
6.20348672,1.0016179887130856,144.87227370042862
6.205773312,1.0017035619644863,144.69842072302666
6.208059392,1.001681810763315,144.5241604211178
6.210345984,1.0015537426391372,144.35096331014458
6.212632064,1.0013276735617274,144.1804314815386
6.214918656,1.0010177150665454,144.01378514989426
6.217204736,1.0006434152719326,143.85216523171144
6.219491328,1.000228279686612,143.69627740630852
6.221777408,0.999798650589622,143.54657050248895
6.224064,0.9993817352614335,143.40303915257556
6.226350592,0.9990037856658042,143.26535270315568
6.228636672,0.9986891161185384,143.13275594610582
6.230923264,0.998457458642855,143.00418814813335
6.233209344,0.9983235537600121,142.87833670851435
6.235495936,0.9982961979130981,142.75373720736917
6.237782016,0.9983767768885954,142.62875292512985
6.240068608,0.9985605720683854,142.50188659704685
6.2423552,0.9988359364899526,142.37174245679788
6.24464128,0.9991849884091881,142.23707116900778
6.246927872,0.9995860103583247,142.09697741726777
6.249213952,1.0000135629833948,141.95089788031657
6.251500544,1.0004402499677514,141.79867901723895
6.253786624,1.0008394692429805,141.64048859175327
6.256073216,1.0011856637253045,141.47691624074847
6.258359296,1.0014572329502351,141.30895798917948
6.260645888,1.0016368319385638,141.13774425615406
6.26293248,1.0017132468668972,140.9647162742263
6.26521856,1.001681438437979,140.7914230395492
6.267505152,1.0015436690973072,140.61936667022445
6.269791232,1.001308449985632,140.45003076209818
6.272077824,1.0009902389943404,140.28477013599746
6.274363904,1.0006096383914835,140.12461466771043
6.276650496,1.0001903945261306,139.97026738427988
6.278937088,0.999758949899805,139.8221687347511
6.281223168,0.9993427223043965,139.6802481180268
6.28350976,0.9989680057157441,139.54412354800616
6.28579584,0.9986587650411844,139.41306798393984
6.288082432,0.9984344570031761,139.28590909018334
6.290368512,0.9983094457883807,139.16137270901496
6.292655104,0.9982917939598333,139.03791529714815
6.294941184,0.9983825888873815,138.91393491135548
6.297227776,0.9985761699353343,138.7879567043416
6.299514368,0.9988601761612146,138.65853774507895
6.301800448,0.9992165582251434,138.5244925957687
6.30408704,0.9996228538520238,138.3849333585103
6.30637312,1.0000531612888435,138.23935895626056
6.308659712,1.0004803753919105,138.08754919765144
6.310945792,1.0008772739305467,137.92980470053746
6.313232384,1.0012190423285365,137.7667870578137
6.315518464,1.0014838894321791,137.59935777013249
6.317805056,1.001655123301241,137.42884980462273
6.320091648,1.0017219380278843,137.25663786367244
6.322377728,1.0016802437716121,137.08429232104436
6.32466432,1.001532251457871,136.9133340046297
6.3269504,1.0012874405104606,136.74528791918917
6.329236992,1.000961467737596,136.58141990177003
6.331523072,1.0005745894275828,136.42270832387547
6.333809664,1.000151149340347,136.269932534823
6.336096256,0.9997180787578251,136.1234180683867
6.338382336,0.9993028761787994,135.98308904189702
6.340668928,0.9989317032957739,135.84857895642756
6.342955008,0.9986281632656482,135.71896986254646
6.3452416,0.9984116280451455,135.59324466397658
6.34752768,0.9982959337577825,135.469955709433
6.349814272,0.9982883562322677,135.34763573173055
6.352100352,0.9983894298969136,135.22466450468787
6.354386944,0.9985927735926815,135.09953962642894
6.356673536,0.9988857077960418,134.9707986493398
6.358959616,0.9992492427314943,134.83736401218167
6.361246208,0.9996606094310253,134.69829520083644
6.363532288,1.0000937928999716,134.55310426689434
6.36581888,1.0005210039059294,134.40174977052263
6.36810496,1.0009157406158604,134.2444518325016
6.370391552,1.0012525493802855,134.08185726505354
6.372678144,1.0015103696631467,133.91502772840462
6.374964224,1.0016729254556445,133.7452066882492
6.377250816,1.001729887996524,133.57381822525412
6.379536896,1.0016777628773905,133.40243610708086
6.381823488,1.0015194983072273,133.23257601341132
6.384109568,1.0012653522500214,133.0657647059915
6.38639616,1.000931285465985,132.90323763470022
6.38868224,1.0005380137899231,132.74604063649247
6.390968832,1.0001108138059907,132.5948103436966
6.393255424,0.9996764568824874,132.44990081988792
6.395541504,0.9992622984988703,132.3111936394723
6.397828096,0.9988949630981416,132.1782247578446
6.400114176,0.9985976131452848,132.0501009547288
6.402400768,0.9983892251294798,131.92576243335603
6.404686848,0.9982829735983247,131.803751709322
6.40697344,0.9982857934467437,131.68249717845035
6.409260032,0.9983972613372981,131.56050546805054
6.411546112,0.9986108898335818,131.43616446796852
6.413832704,0.9989125225367232,131.30810576481161
6.416118784,0.9992834909078061,131.17518110991296
6.418405376,0.9996998808492675,131.03655326924084
6.420691456,1.0001354788165613,130.89179542908064
6.422978048,1.000562819605982,130.74080015299592
6.425264128,1.0009547387877873,130.5838897147423
6.42755072,1.0012864122206349,130.4218212577673
6.429837312,1.0015367862128848,130.25550624288397
6.432123392,1.0016902931619813,130.08635554620247
6.434409984,1.0017371863830598,129.91575898060486
6.436696064,1.0016743769350105,129.74533077177244
6.438982656,1.0015057512402157,129.57661142969994
6.441268736,1.0012421001981822,129.4110312306007
6.443555328,1.0008997288234183,129.24988714462287
6.44584192,1.000500350018651,129.0941527793255
6.448128,1.0000693271987426,128.94447547542075
6.450414592,0.9996337719854889,128.801155292814
6.452700672,0.9992212253014305,128.664015914526
6.454987264,0.9988580028495687,128.53258305742466
6.457273344,0.9985672764221145,128.4059662889613
6.459559936,0.9983672900774742,128.28295258014546
6.461846016,0.9982707754537614,128.16218368669698
6.464132608,0.9982843554143281,128.04204195093388
6.4664192,0.9984067648405637,127.9209201983053
6.46870528,0.9986303783311331,127.79735400454085
6.470991872,0.998941072109256,127.66992067240658
6.473277952,0.9993190994131805,127.5375251831204
6.475564544,0.9997404617512616,127.39933375343111
6.477850624,1.0001784703433052,127.25490150487012
6.480137216,1.0006052524140177,127.10427098998336
6.482423296,1.0009941400967632,126.94775000003135
6.484709888,1.0013201223457866,126.78607549178689
6.48699648,1.0015630497848573,126.6203143371515
6.48928256,1.0017072342482436,126.45180305418955
6.491569152,1.0017435420926877,126.28197590073594
6.493855232,1.0016698394112742,126.11250774471192
6.496141824,1.0014906788452298,125.9448898380476
6.498427904,1.0012173330956773,125.78056395825878
6.500714496,1.0008668112908603,125.62079008115742
6.503001088,1.0004613967031089,125.46653861997792
6.505287168,1.0000267090746033,125.31841271496505
6.50757376,0.9995901935149688,125.17667216720949
6.50985984,0.9991796458523209,125.04114066854264
6.512146432,0.9988208974923861,124.91122059483725
6.514432512,0.9985369022446804,124.78604146676102
6.516719104,0.9983457051089485,124.6643811340342
6.519005184,0.9982594712192363,124.54479425490477
6.521291776,0.9982839030120211,124.42567921933444
6.523578368,0.9984172770541453,124.3054841350599
6.525864448,0.9986511809569601,124.18259641882686
6.52815104,0.9989709625081045,124.05577337754285
6.53043712,0.9993559968546868,123.92381713943682
6.532723712,0.9997821539591791,123.78601475197854
6.535009792,1.0002222776606595,123.64191144159396
6.537296384,1.0006485355703758,123.49158802582437
6.539582976,1.0010339134937676,123.33540071950695
6.541869056,1.0013541027757205,123.17413861876753
6.544155648,1.0015887995426251,123.00888604104529
6.546441728,1.001723387217776,122.84101253404314
6.54872832,1.0017489420707848,122.67198430245911
6.5510144,1.0016642284808999,122.50342571803563
6.553300992,1.001474081763416,122.33693439538733
6.555587072,1.0011909303592796,122.173828183613
6.557873664,1.0008324275496552,122.01544926944355
6.560160256,1.0004210359628782,121.86268980081886
6.562446336,0.9999829725704377,121.71611246141147
6.564732928,0.9995458181595409,121.57592246696153
6.567019008,0.9991374389658083,121.44197490355192
6.5693056,0.9987835753637376,121.31357102151064
6.57159168,0.9985066912647363,121.18981785374322
6.573878272,0.998324685090629,121.06944695206975
6.576164864,0.9982490644720494,120.95102372587719
6.578450944,0.9982846395860465,120.83291979357837
6.580737536,0.9984291361283011,120.71355153642179
6.583023616,0.9986734836489938,120.59139931848648
6.585310208,0.9990022243803007,120.46505822255538
6.587596288,0.9993944230643761,120.3335206481859
6.58988288,0.9998251554517764,120.19605298526963
6.59216896,1.0002671781169588,120.05224506857509
6.594455552,1.000692561150014,119.90217492111638
6.596742144,1.0010741752674872,119.74633159499426
6.599028224,1.0013880958624697,119.58541037213857
6.601314816,1.001614472547902,119.42067925216661
6.603600896,1.0017387668724238,119.2533916276624
6.605887488,1.0017533543436357,119.08518874848609
6.608173568,1.0016571892296822,118.91756874960954
6.61046016,1.0014562969150487,118.75214016623816
6.612746752,1.0011632075804098,118.59030864202715
6.615032832,1.0007965978083635,118.43326721963868
6.617319424,1.0003794119510379,118.28197409516402
6.619605504,0.9999381603167512,118.13695606958451
6.621892096,0.9995004800017487,117.99836162085371
6.624178176,0.9990945728081854,117.86593253506916
6.626464768,0.9987458842641166,117.73902713594123
6.628750848,0.9984767469713348,117.61666588298863
6.63103744,0.9983041405131943,117.4975794258607
6.633324032,0.9982393443606523,117.38031121711599
6.635610112,0.9982862806826792,117.26314738622327
6.637896704,0.9984422625499175,117.1445679843838
6.640182784,0.9986972649061124,117.02302317081313
6.642469376,0.9990349132994595,116.8971912487527
6.644755456,0.9994341007841948,116.76606332265905
6.647042048,0.9998693139148563,116.62885998723928
6.649328128,1.0003129789382759,116.4853003390229
6.65161472,1.000736968760019,116.33549135722242
6.653901312,1.0011145559689207,116.17990736396358
6.656187392,1.0014219215727131,116.01936685916962
6.658473984,1.0016393107323318,115.85509524621945
6.660760064,1.0017533911956766,115.68844009574123
6.663046656,1.0017565429145008,115.52095582147653
6.665332736,1.001648861501966,115.35426905878433
6.667619328,1.001436810156416,115.18991735235682
6.66990592,1.0011339966083241,115.02932667957887
6.672192,1.000759278974125,114.8736684146449
6.674478592,1.000336428983901,114.72384429685307
6.676764672,0.999892080812969,114.58035342665552
6.679051264,0.9994545047669713,114.44330620270013
6.681337344,0.9990513761642457,114.31240236534687
6.683623936,0.9987081482195119,114.18698519964708
6.685910016,0.9984470048643291,114.06602163466317
6.688196608,0.9982843639766362,113.9481736202179
6.6904832,0.9982306341503642,113.8319609296209
6.69276928,0.9982894487027175,113.71576717762245
6.695055872,0.9984568764003426,113.5979361710986
6.697341952,0.9987223655874071,113.4769696362792
6.699628544,0.9990691711864332,113.35157479221022
6.701914624,0.9994751031011688,113.22075518527498
6.704201216,0.9999145192575944,113.08380114940582
6.706487808,1.0003596277938738,112.9404681103433
6.708773888,1.0007820574695092,112.79087314962932
6.71106048,1.00115515248971,112.63552581948038
6.71334656,1.0014554633969903,112.4753153637388
6.715633152,1.0016636544760267,112.3114825067548
6.717919232,1.0017669688584505,112.14542280544669
6.720205824,1.0017586980639432,111.97867084528959
6.722491904,1.001639178927862,111.81290869791438
6.724778496,1.0014160139172912,111.64966884956124
6.727065088,1.0011031810990392,111.49028949722594
6.729351168,1.0007205306480471,111.33600640026624
6.73163776,1.0002921939801124,111.18764050612391
6.73392384,0.9998451007268252,111.04565686951646
6.736210432,0.9994076690790339,110.91014583867874
6.738496512,0.9990076130829775,110.78077601148762
6.740783104,0.9986705991556106,110.65681656229256
6.743069696,0.9984177248890819,110.53718600082291
6.745355776,0.998265374542052,110.42054574591957
6.747642368,0.9982231521804161,110.30538591154968
6.749928448,0.9982937873093125,110.19005407848414
6.75221504,0.9984729579918584,110.07292105283483
6.75450112,0.99874923968133,109.95251046859501
6.756787712,0.9991049275421171,109.82753822239968
6.759073792,0.9995176250001072,109.69697374250148
6.761360384,0.9999610750806103,109.56024684750577
6.763646976,1.0004072453041097,109.41705080740809
6.765933056,1.000827879034788,109.26763208451767
6.768219648,1.0011960611000745,109.11249371678818
6.770505728,1.0014888580146146,108.95260434919263
6.77279232,1.0016877506319177,108.7891765420737
6.7750784,1.0017799133462513,108.62365489476574
6.777364992,1.001759602508417,108.45769192202056
6.779651584,1.0016281196542147,108.29283376673139
6.781937664,1.001393638485343,108.13065719094543
6.784224256,1.0010710807078456,107.97253352598356
6.786510336,1.0006804347521607,107.81960243060654
6.788796928,1.0002466245984833,107.67268256571262
6.791083008,0.999797066499536,107.53223379290813
6.7933696,0.9993602830417895,107.39825792603953
6.79565568,0.9989637806155138,107.27037034323054
6.797942272,0.9986330097996023,107.14782192947128
6.800228864,0.9983889396369497,107.02950925017272
6.802514944,0.998247144049433,106.91405936821852
6.804801536,0.9982166220035693,106.79988019887824
6.807087616,0.9982994603796638,106.68538568745198
6.809374208,0.9984905224905118,106.56892205406221
6.811660288,0.9987774750231745,106.44898443886419
6.81394688,0.9991421404053256,106.32434741211473
6.81623296,0.9995613996012187,106.19402610515294
6.818519552,1.0000087067424868,106.0574438253502
6.820806144,1.0004556474752588,105.9143938821349
6.823092224,1.0008738273580144,105.76508198023612
6.825378816,1.0012370275965536,105.61012828500614
6.827664896,1.0015221593295656,105.45053066014727
6.829951488,1.0017110239902416,105.28750065703336
6.832237568,1.0017917043103843,105.122554371123
6.83452416,1.0017593021354398,104.957299474756
6.836810752,1.0016156432799275,104.79335859164918
6.839096832,1.0013697265068469,104.63223253511816
6.841383424,1.0010371938492733,104.47531777609285
6.843669504,1.0006387293729602,104.32376481444868
6.845956096,1.0001998388726685,104.17828879928675
6.848242176,0.9997479578503221,104.03931302676567
6.850528768,0.9993120648442102,103.90684708168504
6.852814848,0.9989195701814141,103.78046857804202
6.85510144,0.9985955362553341,103.65929025222759
6.857388032,0.998360573743349,103.54227001984718
6.859674112,0.9982297427123255,103.42795487910469
6.861960704,0.9982113346155579,103.31474760348618
6.864246784,0.9983067297904256,103.2010601000663
6.866533376,0.9985096663914163,103.0851918366341
6.868819456,0.9988072802981233,102.96570153988468
6.871106048,0.9991809405380961,102.84136117780518
6.87339264,0.9996067054863772,102.71122759781005
6.87567872,1.0000575930968658,102.57472915587861
6.877965312,1.0005050176073447,102.43175003705541
6.880251392,1.0009206099311643,102.28253611357012
6.882537984,1.0012780460128021,102.1277475075504
6.884824064,1.001554901255482,101.96836277681183
6.887110656,1.0017334985871944,101.80575501841325
6.889396736,1.0018025513826354,101.64135564397739
6.891683328,1.001757605198362,101.47681012363488
6.89396992,1.0016016617406023,101.3137289282581
6.896256,1.0013443225312026,101.15369053027591
6.898542592,1.0010017870158536,100.99800958831317
6.900828672,1.0005957120725024,100.84777685723232
6.903115264,1.0001517523777796,100.70374827904355
6.905401344,0.9996980517700074,100.56626435843752
6.907687936,0.9992633452459427,100.43528787493385
6.909974528,0.9988752290323271,100.31032753897492
6.912260608,0.9985582685510453,100.1905775818814
6.9145472,0.9983328044195949,100.07478713965725
6.91683328,0.9982133179236663,99.96155208641314
6.919119872,0.998207262641431,99.84930149776476
6.921405952,0.9983151894173596,99.73630964538859
