freq,mag,phase
6.0,0.9998737378551535,-156.17294898870125
6.002797056,0.9998280563371071,-156.34982394977396
6.005594624,0.9997929377601014,-156.52609673044302
6.00839168,0.999770484059074,-156.70198875463848
6.011188736,0.9997622522022314,-156.87762560975585
6.013985792,0.9997684833056794,-157.05326983077038
6.01678336,0.9997891415716615,-157.22911460870318
6.019580416,0.9998227360859155,-157.40531927209864
6.022377472,0.999867286450681,-157.58212597970905
6.02517504,0.9999199535191385,-157.75964432096222
6.027972096,0.9999775712369473,-157.93795375622364
6.030769152,1.00003640653261,-158.1170820480925
6.033566208,1.0000929553647504,-158.2970831012843
6.036363776,1.0001436223687257,-158.4778330164645
6.039160832,1.0001851995245665,-158.65924369253543
6.041957888,1.0002151604800222,-158.84119190665277
6.044755456,1.000231564035023,-159.02348389451151
6.047552512,1.0002334410440896,-159.20591843820915
6.050349568,1.0002205931203587,-159.3882871244351
6.053146624,1.0001937711756574,-159.57035558538968
6.055944192,1.000154742753743,-159.75194968075257
6.058741248,1.0001058255616289,-159.9329407869708
6.061538304,1.0000501527114198,-160.11316517435463
6.064335872,0.9999910011779667,-160.29260011127084
6.067132928,0.9999322562208777,-160.47116224089547
6.069929984,0.9998774687493501,-160.64892008340334
6.07272704,0.9998300459220892,-160.825934631015
6.075524608,0.9997930732735739,-161.00235176408938
6.078321664,0.9997686515812272,-161.17830616178563
6.08111872,0.9997586490783525,-161.3540503448083
6.083916288,0.9997633315248711,-161.52969935877059
6.086713344,0.9997827069611902,-161.70558035393628
6.0895104,0.9998154316957351,-161.88183022907924
6.092307456,0.9998595458634704,-162.05861249875906
6.095105024,0.9999123354816137,-162.23609902946302
6.09790208,0.9999705065727277,-162.41440576869294
6.100699136,1.0000303416192446,-162.59353912831904
6.103496704,1.000088333773014,-162.7735619685637
6.10629376,1.000140680565195,-162.9543414015943
6.109090816,1.0001841538501943,-163.13584527950414
6.111887872,1.000216040196252,-163.3179084817832
6.11468544,1.0002343893631054,-163.50033347279273
6.117482496,1.0002379851677838,-163.68291771389886
6.120279552,1.00022653418486,-163.86541523171744
6.12307712,1.0002009315358211,-164.04769119868044
6.125874176,1.0001624842259151,-164.22947002186572
6.128671232,1.0001137527074442,-164.41067512905616
6.131468288,1.0000576934735526,-164.5911034809245
6.134265856,0.9999978049619554,-164.77072529988564
6.137062912,0.99993786543047,-164.9494472020353
6.139859968,0.9998813866510295,-165.1273459709843
6.142657536,0.9998322359311981,-165.30450271614842
6.145454592,0.9997932185660704,-165.4810168187252
6.148251648,0.9997669908155471,-165.6570378285061
6.151048704,0.9997549621689642,-165.8328085470551
6.153846272,0.999758030302471,-166.00851696429584
6.156643328,0.9997761152471113,-166.18435893918436
6.159440384,0.9998079121414626,-166.36059796761413
6.162237952,0.9998516852449305,-166.53735122534647
6.165035008,0.9999044509871741,-166.7148084533583
6.167832064,0.9999631954338852,-166.89305880169294
6.17062912,1.0000241036579423,-167.07216961374928
6.173426688,1.000083386162822,-167.2521620881243
6.176223744,1.000137460329622,-167.43297705879823
6.1790208,1.000182816676542,-167.61451978593092
6.181818368,1.0002167280791108,-167.79661468396728
6.184615424,1.0002370384878614,-167.97910443345907
6.18741248,1.0002424030918826,-168.1618016778251
6.190209536,1.0002325702490098,-168.3444751246346
6.193007104,1.0002079782880127,-168.52689011687045
6.19580416,1.000170295575529,-168.70886200864922
6.198601216,1.000121857295294,-168.8902285010439
6.201398784,1.0000655501725013,-169.0708311446603
6.20419584,1.000004884558632,-169.2505851172334
6.206992896,0.9999437018880775,-169.42946317612981
6.209790464,0.9998857267162579,-169.6075078846455
6.21258752,0.9998347519816153,-169.7847597260706
6.215384576,0.9997938678552803,-169.9613498538919
6.218181632,0.9997655321988899,-170.13742579743553
6.2209792,0.9997515908014301,-170.31320763436463
6.223776256,0.9997529844284243,-170.48890933279128
6.226573312,0.9997696803795777,-170.66472073449657
6.22937088,0.9998004929952965,-170.84086994632574
6.232167936,0.99984366836324,-171.01754741187753
6.234964992,0.9998965045881728,-171.1949316545085
6.237762048,0.9999556879320245,-171.37310758745645
6.240559616,1.0000175680963574,-171.55218360834564
6.243356672,1.0000781985112583,-171.73213606566506
6.246153728,1.000133988045102,-171.91289626360916
6.248951296,1.0001813687533017,-172.0944570926164
6.251748352,1.0002172170053334,-172.2766005068897
6.254545408,1.0002394642175183,-172.4591536694999
6.257342464,1.0002467503953267,-172.6419069807371
6.260140032,1.000238420588932,-172.82469216309752
6.262937088,1.0002150893669182,-173.00723538802782
6.265734144,1.0001782147338905,-173.1893463432049
6.268531712,1.0001300679551832,-173.37082553632223
6.271328768,1.0000735154098837,-173.5516034524273
6.274125824,1.0000122190818306,-173.7314979977022
6.27692288,0.9999498254550105,-173.9105043703674
6.279720448,0.9998903745627115,-174.08862901964673
6.282517504,0.9998375371286096,-174.26595057571393
6.28531456,0.9997946118280268,-174.4425982214366
6.288112128,0.999764214453503,-174.61869454945668
6.290909184,0.9997484290386249,-174.79444830406294
6.29370624,0.9997480226312058,-174.97009676669748
6.296503296,0.999763194561391,-175.14585051829354
6.299300864,0.9997930128454259,-175.32190674175789
6.30209792,0.9998356224984136,-175.49851369467376
6.304894976,0.9998883064777213,-175.67580002146542
6.307692544,0.9999480468521329,-175.85387348272008
6.3104896,1.000010794465239,-176.03287699730552
6.313286656,1.0000728356221447,-176.21269399908826
6.316083712,1.0001302790832316,-176.39345817691154
6.31888128,1.0001794995279434,-176.57496609820316
6.321678336,1.000217426374579,-176.75707504145993
6.324475392,1.0002417290155485,-176.9396491311146
6.32727296,1.0002508843455598,-177.12248319959747
6.330070016,1.000244211116916,-177.3053087914513
6.332867072,1.0002222040017563,-177.4879569863024
6.335664128,1.0001862182053385,-177.67016830861394
6.338461696,1.000138381954621,-177.851778618512
6.341258752,1.0000816538962276,-178.03266740661456
6.344055808,1.0000196562205137,-178.21264845263565
6.346853376,0.9999562083419072,-178.39177705276367
6.349650432,0.9998952601393974,-178.5699713542896
6.352447488,0.9998406082222667,-178.74734685276127
6.355244544,0.9997955412240843,-178.92400744135293
6.358042112,0.9997630577453721,-179.10010971563156
6.360839168,0.9997452371209801,-179.27580759233402
6.363636224,0.9997430923636695,-179.45141584312745
6.366433792,0.9997568339567808,-179.62704203362614
6.369230848,0.9997854905167647,-179.80301969878101
6.372027904,0.9998274489596661,-179.97949771847934
6.37482496,0.9998801157612192,179.84337709035285
6.377622528,0.9999402198533942,179.66540728297028
6.380419584,1.000003731657553,179.48656961787012
6.38321664,1.000067168313872,179.3068188088891
6.386014208,1.0001261999516757,179.12619462125767
6.388811264,1.0001773795513165,178.9447440772144
6.39160832,1.000217366877735,178.76267620614718
6.394405376,1.000243901281992,178.5800754839953
6.397202944,1.0002549461469112,178.39725905404032
6.4,1.0002501089448785,178.21434881827716
6.402797056,1.0002293249076004,178.03166830909788
6.405594624,1.000194305273297,177.84935901093706
6.40839168,1.0001468467837071,177.6676495328267
6.411188736,1.000090006574563,177.48669307880638
6.413985792,1.0000274325294845,177.3066107505939
6.41678336,0.9999628759869582,177.127445973009
6.419580416,0.9999003748483095,176.94918363627696
6.422377472,0.9998439471562625,176.7717749183137
6.42517504,0.999796909087037,176.59511305100705
6.427972096,0.9997623714664945,176.41908465288952
6.430769152,0.9997423687382916,176.2433929359897
6.433566208,0.9997382840529451,176.0679406549581
6.436363776,0.9997505106417197,175.89238956159838
6.439160832,0.9997779913328684,175.71656131237165
6.441957888,0.999819234980367,175.54027303031768
6.444755456,0.9998716416304757,175.36330765629927
6.447552512,0.9999319977486798,175.18548943475446
6.450349568,0.9999966185703151,175.00681822245306
6.453146624,1.0000612438517895,174.82720165219743
6.455944192,1.0001220434139193,174.6466969491285
6.458741248,1.0001751493992996,174.46537378216155
6.461538304,1.000217286857612,174.28332813532464
6.464335872,1.0002458539906622,174.1008000522639
6.467132928,1.0002588510555663,173.91799722634963
6.469929984,1.0002556737784756,173.73506146752578
6.47272704,1.0002364623527693,173.55234830665626
6.475524608,1.0002023735965506,173.36999813074647
6.478321664,1.000155432203038,173.18820997078413
6.48111872,1.000098599215127,173.0072029314432
6.483916288,1.0000353942367533,172.82705863516782
6.486713344,0.9999697746101855,172.64781908695727
6.4895104,0.9999057678327423,172.46954703576142
6.492307456,0.9998474436188036,172.29213195208655
6.495105024,0.999798463080795,172.11552095907712
6.49790208,0.9997617401970524,171.9395325427101
6.500699136,0.9997396254188514,171.763939931937
6.503496704,0.9997336279385286,171.5886062662423
6.50629376,0.9997440928451271,171.4132083508749
6.509090816,0.999770505410362,171.23756712458123
6.511887872,0.9998109170853597,171.06146831313683
6.51468544,0.999863047539398,170.88465911806034
6.517482496,0.9999237033478968,170.70705521837343
6.520279552,0.9999890417000344,170.528592220461
6.52307712,1.0000550409449316,170.34912575882862
6.525874176,1.0001174852404808,170.16878357689944
6.528671232,1.000172516648882,169.9875849471013
6.531468288,1.0002168158427063,169.8056628564341
6.534265856,1.0002474785736497,169.62317931759395
6.537062912,1.0002625487436654,169.4404201006212
6.539859968,1.000261320097925,169.25752909563465
6.542657536,1.000243621764408,169.0747871926271
6.545454592,1.0002105063461209,168.8924009147569
6.548251648,1.0001640872626232,168.7106085602815
6.551048704,1.0001073293433673,168.5295490903114
6.553846272,1.0000435857150523,168.34934863033232
6.556643328,0.9999769855904528,168.17011582495329
6.559440384,0.9999115099108024,167.99184824910643
6.562237952,0.9998513747980934,167.8144357057546
6.565035008,0.9998002545857569,167.63788715386121
6.567832064,0.9997613964955685,167.46197777126645
6.57062912,0.9997371352100012,167.28651195610436
6.573426688,0.9997291789914763,167.1112948359734
6.576223744,0.9997379541398559,166.9360668997834
6.5790208,0.9997628954368502,166.76064519010714
6.581818368,0.9998025996975032,166.5847334287077
6.584615424,0.9998542884082626,166.40815767404402
6.58741248,0.9999151766688663,166.2307669426359
6.590209536,0.9999813132084565,166.05252936050866
6.593007104,1.0000485263742083,165.87330833692664
6.59580416,1.000112591388183,165.6931075494032
6.598601216,1.0001697129678473,165.51206440286023
6.601398784,1.00021599120823,165.33028936811198
6.60419584,1.0002490189171083,165.14790859275809
6.606992896,1.0002661283296126,164.9652274979732
6.609790464,1.0002666825982731,164.78238049106176
6.61258752,1.0002506033407028,164.59964888614653
6.615384576,1.0002185547325844,164.41727542776624
6.618181632,1.000172830331045,164.2354632332478
6.6209792,1.0001160871735166,164.05439725029035
6.623776256,1.0000518460188372,163.8741834842497
6.626573312,0.9999842153398041,163.69495684631872
6.62937088,0.9999174638563953,163.51669823801046
6.632167936,0.9998553708412495,163.33936714445622
6.634964992,0.9998022017073461,163.16285908298013
6.637762048,0.9997610743746611,162.98704669049445
6.640559616,0.9997348426147848,162.81175489954018
6.643356672,0.9997247773639935,162.63669567224434
6.646153728,0.9997317208354486,162.4616822283376
6.648951296,0.9997553879327088,162.28644604864496
6.651748352,0.9997940437784019,162.11077491505955
6.654545408,0.999845621749652,161.93444478653925
6.657342464,0.9999065463158272,161.7573374622345
6.660140032,0.9999732969427313,161.57932738750492
6.662937088,1.000041719960124,161.400324215519
6.665734144,1.0001075369626728,161.2203652284743
6.668531712,1.0001664589062587,161.0395061479697
6.671328768,1.0002150255671132,160.85787945171853
6.674125824,1.0002501157514876,160.6756476988273
6.67692288,1.0002695094161385,160.49304440700124
6.679720448,1.0002720828285865,160.31027959644274
6.682517504,1.0002575823214095,160.12759775357677
6.68531456,1.0002267576089556,159.94525623548364
6.688112128,1.0001816897421032,159.7634550102063
6.690909184,1.000125153770956,159.5823895562724
6.69370624,1.0000604464559526,159.40222952990962
6.696503296,0.9999919669393307,159.2230038492726
6.699300864,0.9999236273730502,159.04476886936553
6.70209792,0.999859799063671,158.86750452544692
6.704894976,0.9998045222489985,158.69109288077055
6.707692544,0.9997612869077995,158.51540951244394
6.7104896,0.9997327328294321,158.34025548316902
6.713286656,0.9997204918011284,158.16541873755781
6.716083712,0.9997257142726598,157.99062639076809
6.71888128,0.9997477797039673,157.815637393949
6.721678336,0.9997855299260536,157.64022963885495
6.724475392,0.9998365371464936,157.46418405344156
6.72727296,0.9998977594114131,157.28735290471263
6.730070016,0.9999651006066116,157.1095934214894
6.732867072,1.0000347914075969,156.93088592001573
6.735664128,1.0001021568380921,156.7511651286931
6.738461696,1.0001631634635766,156.5705286337837
6.741258752,1.0002138782546532,156.38907216452358
6.744055808,1.0002512066796765,156.2070053280853
6.746853376,1.00027284269601,156.0245285946487
6.749650432,1.0002774449571108,155.84185350116462
6.752447488,1.0002644942707175,155.6592543137724
6.755244544,1.00023494203299,155.47696053071675
6.758042112,1.0001906741368398,155.2952020857921
6.760839168,1.0001343208570923,155.11417696030995
6.763636224,1.000069232718257,154.93400763327716
6.766433792,0.9999998240474147,154.7548467053533
6.769230848,0.9999300178418709,154.5766825415304
6.772027904,0.9998644647020719,154.39952247543053
6.77482496,0.9998071668923862,154.2232340860318
6.777622528,0.9997615548493494,154.04768049789456
6.780419584,0.999730608575434,153.87272132348875
6.78321664,0.9997164345507417,153.69807639604502
6.786014208,0.99971966886389,153.52353588756554
6.788811264,0.9997403286936747,153.34881397996523
6.79160832,0.9997769804659251,153.17370548042507
6.794405376,0.9998274803961648,152.9979687824357
6.797202944,0.9998886191379344,152.82142584888416
6.8,0.9999567776621152,152.6439907881459
6.802797056,1.0000275915664212,152.4655484526513
6.805594624,1.000096507869529,152.2860994794645
6.80839168,1.0001594626956443,152.1057197250355
6.811188736,1.000212299098698,151.92450480357937
6.813985792,1.0002521158268158,151.74260587391785
6.81678336,1.0002758885721224,151.56028167896147
6.819580416,1.0002825569641844,151.37771182494475
6.822377472,1.0002713046527942,151.19524380039027
6.82517504,1.0002431345047593,151.01302124258365
6.827972096,1.0001996371986401,150.83131398907213
6.830769152,1.0001434367214117,150.65033043688524
6.833566208,1.0000782684665446,150.470240097977
6.836363776,1.000007977456724,150.29114541272142
6.839160832,0.9999368789753008,150.11304776424112
6.841957888,0.9998694052384434,149.93596739517406
6.844755456,0.999809971441544,149.75982053901382
6.847552512,0.9997621675085758,149.58446051291307
6.850349568,0.999728886998588,149.40967280600347
6.853146624,0.999712427388135,149.2352667041845
6.855944192,0.999713788015695,149.06099511155884
6.858741248,0.9997328372965046,148.8865786496739
6.861538304,0.9997683554797705,148.71177383655998
6.864335872,0.9998182742104643,148.5363488363167
6.867132928,0.9998795440211066,148.36016639745256
6.869929984,0.9999481191605566,148.18302654705084
6.87272704,1.000020043232135,148.00490931183063
6.875524608,1.0000905843208454,147.82574758594367
6.878321664,1.0001554489525575,147.64565594071698
6.88111872,1.0002105861835178,147.46465828968746
6.883916288,1.0002525861354994,147.28300217659182
6.886713344,1.0002787433913918,147.1008589947944
6.8895104,1.0002875776309652,146.9184370608059
6.892307456,1.0002782702415578,146.7360559187632
6.895105024,1.0002514443674537,146.55394037989947
6.89790208,1.0002087302298297,146.37232326100084
6.900699136,1.0001529454150082,146.19143690786387
6.903496704,1.0000874792982921,146.01138342725798
6.90629376,1.0000162601407934,145.8323842601033
6.909090816,0.9999438775084973,145.65442271440932
6.911887872,0.9998746858072376,145.47745113474525
6.91468544,0.9998131521788098,145.30147056934507
6.917482496,0.9997630331002404,145.12625696538538
6.920279552,0.999727438352783,144.951711125174
6.92307712,0.999708795407908,144.77754441183015
6.925874176,0.9997080377392763,144.60353639413287
6.928671232,0.9997253774817135,144.4294525731557
6.931468288,0.9997597653885552,144.25498767234592
6.934265856,0.9998090558327665,144.07993934585096
6.937062912,0.9998701882789597,143.9040806472306
6.939859968,0.9999393631844584,143.72730188994126
6.942657536,1.0000122121881665,143.54950806076744
6.945454592,1.00008447729833,143.37066863894916
6.948251648,1.0001513025664535,143.1908647801765
6.951048704,1.0002086381502437,143.01016253099948
6.953846272,1.000252957716576,142.82874250601853
6.956643328,1.0002814331674874,142.64678911962812
6.959440384,1.0002923841526874,142.46455846542236
6.962237952,1.000284919384257,142.28230399606045
6.965035008,1.000259637480961,142.1002869110767
6.967832064,1.0002180327144645,141.91879872463676
6.97062912,1.0001625864250117,141.73798399961643
6.973426688,1.0000968788484943,141.55806682437674
6.976223744,1.0000247183382756,141.37913373620142
6.9790208,0.9999510767836471,141.20127161614562
6.981818368,0.9998802320116704,141.02443421502463
6.984615424,0.9998165380309726,140.84863866578237
6.98741248,0.9997640261631194,140.67364729263582
6.990209536,0.9997260179970563,140.49932647317675
6.993007104,0.9997050511389337,140.32543519474274
6.99580416,0.9997022343000731,140.1517612382674
6.998601216,0.9997179677076712,139.97795871004055
7.001398784,0.9997512018093123,139.80385420505672
7.00419584,0.9997996375284068,139.62917056092658
7.006992896,0.9998606620878799,139.45369617236915
7.009790464,0.9999303293910136,139.2772938249551
7.01258752,1.0000042229705695,139.0998619421289
7.015384576,1.0000779521341474,138.92136842554584
7.018181632,1.000146711506209,138.74188846939458
7.0209792,1.0002062929038498,138.5614745968383
7.023776256,1.0002530766564182,138.38030716425
7.026573312,1.0002839365463636,138.19859106471466
7.02937088,1.0002970296955178,138.016551370474
7.032167936,1.0002915794240377,137.83448348391045
7.034964992,1.0002677745993815,137.65260213243943
7.037762048,1.0002271645120107,137.47120088604208
7.040559616,1.000172179165027,137.29054094887897
7.043356672,1.0001062984172218,137.11070669693726
7.046153728,1.00003373106615,136.93190932502264
7.048951296,0.9999585419110175,136.7541797410341
7.051748352,0.9998859553019043,136.57752100565193
7.054545408,0.9998201041726411,136.40185206832828
7.057342464,0.9997653944025683,136.22709931215047
7.060140032,0.9997250191106405,136.05303886544684
7.062937088,0.999701624773056,135.87943023673822
7.065734144,0.9996968180881736,135.70605484003576
7.068531712,0.9997106852442265,135.5326453031872
7.071328768,0.9997423541310524,135.35889605716284
7.074125824,0.9997902220366631,135.18458084854612
7.07692288,0.9998509653632339,135.00949655263187
7.079720448,0.9999210906640962,134.8335126269673
7.082517504,0.9999960835233841,134.65646436494836
7.08531456,1.0000712308968465,134.47834073881168
7.088112128,1.0001420244440975,134.29917333602344
7.090909184,1.0002038009010692,134.11907480413095
7.09370624,1.0002529131476872,133.93819645086705
7.096503296,1.0002861754958758,133.7567163926529
7.099300864,1.0003016256738246,133.57491111080887
7.10209792,1.000298146512565,133.39301112990702
7.104894976,1.000275961449989,133.21132107355714
7.107692544,1.0002365032843876,133.03005406060825
7.1104896,1.0001819920299164,132.84950102376456
7.113286656,1.000115952478455,132.66980800577088
7.116083712,1.0000425543989513,132.49112058872035
7.11888128,0.9999663082410031,132.31354496026185
7.121678336,0.9998918514257308,132.13706773342386
7.124475392,0.9998240250538157,131.96159964713536
