freq,mag,phase
6.0,1.0002145983012454,-75.19111751609054
6.006926336,1.0001774352760031,-75.51844721099809
6.013852672,1.000129634771158,-75.84521979705086
6.020779008,1.0000746582024869,-76.17141168472241
6.027705856,1.0000154086939352,-76.4969493613893
6.034632192,0.999955269800238,-76.82174997823488
6.041558528,0.9998972660060884,-77.14583837636751
6.048484864,0.9998450351812405,-77.46925266151602
6.0554112,0.999801089600937,-77.79213429875148
6.062337536,0.9997681877373404,-78.11458618807318
6.069263872,0.9997480527399492,-78.4367193880323
6.07619072,0.9997415330591514,-78.75883769283259
6.083117056,0.9997495461262318,-79.08100660085721
6.090043392,0.9997710725255241,-79.40346483384047
6.096969728,0.9998052946127493,-79.72639968023488
6.103896064,0.9998502842084014,-80.04995200302811
6.1108224,0.9999034607831461,-80.37430071830617
6.117748736,0.9999618591859326,-80.69944993068472
6.124675072,1.000022375457118,-81.02552485589808
6.13160192,1.0000815413835114,-81.35249322047018
6.138528256,1.0001361273298888,-81.68032354338658
6.145454592,1.0001831051519787,-82.00892585796905
6.152380928,1.0002199511664918,-82.33821427102721
6.159307264,1.0002444459037225,-82.66798156740302
6.1662336,1.000255335503871,-82.99809341515542
6.173159936,1.0002520756260482,-83.32833562219776
6.180086784,1.000234796340879,-83.65856452212095
6.18701312,1.000204284391273,-83.98853893028777
6.193939456,1.0001625059972472,-84.31810710459922
6.200865792,1.0001116052011674,-84.64714936208627
6.207792128,1.0000543886218385,-84.975545811167
6.214718464,0.9999941521545544,-85.30325493423655
6.2216448,0.9999339892200911,-85.63018926095876
6.228571648,0.9998774167835981,-85.95646570783884
6.235497984,0.9998276022812836,-86.28207092451588
6.24242432,0.999787076263549,-86.60719369701121
6.249350656,0.9997583598052877,-86.9319184723778
6.256276992,0.9997429662385712,-87.25643058285469
6.263203328,0.9997415701397175,-87.58093826500594
6.270129664,0.9997545623699504,-87.9055705099052
6.277056512,0.9997810081350119,-88.23057892902932
6.283982848,0.999819558724468,-88.55616815380219
6.290909184,0.9998679895228485,-88.88238453050762
6.29783552,0.9999237070126398,-89.20940814011473
6.304761856,0.9999835510534307,-89.53731119988232
6.311688192,1.0000443335892624,-89.86613303805485
6.318614528,1.0001025195290347,-90.19581753105768
6.325541376,1.000155096746667,-90.52636894736
6.332467712,1.0001989604656212,-90.8576651725692
6.339394048,1.0002317818853919,-91.18956638727441
6.346320384,1.0002516953578173,-91.52190445674265
6.35324672,1.0002576854816045,-91.8545612545059
6.360173056,1.0002493339750573,-92.18722983574436
6.367099392,1.0002270524225259,-92.51984157187091
6.374025728,1.0001922111275365,-92.85209391276909
6.380952576,1.0001465747294016,-93.18391140383211
6.387878912,1.0000928177225037,-93.5151497392324
6.394805248,1.0000338155119102,-93.8457317984255
6.401731584,0.9999728382149814,-94.17558434440198
6.40865792,0.9999132279059556,-94.50470478638427
6.415584256,0.9998584067321072,-94.83310122744852
6.422510592,0.9998112151011452,-95.16093793323624
6.42943744,0.9997744502374586,-95.48827471043695
6.436363776,0.9997501086797375,-95.81531021392482
6.443290112,0.9997395469158775,-96.14217614557714
6.450216448,0.999743337094663,-96.4690942090209
6.457142784,0.9997613473780032,-96.79622106953778
6.46406912,0.999792347555504,-97.12378641071469
6.470995456,0.999834835122058,-97.45196653969991
6.477922304,0.9998864756018743,-97.7808632276184
6.48484864,0.9999443628575213,-98.11057646879934
6.491774976,1.0000052730461635,-98.44116446040697
6.498701312,1.0000659117938746,-98.7726992671903
6.505627648,1.00012274777305,-99.10511899789256
6.512553984,1.0001728934195528,-99.43834733154367
6.51948032,1.0002133735566563,-99.77229351991855
6.526407168,1.0002420763206026,-100.10681065158327
6.533333504,1.0002572021210119,-100.44166410937396
6.54025984,1.000258215485865,-100.77675819106724
6.547186176,1.000244824512778,-101.11185126152768
6.554112512,1.0002178694880492,-101.44674181191058
6.561038848,1.0001787257106556,-101.78128080521728
6.567965184,1.000129639324808,-102.1153066560519
6.57489152,1.000073451877246,-102.44870045357528
6.581818368,1.0000129158947262,-102.78143788639504
6.588744704,0.99995163855788,-103.11340298348368
6.59567104,0.9998931176945122,-103.44465123690875
6.602597376,0.9998401647876064,-103.77522572141517
6.609523712,0.9997961482801774,-104.10523274003057
6.616450048,0.9997634441864589,-104.43479020515888
6.623376384,0.9997435921411556,-104.76411537621331
6.630303232,0.9997378850814843,-105.09332599248845
6.637229568,0.9997467016442031,-105.422646292272
6.644155904,0.999769531727198,-105.752264350594
6.65108224,0.9998050015119517,-106.08237910343853
6.658008576,0.9998512199310887,-106.41312306484883
6.664934912,0.9999056410160236,-106.74467383787339
6.671861248,0.9999653424266418,-107.0770238576649
6.678788096,1.0000269905126637,-107.41033441484629
6.685714432,1.0000869956870064,-107.74455675256324
6.692640768,1.0001422391833394,-108.07964514226353
6.699567104,1.000189602241412,-108.41550750978855
6.70649344,1.0002264980236373,-108.75201445768397
6.713419776,1.0002508076519514,-109.08906425240059
6.720346112,1.0002612015001917,-109.4263856918465
6.72727296,1.0002571663938318,-109.76386813896382
6.734199296,1.0002388637047117,-110.10128656929179
6.741125632,1.0002072562021598,-110.43846583523788
6.748051968,1.0001641461617186,-110.77520407638998
6.754978304,1.0001119789989572,-111.11140521650722
6.76190464,1.0000535594827187,-111.44693502115302
6.768830976,0.9999920657564778,-111.78174475806033
6.775757824,0.9999309429594773,-112.11579481797393
6.78268416,0.9998736158144578,-112.44913882741973
6.789610496,0.999823243708046,-112.7818307472197
6.796536832,0.9997825086784982,-113.11400113391944
6.803463168,0.9997538370056088,-113.445778981933
6.810389504,0.9997387112613355,-113.7773636856126
6.81731584,0.9997380513880972,-114.10888680458211
6.824242176,0.9997517787016891,-114.44060175287117
6.831169024,0.999779236035241,-114.77271797706385
6.83809536,0.9998189458729816,-115.10532678633844
6.845021696,0.9998686357732737,-115.43865956899617
6.851948032,0.9999256292332191,-115.77275787581024
6.858874368,0.9999866667938256,-116.10777510057811
6.865800704,1.0000485187701769,-116.4437117829919
6.87272704,1.0001076217544107,-116.78055014836185
6.879653888,1.0001608638698058,-117.1182313625419
6.886580224,1.0002052098931906,-117.45668260954275
6.89350656,1.0002381635944004,-117.79572169653066
6.900432896,1.0002579827101097,-118.13520846549476
6.907359232,1.0002635564165248,-118.4749352381676
6.914285568,1.0002544545315046,-118.81476912927964
6.921211904,1.0002312690701756,-119.1544436579908
6.928138752,1.0001954064491616,-119.49382032126782
6.935065088,1.000148609641987,-119.83271604565422
6.941991424,1.0000936332267931,-120.17097806782394
6.94891776,1.000033279062744,-120.50858860078047
6.955844096,0.9999711759039861,-120.84541970691411
6.962770432,0.9999105763910651,-121.18149924224005
6.969696768,0.999854925506894,-121.51690022457589
6.976623616,0.9998072624635691,-121.85167021378965
6.983549952,0.9997701150277731,-122.18596456981581
6.990476288,0.9997456990675279,-122.51987599073111
6.997402624,0.9997353948935621,-122.8536810262527
7.00432896,0.9997396083880036,-123.18752775205022
7.011255296,0.9997582271974838,-123.52159388604612
7.018181632,0.9997902739172395,-123.8561180531406
7.02510848,0.9998339091967251,-124.19121652954865
7.032034816,0.9998866926050507,-124.52705031388325
7.038961152,0.9999457997078521,-124.8637226647388
7.045887488,1.0000079202632646,-125.20130363253078
7.052813824,1.0000696769606032,-125.5398130883442
7.05974016,1.000127501932155,-125.87922491585896
7.066666496,1.0001782687420493,-126.21946098983473
7.073592832,1.000219302684281,-126.56035906055742
7.08051968,1.0002481944624793,-126.90186592677114
7.087446016,1.0002634147458316,-127.24371234011396
7.094372352,1.0002640390559068,-127.58581930778638
7.101298688,1.0002500583659795,-127.92784594172934
7.108225024,1.0002223472281928,-128.26971365651326
7.11515136,1.0001822016469242,-128.61117308994326
7.122077696,1.0001320343175424,-128.95213585745753
7.129004544,1.0000744395097534,-129.29240708066544
7.13593088,1.0000127791115778,-129.63199165389761
7.142857216,0.9999503956343887,-129.97081933749527
7.149783552,0.9998907108554639,-130.30888598527594
7.156709888,0.9998369705835298,-130.64628122402556
7.163636224,0.9997923007103794,-130.98307985659545
7.17056256,0.9997589858223433,-131.31941450507523
7.177489408,0.9997389899552903,-131.65549321984784
7.184415744,0.9997334817404854,-131.99147030679092
7.19134208,0.9997426643942986,-132.32751987713604
7.198268416,0.999766057950991,-132.66392999465208
7.205194752,0.999802380284902,-133.00077237562436
7.212121088,0.9998497511465679,-133.3382813306076
7.219047424,0.9999053731825001,-133.67659814123306
7.225974272,0.9999662881718039,-134.01576144295453
7.232900608,1.0000290012647068,-134.35584504943137
7.239826944,1.0000902257736193,-134.6968407957417
7.24675328,1.000146545336236,-135.0387379635228
7.253679616,1.0001947345080986,-135.38140268804284
7.260605952,1.0002321091000106,-135.72474398826273
7.267532288,1.0002567972577128,-136.06857488812676
7.274458624,1.000267225878037,-136.41271308428134
7.281385472,1.0002629392823275,-136.75701030878653
7.288311808,1.0002441834736249,-137.10120144069833
7.295238144,1.0002119330095531,-137.4451349833056
7.30216448,1.0001679118160018,-137.78862676435395
7.309090816,1.0001145141488295,-138.1315700035582
7.316017152,1.000054826470291,-138.4737962790589
7.322943488,0.99999215353096,-138.81527444749085
7.329870336,0.9999297970123617,-139.15597830747197
7.336796672,0.9998713454440485,-139.49594104974707
7.343723008,0.9998199117323244,-139.8352610724368
7.350649344,0.999778443362825,-140.17400924184437
7.35757568,0.9997492348397302,-140.51237501224736
7.364502016,0.9997338685325607,-140.8504813067937
7.371428352,0.9997331629464838,-141.1885778300934
7.3783552,0.9997472740271252,-141.5268476393407
7.385281536,0.9997753168197481,-141.8654666632262
7.392207872,0.9998158436687296,-142.20463123240145
7.399134208,0.9998664964541109,-142.54449601265995
7.406060544,0.9999246298039629,-142.88516075941743
7.41298688,0.9999868911139123,-143.22675220975688
7.419913216,1.000050044703476,-143.56924739919
7.426840064,1.0001104557633649,-143.91264127556147
7.4337664,1.000164709862565,-144.2569221235934
7.440692736,1.0002099905092559,-144.60194018349995
7.447619072,1.0002436698953674,-144.9475767205537
7.454545408,1.0002639009550163,-145.29364194401293
7.461471744,1.0002696232385333,-145.6399787643578
7.46839808,1.0002604900674457,-145.98635903942093
7.475324928,1.0002369634032717,-146.33258168271476
7.482251264,1.000200315014344,-146.67850335101713
7.4891776,1.0001525978940093,-147.02391671171688
7.496103936,1.0000964640664722,-147.368701680615
7.503030272,1.0000350073659412,-147.71277250329615
7.509956608,0.99997150411925,-148.0560509218568
7.516882944,0.9999096724192044,-148.39857906849036
7.52380928,0.9998527387937863,-148.74035617693704
7.530736128,0.9998039712371768,-149.08148587959158
7.537662464,0.999766034733981,-149.42213660489705
7.5445888,0.9997409479369802,-149.76242143102616
7.551515136,0.9997302413744895,-150.10253146246922
7.558441472,0.999734410326128,-150.44266455109303
7.565367808,0.9997532808478472,-150.78302499980384
7.572294144,0.9997858712513726,-151.1238182976133
7.579220992,0.9998302730068527,-151.46520798152466
7.586147328,0.9998841364499426,-151.80734256568147
7.593073664,0.9999443872680337,-152.15027656257192
7.6,1.0000078485515744,-152.4941863075946
7.606926336,1.0000708536465148,-152.83898652247132
7.613852672,1.000130025083536,-153.1847118360068
7.620779008,1.0001820884104131,-153.53124598598785
7.627705856,1.000224122872721,-153.8785078777074
7.634632192,1.0002539081156363,-154.22632545551485
7.641558528,1.0002696297031737,-154.57453555141004
7.648484864,1.0002705016000453,-154.92290733800363
7.6554112,1.0002564478540672,-155.27125707778862
7.662337536,1.000228365966769,-155.61942485361556
7.669263872,1.0001875850968445,-155.96715954938674
7.67619072,1.0001364265567554,-156.31437006557073
7.683117056,1.0000777850455493,-156.6609232397322
7.690043392,1.0000148530050716,-157.00670340387785
7.696969728,0.9999510500799437,-157.35171166613745
7.703896064,0.999889999445425,-157.6959065996313
7.7108224,0.9998349094307653,-158.03942581221253
7.717748736,0.9997890414098191,-158.38232878623472
7.724675072,0.9997547630843896,-158.72473972911416
7.73160192,0.9997340950196721,-159.0668585257741
7.738528256,0.9997280682654535,-159.4088517935907
7.745454592,0.9997371366791197,-159.7509656444046
7.752380928,0.9997607454766424,-160.09332068779847
7.759307264,0.9997976625499195,-160.43618654860975
7.7662336,0.9998456340575748,-160.7796996608283
7.773159936,0.9999023993320479,-161.12400009905582
7.780086784,0.9999645730654321,-161.46915431614312
7.78701312,1.0000287360050595,-161.81526651169608
7.793939456,1.0000912736986023,-162.16226555540186
7.800865792,1.0001489526106322,-162.51016995823773
7.807792128,1.000198491105555,-162.85886261481193
7.814718464,1.0002371161459396,-163.20821954558028
7.8216448,1.000262714545108,-163.55810272466888
7.828571648,1.0002738527413764,-163.90826696717775
7.835497984,1.0002699118185565,-164.2585710905407
7.84242432,1.0002510790882138,-164.60879653325497
7.849350656,1.0002183381662548,-164.95873120132657
7.856276992,1.0001737722382487,-165.30822364740445
7.863203328,1.0001194692999569,-165.65710286222657
7.870129664,1.0000586235845301,-166.0052758833539
7.877056512,0.9999945216364999,-166.35265666024517
7.883982848,0.9999307200407216,-166.6992427945517
7.890909184,0.9998707986281957,-167.0450507747886
7.89783552,0.9998179178605192,-167.3901696504372
7.904761856,0.9997751899631663,-167.73470650301118
7.911688192,0.9997448263911569,-168.07882239346577
7.918614528,0.9997285709984349,-168.42265500807557
7.925541376,0.9997273645694009,-168.7664655804772
7.932467712,0.9997412550449709,-169.11043333773273
7.939394048,0.9997694503492781,-169.454702428996
7.946320384,0.9998104309224282,-169.79955396262793
7.95324672,0.9998620435719521,-170.1450607965254
7.960173056,0.9999212498082827,-170.49142680478076
7.967099392,0.9999848797373609,-170.8386591784238
7.974025728,1.0000495085000936,-171.18682093149775
7.980952576,1.0001113811175288,-171.53593208057575
7.987878912,1.0001672331795972,-171.8858970054987
7.994805248,1.00021385990834,-172.23660762517304
8.001731584,1.0002489301734374,-172.58792530626488
8.00865792,1.000270084163265,-172.93972721298806
8.015584256,1.0002765484833331,-173.29173708089203
8.022510592,1.0002677922297598,-173.64383123892276
8.02943744,1.0002442685637727,-173.99574376728293
8.036363776,1.000207258892239,-174.34731856401473
8.043290112,1.000158939069463,-174.698392499194
8.050216448,1.0001016947696593,-175.04880923969608
8.057142784,1.0000390003247948,-175.39847766328094
8.06406912,0.9999741084209232,-175.7473479185958
8.070995456,0.9999106325977918,-176.09539388341747
8.077922304,0.9998521306923438,-176.44267903301747
8.08484864,0.9998017837134054,-176.78930748729007
8.091774976,0.999762358806677,-177.13535635131748
8.098701312,0.9997361418100646,-177.4810248665162
8.105627648,0.9997244699458996,-177.8265386092533
8.112553984,0.9997280684991572,-178.17200117241762
8.11948032,0.9997467760534345,-178.51773071332056
8.126407168,0.9997794516136639,-178.8638239056368
8.133333504,0.9998244247966614,-179.2105280118231
8.14025984,0.9998791411523663,-179.55792427891723
8.147186176,0.9999406619153463,-179.90621944456265
8.154112512,1.0000054649093377,179.74459677832823
8.161038848,1.0000701581669005,179.39445297795226
8.167965184,1.0001309143751296,179.04344107548965
8.17489152,1.0001846814907758,178.69154753659953
8.181818368,1.00022825424773,178.3389481529017
8.188744704,1.0002593846255046,177.98577969360264
8.19567104,1.0002761768239352,177.63226278004728
8.202597376,1.0002779590502657,177.27853095589677
8.209523712,1.0002643086615117,176.92483027222866
8.216450048,1.0002361407743894,176.57133413259194
8.223376384,1.000194940097119,176.21827575017198
8.230303232,1.000143143423578,175.86576310159845
8.237229568,1.0000834222483501,175.513961266045
8.244155904,1.0000190684041368,175.16293339262862
8.25108224,0.9999536648506737,174.81273369003867
8.258008576,0.9998908487425895,174.46333924016082
8.264934912,0.9998340713496,174.11470720170053
8.271861248,0.9997865308890179,173.76672155154623
8.278788096,0.9997507308146852,173.41925303031567
8.285714432,0.9997286530677391,173.07210828009747
8.292640768,0.9997217804681103,172.7251153354611
8.299567104,0.9997302260055465,172.37805321213216
8.30649344,0.9997535540886348,172.03071839404967
8.313419776,0.9997905762696255,171.6829295257493
8.320346112,0.9998392700737858,171.33450686595614
8.32727296,0.9998968776654836,170.98530021394225
8.334199296,0.9999603439682282,170.6352186624638
8.341125632,1.000026160937006,170.28421057962402
8.348051968,1.0000905008815004,169.93227125002693
8.354978304,1.000149912418201,169.57944377208884
8.36190464,1.0002011955387005,169.2257942729239
8.368830976,1.0002415199936174,168.87147994034584
8.375757824,1.0002685562499642,168.51662984103245
8.38268416,1.0002808076375935,168.16149184987984
8.389610496,1.000277703390408,167.80621433933615
8.396536832,1.0002592625412439,167.4510423676644
8.403463168,1.000226701712517,167.09616898096914
8.410389504,1.0001814836520238,166.7417523031867
8.41731584,1.0001263568997343,166.38797940159375
8.424242176,1.0000642712536363,166.03490472307172
8.431169024,0.9999987198848205,165.68267999917
8.43809536,0.9999331655538283,165.33130555198613
8.445021696,0.9998714166459168,164.98071254763045
8.451948032,0.9998166543918632,164.6308583356449
8.458874368,0.9997721108578093,164.28164773022183
8.465800704,0.9997400724670398,163.93287791878532
8.47272704,0.9997224886001715,163.5843956350649
8.479653888,0.9997202766207194,163.2360225210789
8.486580224,0.999733563840619,162.88753408404787
8.49350656,0.9997616172677172,162.53868701248297
8.500432896,0.9998028400488169,162.18934294403823
8.507359232,0.9998550410925507,161.83930042754133
8.514285568,0.9999152956625437,161.48843101222533
8.521211904,0.9999804811097922,161.13667647724205
8.528138752,1.000046693105539,160.7840031384083
8.535065088,1.000110432051041,160.43039042700582
8.541991424,1.0001682394511915,160.07590771094826
8.54891776,1.0002167730120282,159.72062594222032
8.555844096,1.0002535298011634,159.36475938314726
8.562770432,1.0002763739612492,159.00842075219543
8.569696768,1.0002839853098549,158.65183610616035
8.576623616,1.0002760132800645,158.29518592092774
8.583549952,1.0002528928903827,157.93871815710003
8.590476288,1.0002158389676508,157.5825842936033
8.597402624,1.00016689588966,157.22700000257453
8.60432896,1.0001088644458447,156.87206938082255
8.611255296,1.0000447270851753,156.5179473813606
8.618181632,0.9999781656248172,156.16465979285695
8.625107968,0.9999128317152571,155.81221492581338
8.632034304,0.9998523141144832,155.4605761114801
8.63896064,0.99979991025949,155.10966045331432
8.645886976,0.9997585890779618,154.75931390647673
8.652814336,0.999730702831498,154.40942098228268
8.659740672,0.999717541549888,154.05976637931926
8.666667008,0.9997201660220235,153.71010468977045
8.673593344,0.9997381287659396,153.36027748831074
8.68051968,0.9997707933556038,153.01006453962125
8.687446016,0.9998160487400092,152.65929242040596
8.694372352,0.9998715297890324,152.30777673029127
8.701298688,0.9999342238206508,151.95540808687588
8.708225024,1.0000007770991055,151.60214998278482
8.71515136,1.0000671457977623,151.24792125952365
8.722077696,1.0001301066093402,150.892792768387
8.729004032,1.0001858636750038,150.53680907287819
8.735930368,1.0002315305209668,150.18008092812192
8.742856704,1.0002644122303241,149.8227859482823
8.74978304,1.000282833221842,149.46510507097796
8.7567104,1.0002857658584414,149.10721980455065
8.763636736,1.0002729613844779,148.74937997792225
