freq,mag,phase
6.0,0.9988339814392999,-20.597447142188244
6.011976192,0.998794077230584,-20.997950904994266
6.023951872,0.9988142156729696,-21.39844401356996
6.035928064,0.9988910098396622,-21.79968771563059
6.047904256,0.999020971745996,-22.202252886754437
6.059880448,0.9991977334808063,-22.606856136004698
6.071856128,0.9994130147476065,-23.014037945223517
6.08383232,0.9996565850156961,-23.424150437098696
6.095808512,0.9999167744088095,-23.83755335329553
6.107784192,1.0001813756522961,-24.25430780043906
6.119760384,1.0004374082337986,-24.674483791761652
6.131736576,1.000673203858355,-25.09782188509433
6.143712768,1.0008769817329066,-25.524038326296026
6.155688448,1.0010393908777353,-25.95256614141746
6.16766464,1.0011524908450014,-26.382977176822074
6.179640832,1.0012109862639653,-26.814542054470227
6.191616512,1.001211851642792,-27.246630068474673
6.203592704,1.001155085704679,-27.67843419466794
6.215568896,1.0010434241663178,-28.109257063640605
6.227545088,1.0008819801254085,-28.53849439764642
6.239520768,1.0006785172150912,-28.965531011996372
6.25149696,1.0004423612004782,-29.3898813929144
6.263473152,1.000185041740802,-29.811282273336975
6.275449344,0.9999186760957554,-30.229432933192008
6.287425024,0.9996558951510838,-30.644343580819683
6.299401216,0.9994091690518796,-31.05615184116676
6.311377408,0.9991904906797832,-31.465131751281874
6.323353088,0.9990100607644631,-31.87166283334125
6.33532928,0.9988769879569751,-32.276304300370896
6.347305472,0.9987972186074131,-32.6796910396347
6.359281664,0.9987748115679618,-33.08252286028646
6.371257344,0.9988109397694473,-33.48553395166693
6.383233536,0.9989037920131891,-33.88940858792115
6.395209728,0.9990492252463693,-34.294892938795535
6.407185408,0.9992401337407811,-34.702606081772984
6.4191616,0.9994675934795085,-35.11303892065836
6.431137792,0.9997207072863712,-35.52654051241126
6.443113984,0.99998735391861,-35.94343558219769
6.455089664,1.0002550083408939,-36.36377606824441
6.467065856,1.0005108553489406,-36.78756486417053
6.479042048,1.0007426966732083,-37.21445021682926
6.491017728,1.0009394617621563,-37.64412732630788
6.50299392,1.0010917360043954,-38.07609648492342
6.514970112,1.001192418516942,-38.509749769300505
6.526946304,1.0012363879723765,-38.944456351623046
6.538921984,1.0012217327408113,-39.37937078447191
6.550898176,1.001148780338561,-39.81391750553683
6.562874368,1.0010213124513234,-40.24727445321804
6.574850048,1.000845128578045,-40.67885042888253
6.58682624,1.0006285400210413,-41.1080323020572
6.598802432,1.0003817869014424,-41.534404463886304
6.610778624,1.0001164892823395,-41.95771111608442
6.622754304,0.9998455537226997,-42.37768860057661
6.634730496,0.999581661036203,-42.794436719796884
6.646706688,0.9993374198469884,-43.20803536528031
6.65868288,0.9991242517408344,-43.618874792892875
6.67065856,0.9989527929452079,-44.0274002049197
6.682634752,0.9988311183336859,-44.43411513276666
6.694610944,0.9987651095838656,-44.8397416943435
6.706586624,0.9987581534470352,-45.24500280298688
6.718562816,0.9988103898751695,-45.65065189558286
6.730539008,0.9989192995991876,-46.057406318592555
6.7425152,0.9990801810241504,-46.46593266904235
6.75449088,0.9992848111050474,-46.87684656381335
6.766467072,0.9995239867060471,-47.29065619939132
6.778443264,0.9997861992109538,-47.70772233787138
6.790418944,1.0000589994681044,-48.128288261618394
6.802395136,1.0003291317985188,-48.552288249164235
6.814371328,1.0005840425508725,-48.97975236601218
6.82634752,1.0008117131623948,-49.41032707866878
6.8383232,1.0010007439058177,-49.84362195899484
6.850299392,1.00114255951423,-50.2791021018417
6.862275584,1.0012302955759562,-50.71608770759464
6.874251264,1.0012596780583065,-51.153935519717606
6.886227456,1.0012290881895454,-51.591930158883265
6.898203648,1.0011400760590088,-52.02922494307593
6.91017984,1.0009969234994482,-52.465201611799884
6.92215552,1.000806115290343,-52.899181596487836
6.934131712,1.0005767825601621,-53.3306239132651
6.946107904,1.0003197826329062,-53.75915252674298
6.958083584,1.000047192358373,-54.18439209344968
6.970059776,0.9997720503488656,-54.60632325218243
6.982035968,0.9995073725587338,-55.024982018031096
6.99401216,0.9992660498651903,-55.44050854751695
7.00598784,0.9990592563430895,-55.853343440163144
7.017964032,0.9988970931921767,-56.263916173576504
7.029940224,0.9987874999955059,-56.67286046374227
7.041916416,0.9987354777363008,-57.08089158676126
7.053892096,0.998743845728771,-57.48874900610939
7.065868288,0.9988120136582325,-57.89719233572727
7.07784448,0.998937222165026,-58.306874859557084
7.08982016,0.999113041560042,-58.718621952086465
7.101796352,0.9993314500877944,-59.13289677561075
7.113772544,0.9995820476315325,-59.5502768931534
7.125748736,0.999852952203732,-59.97100929482403
7.137724416,1.000131226395373,-60.39526120450227
7.149700608,1.0004036826777511,-60.82309773899187
7.1616768,1.0006572825318594,-61.254355906483326
7.17365248,1.0008798825428828,-61.68870012983465
7.185628672,1.0010609313216965,-62.125699702184406
7.197604864,1.0011918580281187,-62.56473734059413
7.209581056,1.0012664841638057,-63.00519869644586
7.221556736,1.0012809222180683,-63.446324681247084
7.233532928,1.0012345314793614,-63.887353226976764
7.24550912,1.0011295077707714,-64.32754362543113
7.2574848,1.0009706981243667,-64.76616965721217
7.269460992,1.0007655801373727,-65.20264739359202
7.281437184,1.0005237200070376,-65.63644480235278
7.293413376,1.0002566408107803,-66.06714155910882
7.305389056,0.9999770264386252,-66.4945406913629
7.317365248,0.9996982521691514,-66.9184803894373
7.32934144,0.9994333883309798,-67.33912489721673
7.34131712,0.9991953411568668,-67.75670564780678
7.353293312,0.9989952619822515,-68.17159130563977
7.365269504,0.9988428393954891,-68.58440295283225
7.377245696,0.9987454893070298,-68.99566648803037
7.389221376,0.9987076888038309,-69.40624088841021
7.401197568,0.9987315441679568,-69.81679259725395
7.41317376,0.9988161620828805,-70.22810421644164
7.425149952,0.998957195834421,-70.64095029565448
7.437125632,0.9991483018192512,-71.0559976621419
7.449101824,0.9993801426538048,-71.47375408326216
7.461078016,0.9996418492726414,-71.89473007994273
7.473053696,0.9999211332376422,-72.31926533963035
7.485029888,1.0002045146155871,-72.74740096752203
7.49700608,1.000478574678607,-73.17915077366663
7.508982272,1.0007304416596532,-73.61429334464839
7.520957952,1.0009478794029567,-74.05248226315837
7.532934144,1.0011203625350984,-74.49329729295725
7.544910336,1.0012401737679686,-74.93598123472087
7.556886016,1.001301365176635,-75.37994690266669
7.568862208,1.0013006705171001,-75.82442261348528
7.5808384,1.001238275309544,-76.26857927917928
7.592814592,1.0011170892558539,-76.71173245528495
7.604790272,1.0009425629649946,-77.15314538757276
7.616766464,1.0007232427997486,-77.59220381912615
7.628742656,1.0004691297872503,-78.0283824264477
7.640718336,1.0001924936446291,-78.46137381733949
7.652694528,0.9999062818301736,-78.89093712324392
7.66467072,0.9996241210285969,-79.31700490948846
7.676646912,0.9993594830615592,-79.73975483494029
7.688622592,0.9991251770507877,-80.15943315264497
7.700598784,0.9989320730098303,-80.57654330593645
7.712574976,0.9987897694068868,-80.99162573927433
7.724550656,0.9987049311129949,-81.4053750367917
7.736526848,0.9986816954786696,-81.8185476300763
7.74850304,0.9987212429160194,-82.23191158156098
7.760479232,0.9988220388749672,-82.64622936899089
7.772454912,0.9989791160028197,-83.06231829548467
7.784431104,0.9991850232799895,-83.48075093506581
7.796407296,0.999430143719604,-83.902154953567
7.808383488,0.9997028584269345,-84.32690278671815
7.820359168,0.9999900933931095,-84.75527058612141
7.83233536,1.0002782397101768,-85.1873821644
7.844311552,1.0005537028294762,-85.62312405971106
7.856287232,1.0008033167875072,-86.06226076695262
7.868263424,1.001015009102673,-86.50445260661243
7.880239616,1.0011791115411734,-86.94904033131547
7.892215808,1.0012872877983583,-87.39550021211625
7.904191488,1.001334592199281,-87.84306419149193
7.91616768,1.0013186491270196,-88.29091873763949
7.928143872,1.0012402901126927,-88.73830615851647
7.940119552,1.001102770566342,-89.18445527615617
7.952095744,1.0009128238777882,-89.62868014206589
7.964071936,1.0006792943434961,-90.07038547616636
7.976048128,1.0004130837753784,-90.50903563924034
7.988023808,1.0001269075331416,-90.94436956505929
8.0,0.9998344934102916,-91.37615918765064
8.011976192,0.999549357864978,-91.80441802940196
8.023951872,0.9992853498430789,-92.22934228713864
8.035928064,0.9990551070881457,-92.65123969776099
8.047904256,0.9988693887590853,-93.070630419417
8.059880448,0.998737366454956,-93.48811360827303
8.071856128,0.998665323713387,-93.90438917149119
8.08383232,0.9986568262570678,-94.32029795328624
8.095808512,0.998712423976384,-94.73655811389077
8.107784192,0.9988295373498045,-95.15401364895577
8.119760384,0.999002579155061,-95.5733820709211
8.131736576,0.9992235035463506,-95.99537398777778
8.143712768,0.9994817209328414,-96.42044201027393
8.155688448,0.9997650869862708,-96.8490512334435
8.16766464,1.0000600837546563,-97.28138357397482
8.179640832,1.0003528177145993,-97.717538519946
8.191616512,1.0006292683686049,-98.15734557712761
8.203592704,1.000876334193411,-98.60058219502746
8.215568896,1.001082260126758,-99.04675195361159
8.227545088,1.0012371787307843,-99.49531444481782
8.239520768,1.0013335629900828,-99.94558585119245
8.25149696,1.001367012709488,-100.39674815853611
8.263473152,1.0013355752724198,-100.84808556520217
8.275449344,1.001240925222149,-101.29874001975881
8.287425024,1.0010872246994316,-101.74798534856797
8.299401216,1.000881754309736,-102.19505614577659
8.311377408,1.000634111806569,-102.63945521070478
8.323353088,1.0003559803138695,-103.0806628481322
8.33532928,1.0000607120550586,-103.51838447415862
8.347305472,0.9997619197179471,-103.95248251942101
8.359281664,0.9994741788031158,-104.382997710457
8.371257344,0.9992109110818963,-104.81014277422429
8.383233536,0.9989850300281798,-105.2343514211651
8.395209728,0.9988070837727918,-105.65607262693793
8.407185408,0.9986856388104189,-106.0760350306275
8.4191616,0.998626731238621,-106.4949294145119
8.431137792,0.9986331627472953,-106.91360291698388
8.443113984,0.9987048381537573,-107.33286804822822
8.455089664,0.9988383846649723,-107.75352252364436
8.467065856,0.9990275166012579,-108.17631137041752
8.479042048,0.9992633135301334,-108.6018894079899
8.491017728,0.9995345862659291,-109.0307610723587
8.50299392,0.9998285207076574,-109.46327277683794
8.514970112,1.000131243886291,-109.89966328854058
8.526946304,1.0004283112548187,-110.33989841891228
8.538921984,1.0007055305579597,-110.78390327882268
8.550898176,1.0009497644787353,-111.23125266695479
8.562874368,1.001149441501795,-111.68152852628722
8.574850048,1.0012950304813486,-112.1340584684644
8.58682624,1.001379461811911,-112.58819029269506
8.598802432,1.0013987385543162,-113.04308008995315
8.610778112,1.0013517356144859,-113.49793327806891
8.622754816,1.0012406292174492,-113.95191407305782
8.634730496,1.0010704794756227,-114.4042612974291
8.646706176,1.000849398261641,-114.85427043349797
8.65868288,1.0005877013536073,-115.30139332447168
8.67065856,1.0002977632201222,-115.74516248104563
8.68263424,0.9999932011490125,-116.18532358441543
8.694610944,0.9996884560470105,-116.62177511598777
8.706586624,0.9993981241833007,-117.05460724573713
8.718563328,0.9991359764178426,-117.48406809817926
8.730539008,0.9989146049586158,-117.91057451275651
8.742514688,0.9987445824960277,-118.33470004965525
8.754491392,0.9986340283854807,-118.75717325254615
8.766467072,0.9985884251808937,-119.17877664005756
8.778442752,0.9986100429345126,-119.60031128722403
8.790419456,0.9986979830139309,-120.02260649978169
8.802395136,0.9988480778446265,-120.44654832924547
8.814370816,0.9990533474640867,-120.87281326047264
8.82634752,0.999304146641193,-121.30205884577745
8.8383232,0.9995885416263525,-121.73472522903712
8.850299904,0.9998930863063749,-122.17127215180426
8.862275584,1.000203369401249,-122.61176194575121
8.874251264,1.0005045216772552,-123.05620067508491
8.886227968,1.000782418535764,-123.50438207575056
8.898203648,1.0010237947331935,-123.95595863238684
8.910179328,1.0012170763102166,-124.41036188269926
8.922156032,1.0013531157037707,-124.86696238514511
8.934131712,1.0014252591318655,-125.32497942645873
8.946107392,1.0014301347397634,-125.78362236473961
8.958084096,1.0013672532261697,-126.24203484234631
8.970059776,1.001239584707927,-126.69939226953625
8.982035456,1.0010529366148355,-127.15487799899913
8.99401216,1.0008161486350347,-127.60785730566599
9.00598784,1.0005401961366718,-128.05775577379325
9.017964544,1.0002382662777247,-128.50414908683484
9.029940224,0.999924590463923,-128.94678680991478
9.041915904,0.9996138617383855,-129.38561076475867
9.053892608,0.9993211224079392,-129.82078007022358
9.065868288,0.9990601237742287,-130.25256564472835
9.077843968,0.9988434275009581,-130.68143379592323
9.089820672,0.9986814449124132,-131.1080087910325
9.101796352,0.998582078058089,-131.5330374931617
9.113772032,0.9985499902181885,-131.9573585112875
9.125748736,0.9985869678621525,-132.38179608540153
9.137724416,0.9986912980006465,-132.80720349120216
9.149700096,0.9988582676757752,-133.2344446123167
9.1616768,0.9990799512413902,-133.66422353218982
9.17365248,0.9993458455519557,-134.09717465685623
9.185629184,0.9996434296631369,-134.53377723773022
9.197604864,0.9999586528803232,-134.97433164025085
9.209580544,1.0002764508986033,-135.41900934499876
9.221557248,1.0005819485115004,-135.86765232852213
9.233532928,1.0008603632026891,-136.3201164542655
9.245508608,1.0010985870369487,-136.77592622514015
9.257485312,1.0012853729773694,-137.23453145363598
9.269460992,1.0014116776747837,-137.69523665953352
9.281436672,1.0014713571974294,-138.15720519001252
9.293413376,1.001461661003615,-138.6196549744603
9.305389056,1.0013826685599114,-139.08164413319628
9.31736576,1.0012380936247962,-139.54239057700974
9.32934144,1.001034660833671,-140.00108461588627
9.34131712,1.0007819458859313,-140.45704673713834
9.353293824,1.0004916001525475,-140.90972813107632
9.365269504,1.000177490878605,-141.35876869914335
9.377245184,0.9998544446943044,-141.8039118677931
9.389221888,0.9995377616225646,-142.24516776378778
9.401197568,0.9992425321834801,-142.68265880059081
9.413173248,0.9989827188273789,-143.11676582003557
9.425149952,0.9987708905260143,-143.54802761803637
9.437125632,0.9986171948717749,-143.97708875068454
9.449101312,0.9985289790472326,-144.40471183911637
9.461078016,0.9985107277217115,-144.8317654733882
9.473053696,0.9985633774956839,-145.25911279618816
9.4850304,0.9986845058114827,-145.6876636915426
9.49700608,0.9988686052029411,-146.1182263784674
9.50898176,0.9991068261059772,-146.55156828141952
9.520958464,0.9993881776662654,-146.9882653560863
9.532934144,0.9996993038992854,-147.4288052255928
9.544909824,1.000025283275011,-147.87345063471076
9.556886528,1.00035098382972,-148.32230551748515
9.568862208,1.0006606455537124,-148.77526614599412
9.580837888,1.0009397618189013,-149.2320214943817
9.592814592,1.0011749505103242,-149.69214305261585
9.604790272,1.0013551093639141,-150.15499198129925
9.616766976,1.0014715585877807,-150.61980792007435
9.628742656,1.0015186131296,-151.08578838950558
9.640718336,1.0014939020312315,-151.5520571998115
9.65269504,1.0013984924818657,-152.01769403767895
9.66467072,1.001236814414298,-152.4818701159193
9.6766464,1.0010162835004603,-152.94378409392525
9.688623104,1.0007471407345874,-153.40274428902288
9.700598784,1.0004421514600044,-153.85824575063072
9.712574464,1.0001156868323304,-154.3099332863345
9.724551168,0.9997829937583226,-154.75758089134186
9.736526848,0.9994600954733291,-155.2012129740225
9.748502528,0.9991622444625936,-155.64107366895567
9.760479232,0.9989036291559675,-156.07755257837073
9.772454912,0.9986966442316774,-156.5111689831499
9.784431616,0.9985512644270286,-156.94268149962193
9.796407296,0.9984746013238129,-157.37289214678924
9.808382976,0.9984703544137745,-157.80267970008668
9.82035968,0.9985389182285772,-158.2329713873096
9.83233536,0.9986772262443168,-158.66465563262923
9.84431104,0.9988788059882673,-159.0985875050278
9.856287744,0.9991341593053934,-159.5354861388144
9.868263424,0.9994313834274348,-159.97596022696317
9.880239104,0.9997563152779817,-160.42048937972572
9.892215808,1.000093560344999,-160.8692353920934
9.904191488,1.0004272014205642,-161.32234732603538
9.916167168,1.0007414100577512,-161.7796142873328
9.928143872,1.0010212762828787,-162.24073024416035
9.940119552,1.0012534969901359,-162.70517404439278
9.952096256,1.0014270179609879,-163.17230031725907
9.964071936,1.0015334573987758,-163.64130386389994
9.976047616,1.0015674788212348,-164.1113238324501
9.98802432,1.0015276496532077,-164.58143930744342
10.0,1.001415404444653,-165.05075150054415
10.01197568,1.001236082188993,-165.5183538557691
10.023952384,1.000997870801945,-165.98352115615884
10.035928064,1.0007120016804778,-166.44549927135643
10.047903744,1.0003918556172884,-166.90383617094915
10.059880448,1.000052371854746,-167.3581487544771
10.071856128,0.9997099484808878,-167.80830803443476
10.083832832,0.9993803791864722,-168.25435220659762
10.095808512,0.9990795685693613,-168.69654617036093
10.107784192,0.9988219454024704,-169.13534211069137
10.119760896,0.9986197504175518,-169.5713251096202
10.131736576,0.9984828855327315,-170.00527768645958
10.143712256,0.9984177542599728,-170.43804871392715
10.15568896,0.9984278816167189,-170.87054990346164
10.16766464,0.9985127972760572,-171.30376731234935
10.17964032,0.9986686661678849,-171.7385888807156
10.191617024,0.9988883399406949,-172.1758652895927
10.203592704,0.9991613124261356,-172.61634821201065
10.215568384,0.9994749572047575,-173.0606233369911
10.227545088,0.9998142795391962,-173.50909483744724
10.239520768,1.0001632830844946,-173.96202829783496
10.251497472,1.0005054646562708,-174.41938127742418
10.263473152,1.0008245923256958,-174.88100766682433
10.275448832,1.0011054834837863,-175.3465135264616
10.287425536,1.001334874170119,-175.81536127959865
10.299401216,1.0015016887359403,-176.28678577291757
10.311376896,1.0015978832890766,-176.76002155529235
10.3233536,1.0016188831320545,-177.2341126807877
10.33532928,1.0015633961875303,-177.70812862033236
10.34730496,1.0014339161477417,-178.18113128072363
10.359281664,1.0012363930176122,-178.6522274954085
10.371257344,1.0009798951030968,-179.12062780705278
10.383233024,1.0006765719438053,-179.58565616906122
10.395209728,1.00034031859246,179.95320052429432
10.407185408,0.9999874498017408,179.49624707606844
10.419162112,0.9996342944739598,179.04359215718003
10.431137792,0.9992976835425696,178.59519201731032
10.443113472,0.998993676301583,178.1506693208339
10.455090176,0.9987367552483817,177.70960244080817
10.467065856,0.9985393315804444,177.27129640212067
10.479041536,0.9984108754033089,176.8349435052261
10.49101824,0.9983575554446665,176.39963369011446
10.50299392,0.9983823837022343,175.9644318652303
10.5149696,0.9984842066371429,175.52833546332658
10.526946304,0.9986583614773763,175.09041895207685
10.538921984,0.9988966868782302,174.64979082101462
10.550898688,0.9991881672576696,174.2057531907306
10.562874368,0.9995189460536947,173.75768996234538
10.574850048,0.9998734916785313,173.30519684877734
10.586826752,1.0002349873512872,172.84813306067483
10.598802432,1.0005863486532043,172.38646081755087
10.610778112,1.0009109296246241,171.92043567977018
10.622754816,1.0011932864337132,171.45048364278398
10.634730496,1.0014200195967913,170.9772195199729
10.646706176,1.001580117667637,170.50140528763995
10.65868288,1.0016661085987457,170.02391525188662
10.67065856,1.0016736346606592,169.54569677799583
10.68263424,1.0016020295093104,169.0677330642949
10.694610944,1.0014546126797799,168.59101278789655
10.706586624,1.001238130849474,168.11639406384958
10.718563328,1.0009624966711628,167.6447244545226
10.730539008,1.000640773589192,167.17665814761895
10.742514688,1.0002877343914183,166.71270873885032
10.754491392,0.9999204068889314,166.25312375136014
10.766467072,0.9995557181436786,165.79800884843945
