freq,mag,phase
6.0,1.0010003998782226,175.1960873787345
6.002287104,1.00101709639405,175.0322905529888
6.004574208,1.000970190673077,174.8687481380644
6.006861312,1.0008624127276373,174.70634399668228
6.009147904,1.0007001796669892,174.54598086462616
6.011435008,1.0004940125876984,174.38827105383365
6.013722112,1.0002569894708697,174.23384852967806
6.016009216,1.0000040297153756,174.08297216468668
6.01829632,0.9997510944593573,173.93581332811107
6.020583424,0.9995140719965848,173.79229726536713
6.022870016,0.9993084237052744,173.6520041478802
6.02515712,0.999146908904188,173.51444418225876
6.027444224,0.9990398566173125,173.37886744245813
6.029731328,0.998994241867977,173.244413823647
6.032018432,0.99901271685659,173.11023805549615
6.034305536,0.9990943586353741,172.97532485654892
6.036592128,0.9992339247577126,172.8388431906544
6.038879232,0.9994224905433965,172.70003102336665
6.041166336,0.999648141852742,172.5582274789444
6.04345344,0.9998966965642845,172.41299293538628
6.045740544,1.0001521318111104,172.2641617302891
6.048027648,1.000398511166465,172.11169026656032
6.05031424,1.000619902489966,171.95584892078648
6.052601344,1.0008026863968897,171.7971348250219
6.054888448,1.0009350723004558,171.6361333774697
6.057175552,1.0010085995619789,171.4736724289831
6.059462656,1.001018762727402,171.3106568797863
6.06174976,1.0009648677484464,171.1479617053911
6.064036352,1.0008502129952865,170.98654695131455
6.066323456,1.0006820503741976,170.82723327631675
6.06861056,1.0004710543742636,170.67067244204384
6.070897664,1.0002305889850998,170.5174308268878
6.073184768,0.9999757513537387,170.36781285608933
6.075471872,0.9997227516644349,170.22190857109874
6.077758464,0.9994878148651882,170.07961332879924
6.080045568,0.9992855578303127,169.94051980847823
6.082332672,0.9991289810206004,169.8041124819048
6.084619776,0.9990280230723193,169.66955975047188
6.08690688,0.9989890926759571,169.53612072906475
6.089193984,0.9990148284450577,169.40278263388956
6.091481088,0.999103497984793,169.26862217980792
6.09376768,0.9992493699799339,169.13285007418025
6.096054784,0.9994434751747856,168.99461286065903
6.098341888,0.9996733164187236,168.85331043433055
6.100628992,0.9999242339824405,168.70851883686834
6.102916096,1.0001804949003936,168.56010043975766
6.1052032,1.0004257380667165,168.4080775342219
6.107489792,1.0006444455697672,168.2527353022471
6.109776896,1.0008228543956688,168.0945218528981
6.112064,1.000949527280254,167.93414563806368
6.114351104,1.0010165243721898,167.77236212402164
6.116638208,1.0010196093219903,167.61012551509887
6.118925312,1.0009585283337123,167.44835007140034
6.121211904,1.0008371202715203,167.28790391439662
6.123499008,1.0006629202861772,167.12963902720682
6.125786112,1.0004472036042902,166.97424966908562
6.128073216,1.0002034996818765,166.82223023485622
6.13036032,0.9999470789084939,166.67386540287305
6.132647424,0.9996942867939215,166.52925603324806
6.134934016,0.999461442633908,166.38818372797877
6.13722112,0.9992627849409391,166.25033427898884
6.139508224,0.999111424009044,166.11502195522465
6.141795328,0.9990167894904977,165.98156554186787
6.144082432,0.9989848717961692,165.84906210658465
6.146369536,0.9990178253141017,165.71659466166238
6.148656128,0.9991135771828821,165.58322168589078
6.150943232,0.9992659111307276,165.4480801630255
6.153230336,0.9994652395350634,165.31040023196283
6.15551744,0.9996991406485763,165.16958378295558
6.157804544,0.9999524486598399,165.02532158611837
6.160091648,1.000209267926453,164.8773211606783
6.162378752,1.0004532331380713,164.7257432233978
6.164665344,1.0006690101160547,164.57084140787705
6.166952448,1.0008426927302398,164.41315518560785
6.169239552,1.0009635391099072,164.2533819129054
6.171526656,1.0010238937753777,164.09231133568105
6.17381376,1.0010196323772482,163.93089472289762
6.176100864,1.0009513028859056,163.77000325720462
6.178387456,1.000822977751828,163.61058704867793
6.18067456,1.0006430010605554,163.45339963268597
6.182961664,1.0004224649694482,163.2991954718316
6.185248768,1.0001755544311217,163.14839737089477
6.187535872,0.9999177437089577,163.00131163966338
6.189822976,0.9996655490006535,162.85797159434108
6.192109568,0.9994348356017123,162.7181848131962
6.194396672,0.9992402517025522,162.58149571818623
6.196683776,0.9990942083313051,162.44736716842348
6.19897088,0.9990058982628867,162.31495240614473
6.201257984,0.9989813082356853,162.1834475273675
6.203545088,0.9990216838728555,162.05179371942648
6.20583168,0.999124595783916,161.91917915048612
6.208118784,0.9992834531921936,161.78468687130382
6.210405888,0.9994882149622863,161.64757552825455
6.212692992,0.9997258579265391,161.50727756454432
6.214980096,0.9999813339339422,161.36341049606636
6.2172672,1.0002385881788112,161.21587290881345
6.219553792,1.00048099773208,161.06471728171314
6.221840896,1.0006934228668933,160.91031471693987
6.224128,1.000862465299349,160.75317584607367
6.226415104,1.0009770679974783,160.59399183753672
6.228702208,1.0010304526202807,160.43364220865442
6.230989312,1.0010188519176555,160.27300867557244
6.233275904,1.0009431176027301,160.11304416267564
6.235563008,1.000808033486645,159.95464331608343
6.237850112,1.000622040941131,159.79859275809574
6.240137216,1.0003969077213268,159.64558110372406
6.24242432,1.0001469946446437,159.496035695404
6.244711424,0.9998879336196513,159.35023822278387
6.246998528,0.9996363912377427,159.20815460605212
6.24928512,0.9994081882230293,159.06963160455823
6.251572224,0.9992177893357753,158.93418042068444
6.253859328,0.9990774013890144,158.80118448362143
6.256146432,0.9989959687991018,158.66984168334739
6.258433536,0.9989785625646139,158.53924693350106
6.26072064,0.9990264806733093,158.40847093924407
6.263007232,0.9991365331988787,158.27656942561313
6.265294336,0.9993018197808862,158.14271815214113
6.26758144,0.9995119324879984,158.0061790314086
6.269868544,0.9997533803270808,157.8663540646061
6.272155648,1.000010936703471,157.72294238142095
6.274442752,1.0002682283922135,157.5758390505425
6.276729344,1.0005089855701135,157.42509763604107
6.279016448,1.0007179382107505,157.27119051028103
6.281303552,1.0008818139824478,157.11456123004328
6.283590656,1.00099021572433,156.95603096732793
6.28587776,1.0010364057798191,156.79637128450037
6.288164864,1.0010173386933388,156.63657937727973
6.290451456,1.000934115009424,156.47754085049138
6.29273856,1.0007920218269362,156.32018488373456
6.295025664,1.0006000691375059,156.1652601638793
6.297312768,1.000370589534897,156.01344610852
6.299599872,1.0001177273081738,155.8651756872801
6.301886976,0.9998577990416903,155.72068141467332
6.304173568,0.9996070281746613,155.57988342368492
6.306460672,0.9993816285842039,155.44260859206727
6.308747776,0.9991955783778446,155.30837078826485
6.31103488,0.9990610414563116,155.17651946816886
6.313321984,0.9989864408625869,155.0462199848129
6.315609088,0.9989765948053709,154.91659179793376
6.317896192,0.9990320985300037,154.7866141073382
6.320182784,0.9991494669073187,154.65546910113804
6.322469888,0.9993212716784748,154.52222459036298
6.324756992,0.999536606231061,154.38619055540013
6.327044096,0.999781623964284,154.2468474135367
6.3293312,1.0000411159689018,154.10388830540228
6.331618304,1.000298408843536,153.95717773206783
6.333904896,1.0005371569352846,153.80689247403538
6.336192,1.0007423027608557,153.6534244777124
6.338479104,1.000900968675535,153.49737195767273
6.340766208,1.0010027518947362,153.33943245283268
6.343053312,1.0010415110392041,153.1805319331507
6.345340416,1.0010147653356567,153.021573518886
6.347627008,1.0009240109643702,152.86348086523967
6.349914112,1.0007750193022407,152.70716097828273
6.352201216,1.0005773383236258,152.5534084414306
6.35448832,1.000343198418521,152.40280356046443
6.356775424,1.0000876964911494,152.25580291839572
6.359062528,0.9998268990308345,152.11257042275793
6.36134912,0.99957728803129,151.97308778726065
6.363636224,0.9993549579100633,151.8371067764463
6.365923328,0.9991737772734814,151.70408215717814
6.368210432,0.9990452983810545,151.57333603312546
6.370497536,0.9989777810110393,151.44409700685864
6.37278464,0.9989757108431186,151.31535792696184
6.375071232,0.9990388259446868,151.18624950669755
6.377358336,0.9991635661246306,151.05578578972506
6.37964544,0.9993417159723645,150.9231528242629
6.381932544,0.9995621465608325,150.78764316865175
6.384219648,0.999810835051729,150.6487686726591
6.386506752,1.000071809845553,150.50619969432256
6.388793344,1.0003288616544963,150.35989834696844
6.391080448,1.000565369522193,150.2100665316233
6.393367552,1.0007665258563796,150.05706838176607
6.395654656,1.0009195434081277,149.90152212348283
6.39794176,1.0010146042326762,149.74424234173787
6.400228864,1.0010459948057076,149.58607264660185
6.402515968,1.001011304070871,149.42794584274768
6.40480256,1.000912999342042,149.27080662597237
6.407089664,1.0007570229772809,149.11556411169065
6.409376768,1.0005535340630776,148.96295287970221
6.411663872,1.0003151422930632,148.81358920564463
6.413950976,1.000057099169389,148.66784629920005
6.41623808,0.9997956817458551,148.52592096161646
6.418524672,0.9995475557933914,148.38775342007747
6.420811776,0.9993282774681985,148.25302779396748
6.42309888,0.9991520929322207,148.12119374442997
6.425385984,0.9990299601315804,147.9915860898512
6.427673088,0.9989698222861421,147.86336712957677
6.429960192,0.9989755372394762,147.73554163014992
6.432246784,0.9990465968908541,147.60721873474273
6.434533888,0.9991786080739702,147.47743748009822
6.436820992,0.9993633329017784,147.34539704652158
6.439108096,0.9995889095827464,147.2103944691729
6.4413952,0.9998408115233839,147.07195591079244
6.443682304,1.000103303956961,146.92980870679503
6.445968896,1.0003597700890257,146.78389755731686
6.448256,1.0005938124263192,146.63446307579295
6.450543104,1.000790799341991,146.48196312686727
6.452830208,1.0009378423991149,146.3269723065598
6.455117312,1.001026039712362,146.17029504307084
6.457404416,1.0010494831855905,146.01285875700216
6.459691008,1.0010069259802312,145.8556095946172
6.461978112,1.0009008994225845,145.69943293721406
6.464265216,1.0007380530076688,145.54525660708217
6.46655232,1.0005286559582371,145.39380703909453
6.468839424,1.00028613259305,145.2456787965355
6.471126528,1.000025733638615,145.10122799920822
6.473413632,0.9997639788587979,144.96062333869662
6.475700224,0.9995174281105699,144.8237362173311
6.477987328,0.9993018732199881,144.6902635508602
6.480274432,0.9991307620530007,144.55964404183084
6.482561536,0.9990153426800794,144.43114831220336
6.48484864,0.9989626654280335,144.30394540827922
6.487135744,0.998976355552659,144.17700519931492
6.489422336,0.9990553786261067,144.04945344848898
6.49170944,0.9991947550865183,143.92034247208744
6.493996544,0.9993858559557984,143.78884715636858
6.496283648,0.9996162178251999,143.654344830725
6.498570752,0.9998714623688109,143.5163126430726
6.500857856,1.0001352971589255,143.3745477651456
6.503144448,1.0003909002779077,143.22903112406368
6.505431552,1.0006222371528484,143.08004430348433
6.507718656,1.0008145868345129,142.92795980899942
6.51000576,1.0009556066791572,142.77352038787015
6.512292864,1.0010365795247007,142.6175041153143
6.514579968,1.0010521746399748,142.46077780728064
6.51686656,1.0010015311027147,142.304396598702
6.519153664,1.0008877437764818,142.14922003294473
6.521440768,1.0007179876375643,141.99610966592422
6.523727872,1.0005029594260493,141.84584659441532
6.526014976,1.0002564282465896,141.69896487337044
6.52830208,0.999993849810727,141.55581397851972
6.530588672,0.999731926774427,141.41648474209805
6.532875776,0.9994873058236233,141.28093944310442
6.53516288,0.9992755531968568,141.14869907419964
6.537449984,0.9991100186629439,141.01925979361891
6.539737088,0.9990013662673505,140.8918533913091
6.542024192,0.998956374458944,140.76560330440134
6.544310784,0.998978170831879,140.63955036476108
6.546597888,0.9990652579820244,140.51276819296703
6.548884992,0.9992121684908024,140.38429898920754
6.551172096,0.9994095160865751,140.25333568892594
6.5534592,0.9996447248932591,140.11929568885577
6.555746304,0.9999029672591636,139.98168260615338
6.558033408,1.0001678167519323,139.84027732642843
6.56032,1.0004224272126925,139.6951422529623
6.562607104,1.0006507653800183,139.54651727081605
6.564894208,1.0008381302678737,139.3949235831057
6.567181312,1.0009727907893968,139.24101412356464
6.569468416,1.0010462911733267,139.08564685725173
6.57175552,1.0010538778578324,138.9296897756399
6.574042112,1.0009950190496728,138.7741504663726
6.576329216,1.0008734125905163,138.6199502855113
6.57861632,1.0006967715732804,138.46794356829798
6.580903424,1.0004761876141328,138.31885558910994
6.583190528,1.000225711299727,138.17320679870588
6.585477632,0.9999612219458518,138.0313593040454
6.587764224,0.9996994327581612,137.89334881945794
6.590051328,0.9994569382894976,137.75907090595123
6.592338432,0.9992492145884552,137.62810136397644
6.594625536,0.999089550021409,137.49981605429144
6.59691264,0.9989878727933156,137.3734693854338
6.599199744,0.9989509484105917,137.248206297313
6.601486336,0.9989810650675026,137.12302229069638
6.60377344,0.9990762801954234,136.9969832475731
6.606060544,0.9992306384756812,136.86910923592308
6.608347648,0.9994341339729226,136.73867471689587
6.610634752,0.9996741905704399,136.60504876401072
6.612921856,0.9999350693018481,136.46781237810688
6.615208448,1.0002007471560903,136.32677836536746
6.617495552,1.0004541080172258,136.18198149686032
6.619782656,1.0006791169376361,136.03377586699293
6.62206976,1.0008614034465664,135.88261943744266
6.624356864,1.0009895321370272,135.729233163339
6.626643968,1.0010552505393484,135.57447742115798
6.628931072,1.0010545847564418,135.41932291194698
6.631217664,1.0009874142271513,135.26464960641584
6.633504768,1.000857962337254,135.11142645166368
6.635791872,1.000674401318773,134.96052954936067
6.638078976,1.0004484224392436,134.8126271720008
6.64036608,1.0001942300526943,134.66824230909197
6.642653184,0.9999280461089679,134.52765968860277
6.644939776,0.9996665545009622,134.39098343685015
6.64722688,0.9994264799653196,134.2579428920714
6.649513984,0.9992231906470221,134.12820208511513
6.651801088,0.9990694735072744,134.00112257494408
6.654088192,0.9989752636110791,133.8758504409579
6.656375296,0.9989464667845572,133.7515136845671
6.658661888,0.9989849880519035,133.62715243320548
6.660948992,0.9990884768553848,133.50175528762296
6.663236096,0.999250175778801,133.374501188133
6.6655232,0.9994598360827932,133.2445603458484
6.667810304,0.999704393461886,133.1113230435322
6.670097408,0.9999680970558635,132.9744678088641
6.672384,1.0002343629015567,132.83375031835402
6.674671104,1.0004859937253612,132.68932876019784
6.676958208,1.0007073901430654,132.54145147354743
6.679245312,1.000884333036546,132.39075405411927
6.681532416,1.0010055567790639,132.23793348038436
6.68381952,1.0010634305460866,132.08381522946138
6.686106112,1.00105427705019,131.92938402783255
6.688393216,1.0009786900964606,131.77559534977448
6.69068032,1.000841402874299,131.6233910160026
6.692967424,1.0006510583779067,131.47356915602793
6.695254528,1.0004196675592532,131.32685302163856
6.697541632,1.0001618427405061,131.1837017287115
6.699828224,0.9998941890025239,131.0444493296582
6.702115328,0.999633360821706,130.90906010658526
6.704402432,0.9993960937580567,130.7773284075039
6.706689536,0.9991975689456891,130.64879789080155
6.70897664,0.9990501909074593,130.52282201301475
6.711263744,0.9989634363597177,130.398602342944
6.713550848,0.9989429476651845,130.27518724464656
6.71583744,0.998990208203214,130.15162103724919
6.718124544,0.9991018468743708,130.02692639534635
6.720411648,0.999270884253832,129.90022956384007
6.722698752,0.9994867323568697,129.77074878752936
6.724985856,0.9997356424964364,129.6378988422335
6.72727296,1.0000017574666267,129.50134790543635
6.729559552,1.0002682071004914,129.36096601129617
6.731846656,1.000518094101441,129.2168415397344
6.73413376,1.000735554972955,129.06936935679872
6.736420864,1.0009067739425734,128.91909964003924
6.738707968,1.0010208184319462,128.76679061885835
6.740995072,1.0010706284592628,128.6133324465235
6.743281664,1.001052979152255,128.45962426193375
6.745568768,1.0009688682955729,128.30673826553624
6.747855872,1.0008235303996074,128.15551340129622
6.750142976,1.0006264477684201,128.00683832212707
6.75243008,1.0003898256243633,127.86128159392695
6.754717184,1.0001286855928635,127.71942941730659
6.757003776,0.9998597332645008,127.58143321458331
6.75929088,0.99959985479701,127.44733385628045
6.761577984,0.9993656261408144,127.31686438270465
6.763865088,0.9991720345197498,127.18952856487736
6.766152192,0.9990312851709501,127.06468700172996
6.768439296,0.9989525247983315,126.94148678196318
6.770725888,0.9989406480344317,126.81895945136685
6.773012992,0.9989963914326537,126.69617338611138
6.775300096,0.999116421930634,126.572095791333
6.7775872,0.9992929705912528,126.44591737848533
6.779874304,0.9995147779033511,126.3168726381699
6.782161408,0.999767808603672,126.1843980227541
6.784448512,1.0000360892909257,126.0481693168575
6.786735104,1.0003026419723307,125.9080547148325
6.789022208,1.0005503624802268,125.76425625561143
6.791309312,1.0007635074346073,125.61712289195563
6.793596416,1.000928721387786,125.46728338599576
6.79588352,1.0010355182913144,125.31549150960964
6.798170624,1.001076893167262,125.16266896901323
6.800457216,1.0010504980459622,125.00973459721965
6.80274432,1.000957762582298,124.85769759631644
6.805031424,1.0008046801460042,124.70748805651972
6.807318528,1.0006007426017434,124.55991266400807
6.809605632,1.000359170345408,124.41557121537774
6.811892736,1.000094766335036,124.27495319605295
6.814179328,0.9998247826175813,124.13826566405338
6.816466432,0.9995661916423161,124.00544721521604
6.818753536,0.9993353826232555,123.87623415919523
6.82104064,0.999147058267172,123.75007975235285
6.823327744,0.9990132240829382,123.62634487893035
6.825614848,0.9989424509370606,123.50411970514126
6.82790144,0.9989392207497094,123.3824651729289
6.830188544,0.9990038140515086,123.26040715139229
6.832475648,0.9991320627645635,123.13696846395277
6.834762752,0.9993160428010086,123.0112714480685
6.837049856,0.999543791674037,122.88261907279077
6.83933696,0.9998009551514031,122.75047105363274
6.841623552,1.000071199099419,122.61451903317048
6.843910656,1.000337441075028,122.47467839457103
6.84619776,1.0005825826450934,122.33116359599767
6.848484864,1.000791211783823,122.1843790404598
6.850771968,1.0009501185397842,122.03495181664731
6.853059072,1.0010493395980162,121.88368574534486
6.855345664,1.0010821509248495,121.7314702614408
6.857632768,1.0010468001367203,121.57932963885004
6.859919872,1.0009454703685374,121.42820264794679
6.862206976,1.00078445800087,121.27898068524428
6.86449408,1.000573962400402,121.13250321630427
6.866781184,1.0003273768874958,120.98935893640851
6.869068288,1.000060191085109,120.85002290611176
6.87135488,0.9997894585426191,120.71460256062312
6.873641984,0.999532288847606,120.58304630420335
6.875929088,0.9993051467073706,120.4550643548603
6.878216192,0.9991223780486517,120.33010716401465
6.880503296,0.9989958093288019,120.20739422505913
6.8827904,0.9989332968205477,120.0861672799168
6.885076992,0.9989389675162874,119.96532277999299
6.887364096,0.9990125215755556,119.84398688971433
6.8896512,0.9991491781054718,119.72112604666852
6.891938304,0.9993403714805633,119.59591627488959
6.894225408,0.9995737644605328,119.46761385692886
6.896512512,0.9998348398126322,119.33575794391247
6.898799104,1.0001067634331027,119.20006168990344
6.901086208,1.0003724160647616,119.06047505143788
6.903373312,1.0006147655039233,118.91721316490279
6.905660416,1.00081872462476,118.77077107279288
6.90794752,1.0009709788330095,118.6217566988819
6.910234624,1.0010621290998056,118.47098549982714
6.912521216,1.0010862969581071,118.31941847012281
6.91480832,1.0010420318899251,118.16799895266861
6.917095424,1.0009319155616314,118.01778088504095
6.919382528,1.0007629488401362,117.86959013305153
6.921669632,1.000545953755993,117.72421364580524
6.923956736,1.000294553791742,117.58228897590942
