freq,mag,phase
6.0,1.0001035645731842,-32.9914375857574
6.002989568,1.0001519750518457,-33.11884570361933
6.005979136,1.0001902392198192,-33.24695863563919
6.008968704,1.0002166183535102,-33.37547342817184
6.011958272,1.0002292625877032,-33.504336203803895
6.01494784,1.0002277708473393,-33.63333602248791
6.017937408,1.0002117241215718,-33.76222051183725
6.020926976,1.0001821559399866,-33.890815805574135
6.023916544,1.000141229432678,-34.01894803111009
6.0269056,1.0000912055524664,-34.14639188841742
6.029895168,1.0000355404642232,-34.27314554725118
6.032884736,0.9999773893150274,-34.39911370410992
6.035874304,0.9999204703514881,-34.524259557197944
6.038863872,0.9998684497277123,-34.64866667640808
6.04185344,0.9998245689433095,-34.772392655107794
6.044843008,0.9997913930796284,-34.89556255291012
6.047832576,0.999771253475415,-35.01841045994317
6.050822144,0.9997653812079235,-35.141106555296375
6.053811712,0.9997741251920428,-35.26382374933676
6.05680128,0.9997969155027854,-35.38679419144107
6.059790848,0.9998323513955077,-35.51023952925118
6.062780416,0.9998782857097979,-35.63423759536167
6.065769984,0.9999317848368803,-35.759043309930675
6.068759552,0.999989535322985,-35.8846816700737
6.07174912,1.000047956759125,-36.01116953253269
6.074738176,1.0001032795986045,-36.13853363127625
6.077727744,1.0001521166280007,-36.266630089440646
6.080717312,1.0001914858151444,-36.39541333871132
6.08370688,1.0002188631625115,-36.52472621385241
6.086696448,1.0002322037149975,-36.65436592389991
6.089686016,1.000231064482279,-36.78409064963786
6.092675584,1.0002154896437858,-36.913755772119316
6.095665152,1.0001862226524525,-37.04312979082501
6.09865472,1.000145212750346,-37.17201249868746
6.101644288,1.0000951382033363,-37.30027672981612
6.104633856,1.0000386626120805,-37.42775493577654
6.107623424,0.9999796330577512,-37.55447470655928
6.110612992,0.9999219529759135,-37.680381677554905
6.11360256,0.9998687838933028,-37.80552128451471
6.116592128,0.9998238444121942,-37.92997779458681
6.119581696,0.999789737911995,-38.05384523121001
6.122570752,0.9997686483305095,-38.177383663308035
6.12556032,0.9997619837943575,-38.30073231957366
6.128549888,0.9997701771829033,-38.42416661455213
6.131539456,0.9997926289939272,-38.547796773175975
6.134529024,0.9998279660441176,-38.67187893310388
6.137518592,0.9998742541312425,-38.796561650105716
6.14050816,0.999928105526196,-38.92203638229839
6.143497728,0.9999866449247333,-39.04832429316772
6.146487296,1.0000457620982843,-39.17550142914187
6.149476864,1.0001021682215647,-39.30349767038712
6.152466432,1.000152205308322,-39.43238090411751
6.155456,1.0001925261242264,-39.5618878837797
6.158445568,1.0002207975067328,-39.69191557704805
6.161435136,1.0002352725529076,-39.82230233365319
6.164424704,1.0002346958964066,-39.952853736556364
6.167414272,1.0002194036369296,-40.08325319925374
6.17040384,1.0001905649648013,-40.21341835366654
6.173392896,1.0001494866919545,-40.34307067757942
6.176382464,1.0000988856980857,-40.472102194702885
6.179372032,1.0000418044270942,-40.600400120476095
6.1823616,0.9999822714526605,-40.72789065441148
6.185351168,0.99992351341336,-40.85455513468744
6.188340736,0.9998693349971525,-40.98041673079673
6.191330304,0.999823280392086,-41.10554165667471
6.194319872,0.9997881217404558,-41.23016085661643
6.19730944,0.9997660042670931,-41.35437808161606
6.200299008,0.9997587605667662,-41.47844492193463
6.203288576,0.9997663620496929,-41.60248946492474
6.206278144,0.9997884186323475,-41.72681032880676
6.209267712,0.9998237120606479,-41.851517269919015
6.21225728,0.9998700173793255,-41.97686988292066
6.215246848,0.9999243431987777,-42.10299104649176
6.218236416,0.9999835976534787,-42.22999751397263
6.221225472,1.00004372200877,-42.35786959799905
6.22421504,1.00010113145319,-42.486573985279485
6.227204608,1.0001519349160957,-42.61614619335787
6.230194176,1.0001934810591755,-42.74636321179403
6.233183744,1.000222762018374,-42.877174362711116
6.236173312,1.0002381661787265,-43.00830149720781
6.23916288,1.0002385178298958,-43.1395866377758
6.242152448,1.0002236647989644,-43.270801806897005
6.245142016,1.0001948866543469,-43.40173352538833
6.248131584,1.0001538389658415,-43.53219235682999
6.251121152,1.0001028954643165,-43.66201308601275
6.25411072,1.0000452734054885,-43.79107129269547
6.257100288,0.9999849529718421,-43.91929721322017
6.260089856,0.999925281565174,-44.046729496532606
6.263079424,0.9998700172781879,-44.17330636906769
6.266068992,0.9998228983333584,-44.29921291666558
6.269058048,0.9997866590513675,-44.4245134267507
6.272047616,0.9997636007923092,-44.54943006436262
6.275037184,0.9997554705930453,-44.67416919400521
6.278026752,0.9997622797581727,-44.79889248955634
6.28101632,0.999783978593055,-44.92383406866522
6.284005888,0.9998192470978748,-45.04924017889519
6.286995456,0.9998657037751105,-45.1752854050817
6.289985024,0.9999203974911578,-45.30206836929529
6.292974592,0.9999803525828272,-45.42970123987782
6.29596416,1.0000413775951513,-45.55822832626989
6.298953728,1.0000997905990856,-45.68767643080135
6.301943296,1.0001519225719073,-45.81793664508205
6.304932864,1.0001945562601304,-45.94891850792047
6.307922432,1.0002248181180542,-46.080467738616214
6.310912,1.00024116213028,-46.21232617758436
6.313901568,1.0002421971672881,-46.344407744228896
6.316891136,1.000227999439248,-46.47635927885643
6.319880192,1.0001995148910139,-46.60808451850688
6.32286976,1.00015839335226,-46.73933323792826
6.325859328,1.000107054787236,-46.86994455650635
6.328848896,1.0000490150529076,-46.99979749252589
6.331838464,0.9999879145453314,-47.12879543400233
6.334828032,0.9999271819725748,-47.256982864555646
6.3378176,0.9998708676322667,-47.38431883807769
6.340807168,0.9998224239790086,-47.510923793554
6.343796736,0.9997852539914612,-47.63693597315098
6.346786304,0.9997611751510255,-47.762537493675005
6.349775872,0.9997519158990215,-47.88796797552675
6.35276544,0.9997581562341562,-48.01334126746897
6.355755008,0.9997795650736391,-48.13897488703089
6.358744576,0.9998146175257817,-48.265040544377484
6.361734144,0.9998611574292828,-48.39172742078896
6.364723712,0.9999166340155281,-48.519144954884446
6.367712768,0.9999770143328246,-48.64746013203654
6.370702336,1.0000389333008566,-48.77670159301269
6.373691904,1.0000983058038353,-48.90682269447707
6.376681472,1.000151586210896,-49.037810643636575
6.37967104,1.0001953554022498,-49.169489414285415
6.382660608,1.0002267655502357,-49.30175492914268
6.385650176,1.0002440889110242,-49.434407628844184
6.388639744,1.0002459199032496,-49.56723036554649
6.391629312,1.0002322346445136,-49.700021903251034
6.39461888,1.0002041053144608,-49.83251497623209
6.397608448,1.0001630495486413,-49.96454105892097
6.400598016,1.0001114952631092,-50.095962327625564
6.403587584,1.00005294629021,-50.22655867920523
6.406577152,0.9999908073556264,-50.356353391298626
6.40956672,0.9999292869627879,-50.48526405890693
6.412556288,0.9998717544665369,-50.61336602900813
6.415545344,0.9998223544258944,-50.740684836783565
6.418534912,0.9997838605590494,-50.8674219842236
6.42152448,0.9997586836558021,-50.99372412525619
6.424514048,0.9997485722045664,-51.11982353466618
6.427503616,0.9997540931029795,-51.245891225184806
6.430493184,0.9997750679050166,-51.372158760279305
6.433482752,0.9998098106550227,-51.498892145368245
6.43647232,0.9998565994395893,-51.6262152376199
6.439461888,0.9999123516079242,-51.754303431405276
6.442451456,0.999973416065263,-51.88327208679308
6.445441024,1.0000361840347094,-52.01317012208245
6.448430592,1.000096668472593,-52.14402677263897
6.45142016,1.0001510826770856,-52.27567480323944
6.454409728,1.0001960886010135,-52.40812082487469
6.457399296,1.0002288306376814,-52.54108469714214
6.460388864,1.0002469594477723,-52.674522380345024
6.463378432,1.0002496564648276,-52.808145131949566
6.466367488,1.0002367478524627,-52.94165184996818
6.469357056,1.0002087452406137,-53.07498671097214
6.472346624,1.0001676924524558,-53.20775885167414
6.475336192,1.0001160474128186,-53.33996266968923
6.47832576,1.0000570279576921,-53.47134301891967
6.481315328,0.9999941004917341,-53.60191398294523
6.484304896,0.9999314778658721,-53.7315835080224
6.487294464,0.9998729453050552,-53.86043454309588
6.490284032,0.9998222445373324,-53.98851192907539
6.4932736,0.9997824148686809,-54.11595564517262
6.496263168,0.9997562373577692,-54.24295571904777
6.499252736,0.9997451640048839,-54.369733238468775
6.502242304,0.9997499600639408,-54.49643712204419
6.505231872,0.9997703332436874,-54.62335624741593
6.50822144,0.9998051031166421,-54.75072507326501
6.511211008,0.999851800801278,-54.87870847280836
6.514200064,0.9999078666578441,-55.00747615922988
6.517189632,0.9999696524717111,-55.13712957657646
6.5201792,1.0000335054157816,-55.26768390200757
6.523168768,1.00009492488828,-55.3991848140032
6.526158336,1.000150599181539,-55.53158185102947
6.529147904,1.0001967879808797,-55.66469824863749
6.532137472,1.0002306023790508,-55.79844312015799
6.53512704,1.0002500459166017,-55.93260160192073
6.538116608,1.000253649728279,-56.06694875387204
6.541106176,1.0002412786179182,-56.20129660148705
6.544095744,1.0002137077772228,-56.33538241299692
6.547085312,1.0001727458599383,-56.46899207268586
6.55007488,1.0001207836504071,-56.60197464436306
6.553064448,1.0000611760923481,-56.734153736430045
6.556054016,0.9999974855591318,-56.86547409270542
6.559043584,0.9999338858692891,-56.99591788166918
6.56203264,0.9998741895785455,-57.12548429610059
6.565022208,0.999822327571083,-57.25429265162466
6.568011776,0.9997813083032365,-57.38246222318314
6.571001344,0.9997539308590307,-57.510118633212834
6.573990912,0.9997417312224779,-57.63756597673775
6.57698048,0.9997456334826583,-57.76496259949777
6.579970048,0.9997654155610749,-57.89254120735879
6.582959616,0.9997997994799396,-58.02059616780911
6.585949184,0.9998467645457451,-58.149165131638775
6.588938752,0.99990317773728,-58.2785723599683
6.59192832,0.9999655389041805,-58.4088762701826
6.594917888,1.0000302397864735,-58.540108905550674
6.597907456,1.0000928392679438,-58.672310925593194
6.600897024,1.0001498341017536,-58.80537800374463
6.603886592,1.0001972348655728,-58.9391995137055
6.60687616,1.000232179899946,-59.07371034089325
6.609865216,1.0002527247313473,-59.20860442052072
6.612854784,1.0002573716647352,-59.34375643597749
6.615844352,1.0002457204225794,-59.4788458528585
6.61883392,1.0002187958749122,-59.61370492451188
6.621823488,1.0001777705590558,-59.74808027645539
6.624813056,1.0001255651208445,-59.881840472894616
6.627802624,1.000065511512864,-60.014795778446825
6.630792192,1.0000011793585726,-60.14691303491822
6.63378176,0.9999365026629191,-60.27812006125402
6.636771328,0.9998755791363031,-60.408442511570904
6.639760896,0.9998223987159783,-60.53797086514798
6.642750464,0.9997801126188565,-60.666824836725304
6.645740032,0.9997514720801581,-60.795179556962964
6.6487296,0.999738268628019,-60.923296519829265
6.651719168,0.9997413573855358,-61.051368246193746
6.654708736,0.9997604331224391,-61.179611648558506
6.657698304,0.9997946448870982,-61.30823335996809
6.66068736,0.9998414251222569,-61.437510266453586
6.663676928,0.9998982697429426,-61.56754631012805
6.666666496,0.9999614627592707,-61.698476637382846
6.669656064,1.0000268461699684,-61.83037948733752
6.672645632,1.0000906497796673,-61.96324417185624
6.6756352,1.0001487619119551,-62.096982157867245
6.678624768,1.0001975039884567,-62.23156118067432
6.681614336,1.0002339486948395,-62.36675788709394
6.684603904,1.0002556702093421,-62.50238013229097
6.687593472,1.000261253948376,-62.63827770060825
6.69058304,1.0002503826844926,-62.77415381789173
6.693572608,1.0002238311473168,-62.90982396014548
6.696562176,1.0001830499942053,-63.044985845304595
6.699551744,1.0001307576159195,-63.17952754222374
6.702541312,1.0000700696084133,-63.31326537531622
6.70553088,1.0000049119084673,-63.446169670001034
6.708519936,0.9999393212982496,-63.5781031969163
6.711509504,0.9998771310298291,-63.70914042266892
6.714499072,0.9998226074628637,-63.83941320812141
6.71748864,0.999779093202171,-63.968975340130676
6.720478208,0.9997491758682698,-64.09805510014407
6.723467776,0.9997348448054845,-64.22678983915768
6.726457344,0.9997369591016889,-64.3555324011864
6.729446912,0.9997554636834614,-64.48439479009627
6.73243648,0.9997892090732363,-64.61369507384268
6.735426048,0.9998360840984853,-64.74358662330052
6.738415616,0.9998932571343074,-64.87422644615326
6.741405184,0.9999569666439321,-65.00580960806593
6.744394752,1.0000234134040427,-65.13834679957202
6.74738432,1.0000883514931955,-65.27185766703212
6.750373888,1.0001475691016315,-65.40630297287383
6.753363456,1.000197811083482,-65.54156585396869
6.756352512,1.0002355267619683,-65.67751664390327
6.75934208,1.0002584605924074,-65.81389314642577
6.762331648,1.0002650186578625,-65.95053664067385
6.765321216,1.0002550066823577,-66.08717243135635
6.768310784,1.00022905223302,-66.22357396500209
6.771300352,1.0001885074304608,-66.3595166640848
6.77428992,1.0001360364751954,-66.49486276150938
6.777279488,1.0000748598520954,-66.62939616349098
6.780269056,1.0000089827006444,-66.76304918236823
6.783258624,0.9999421531380287,-66.89575888856832
6.786248192,0.9998790578200841,-67.02753341809093
6.78923776,0.9998231592260022,-67.15851004730503
6.792227328,0.9997781316712228,-67.28878066693608
6.795216896,0.9997469094266529,-67.4185393695266
6.798206464,0.9997314341667544,-67.54795082339925
6.801196032,0.9997325366220337,-67.67730151048808
6.8041856,0.9997504036971214,-67.80681155843916
6.807174656,0.9997838049571277,-67.93673357309098
6.810164224,0.999830646589859,-68.06722991714265
6.813153792,0.9998880312053149,-68.19853692052378
6.81614336,0.9999523081032897,-68.3307383409523
6.819132928,1.0000196404938206,-68.4639024418485
6.822122496,1.00008576089818,-68.5980987413314
6.825112064,1.0001465140488528,-68.73319609329133
6.828101632,1.0001979720746763,-68.86914256096424
6.8310912,1.0002369639260988,-69.00580284171657
6.834080768,1.000261187564427,-69.14290946875266
6.837070336,1.0002690692156109,-69.28029156668529
6.840059904,1.0002597638488926,-69.41767330388518
6.843049472,1.000234353427796,-69.55486702083478
6.84603904,1.0001940677222578,-69.69161725258631
6.849028608,1.0001415538337668,-69.82768760677685
6.852018176,1.000080058144693,-69.96301887192516
6.855007232,1.0000132723492388,-70.09741779161793
6.8579968,0.9999454452469174,-70.23088803759327
6.860986368,0.9998809148293584,-70.36339650500784
6.863975936,0.9998237831868003,-70.49506794234098
6.866965504,0.9997773668255152,-70.6260431127386
6.869955072,0.9997448241077994,-70.75647011773803
6.87294464,0.9997280949002405,-70.88653403987665
6.875934208,0.9997281849125911,-71.0165480894822
6.878923776,0.999745215806243,-71.1466857506961
6.881913344,0.9997781327489249,-71.27720703163752
6.884902912,0.999824983003193,-71.40831827513465
6.88789248,0.9998824997459607,-71.54024240185018
6.890882048,0.9999475791687094,-71.67303007551645
6.893871616,1.0000158896831846,-71.80682891085826
6.896861184,1.0000830084187813,-71.94167707666544
6.899850752,1.0001449758438619,-72.07745671869374
6.902839808,1.0001979926094147,-72.21409853559204
6.905829376,1.0002384019755113,-72.35142890940149
6.908818944,1.0002639213652744,-72.48927126447687
6.911808512,1.0002729162876156,-72.62736056850366
6.91479808,1.000264702662948,-72.765525510367
6.917787648,1.0002399033320948,-72.90347404860795
6.920777216,1.000199954519081,-73.0410091577886
6.923766784,1.0001472898931942,-73.17784379295368
6.926756352,1.0000852608847695,-73.31394489362879
6.92974592,1.0000177875025191,-73.44909488949575
6.932735488,0.999948918930415,-73.5832957211222
6.935725056,0.9998832131140963,-73.71654493404274
6.938714624,0.9998246555324656,-73.84896324492667
6.941704192,0.9997766801134581,-73.98061012261815
6.94469376,0.999742766307097,-74.1116858966784
6.947683328,0.9997247404954751,-74.24240445283625
6.950672896,0.9997236568736044,-74.37301725514615
6.953661952,0.9997400789863403,-74.50378273424053
6.95665152,0.9997724640191636,-74.6349428811403
6.959641088,0.9998189836779818,-74.76663978560813
6.962630656,0.9998770019700198,-74.89912740802977
6.965620224,0.9999424935422324,-75.03258428879515
6.968609792,1.0000117339263392,-75.16699908451575
6.97159936,1.0000800206346976,-75.30244132789736
6.974588928,1.0001434939337188,-75.43885434441725
6.977578496,1.0001977883201032,-75.57617102079782
6.980568064,1.0002397477477607,-75.71420447883435
6.983557632,1.0002666451697704,-75.85273497170375
6.9865472,1.000276963384685,-75.99156834119692
6.989536768,1.000269639155086,-76.13049800419873
6.992526336,1.000245532769202,-76.26920394548142
6.995515904,1.0002058212208094,-76.40746650528577
6.998505472,1.0001531675377946,-76.54509671184762
7.001494528,1.0000907309304237,-76.68193926418452
7.004484096,1.000022545804691,-76.81784122639847
7.007473664,0.9999526059308659,-76.95278738785832
7.010463232,0.9998856484383198,-77.08677274780729
7.0134528,0.9998255303330754,-77.21984222156307
7.016442368,0.9997760860801469,-77.35217131670115
7.019431936,0.999740771885432,-77.48392837575751
7.022421504,0.9997213385791325,-77.6152703964152
7.025411072,0.9997192354093779,-77.7465364363562
7.02840064,0.9997345376673873,-77.87790920104462
7.031390208,0.9997664500526078,-78.0096005362518
7.034379776,0.9998130187140708,-78.14193220196549
7.037369344,0.999871059350081,-78.27504331967502
7.040358912,0.9999371147511142,-78.40902147321574
7.04334848,1.0000072274468579,-78.54405024702743
7.046338048,1.000076820232262,-78.68013632227235
7.049327104,1.000141550957606,-78.8171862429491
7.052316672,1.0001974265973315,-78.95516265548316
7.05530624,1.0002409044684994,-79.09384080992744
7.058295808,1.0002693220729604,-79.233105354543
7.061285376,1.000280783959325,-79.37267641320835
7.064274944,1.0002745476424029,-79.51229752608045
7.067264512,1.000251171823763,-79.65176578753564
7.07025408,1.0002119604406001,-79.79076458220358
7.073243648,1.000159200605325,-79.92916910697866
7.076233216,1.0000963878890667,-80.06676760779759
7.079222784,1.0000274374178815,-80.20337591387508
7.082212352,0.9999566077602975,-80.33910917918276
7.08520192,0.9998881855542634,-80.47376774910211
7.088191488,0.9998266841385802,-80.60756229545309
7.091181056,0.9997757919615531,-80.74057886983095
7.094170624,0.9997386558154725,-80.87297085659556
7.097160192,0.9997179532294543,-81.00495989136304
7.100149248,0.9997147083448626,-81.13681077403314
7.103138816,0.9997290819504107,-81.26876597222513
7.106128384,0.9997604504821836,-81.40103738581575
7.109117952,0.9998067846797134,-81.5339509554875
7.11210752,0.999864945589443,-81.66762879718718
7.115097088,0.9999316546453066,-81.80221056918502
7.118086656,1.0000026414706298,-81.93783456164158
7.121076224,1.0000734022829747,-82.0744996484462
7.124065792,1.000139557975881,-82.21218059045738
7.12705536,1.000196877389626,-82.35076449010373
7.130044928,1.0002420188251366,-82.49013828345154
7.133034496,1.0002719256486263,-82.63005628520925
7.136024064,1.0002846970257944,-82.77033065679952
7.139013632,1.0002796243047267,-82.91070859299616
7.1420032,1.0002569149281428,-83.0508816482037
7.144992768,1.0002181204346607,-83.19064835853906
7.147981824,1.0001655423138613,-83.32977462492494
7.150971392,1.0001022943705875,-83.4681388166288
7.15396096,1.000032704175111,-83.60550770747616
7.156950528,0.9999607599773193,-83.74189662731838
7.159940096,0.9998910816036866,-83.87730321829272
7.162929664,0.999828014243843,-84.01177459980718
7.165919232,0.9997755384486324,-84.14543019844017
7.1689088,0.9997370171842103,-84.27847809904425
7.171898368,0.9997146746821264,-84.41107516604775
7.174887936,0.9997101465523385,-84.54353032599508
7.177877504,0.9997236022448375,-84.67605349194471
7.180867072,0.9997543128120729,-84.80891435335987
7.18385664,0.9998001515636814,-84.94238675847
7.186846208,0.999858596214438,-85.07660115211822
7.189835776,0.9999259087686894,-85.21175872403329
7.192825344,0.9999977884513859,-85.34793561042524
7.1958144,1.0000696794254298,-85.48518849392393
7.198803968,1.0001372091431464,-85.62349213583565
7.201793536,1.0001963260957267,-85.7627117417953
