freq,mag,phase
6.0,0.9993157093584523,178.61635382253257
6.002285568,0.9992744914034619,178.4756498561848
6.004571648,0.9992791097747222,178.33521613170697
6.006857216,0.9993293632091633,178.19439587067876
6.009142784,0.9994221313949275,178.05251855767315
6.011428352,0.9995514559569177,177.90905895924212
6.013714432,0.9997093904747099,177.76348250360783
6.016,0.999885636718784,177.6155047994234
6.018285568,1.0000691819396041,177.4649083804347
6.020571648,1.0002485316654728,177.31167752335034
6.022857216,1.0004121690535988,177.1559642206237
6.025142784,1.0005497686201106,176.99808616172936
6.027428352,1.000652773668328,176.83844173341257
6.029714432,1.0007145631657908,176.677618785937
6.032,1.0007311141256288,176.51623225232152
6.034285568,1.0007016427274118,176.35493271358095
6.036571648,1.0006277245700999,176.19438699988106
6.038857216,1.0005141801049764,176.03518794391383
6.041142784,1.0003681571651346,175.87788991216556
6.043428352,1.0001988646462527,175.72290385109122
6.045714432,1.000016912346454,175.57044001166292
6.048,0.9998338535655249,175.42065755764347
6.050285568,0.9996612818894488,175.27343008993262
6.052571648,0.9995102404984728,175.12858498274724
6.054857216,0.9993900490700443,174.98569820407087
6.057142784,0.9993084219301424,174.84431786975344
6.059428352,0.9992707846520895,174.70379595568224
6.061714432,0.9992791167030675,174.56346733537725
6.064,0.9993332137805909,174.4227168774292
6.066285568,0.9994296523922931,174.28087910840074
6.068571648,0.9995621045834192,174.13736847131068
6.070857216,0.9997225499030138,173.9917272276084
6.073142784,0.9999004043085,173.8436592506823
6.075428352,1.0000846852445995,173.6929446951443
6.077714432,1.0002637210987215,173.5396085219068
6.08,1.0004261634179934,173.3837766206135
6.082285568,1.0005616891201154,173.22581683811464
6.084571648,1.0006618510291894,173.06613649142486
6.086857216,1.0007200191409702,172.90531545037234
6.089142784,1.0007330200054805,172.7439715804078
6.091428352,1.0006995744277698,172.5827849210038
6.093714432,1.0006219076873597,172.42239488318987
6.096,1.0005050323371223,172.26343131204732
6.098285568,1.0003562056503743,172.10639500800315
6.100571648,1.0001848317855628,171.9516886453388
6.102857216,1.0000016949427628,171.79957468880679
6.105142784,0.9998184692142645,171.65009923334523
6.107428352,0.9996467058169276,171.50322299485575
6.109714432,0.9994972870323954,171.3586932241065
6.112,0.9993796428514575,171.21610461461162
6.114285568,0.9993013263701164,171.07495446308667
6.116571648,0.999267204014058,170.93461381348922
6.118857216,0.9992796132136664,170.79444981677548
6.121142784,0.9993375860933563,170.6537579800169
6.123428352,0.999437464091707,170.5119486107819
6.125714432,0.9995731023812133,170.3684069326868
6.128,0.9997358053525681,170.22273683479494
6.130285568,0.9999152906184162,170.07454702823787
6.132571648,1.0001002684140674,169.92375125557075
6.134857216,1.0002788033328296,169.77027653235075
6.137142784,1.0004399478815575,169.6143840344249
6.139428352,1.0005734643984445,169.4563382599535
6.141714432,1.0006705601507258,169.29662467566413
6.144,1.0007254482535326,169.1358121217303
6.146285568,1.000734479451724,168.97455374065208
6.148571648,1.0006971997603495,168.8134872696067
6.150857216,1.0006158207863105,168.6533205951851
6.153142784,1.0004955331151082,168.4945533314058
6.155428352,1.0003439186034673,168.3378090138428
6.157714432,1.0001704914840905,168.183422106918
6.16,0.9999863355543048,168.03163905914639
6.162285568,0.9998030158193923,167.88249288262253
6.164571648,0.9996320794508824,167.7359640173516
6.166857216,0.9994843911171538,167.5917588888266
6.169142784,0.9993693966127337,167.44945109725006
6.171428352,0.9992943549137737,167.30854262129213
6.173714432,0.9992640574518936,167.16842861277235
6.176,0.9992802105579073,167.02838734677727
6.178285568,0.9993419876401465,166.8878099314471
6.180571648,0.9994456172865307,166.74601008361762
6.182857216,0.9995842529800395,166.60247928687292
6.185142784,0.9997493705791809,166.45673306728088
6.187428352,0.9999304868228788,166.30847631141327
6.189714432,1.0001159810147975,166.1575723129062
6.192,1.0002940861647094,166.0040455807875
6.194285568,1.0004538641427272,165.8480466071479
6.196571648,1.0005850541373966,165.6899481250236
6.198857216,1.0006792042113986,165.53021836612896
6.201142784,1.0007305750235516,165.36943458641727
6.203428352,1.0007358328717453,165.2082652849301
6.205714432,1.0006945560152705,165.04734542494563
6.208,1.000609395077009,164.8873645585326
6.210285568,1.0004859024841326,164.728856632687
6.212571648,1.0003314467902762,164.5723847550769
6.214857216,1.0001561524348912,164.41833626614505
6.217142784,0.9999708964272462,164.26690048709023
6.219428352,0.9997875304931763,164.11814632624245
6.221714432,0.9996175932208394,163.97197604502833
6.224,0.9994718186255236,163.82808199150745
6.226285568,0.9993595047026514,163.6860660213322
6.228571648,0.9992876804465445,163.54543457905743
6.230857216,0.9992610396549432,163.40552964687882
6.233142784,0.9992812339539078,163.26564473158058
6.235428352,0.9993469650320497,163.12513692045403
6.237714432,0.999454063047524,162.98339627846934
6.24,0.9995958447827339,162.83985758272598
6.242285568,0.9997632374083296,162.69407784821107
6.244571648,0.9999457297392732,162.54575022261818
6.246857216,1.000131716319454,162.39475953211485
6.249142784,1.0003094878808187,162.24111928465163
6.251428352,1.0004677267020534,162.08507774946017
6.253714432,1.0005965607980167,161.92694470759056
6.256,1.0006876474579918,161.76720569491806
6.258285568,1.0007353801302363,161.60646965626455
6.260571648,1.0007367070391435,161.44540003317326
6.262857216,1.0006915002906038,161.28463088895526
6.265142784,1.000602637867506,161.12484140906048
6.267428352,1.000475603669821,160.96662456231456
6.269714432,1.0003185697915125,160.81047969280183
6.272,1.0001413597262676,160.6567715688509
6.274285568,0.9999552826820818,160.50568211664788
6.276571648,0.9997719019296407,160.35732469940837
6.278857216,0.9996029304034618,160.21149090907676
6.281142784,0.9994591718045529,160.067959183473
6.283428352,0.9993495462574985,159.9262587794098
6.285714432,0.9992812640119711,159.78589654788087
6.288,0.9992583975110734,159.64617403385776
6.290285568,0.9992824802894491,159.5064709911859
6.292571648,0.9993521553692286,159.36608143394102
6.294857216,0.9994627772262815,159.22440017478095
6.297142784,0.9996076085134938,159.08083391418106
6.299428352,0.9997773646048057,158.9350386785699
6.301714432,0.999961330615254,158.78665062259094
6.304,1.0001476581398399,158.6355516134324
6.306285568,1.000324779784894,158.48184048045553
6.308571648,1.0004815085545475,158.32572779230944
6.310857216,1.0006079274879582,158.16757893240913
6.313142784,1.0006958947456661,158.00786489375835
6.315428352,1.0007400411324299,157.84719126268072
6.317714432,1.000737416369037,157.6862101119534
6.32,1.0006882147154519,157.525636053958
6.322285568,1.0005955331743073,157.36609397732155
6.324571648,1.0004652908298857,157.20813582531702
6.326857216,1.000305531808359,157.0523312721008
6.329142784,1.0001264901126776,156.8989648148011
6.331428352,0.9999394744175691,156.74826444399736
6.333714432,0.9997562264406156,156.6002742147049
6.336,0.9995884368596056,156.4548465259133
6.338285568,0.9994466221779359,156.31166640473327
6.340571648,0.9993397997221084,156.17031403795298
6.342857216,0.999274836964654,156.03017349562504
6.345142784,0.9992559460908045,155.8907186300341
6.347428352,0.9992840353932189,155.7511503227976
6.349714432,0.9993575838634045,155.61086221843917
6.352,0.9994718690777469,155.46922664221174
6.354285568,0.9996195725644887,155.32570605492367
6.356571648,0.9997915245952764,155.179854453818
6.358857216,0.9999767438391253,155.03140592938706
6.361142784,1.0001635752661149,154.88024985528136
6.363428352,1.0003401105029288,154.72650264240485
6.365714432,1.0004952441811592,154.57032559657532
6.368,1.0006190648854412,154.4121614687351
6.370285568,1.0007039561040882,154.25246243042642
6.372571648,1.000744250433319,154.09185698885227
6.374857216,1.0007377383622735,153.93103187401042
6.377142784,1.0006845356177614,153.77063325489019
6.379428352,1.0005881617161096,153.6113145596
6.381714432,1.0004544864154472,153.45367694248293
6.384,1.0002922681381488,153.2981965939141
6.386285568,1.0001114424964834,153.14521271774584
6.388571648,0.999923481608802,152.99489934518735
6.390857216,0.9997405194432364,152.84731599624752
6.393142784,0.9995739081787955,152.70225081906975
6.395428352,0.9994341430400578,152.55942723968468
6.397714432,0.9993303339528534,152.4184001181342
6.4,0.9992688105685262,152.278563628988
6.402285568,0.9992537297100877,152.1393136562645
6.404571648,0.9992859252461542,151.99995919573138
6.406857216,0.9993633877796745,151.8597867760864
6.409142784,0.9994812189280982,151.7182084794917
6.411428352,0.9996319771738539,151.57467051412695
6.413714432,0.9998061124049902,151.4287837611747
6.416,0.9999926703447671,151.2802945573012
6.418285568,1.0001796563146224,151.12911324310912
6.420571648,1.000355352668612,150.97528568053724
6.422857216,1.0005088392396042,150.81906934227143
6.425142784,1.0006301273736256,150.66088665784366
6.427428352,1.000711817636834,150.50122965842752
6.429714432,1.0007483267141126,150.3407101600773
6.432,1.0007377937164157,150.18000502710458
6.434285568,1.0006805941881087,150.01982082779423
6.436571648,1.0005804170575576,149.86079588765818
6.438857216,1.0004434918416851,149.70345896482343
6.441142784,1.000278585013527,149.54834909569425
6.443428352,1.0000960285876725,149.39572281952942
6.445714432,0.9999073863846185,149.2458075685452
6.448,0.9997246223022829,149.09865005628558
6.450285568,0.9995592469269553,148.95396954521024
6.452571648,0.9994217611766563,148.81152660787964
6.454857216,0.9993208293247051,148.67083765648866
6.457142784,0.9992629835607736,148.53129752646612
6.459428352,0.9992517575877226,148.39228706590728
6.461714432,0.9992880209831045,148.25306247564924
6.464,0.9993693839655828,148.1130374519536
6.466285568,0.9994907860109662,147.97150512304492
6.468571648,0.999644549258913,147.82801268078782
6.470857216,0.9998207903676086,147.68212560795047
6.473142784,1.0000084113484433,147.53360379210332
6.475428352,1.000195664085687,147.38233325275152
6.477714432,1.0003706721042747,147.22845917594896
6.48,1.0005222794540016,147.0722482353021
6.482285568,1.0006410174085885,146.91403236723946
6.484571648,1.0007192498362567,146.75444460613159
6.486857216,1.000752070433686,146.5940198430716
6.489142784,1.000737417195984,146.433479295893
6.491428352,1.0006762594596268,146.2735040595983
6.493714432,1.0005722283057945,146.11472741351915
6.496,1.000432093133872,145.95773455533424
6.498285568,1.000264683472007,145.80296904173795
6.500571648,1.0000804577430729,145.65076147553688
6.502857216,0.9998911153797322,145.5012809280101
6.505142784,0.9997086636962836,145.3545260166936
6.507428352,0.999544754711119,145.21025091389632
6.509714432,0.9994094145738622,145.06818667575484
6.512,0.9993116824987958,144.92782741179315
6.514285568,0.9992574601566712,144.7886081122799
6.516571648,0.9992503200939947,144.64979669127413
6.518857216,0.9992905259165253,144.51080370321287
6.521142784,0.9993758976201644,144.37086811946827
6.523428352,0.9995009227297134,144.22942196053353
6.525714432,0.9996574082133809,144.08592265331222
6.528,0.9998357249687416,143.94002569534356
6.530285568,1.0000246109594406,143.79146251736776
6.532571648,1.0002119725190364,143.64015395159234
6.534857216,1.0003859787509992,143.48625307171153
6.537142784,1.0005358795002297,143.33000338350982
6.539428352,1.0006518036333865,143.1718212815035
6.541714432,1.0007266823854213,143.01226605060998
6.544,1.0007556339697883,142.8519614174038
6.546285568,1.0007368731121333,142.69161226386484
6.548571648,1.000671525586321,142.5318626464272
6.550857216,1.0005637839883073,142.37336070252442
6.553142784,1.0004205518958016,142.2167153158837
6.555428352,1.000250487549919,142.0623252745094
6.557714432,1.0000647061490777,141.91052679248963
6.56,0.9998748357952252,141.7614674528417
6.562285568,0.9996927846540525,141.61511530597826
6.564571648,0.9995302624896397,141.4712960231757
6.566857216,0.9993973598705779,141.32962134852997
6.569142784,0.9993026809258977,141.18960131061775
6.571428352,0.999252152037151,141.05065286924645
6.573714432,0.9992490195566799,140.912110387302
6.576,0.9992935401039251,140.77327931063613
6.578285568,0.9993827717758146,140.6334817248285
6.580571648,0.999511231960013,140.49209442425212
6.582857216,0.9996706412560309,140.34865533101805
6.585142784,0.9998510202056781,140.2027196811346
6.587428352,1.0000409584289198,140.0541433271907
6.589714432,1.0002283686991547,139.90278147485475
6.592,1.0004014309937355,139.74884668210242
6.594285568,1.0005491998494394,139.59258805391656
6.596571648,1.0006623445626839,139.43444082865614
6.598857216,1.0007336857345766,139.27495719515667
6.601142784,1.000758742725843,139.11476453528368
6.603428352,1.0007359041918167,138.95458640384794
6.605714432,1.0006664997663344,138.79507310389948
6.608,1.0005550828515117,138.63689048279429
6.610285568,1.0004084048095163,138.48059335722039
6.612571648,1.000235994726096,138.32658682069908
6.614857216,1.000048767251131,138.17521988417835
6.617142784,0.9998582231346015,138.02658805718238
6.619428352,0.9996768047423575,137.88067756066906
6.621714432,0.999515740054996,137.73727965963917
6.624,0.9993853530722178,137.59600799738683
6.626285568,0.9992938662522758,137.45633939147814
6.628571648,0.999247111665025,137.3177024854772
6.630857216,0.9992481074505201,137.17939731568518
6.633142784,0.9992967617912822,137.0407538423512
6.635428352,0.9993899230667129,136.9010816052427
6.637714432,0.9995219176913023,136.75979502412437
6.64,0.9996841573247075,136.61633981520137
6.642285568,0.9998665872221518,136.47042069153244
6.644571648,1.0000575025996636,136.32178511632063
6.646857216,1.0002448753367101,136.17041821748404
6.649142784,1.0004168137598357,136.01643281946755
6.651428352,1.0005625279272268,135.86017205297978
6.653714432,1.0006728301911545,135.7020597995111
6.656,1.0007405450148377,135.54266917854153
6.658285568,1.0007615947918036,135.3826151743815
6.660571648,1.0007346129046497,135.2226322460882
6.662857216,1.00066112064768,135.06338620355552
6.665142784,1.0005459233911234,134.90549379589544
6.667428352,1.0003961119223097,134.7495398026313
6.669714432,1.0002213412373953,134.59595835705065
6.672,1.0000324408954837,134.44500985831854
6.674285568,0.9998417019597315,134.29682518900398
6.676571648,0.9996607235014897,134.1513803835336
6.678857216,0.9995012831702622,134.008382921696
6.681142784,0.9993734164728659,133.8675083916122
6.683428352,0.9992852834813922,133.72821275348957
6.685714432,0.9992423107220734,133.58986983883852
6.688,0.9992474275622593,133.45183760005818
6.690285568,0.9993003066187777,133.31338038304762
6.692571648,0.9993974610172436,133.1738315170309
6.694857216,0.9995328966680522,133.03260714902237
6.697142784,0.9996979628800614,132.88921636789178
6.699428352,0.9998823291447418,132.74328563938886
6.701714432,1.0000741351587468,132.594608490294
6.704,1.0002614141611146,132.44322016082296
6.706285568,1.0004321886703191,132.28921371481957
6.708571648,1.0005759138090178,132.13295408305476
6.710857216,1.0006830031304368,131.97487937598754
6.713142784,1.0007471874532716,131.81557196379686
6.715428352,1.0007641692440947,131.65567703947295
6.717714432,1.0007330164129362,131.49588764701969
6.72,1.0006554357133324,131.33690642350766
6.722285568,1.00053642749743,131.17935624855176
6.724571648,1.0003834838760493,131.02376529932909
6.726857216,1.0002063649419133,130.87059950961842
6.729142784,1.0000160576928214,130.72010472168895
6.731428352,0.9998248487319633,130.57238726647893
6.733714432,0.9996446152353351,130.42736047125734
6.736,0.9994869395319147,130.284812083985
6.738285568,0.9993617025724184,130.1443433478453
6.740571648,0.999276797089488,130.00541440185984
6.742857216,0.9992378663398517,129.86739228929287
6.745142784,0.9992472146150081,129.72958006843882
6.747428352,0.9993042563282799,129.59130937003033
6.749714432,0.9994054375289246,129.45190670752189
6.752,0.9995443773416047,129.3107337232609
6.754285568,0.9997121538034522,129.16737884055289
6.756571648,0.9998983429911449,129.02145534405034
6.758857216,1.000090980927623,128.8727771594029
6.761142784,1.0002780184795443,128.7213496685416
6.763428352,1.0004476878155235,128.56733290729986
6.765714432,1.0005889363493818,128.41108090118902
6.768,1.0006931393175127,128.25304932039586
6.770285568,1.0007536091256992,128.09383541092512
6.772571648,1.0007664973612904,127.93409875570315
6.774857216,1.000731018779092,127.77453151730714
6.777142784,1.0006492784930567,127.61582109839063
6.779428352,1.000526406858617,127.45859537979103
6.781714432,1.0003705514190302,127.30341785650118
6.784,1.000191012483798,127.15065334306487
6.786285568,0.9999995383461684,127.00060305158397
6.788571648,0.9998079359533629,126.85334491807099
6.790857216,0.9996285015471601,126.7088022169063
6.793142784,0.9994726040848435,126.56671157495687
6.795428352,0.9993501393009145,126.42663393175368
6.797714432,0.9992687110647045,126.28806553544932
6.8,0.9992337228321939,126.15034409053787
6.802285568,0.999247238528791,126.01279333322294
6.804571648,0.999308519021907,125.87472835628098
6.806857216,0.999413697569796,125.7354337661648
6.809142784,0.9995560412462066,125.59436987950345
6.811428352,0.9997266473540679,125.45102344087825
6.813714432,0.999914634858718,125.30509902508794
6.816,1.0001080346983977,125.1563917259986
6.818285568,1.0002946746881989,125.00493726192366
6.820571648,1.0004628699846732,124.85092326346263
6.822857216,1.0006019775241721,124.69467820838673
6.825142784,1.0007029462798183,124.53670268183843
6.827428352,1.0007596653908002,124.37761181425695
6.829714432,1.0007683356598909,124.21802068884124
6.832,1.000728641278131,124.05869464068958
6.834285568,1.0006426865693931,123.90027529769635
6.836571648,1.0005162026723127,123.74340204984708
6.838857216,1.000357149038771,123.58860045524341
6.841142784,1.0001753301288494,123.43629148279476
6.843428352,0.9999825852359193,123.28668866049495
6.845714432,0.999790853808035,123.13990611776111
6.848,0.999612278563508,122.99582090830815
6.850285568,0.9994582766658133,122.85416184514933
6.852571648,0.9993385609586195,122.71451330221224
6.854857216,0.999260747638443,122.57628866735216
6.857142784,0.9992298580909156,122.4389102176337
6.859428352,0.9992476030221117,122.30161496399134
6.861714432,0.9993131914303771,122.16371553238181
6.864,0.9994222538093825,122.02457229388527
6.866285568,0.9995681554325281,121.8835640801975
6.868571648,0.9997413065409521,121.74024366526133
6.870857216,0.9999310878061966,121.59432250544694
6.873142784,1.00012521520767,121.44560668171424
6.875428352,1.0003115846312356,121.29413809860037
6.877714432,1.0004783044528074,121.14010329236538
6.88,1.0006149583322095,120.9838840667993
6.882285568,1.0007127324443146,120.82598870303586
6.884571648,1.0007654694993626,120.66700431473669
6.886857216,1.0007700362252272,120.50758990932417
6.889142784,1.0007258321154264,120.3484869924107
6.891428352,1.0006359006053847,120.19036188182075
6.893714432,1.0005056422883136,120.03383640511154
6.896,1.0003435216171754,119.87944945366637
6.898285568,1.000159604649432,119.7275723452356
6.900571648,0.9999655471271948,119.57846658956103
6.902857216,0.9997737107503508,119.43215736445887
6.905142784,0.9995961084089707,119.2885435995744
6.907428352,0.9994441410013647,119.14733226101194
6.909714432,0.9993273197924601,119.00811263027477
6.912,0.9992531587329118,118.87026329965553
6.914285568,0.9992262071261145,118.73317931576793
6.916571648,0.9992484067308162,118.59612275911738
6.918857216,0.9993181962257588,118.4584248408211
6.921142784,0.9994314052605439,118.31938584464108
6.923428352,0.9995805650492681,118.17848104699303
6.925714432,0.999756421554879,118.03521244229348
6.928,0.9999478331440421,117.88925724055296
6.930285568,1.000142636250192,117.74052767976751
6.932571648,1.0003285041168664,117.58905578370997
6.934857216,1.000493694789527,117.43500431754995
