freq,mag,phase
6.0,0.9994924572355087,-129.80142290599892
6.003366912,0.9995649531181853,-129.99299836614477
6.006733824,0.9996645028223844,-130.18585449522485
6.010101248,0.9997849341982934,-130.38025790828618
6.01346816,0.999918945810492,-130.57652049407585
6.016835072,1.00005828075445,-130.774713133996
6.020201984,1.0001944396880003,-130.9749218697596
6.023568896,1.0003188706327981,-131.17701675567145
6.026935808,1.0004240961897046,-131.38075572011812
6.030303232,1.0005037055109784,-131.5858369255944
6.033670144,1.0005525979726748,-131.79184296784044
6.037037056,1.0005679639915634,-131.9983247171717
6.040403968,1.0005487999572782,-132.20480955404625
6.04377088,1.0004962195104865,-132.41076871315974
6.047137792,1.0004134151553292,-132.61575976767128
6.050505216,1.0003054080777247,-132.81946237267445
6.053872128,1.0001788788305659,-133.02146334095977
6.05723904,1.0000416183901153,-133.22159700931547
6.060605952,0.9999019560981846,-133.4198055833643
6.063972864,0.9997686041837304,-133.61598874077845
6.067340288,0.9996495172427797,-133.81044421613586
6.0707072,0.9995522946710984,-134.0033496762738
6.074074112,0.9994826862493291,-134.19503983433125
6.077441024,0.9994451009194724,-134.3860110255135
6.080807936,0.9994419663098438,-134.5766926438872
6.084174848,0.9994732370683465,-134.76756723591785
6.087542272,0.9995372116985423,-134.95914620399884
6.090909184,0.9996299887963538,-135.1518626528433
6.094276096,0.9997457390688564,-135.34606130958448
6.097643008,0.9998774919614237,-135.54206523536405
6.10100992,1.000017011195907,-135.74002256977238
6.104377344,1.0001559406108038,-135.93996972215245
6.107744256,1.0002855682998562,-136.14185854282954
6.111111168,1.0003980046645566,-136.34551424512946
6.11447808,1.0004864123228228,-136.5505836529059
6.117844992,1.000545206960032,-136.75670281956792
6.121211904,1.0005709260255569,-136.96347705822586
6.124579328,1.0005618846678748,-137.17035859054187
6.12794624,1.0005187257919297,-137.37688948020278
6.131313152,1.0004438555636117,-137.5825893881321
6.134680064,1.0003419925874049,-137.78706075928574
6.138046976,1.0002194248890568,-137.9899282106848
6.141413888,1.0000835776038253,-138.19094712631022
6.144781312,0.9999428080461037,-138.39000829541408
6.148148224,0.9998057388144942,-138.58710584931433
6.151515136,0.999680741064145,-138.78230056801146
6.154882048,0.9995755828056744,-138.97590101737407
6.15824896,0.9994967407167153,-139.16816474723487
6.161616384,0.9994490003431765,-139.3595508609011
6.164983296,0.9994353480515575,-139.5504800417983
6.168350208,0.9994566923424,-139.74150234024071
6.17171712,0.9995116252794151,-139.93303121990914
6.175084032,0.9995969421854185,-140.12562177762038
6.178450944,0.999707242604649,-140.3195962258764
6.181818368,0.9998359282109415,-140.5153265805716
6.18518528,0.9999750424786517,-140.71294078265694
6.188552192,1.0001159472815848,-140.9125747944798
6.191919104,1.0002501649448472,-141.11421047184527
6.195286016,1.000369349096584,-141.31764158007408
6.19865344,1.0004661735471974,-141.52263048316289
6.202020352,1.0005347481428417,-141.72882652152688
6.205387264,1.0005708359509726,-141.9357846681995
6.208754176,1.0005721666614193,-142.1430050294011
6.212121088,1.0005387211718415,-142.35000867832142
6.215488,1.000472442728022,-142.55631785842485
6.218855424,1.0003774485686825,-142.7614886411188
6.222222336,1.0002595143538708,-142.96517127116599
6.225589248,1.0001258187184974,-143.1670449339442
6.22895616,0.9999846051584369,-143.36692914049527
6.232323072,0.9998445214186047,-143.5648548720485
6.235689984,0.999714231824314,-143.76081672656835
6.239057408,0.9996016650761529,-143.9550927991043
6.24242432,0.9995137615650302,-144.1479282133026
6.245791232,0.9994559787341022,-144.3397096810013
6.249158144,0.9994318878318275,-144.53093205733512
6.252525056,0.9994429096424875,-144.7220583657909
6.25589248,0.9994884450345517,-144.91358167496853
6.259259392,0.9995656590278126,-145.10600958217597
6.262626304,0.9996699235797069,-145.29973403662208
6.265993216,0.9997947664296369,-145.4951069956465
6.269360128,0.9999326644589891,-145.6923868995293
6.27272704,1.0000749448219042,-145.89165461923923
6.276094464,1.000212996350572,-146.0929335543992
6.279461376,1.0003383342505539,-146.2961026883692
6.282828288,1.0004432688525882,-146.50096475194886
6.2861952,1.0005213259247303,-146.70710716141025
6.289562112,1.0005677387169822,-146.91417033391966
6.292929536,1.0005796547961376,-147.12162127650421
6.296296448,1.0005562215222512,-147.32904860044215
6.29966336,1.0004990208286844,-147.53589555124464
6.303030272,1.00041143080845,-147.74169012182028
6.306397184,1.0002987986886083,-147.946068361949
6.309764096,1.000168096020606,-148.1487426806514
6.31313152,1.0000272494838056,-148.34949975044404
6.316498432,0.9998848578748459,-148.54820888475848
6.319865344,0.9997498100829947,-148.74493918918333
6.323232256,0.9996303378191741,-148.93983701472624
6.326599168,0.9995337555221904,-149.13322058432593
6.32996608,0.9994660805475055,-149.3254551952524
6.333333504,0.9994313272351192,-149.51693025303706
6.336700416,0.9994318600075212,-149.70815587789065
6.340067328,0.999467522498791,-149.89966319593813
6.34343424,0.9995362468753859,-150.0919259938443
6.346801152,0.999633742321008,-150.28537837422638
6.350168576,0.9997541032132273,-150.4803819912534
6.353535488,0.9998898554767071,-150.67722787354504
6.3569024,1.000032750685014,-150.87610350780642
6.360269312,1.0001740084020032,-151.07697375512325
6.363636224,1.0003049436186073,-151.27982159177805
6.367003136,1.0004174977170541,-151.48443534576202
6.37037056,1.0005047592646086,-151.69043987202778
6.373737472,1.0005613883891948,-151.89752678413817
6.377104384,1.0005839203155527,-152.10514470827937
6.380471296,1.0005709229979167,-152.3128974907026
6.383838208,1.0005232065197576,-152.52015423823607
6.387205632,1.0004436812462956,-152.72654590580532
6.390572544,1.000337055726205,-152.93160857210697
6.393939456,1.0002100410291501,-153.13501206583334
6.397306368,1.0000702894162325,-153.33652423485344
6.40067328,0.9999264007775848,-153.5360284340583
6.404040192,0.9997873669577232,-153.73345268116495
6.407407616,0.9996614383931829,-153.9290206024859
6.410774528,0.9995565664266286,-154.12296802472417
6.41414144,0.9994791141404037,-154.31559497338117
6.417508352,0.9994339792805114,-154.50734207671786
6.420875264,0.9994238010041143,-154.69866923021723
6.424242176,0.9994492916575296,-154.8901626838276
6.4276096,0.999508991119849,-155.08223911779487
6.430976512,0.9995991048138188,-155.2753741319106
6.434343424,0.9997141265788428,-155.470003805656
6.437710336,0.9998470887302675,-155.6664187900286
6.441077248,0.9999898135597192,-155.86482023759058
6.444444672,1.0001335339303674,-156.0652461348245
6.447811584,1.0002693588470613,-156.2676746957056
6.451178496,1.0003891150503033,-156.47194565706792
6.454545408,1.0004853366491313,-156.67778107921345
6.45791232,1.0005520629616373,-156.88476809759155
6.461279232,1.000585247298262,-157.09248878619871
6.464646656,1.0005828153840461,-157.30041223598602
6.468013568,1.0005450339929325,-157.5080681667639
6.47138048,1.000473933934772,-157.71495649672195
6.474747392,1.0003741476737291,-157.92061652392147
6.478114304,1.0002515931766391,-158.12471307087674
6.481481728,1.0001137889976128,-158.32695871327095
6.48484864,0.9999691358886317,-158.5271726974888
6.488215552,0.9998266907218604,-158.72530922274865
6.491582464,0.9996950097328792,-158.9215403784887
6.494949376,0.9995822963025037,-159.11599544319395
6.498316288,0.9994953621914878,-159.30903316086412
6.501683712,0.99943981382304,-159.5010688822344
6.505050624,0.9994188733262032,-159.69250485243046
6.508417536,0.9994339007049473,-159.88393818459977
6.511784448,0.9994839405322304,-160.0758320761844
6.51515136,0.9995660423273208,-160.2686832212683
6.518518272,0.9996752089375311,-160.46290092312736
6.521885696,0.9998045743321481,-160.6588276515903
6.525252608,0.9999463487834155,-160.8566860293984
6.52861952,1.0000917592671474,-161.05661558714996
6.531986432,1.0002319290572428,-161.25857439273383
6.535353344,1.000358270236234,-161.46244533065766
6.538720768,1.0004629280824244,-161.66797660157556
6.54208768,1.0005395689084957,-161.87481110986536
6.545454592,1.0005833936026032,-162.08249840142003
6.548821504,1.0005918243745369,-162.29058853263174
6.552188416,1.0005642152053555,-162.49851163938652
6.555555328,1.0005022195510402,-162.7058224493811
6.558922752,1.0004098030025321,-162.91201685289064
6.562289664,1.0002923898164058,-163.1167341922693
6.565656576,1.000157231978682,-163.31967035623484
6.569023488,1.0000126775989793,-163.52056499275568
6.5723904,0.9998675514278448,-163.7194104872138
6.575757824,0.9997306932398508,-163.91625089485774
6.579124736,0.9996106314060881,-164.11123870759405
6.582491648,0.9995146134947155,-164.30470086933047
6.58585856,0.9994487710678998,-164.49695052103357
6.589225472,0.99941686924267,-164.68853604577475
6.592592384,0.9994211986847701,-164.87993751097076
6.595959808,0.9994613421927385,-165.07161662729803
6.59932672,0.999534854185495,-165.26416557220304
6.602693632,0.9996372783836288,-165.45793257176368
6.606060544,0.9997623610821608,-165.65334630924542
6.609427456,0.999902294991005,-165.85065839673942
6.612794368,1.0000486769232004,-166.0499955838562
6.616161792,1.0001924066002212,-166.25141860430978
6.619528704,1.0003248290540483,-166.45482153106653
6.622895616,1.0004375299837267,-166.6599830669331
6.626262528,1.0005237951839678,-166.86654443879837
6.62962944,1.000578188969449,-167.07414724709977
6.632996864,1.0005975962281681,-167.28226011956605
6.636363776,1.0005805141548132,-167.4904230988635
6.639730688,1.0005281757844433,-167.69805249971668
6.6430976,1.0004436575176665,-167.9047310464604
6.646464512,1.000332295075729,-168.11000782227808
6.649831424,1.0002005027051735,-168.3135518885152
6.653198848,1.0000567355286303,-168.51511402813614
6.65656576,0.9999097499008855,-168.71463083703733
6.659932672,0.9997684420037923,-168.91204033844807
6.663299584,0.999641522748359,-169.10756021746016
6.666666496,0.9995368354114144,-169.30138708504364
6.67003392,0.9994609323346056,-169.49397624498792
6.673400832,0.9994182690004385,-169.68567179782002
6.676767744,0.9994116180012321,-169.87703167561597
6.680134656,0.9994413789133546,-170.06852067692665
6.683501568,0.9995058090880389,-170.26070931307584
6.68686848,0.9996008854096499,-170.4540246279027
6.690235904,0.9997209473989369,-170.64891378743286
6.693602816,0.9998583234754104,-170.84559477463642
6.696969728,1.0000049598361849,-171.04431940441398
6.70033664,1.000151523198381,-171.2451732092445
6.703703552,1.0002892455848946,-171.44802087931487
6.707070464,1.0004095087655884,-171.65273516561157
6.710437888,1.0005050214103781,-171.8589909905181
6.7138048,1.0005699835206041,-172.0663927262025
6.717171712,1.0006003378748305,-172.27445754820158
6.720538624,1.0005940674046991,-172.48270633325504
6.723905536,1.0005517207573682,-172.6906144205895
6.72727296,1.0004758529744697,-172.8976933844163
6.730639872,1.000370849473513,-173.10346421858398
6.734006784,1.000243437269355,-173.30755966712601
6.737373696,1.0001013696494299,-173.5097383459279
6.740740608,0.9999530977131691,-173.70985785953476
6.74410752,0.9998080508890734,-173.90786979101546
6.747474944,0.9996750002599055,-174.1039125624768
6.750841856,0.9995619435102643,-174.29813585125606
6.754208768,0.9994761417322107,-174.490966437411
6.75757568,0.9994227209861043,-174.68280349189467
6.760942592,0.9994050813207479,-174.87409782153165
6.764310016,0.9994242442650876,-175.0654389030673
6.767676928,0.99947904931817,-175.2572838953274
6.77104384,0.9995661124083463,-175.45013443281584
6.774410752,0.9996802662304625,-175.6444428765588
6.777777664,0.9998144002048373,-175.840494424592
6.781144576,0.9999603005400804,-176.03856378236057
6.784512,1.000108997125726,-176.23871623913487
6.787878912,1.00025141622602,-176.44097403867062
6.791245824,1.0003788200242898,-176.64516521005842
6.794612736,1.0004832628021152,-176.85100549974263
6.797979648,1.000558448462578,-177.0580977765576
6.80134656,1.0005998109729752,-177.26607418707727
6.804713984,1.0006045497452039,-177.4743250600963
6.808080896,1.000572672480096,-177.6824362964646
6.811447808,1.0005058042826138,-177.88981488625225
6.81481472,1.0004082595847261,-178.09600439803359
6.818181632,1.0002858029822002,-178.30062777903603
6.821549056,1.0001460947437886,-178.50338355663916
6.824915968,0.9999975723502397,-178.70407333088622
6.82828288,0.9998495292599743,-178.9026457231351
6.831649792,0.9997107358701214,-179.0991764583126
6.835016704,0.9995900224029988,-179.2938353089797
6.838383616,0.9994946297635233,-179.48693942679387
6.84175104,0.9994305579929129,-179.67888002599472
6.845117952,0.99940175078888,-179.87017365247192
6.848484864,0.9994099492477164,179.93871706175338
6.851851776,0.999454687441856,179.74723252277553
6.855218688,0.9995333034778553,179.5548443555724
6.858586112,0.9996407967418498,179.36113304850886
6.861953024,0.999770760672541,179.16574760761154
6.865319936,0.9999151345235898,178.9683745675039
6.868686848,1.000065258319809,178.76891690223678
6.87205376,1.0002116954161882,178.56734015113355
6.875420672,1.0003455425380672,178.36375488711974
6.878788096,1.0004585056041615,178.15841169450422
6.882155008,1.000543657552816,177.95165595533365
6.88552192,1.000595950879981,177.74391730012465
6.888888832,1.0006119555775337,177.53570400224606
6.892255744,1.0005907268653838,177.3275322724842
6.895622656,1.0005335055893616,177.11992653079207
6.89899008,1.0004438999375644,176.91335327517095
6.902356992,1.0003272014520026,176.70827034497907
6.905723904,1.0001907392890341,176.50496922646786
6.909090816,1.0000427483159111,176.30372837380997
6.912457728,0.999892277116418,176.1046456967943
6.915825152,0.9997486820385112,175.90765927271494
6.919192064,0.9996205890844966,175.71260178098797
6.922558976,0.9995161668714039,175.5192417588905
6.925925888,0.9994416404134535,175.32716408889493
6.9292928,0.9994015831528411,175.13588921581476
6.932659712,0.9993987098810068,174.94493991872903
6.936027136,0.9994329729738406,174.75376796481234
6.939394048,0.9995024078105921,174.5619041287304
6.94276096,0.9996027167707562,174.36880230292016
6.946127872,0.9997277935458275,174.1740948180335
6.949494784,0.9998700716847356,173.97747104799993
6.952862208,1.0000205600883445,173.77877492180951
6.95622912,1.0001702324744597,173.57794417906734
6.959596032,1.0003099124992427,173.37502280227486
6.962962944,1.0004309105268125,173.17027047422346
6.966329856,1.0005258538671074,172.96394044224837
6.969696768,1.0005888508800198,172.7565314665165
6.973064192,1.0006161198684818,172.5484525781687
6.976431104,1.000605910918212,172.34027475958368
6.979798016,1.00055884938833,172.13249436035176
6.983164928,1.0004778049536058,171.92562248095928
6.98653184,1.000367549191636,171.7201312331766
6.989898752,1.0002349941314275,171.51636973863475
6.993266176,1.000088346375604,171.314650089102
6.996633088,0.9999364140013857,171.11504348496635
7.0,0.9997885412848508,170.91756085992873
7.003366912,0.9996539546980657,170.7221563955436
7.006733824,0.9995407060752793,170.5284735592031
7.010101248,0.9994559412248112,170.3362725950838
7.01346816,0.9994048195659254,170.14503594483455
7.016835072,0.9993904777935914,169.9542783147716
7.020201984,0.9994140020710324,169.76345436491863
7.023568896,0.9994737196370426,169.5720508549968
7.026935808,0.9995662355282868,169.3795797162363
7.030303232,0.9996857096774102,169.18559123290038
7.033670144,0.9998247839979464,168.9897534476052
7.037037056,0.9999750130520402,168.79183925023673
7.040403968,1.000127263872674,168.59179274643037
7.04377088,1.000271992262406,168.3896196901551
7.047137792,1.0004005300106888,168.18549576532033
7.050505216,1.0005047711266681,167.97972215099566
7.053872128,1.0005785145164114,167.77266629706153
7.05723904,1.000617031504459,167.56482251153568
7.060605952,1.0006180735162227,167.3567326405962
7.063972864,1.0005815937796967,167.14885505514707
7.067340288,1.0005095736661394,166.94178265271202
7.0707072,1.0004065734840886,166.73596740083673
7.074074112,1.0002789097900955,166.53179898868436
7.077441024,1.0001342405403708,166.32957950701947
7.080807936,0.9999815991530673,166.12946675745326
7.084174848,0.9998303846307343,165.931576453982
7.087542272,0.9996897114790683,165.73577177389828
7.090909184,0.9995681870785946,165.54185236273565
7.094276096,0.9994735286729763,165.34947962852905
7.097643008,0.9994114730784812,165.1582601814027
7.10100992,0.9993857600454843,164.96765848913643
7.104377344,0.9993980230239685,164.77716976184314
7.107744256,0.9994476689852504,164.586264025495
7.111111168,0.9995315029857705,164.3943992876356
7.11447808,0.9996446311616357,164.2011508939292
7.117844992,0.999779864020912,164.00612420317734
7.121211904,0.9999289859094105,163.80906777173064
7.124579328,1.000082839352013,163.60984752591202
7.12794624,1.000232135696076,163.4084742222035
7.131313152,1.0003674681301318,163.20506833100885
7.134680064,1.0004807406867093,162.99988886100482
7.138046976,1.0005648650491243,162.79330134984525
7.141413888,1.0006146610590783,162.5857903043509
7.144781312,1.000627095528317,162.37783204120697
7.148148224,1.0006014488693944,162.1699790541273
7.151515136,1.0005391637579526,161.96275262747255
7.154882048,1.0004440918088116,161.7566587852465
7.15824896,1.000321868785573,161.55211594667176
7.161616384,1.0001801899967693,161.34944717476478
7.164983296,1.0000277074499502,161.14891414959803
7.168350208,0.9998737084726398,160.95058655363854
7.17171712,0.9997275891997954,160.754428360519
7.175084032,0.9995985171053828,160.5602140951124
7.178450944,0.9994942013818424,160.3676942878409
7.181818368,0.999421316682803,160.17647722710245
7.18518528,0.9993840772113581,159.98603906883577
7.188552192,0.9993849656978634,159.79589086023012
7.191919104,0.9994240675178705,159.6054427254817
7.195286016,0.9994988333563786,159.4142076962852
7.19865344,0.9996047557126974,159.22168306924675
7.202020352,0.9997352154368734,159.02750606361812
7.205387264,0.9998824893988038,158.8313155739885
7.208754176,1.0000373981279393,158.6330089240099
7.212121088,1.0001903605847218,158.43247377800944
7.215488,1.0003320192575187,158.22986644994802
7.218855424,1.000453688334291,158.02538107532368
7.222222336,1.000547960737307,157.81933467358033
7.225589248,1.0006088711433514,157.61220269308743
7.22895616,1.0006329152131757,157.40449080332493
7.232323072,1.000618407166263,157.1967002395394
7.235689984,1.0005662793019403,156.9894142668915
7.239057408,1.0004796581483104,156.78309454983162
7.24242432,1.0003638933151917,156.57823960877096
7.245791232,1.000225863665178,156.37520428698534
7.249158144,1.0000743291091976,156.174246314505
7.252525056,0.9999184744944277,155.9755180982873
7.25589248,0.9997677209589128,155.77897876800765
7.259259392,0.9996314311115536,155.58450492535422
7.262626304,0.9995180148661569,155.3918248628323
7.265993216,0.9994342771374088,155.2005874435131
7.269360128,0.9993857189387065,155.01030192547142
7.27272704,0.9993750995450905,154.8204686981514
7.276094464,0.9994031436750958,154.6304995014789
7.279461376,0.9994682644571367,154.4399024141491
7.282828288,0.9995663335637868,154.24810724110625
7.2861952,0.9996914701209666,154.05477136555703
7.289562112,0.9998359922281521,153.85949683021212
7.292929536,0.9999907728260973,153.66208963605996
7.296296448,1.000146658281675,153.4624876936978
7.29966336,1.0002939640652944,153.26071458905628
7.303030272,1.0004235545075593,153.05698757715683
7.306397184,1.0005276441982687,152.85158400034044
7.309764096,1.000599674137437,152.64493560066515
7.31313152,1.0006352072821032,152.43754063504855
7.316498432,1.0006322245788937,152.22989485000457
7.319865344,1.000590706496219,152.02259745822815
7.323232256,1.0005132628087616,151.8161453616397
7.326599168,1.0004044444809912,151.6110340689181
7.32996608,1.000271192744957,151.40766300075697
7.333333504,1.000121383095561,151.2063300546677
7.336700416,0.9999643279596862,151.00721219060384
7.340067328,0.9998095755348666,150.81033281022985
7.34343424,0.9996668129874878,150.61559034306373
7.346801152,0.9995446988317869,150.4227483333337
