freq,mag,phase
6.0,1.0006918107623572,49.22311274031736
6.002287616,1.0007378378913618,49.06033857776336
6.004575232,1.000737189588403,48.897223470303985
6.006862848,1.000690054331806,48.73438120830386
6.009150464,1.0005992647437405,48.572524730053956
6.011438592,1.0004706125985687,48.41222568425955
6.013726208,1.0003121668991137,48.25395800418036
6.016013824,1.0001338708599288,48.09809139057518
6.01830144,0.9999470261467169,47.944850698330676
6.020589056,0.9997635227296002,47.79426086595412
6.022876672,0.9995948269832706,47.64619323159184
6.025164288,0.9994516286028805,47.500353675257706
6.027451904,0.999343048207788,47.35630300829433
6.029740032,0.9992760132608456,47.21348612659248
6.032027648,0.9992547375499216,47.07130411736795
6.034315264,0.999280599774705,46.92903536096186
6.03660288,0.999351930072475,46.78601311676875
6.038890496,0.9994642663417099,46.64165215909887
6.041178112,0.9996105859345541,46.49534262275389
6.043465728,0.9997816306838313,46.346706323578786
6.045753344,0.9999664287491427,46.19542747793428
6.04804096,1.0001533964085654,46.04144074894479
6.050329088,1.0003308596202014,45.88473415765437
6.052616704,1.0004873470242834,45.725589801818835
6.05490432,1.0006131184396938,45.564338840838985
6.057191936,1.0007002528552498,45.40151711760247
6.059479552,1.0007432158695857,45.237719212681235
6.061767168,1.0007392634905947,45.07360053935482
6.064054784,1.0006884689011295,44.90981960765668
6.0663424,1.000594312176418,44.74703118369541
6.068630016,1.0004625479342466,44.5858623714913
6.070918144,1.0003014948651072,44.42676032629247
6.07320576,1.000121217456112,44.270095039475535
6.075493376,0.999933194035863,44.116066053796544
6.077780992,0.9997493928648984,43.96469493982355
6.080068608,0.9995812588857754,43.81583121093877
6.082356224,0.9994395257618462,43.66919228066951
6.08464384,0.9993332118578778,43.52431516770617
6.086931456,0.9992689486379883,43.3806264338752
6.089219584,0.9992508442500048,43.23750065028351
6.0915072,0.9992801566485162,43.09425811988479
6.093794816,0.9993550284232351,42.95020121765558
6.096082432,0.9994706978734127,42.804745859613135
6.098370048,0.9996198586313909,42.65729710537155
6.100657664,0.9997931700877647,42.50747104503947
6.10294528,0.9999795101908631,42.354985011823416
6.105232896,1.0001672104959038,42.199765786394806
6.107520512,1.000344421682732,42.041816937739306
6.10980864,1.0004999379958501,41.881440877495834
6.112096256,1.0006238479097174,41.71897776482345
6.114383872,1.0007085080377904,41.554952431482015
6.116671488,1.0007483421103462,41.38998375124557
6.118959104,1.0007410081425523,41.22474024526684
6.12124672,1.0006868707602408,41.059878154803485
6.123534336,1.0005892591605787,40.89607653396368
6.125821952,1.0004544251957797,40.733906739272015
6.128109568,1.0002907709209483,40.57386531268121
6.130397696,1.000108637208522,40.416270493242514
6.132685312,0.999919535116376,40.2613299121241
6.134972928,0.9997354884254874,40.10906265465395
6.137260544,0.9995680555089478,39.95927703188786
6.13954816,0.9994277444318378,39.81170233530239
6.141835776,0.9993235162342399,39.66586125718039
6.144123392,0.9992621027502528,39.52117381593894
6.146411008,0.9992472902565825,39.376990464310026
6.148699136,0.9992799996870656,39.23264882463044
6.150986752,0.9993582836553615,39.08742811867553
6.153274368,0.9994771809049919,38.9407480702486
6.155561984,0.9996290918008899,38.79204296181676
6.1578496,0.9998045216753144,38.64092243676921
6.160137216,0.9999923351353749,38.48710853189304
6.162424832,1.0001807375196492,38.33052346113614
6.164712448,1.0003577767081306,38.17122913839441
6.167000064,1.000512209855752,38.00948155593551
6.169288192,1.0006343791426475,37.845676783474445
6.171575808,1.0007164930331331,37.680342233056024
6.173863424,1.0007534154265363,37.514093286267865
6.17615104,1.0007427214830331,37.34761926568834
6.178438656,1.0006851554173901,37.18157529657496
6.180726272,1.0005843183711218,37.01661196818935
6.183013888,1.0004464329816607,36.8533199810863
6.185301504,1.0002802674873545,36.69220241825282
6.18758912,1.0000964335573792,36.53356318796985
6.189877248,0.9999062231375485,36.377580709535444
6.192164864,0.9997219200583651,36.22428368050887
6.19445248,0.999555021281882,36.07346658039446
6.196740096,0.9994162117003728,35.92483957280757
6.199027712,0.9993142087465652,35.77789919043386
6.201315328,0.9992554114970288,35.632094397573894
6.203602944,0.9992437171615886,35.486715287854324
6.20589056,0.9992798197417868,35.3411392232593
6.208178688,0.9993614726392496,35.19465007691681
6.210466304,0.9994834458060312,35.04663932538645
6.21275392,0.9996381451711975,34.896549165937245
6.215041536,0.9998157115259417,34.7439995032275
6.217329152,1.0000049635093715,34.58874718022605
6.219616768,1.00019395707605,34.43066140744551
6.221904384,1.0003707508096489,34.26989838257343
6.224192,1.0005241820839772,34.1066740820412
6.226479616,1.0006445066950298,33.9414243997649
6.228767744,1.0007242289070495,33.77464886247974
6.23105536,1.000758277826559,33.60700340344628
6.233342976,1.0007443728260352,33.4391521875303
6.235630592,1.000683463562273,33.271790355014865
6.237918208,1.0005793575754864,33.10555885318666
6.240205824,1.000438656096178,32.94103380590493
6.24249344,1.000270081953182,32.77871793942661
6.244781056,1.0000844172564196,32.61889539689847
6.247068672,0.9998932432976693,32.46174990545203
6.2493568,0.9997088206726931,32.30728146523903
6.251644416,0.9995424977128808,32.155304837634354
6.253932032,0.9994050820821597,32.00548499043951
6.256219648,0.9993052375736338,31.857334327912376
6.258507264,0.9992491082833597,31.71025756523837
6.26079488,0.9992404810527444,31.563589115751995
6.263082496,0.9992798278815958,31.41665765259923
6.265370112,0.9993646711870707,31.26873928904867
6.26765824,0.9994897201111627,31.119278929902723
6.269945856,0.9996469671365109,30.967688444753144
6.272233472,0.999826647829507,30.81360256501132
6.274521088,1.0000172748205347,30.656751314115883
6.276808704,1.00020675169737,30.497102305376245
6.27909632,1.0003833850511434,30.334721011569425
6.281383936,1.0005357523817695,30.169916356635557
6.283671552,1.0006543710557305,30.00308468644216
6.285959168,1.000731629244021,29.83474805197369
6.288247296,1.0007627549262146,29.66558781941538
6.290534912,1.000745758176712,29.49623795853118
6.292822528,1.0006815912645624,29.327449297057253
6.295110144,1.000574361528418,29.159809114188604
6.29739776,1.0004308270713207,28.993940956407332
6.299685376,1.0002599754364425,28.83027268468694
6.301972992,1.0000726311566597,28.669155279132802
6.304260608,0.9998805361840525,28.510714659578692
6.306548224,0.9996958900050322,28.354955295591452
6.308836352,0.9995302798585832,28.201693153788955
6.311123968,0.9993942376924347,28.05053868826381
6.313411584,0.9992963180870719,27.9010391774513
6.3156992,0.9992428973292531,27.752565800542126
6.317986816,0.9992372767240889,27.604475078437922
6.320274432,0.9992798016113166,27.456045559694196
6.322562048,0.999367829952671,27.306611983075943
6.324849664,0.9994958420970357,27.15556932319847
6.327137792,0.9996556127360398,27.002346219667164
6.329425408,0.9998372625800811,26.84659813836913
6.331713024,1.000029175481576,26.68806524123104
6.33400064,1.000219271477948,26.526673016153676
6.336288256,1.000395611739913,26.36258341444656
6.338575872,1.0005470586119094,26.196069512672818
6.340863488,1.000663924116817,26.027517740667047
6.343151104,1.0007389043003194,25.85751965230042
6.34543872,1.0007672374443506,25.686718445503118
6.347726848,1.0007471968364454,25.51576153827277
6.350014464,1.0006799718761825,25.345401063964058
6.35230208,1.0005696876086256,25.176229638552815
6.354589696,1.0004234436833606,25.008860250317273
6.356877312,1.0002503256309383,24.84372562447289
6.359164928,1.0000613722696714,24.68117587457963
6.361452544,0.9998682545456583,24.521327349726413
6.36374016,0.9996834296003505,24.36414085336418
6.366027776,0.9995184737985093,24.209437664412913
6.368315904,0.9993838294684149,24.05683653838413
6.37060352,0.9992879775202382,23.905858817976497
6.372891136,0.9992369407804927,23.75587642305965
6.375178752,0.999234215102017,23.60620772016947
6.377466368,0.9992798195960744,23.45618633325448
6.379753984,0.9993709132879571,23.305085822615453
6.3820416,0.9995016356550415,23.152311623992
6.384329216,0.999663934824079,22.997348302836567
6.386617344,0.9998475635499905,22.839794589359666
6.38890496,1.000040707283638,22.67944201098686
6.391192576,1.0002313725579697,22.516248363215063
6.393480192,1.0004074644039072,22.350317653153198
6.395767808,1.0005578943210476,22.181952033835426
6.398055424,1.000673119346111,22.01157226988876
6.40034304,1.000745894119375,21.83976701578193
6.402630656,1.0007716258000865,21.6671956911031
6.404918272,1.0007486367077165,21.494511259395942
6.4072064,1.0006782730278636,21.322454094249707
6.409494016,1.0005652379504855,21.151623872783677
6.411781632,1.000416365416481,20.982627480105112
6.414069248,1.000241055750922,20.815925450061926
6.416356864,1.0000504534532382,20.651770561980424
6.41864448,0.9998564916587559,20.49035639146458
6.420932096,0.9996715052717239,20.33160761724859
6.423219712,0.9995070439797256,20.175340872347277
6.425507328,0.9993736928970811,20.021151643982005
6.427795456,0.9992797176845366,19.86856223729918
6.430083072,0.999231200103764,19.71691760559846
6.432370688,0.9992312145586564,19.565560942446226
6.434658304,0.9992796659434324,19.41379504055293
6.43694592,0.9993736603907717,19.260929048089164
6.439233536,0.9995072012293545,19.106309747328325
6.441521152,0.999671875196635,18.949466408043694
6.443808768,0.9998573116538122,18.790023237607503
6.446096896,1.0000517663658959,18.62771473761991
6.448384512,1.0002428894972286,18.462574196707735
6.450672128,1.0004188403079604,18.294660133948472
6.452959744,1.0005683103534153,18.124325133514827
6.45524736,1.0006819441943493,17.9520158034006
6.457534976,1.0007525405145898,17.778304153671865
6.459822592,1.0007757557790342,17.60383131328348
6.462110208,1.000749966955299,17.429289107231558
6.464397824,1.0006768109870177,17.255375416001872
6.466685952,1.0005609425875666,17.08278736205273
6.468973568,1.0004095455936135,16.91200267091267
6.471261184,1.000232171855619,16.74358340248726
6.4735488,1.0000400382948529,16.577722968038902
6.475836416,0.9998452334645568,16.414605683110047
6.478124032,0.9996600456730255,16.254176519691118
6.480411648,0.9994962064676199,16.096188024732857
6.482699264,0.9993640687240489,15.940286505613916
6.48498688,0.9992718967297133,15.785949784079618
6.487275008,0.9992256387961818,15.632519889351066
6.489562624,0.9992283299075062,15.479353192403806
6.49185024,0.999279585822067,15.325700489951371
6.494137856,0.9993764228306569,15.170911860281963
6.496425472,0.9995125461272641,15.014326959941075
6.498713088,0.9996794407861789,14.855480519518313
6.501000704,0.9998666662213527,14.693985861789336
6.50328832,1.000062348003782,14.52964550121627
6.505576448,1.0002540274738476,14.362401988706706
6.507864064,1.0004296462161166,14.192428662047686
6.51015168,1.000578370867929,14.019994516293147
6.512439296,1.0006904946362978,13.845619716559721
6.514726912,1.0007591490275327,13.669846087996087
6.517014528,1.0007798443659819,13.493337137210759
6.519302144,1.0007513986990424,13.316817354571972
6.52158976,1.000675548736984,13.140939426661864
6.523877376,1.000556931586794,12.966414638336648
6.526165504,1.0004031356358636,12.793769889222563
6.52845312,1.0002237599861237,12.62345576551778
6.530740736,1.000030217482057,12.455743449811683
6.533028352,0.9998344655308942,12.290812304698404
6.535315968,0.9996491485389594,12.12853712012983
6.537603584,0.9994857524212406,11.968726240783138
6.5398912,0.9993546980484074,11.810957891206346
6.542178816,0.9992642899304914,11.65471159999951
6.544466432,0.9992202616873841,11.499369409965993
6.54675456,0.9992253126519414,11.344231757882769
6.549042176,0.9992792581761368,11.188588769676594
6.551329792,0.9993787485712607,11.03175977990155
6.553617408,0.9995174621062084,10.873095866182181
6.555905024,0.9996865236859201,10.71212426882404
6.55819264,0.9998754662978373,10.548462524708484
6.560480256,1.0000721902179681,10.38194297204287
6.562767872,1.00026445387015,10.212504741477519
6.565056,1.0004400261540138,10.040310074478878
6.567343616,1.0005878851498597,9.865680150587703
6.569631232,1.0006986778663691,9.689102964057213
6.571918848,1.0007654981655645,9.511145393372848
6.574206464,1.0007839727470385,9.332494191057828
6.57649408,1.0007530118844958,9.153830278982431
6.578781696,1.0006744642200511,8.975881832579399
6.581069312,1.0005533809260243,8.799284118256748
6.583356928,1.0003972537329573,8.624603271885043
6.585645056,1.0002160080441198,8.452280993017485
6.587932672,1.0000209950656738,8.282604711823526
6.590220288,0.9998244435037726,8.115664167936627
6.592507904,0.9996388488627148,7.951425116458786
6.59479552,0.9994758432470886,7.789620101502555
6.597083136,0.999345852127694,7.629858968672079
6.599370752,0.99925699704057,7.471608533737168
6.601658368,0.9992149528551886,7.314192822280018
6.603945984,0.9992224518999423,7.156988818513998
6.606234112,0.9992788021485582,6.999205591774034
6.608521728,0.9993808065670857,6.840186943649955
6.610809344,0.9995218941124906,6.679322350628607
6.61309696,0.9996930216966,6.5160796546549715
6.615384576,0.9998835167211216,6.350167162216771
6.617672192,1.0000815050703307,6.181313319772186
6.619959808,1.0002743740617228,6.0095517901540525
6.622247424,1.000449867594779,5.835039123400192
6.624535552,1.0005969941117936,5.6580801359909865
6.626823168,1.000706598647377,5.47917415411661
6.629110784,1.0007715479705035,5.29890724192625
6.6313984,1.0007880415619186,5.11796824470661
6.633686016,1.0007546641364546,4.937060280328973
6.635973632,1.0006737040564573,4.75686745209756
6.638261248,1.0005502774013937,4.578069468469833
6.640548864,1.0003919332278173,4.401225992213951
6.64283648,1.0002088492995433,4.226763670889336
6.645124608,1.0000124608393912,4.054948955853451
6.647412224,0.9998150828320277,3.885884519599181
6.64969984,0.9996290848768362,3.7195324852547507
6.651987456,0.9994665760857832,3.555609566431301
6.654275072,0.9993374220417598,3.3936883184180666
6.656562688,0.9992499788452581,3.2332995516425553
6.658850304,0.9992098250924923,3.073715306170191
6.66113792,0.9992193854968313,2.9142602836926876
6.663426048,0.9992782043551234,2.754224753796559
6.665713664,0.9993825152193531,2.59291050729982
6.66800128,0.999525709601001,2.4296984631841774
6.670288896,0.9996989550911546,2.264101825065841
6.672576512,0.9998911055638675,2.095764006165525
6.674864128,1.0000901837296556,1.9244942319086153
6.677151744,1.0002835292023609,1.7502867104911584
6.67943936,1.0004590544946483,1.5733056845175932
6.681726976,1.0006056757166528,1.3938888251587938
6.684015104,1.000714152800375,1.2125385838416185
6.68630272,1.0007776107894082,1.0298432445244832
6.688590336,1.0007920501996606,0.8464855095364708
6.690877952,1.0007566648706863,0.6631930952514069
6.693165568,1.0006733372740169,0.48064610307846495
6.695453184,1.000547727665657,0.29950511719878925
6.6977408,1.0003872529446607,0.12035076097338182
6.700028416,1.000202425607623,-0.05642822730608918
6.702316032,1.0000046942180505,-0.2304922506990995
6.70460416,0.999806433634582,-0.4018186580595522
6.706891776,0.999620209303169,-0.5704357647205083
6.709179392,0.9994578184838854,-0.7366032145548773
6.711467008,0.9993295664773714,-0.9007864015355961
6.713754624,0.9992433700689481,-1.0634964929666864
6.71604224,0.9992048155553757,-1.225422415969333
6.718329856,0.999216332230618,-1.387210493253068
6.720617472,0.9992773211066881,-1.549636571769232
6.7229056,0.9993838885341468,-1.7133774650778353
6.725193216,0.9995292082792999,-1.8790601602871293
6.727480832,0.9997042118342506,-2.0471429779217876
6.729768448,0.9998979068088523,-2.2180065762670957
6.732056064,1.000098102174755,-2.3918290286970514
6.73434368,1.0002920365443944,-2.568618016159808
6.736631296,1.000467663195123,-2.7481625206710167
6.738918912,1.0006138705000482,-2.9301483057877746
6.741206528,1.0007213303447966,-3.114078794167166
6.743494656,1.000783525809261,-3.299340940630275
6.745782272,1.0007962266619908,-3.485249305516243
6.748069888,1.0007587471075943,-3.6710675561999775
6.750357504,1.0006734117871878,-3.8561226263552273
6.75264512,1.000545589615445,-4.039717006256374
6.754932736,1.0003833753619378,-4.2213455791235495
6.757220352,1.000196749379014,-4.400514709826434
6.759507968,0.9999976185945219,-4.577021352867718
6.761795584,0.999798458837011,-4.750742718498633
6.764083712,0.9996119346437466,-4.921765459876632
6.766371328,0.9994496014254687,-5.090362074686969
6.768658944,0.9993218007143523,-5.256934735531787
6.77094656,0.9992367418992242,-5.422093816702201
6.773234176,0.9991997112037843,-5.586447252183299
6.775521792,0.9992130052744433,-5.750736705220884
6.777809408,0.9992759064872276,-5.915675176133893
6.780097024,0.9993844252802361,-6.081975221196843
6.782385152,0.9995317115302151,-6.2502203929806415
6.784672768,0.999708556699754,-6.420924781920156
6.786960384,0.9999037280271407,-6.594440424373237
6.789248,1.0001050022156797,-6.770927200362951
6.791535616,1.0002997477408773,-6.9503975503621716
6.793823232,1.0004754865869505,-7.132635657991659
6.796110848,1.0006213280761407,-7.3173305039456125
6.798398464,1.000728129149084,-7.50394848453878
6.80068608,1.0007890120369412,-7.6919034704733
6.802974208,1.0008002770037088,-7.8804670616603305
6.805261824,1.0007610634993676,-8.068937857477449
6.80754944,1.0006737278110058,-8.256642176188915
6.809837056,1.0005441177247731,-8.44284729079317
6.812124672,1.0003799620651146,-8.627042727357889
6.814412288,1.0001918591015555,-8.808811121837033
6.816699904,0.9999914736612703,-8.987861340184178
6.81898752,0.9997913164853681,-9.16412883179048
6.821275136,0.9996042912733851,-9.337700631535029
6.823563264,0.9994420360094436,-9.508833554435167
6.82585088,0.9993147133442167,-9.677972053611768
6.828138496,0.9992304988007237,-9.845685063366657
6.830426112,0.9991947405687466,-10.012620996955985
6.832713728,0.9992096150580743,-10.179529337572223
6.835001344,0.9992742516993697,-10.347123003577497
6.83728896,0.9993846224601847,-10.516067800765349
6.839576576,0.9995337734142001,-10.687021384021271
6.841864704,0.9997123015869611,-10.860469536302254
6.84415232,0.9999088880909395,-11.036736862820273
6.846439936,1.0001112914969021,-11.216006711239755
6.848727552,1.0003066396273346,-11.398277769236076
6.851015168,1.0004828168336592,-11.583342234396998
6.853302784,1.0006285020581827,-11.770862917270318
6.8555904,1.0007347441108891,-11.960282581566418
6.857878016,1.0007946259427767,-12.151042447185382
6.860165632,1.0008045269317518,-12.342416635472633
6.86245376,1.00076374830611,-12.533692860907786
6.864741376,1.000674824479275,-12.72413897977073
6.867028992,1.0005433882299222,-12.913104487079528
6.869316608,1.0003775313157832,-13.100019159129397
6.871604224,1.0001878875112509,-13.284508284470428
6.87389184,0.9999861500838456,-13.466256269593238
6.876179456,0.9997851861612597,-13.64518739835455
6.878467072,0.9995974836238604,-13.821445077807626
6.880754688,0.99943511505357,-13.995257620902704
6.883042816,0.9993080634525524,-14.167084242498033
6.885330432,0.9992245376978167,-14.337495229773122
6.887618048,0.9991898189918889,-14.50715747314497
6.889905664,0.9992060503908585,-14.676785562901625
6.89219328,0.9992721609487936,-14.847125187789414
6.894480896,0.9993841879150608,-15.018890599226296
6.896768512,0.9995349163122718,-15.192652894179991
6.899056128,0.9997149639809773,-15.368947430922331
6.901344256,0.9999130021692462,-15.548093185969288
6.903631872,1.0001165792673399,-15.730260567811838
6.905919488,1.0003127769593219,-15.915450928697055
6.908207104,1.0004892478068383,-16.103429881548198
6.91049472,1.000635069503402,-16.293871871305374
6.912782336,1.0007408359366756,-16.48625028267404
6.915069952,1.0008000635724277,-16.679926699465014
6.917357568,1.0008088763944172,-16.874236559779167
6.919645184,1.0007667454680538,-17.068405281554735
6.921933312,1.0006764084681168,-17.261754462906566
6.924220928,1.0005433593496609,-17.45361143605636
6.926508544,1.0003760229967573,-17.64338200482968
