freq,mag,phase
6.0,0.9993682256419874,171.11925338252917
6.002287616,0.9991657077979234,170.97203569428984
6.004575232,0.9990156506845114,170.8274054858802
6.006862848,0.9989274389133901,170.68451760511277
6.009150464,0.9989070528409086,170.54242460539638
6.011438592,0.998955597596486,170.4001495628511
6.013726208,0.9990699241179667,170.25667970894204
6.016013824,0.9992430491681612,170.11112767089514
6.01830144,0.9994639000838402,169.96272578389232
6.020589056,0.9997184756531026,169.81085173562457
6.022876672,0.9999908297717147,169.6551841003914
6.025164288,1.0002634924679261,169.49556796833093
6.027451904,1.0005194922346714,169.33210541514757
6.029740032,1.000742460808573,169.1651767276408
6.032027648,1.0009183611191443,168.99537408959964
6.034315264,1.0010361423414922,168.82343643992817
6.03660288,1.001088404449886,168.6502923635608
6.038890496,1.0010717490270347,168.476881218191
6.041178112,1.0009872462236848,168.3042116430123
6.043465728,1.0008401056656824,168.13320205143646
6.045753344,1.0006396702803437,167.964742823205
6.04804096,1.000398540303683,167.7994674031694
6.050329088,1.0001318385070876,167.63790198050964
6.052616704,0.9998566291995913,167.4802476485612
6.05490432,0.9995900876242022,167.3265419103189
6.057191936,0.9993491909235954,167.17656131816557
6.059479552,0.999149171274455,167.02974829971774
6.061767168,0.9990025958712686,166.88551351385337
6.064054784,0.9989189819970248,166.74295540024042
6.0663424,0.9989036059704229,166.60111589947493
6.068630016,0.9989574056429739,166.4589887245596
6.070918144,0.999077030285509,166.31565200984085
6.07320576,0.9992547826884995,166.17011821718623
6.075493376,0.9994795809241802,166.02168029220778
6.077780992,0.9997372816074822,165.8697524214199
6.080068608,1.0000113974516125,165.7139776963305
6.082356224,1.0002845592046936,165.55421782092185
6.08464384,1.0005396757566294,165.39061007880383
6.086931456,1.0007606526721382,165.22359607154883
6.089219584,1.000933447446585,165.05373071976769
6.0915072,1.0010471458677122,164.88177507293994
6.093794816,1.0010945250738004,164.70868484573222
6.096082432,1.001072477326544,164.5353738486954
6.098370048,1.0009827749871036,164.3629305201451
6.100657664,1.0008306154327735,164.19219405192737
6.10294528,1.0006258166416808,164.02407803380106
6.105232896,1.0003812462702635,163.85920781211735
6.107520512,1.0001121072473904,163.6980784372374
6.10980864,0.9998357022318687,163.5409285821779
6.112096256,0.9995692876355009,163.38771238166106
6.114383872,0.9993299270458815,163.2381749372078
6.116671488,0.9991325993454631,163.0918174951771
6.118959104,0.998989865685841,162.9479671441012
6.12124672,0.9989107170940084,162.80572869749403
6.123534336,0.9989005164013883,162.6641845801116
6.125821952,0.9989595806447491,162.5222756756427
6.128109568,0.9990842552331535,162.37901645749963
6.130397696,0.9992668639887139,162.23354405876412
6.132685312,0.9994956743696809,162.08509564892597
6.134972928,0.9997561824344828,161.93309621474998
6.137260544,1.0000320580427509,161.77719249318108
6.13954816,1.0003057387615035,161.61732411172613
6.141835776,1.0005600031846698,161.45362348269487
6.144123392,1.0007787910902448,161.28649147118242
6.146411008,1.000948139084649,161.11659745557776
6.148699136,1.0010576766247457,160.94464105232413
6.150986752,1.0011002379332798,160.77161340297994
6.153274368,1.0010731054570414,160.5984924920198
6.155561984,1.0009779220235355,160.42623142644916
6.1578496,1.0008208189850019,160.25581435028244
6.160137216,1.000611690079408,160.08806446026534
6.162424832,1.0003635062845668,159.9236429686966
6.164712448,1.0000922042111602,159.76294803275277
6.167000064,0.9998146148514159,159.6063095385577
6.169288192,0.9995483658529029,159.45358886266084
6.171575808,0.999310729167628,159.30453441797653
6.173863424,0.9991160988972202,159.15866467084325
6.17615104,0.9989771557159695,159.0152130482063
6.178438656,0.9989028736689156,158.87332651993998
6.180726272,0.9988976227333316,158.73203728710942
6.183013888,0.9989621507280432,158.59032564393635
6.185301504,0.9990920075481232,158.44720889199004
6.18758912,0.9992792354214179,158.30179892683145
6.189877248,0.9995119099372116,158.15333581487272
6.192164864,0.9997754964357959,158.0012627660742
6.19445248,1.0000530240375916,157.8452839548797
6.196740096,1.0003271375354514,157.6853190562037
6.199027712,1.0005804202017818,157.52151265958904
6.201315328,1.0007968802656004,157.35434038098458
6.203602944,1.000962889624718,157.18436373604152
6.20589056,1.0010680031308907,157.01245813298377
6.208178688,1.001105492670004,156.83954143593863
6.210466304,1.0010730163716777,156.66655560227977
6.21275392,1.0009726215512187,156.494555166001
6.215041536,1.0008104534704165,156.32447422054943
6.217329152,1.0005970200425374,156.1571008226514
6.219616768,1.0003454198148862,155.99311301568963
6.221904384,1.000071761938735,155.83293166083152
6.224192,0.9997932188984799,155.6767955177135
6.226479616,0.999527475193062,155.52457290314763
6.228767744,0.9992913014213899,155.3760651229456
6.23105536,0.9990996480279752,155.2306381432768
6.233342976,0.9989646650722911,155.08760461001992
6.235630592,0.9988950119234208,154.94609735645798
6.237918208,0.99889516561733,154.80511549782827
6.240205824,0.9989650192277396,154.66358979355184
6.24249344,0.9991001956952791,154.52059838624922
6.244781056,0.9992922245958197,154.37524479873605
6.247068672,0.9995288044655398,154.22680484781827
6.2493568,0.9997951131031206,154.07470599466083
6.251644416,1.0000742072869748,153.91863012455028
6.253932032,1.0003486526462881,153.758577613001
6.256219648,1.0006008116475633,153.59469325424573
6.258507264,1.000815057409289,153.42741937645386
6.26079488,1.0009776012799438,153.2574692140739
6.263082496,1.001078187082379,153.08559070391414
6.265370112,1.001110615066735,152.91277898318788
6.26765824,1.0010727999050826,152.7399905475731
6.269945856,1.0009669660730847,152.56824535640635
6.272233472,1.0007998620745455,152.39849571799823
6.274521088,1.0005819779807033,152.23153509877983
6.276808704,1.0003270751902802,152.0680282200556
6.27909632,1.000051154627655,151.90835305308025
6.281383936,0.9997716434785061,151.75272570356478
6.283671552,0.9995062597073274,151.60106706088075
6.285959168,0.9992719037416116,151.45305465740284
6.288247296,0.9990832796416906,151.30815023347915
6.290534912,0.998952382244876,151.16553507957838
6.292822528,0.998887561384172,151.02438705993225
6.295110144,0.9988929951132931,150.88369329454054
6.29739776,0.99896830355373,150.7424241314262
6.299685376,0.9991086625998609,150.59958904517325
6.301972992,0.9993053492517652,150.45428922043143
6.304260608,0.9995458177657924,150.30584381871472
6.306548224,0.9998149086652551,150.1537099293389
6.308836352,1.0000956867575834,149.99758556676514
6.311123968,1.0003702491080395,149.83743800852253
6.313411584,1.0006213101246793,149.67349590470062
6.3156992,1.000833028844476,149.50618193115153
6.317986816,1.0009919300895926,149.3362198004214
6.320274432,1.0010880981939991,149.16439350557886
6.322562048,1.0011154079870315,148.99169859211722
6.324849664,1.0010720825903647,148.81911613537073
6.327137792,1.0009608297651997,148.64768984826034
6.329425408,1.0007887154803694,148.47828661971283
6.331713024,1.000566472326915,148.31176698173567
6.33400064,1.0003082677502717,148.1487066076026
6.336288256,1.0000301398861025,147.98958153338117
6.338575872,0.9997498397829488,147.83450405838346
6.340863488,0.9994850289368199,147.6834009409642
6.343151104,0.9992523953747832,147.5359177619497
6.34543872,0.9990669265550768,147.39148166179396
6.347726848,0.99894015554523,147.24937140590924
6.350014464,0.9988803088252903,147.10859708690757
6.35230208,0.9988910996326336,146.96820989273309
6.354589696,0.9989718567856647,146.82713726227004
6.356877312,0.9991175986094015,146.68444402135344
6.359164928,0.9993190183644753,146.53926057966765
6.361452544,0.9995633525422051,146.39082167567653
6.36374016,0.9998352690690334,146.2386627089216
6.366027776,1.000117474778142,146.08247419349408
6.368315904,1.0003920863808238,145.9222486058295
6.37060352,1.0006418039234248,145.75824063969688
6.372891136,1.0008509303477957,145.59090594472914
6.375178752,1.0010061610161078,145.42095175863383
6.377466368,1.0010976637920217,145.24920167540535
6.379753984,1.001119844079142,145.07666415371037
6.3820416,1.00107096719597,144.90429018431604
6.384329216,1.0009543090924917,144.73315711736663
6.386617344,1.0007770824439814,144.5641339318611
6.38890496,1.0005506100024746,144.39805761474037
6.391192576,1.0002890173581072,144.23552658574988
6.393480192,1.0000087924979666,144.07691950280895
6.395767808,0.999727754317076,143.92241848531302
6.398055424,0.9994635517655825,143.7718762800416
6.40034304,0.9992330341898329,143.6249506989434
6.402630656,0.9990506415795455,143.48104156886382
6.404918272,0.9989282726319929,143.33938280864817
6.4072064,0.9988733360474829,143.1989982472608
6.409494016,0.9988895972133517,143.05892171044025
6.411781632,0.998975964261868,142.91809973099967
6.414069248,0.9991269753535436,142.77558517765428
6.416356864,0.9993330653924132,142.6304568419544
6.41864448,0.999581282342042,142.4820550303329
6.420932096,0.9998559155155109,142.32982759154632
6.423219712,1.0001394322524224,142.17360758466586
6.425507328,1.0004140722407315,142.01332644149076
6.427795456,1.0006624034243203,141.84926900325158
6.430083072,1.0008688427534884,141.68190639024317
6.432370688,1.0010203421937982,141.51196978071863
6.434658304,1.0011071056503436,141.34033559066407
6.43694592,1.001123861416282,141.1679402763308
6.439233536,1.0010694953418444,140.99580386846583
6.441521152,1.0009473064842997,140.8249769181544
6.443808768,1.000765084035518,140.656372444056
6.446096896,1.00053435279674,140.49075034106414
6.448384512,1.0002693819474056,140.32873339292993
6.450672128,0.9999871362815342,140.17069816986944
6.452959744,0.9997054186596189,140.01679093135385
6.45524736,0.9994419385987171,139.86683028162057
6.457534976,0.9992134587741414,139.7204534442801
6.459822592,0.9990345242998276,139.5770553086404
6.462110208,0.9989164069310978,139.4358445474845
6.464397824,0.9988666991829126,139.29589159047293
6.466685952,0.9988884028300359,139.15612055976544
6.468973568,0.9989804666042771,139.0155493730006
6.471261184,0.9991368009707091,138.8731846694691
6.4735488,0.9993476714587843,138.72816130967914
6.475836416,0.999599679191265,138.57978104108844
6.478124032,0.999876864980649,138.4275854783443
6.480411648,1.0001617655098038,138.27127726309308
6.482699264,1.0004363557998426,138.1109470440265
6.48498688,1.0006832176134353,137.94683363529103
6.487275008,1.0008868444821886,137.7794672775778
6.489562624,1.0010343269941704,137.60957191765561
6.49185024,1.0011163652264348,137.43803079628822
6.494137856,1.0011277534515757,137.26580649880978
6.496425472,1.0010677354881017,137.093946698904
6.498713088,1.0009399427712724,136.9234512661673
6.501000704,1.000752733444637,136.75525204812794
6.50328832,1.0005175151986205,136.59010175646065
6.505576448,1.0002494606129169,136.4286456315373
6.507864064,0.9999651674972343,136.27117120472008
6.51015168,0.9996828800563805,136.11786202299115
6.512439296,0.9994203163960503,135.96848123352692
6.514726912,0.9991940070964541,135.82270894809886
6.517014528,0.9990185355790223,135.67985355145228
6.519302144,0.9989048435676554,135.5390996479473
6.52158976,0.9988603404118688,135.39953445400366
6.523877376,0.9988876944738893,135.26010488663056
6.526165504,0.9989853307174978,135.11977193690407
6.52845312,0.9991470914533858,134.9775808542074
6.530740736,0.999362559281247,134.83266324980917
6.533028352,0.9996183445658084,134.6842998309895
6.535315968,0.999898162935295,134.5320749822105
6.537603584,1.0001844385871959,134.37574679636265
6.5398912,1.0004587844432145,134.21536867559573
6.542178816,1.0007040566128154,134.05122195788223
6.544466432,1.0009047848006243,133.88385997655595
6.54675456,1.0010481479308933,133.71400879280674
6.549042176,1.0011253222898502,133.542549599489
6.551329792,1.0011311769198419,133.37053164110264
6.553617408,1.0010653661737094,133.1989415682727
6.555905024,1.0009321622500322,133.02880211464856
6.55819264,1.0007397818014783,132.86103532199755
6.560480256,1.0005003810364168,132.69639861052488
6.562767872,1.00022898073864,132.53546837984763
6.565056,0.9999428644920102,132.37861603897304
6.567343616,0.9996600928391323,132.2258862294355
6.569631232,0.9993983286534424,132.07712567692792
6.571918848,0.9991745113804906,131.93192753504246
6.574206464,0.9990024844972066,131.78960766618363
6.57649408,0.9988934331807248,131.64936545234943
6.578781696,0.9988541645572181,131.51021044995625
6.581069312,0.9988872812542249,131.37110311792654
6.583356928,0.9989905577873606,131.23102523156612
6.585645056,0.9991577786458932,131.08898044433175
6.587932672,0.9993780461353642,130.9441756880839
6.590220288,0.9996376005453008,130.79585366073616
6.592507904,0.9999198880437997,130.64362026430464
6.59479552,1.0002071640494534,130.48723358712923
6.597083136,1.0004813339778156,130.3268192757501
6.599370752,1.0007248518910132,130.16262919314406
6.601658368,1.0009225537997757,129.99528534784577
6.603945984,1.0010618759000733,129.8254993928022
6.606234112,1.0011337960531212,129.65417930166086
6.608521728,1.0011341644328478,129.48236280027268
6.610809344,1.0010626619543976,129.31104438048976
6.61309696,1.0009238676686867,129.14127531814034
6.615384576,1.000726396895537,128.97394025511602
6.617672192,1.000482729938319,128.80983244607077
6.619959808,1.0002082570287627,128.64946612012707
6.622247424,0.999920314376543,128.49321731108876
6.624535552,0.9996371175283033,128.34111783638872
6.626823168,0.9993763935713601,128.1929811325789
6.629110784,0.9991549695142663,128.04837818956682
6.6313984,0.9989867474803815,127.90659445655145
6.633686016,0.9988822735923953,127.76684791779485
6.635973632,0.9988484021133848,127.62808189881679
6.638261248,0.9988873090616603,127.48932322507414
6.640548864,0.998996484540765,127.34951138314162
6.64283648,0.9991689949533842,127.20764420680055
6.645124608,0.9993939832667633,127.0628988317051
6.647412224,0.9996572561771154,126.91463637997983
6.64969984,0.9999419057629253,126.7623752795257
6.651987456,1.000230397696287,126.6059748062085
6.654275072,1.0005040687517046,126.4455028304069
6.656562688,1.000745812387549,126.28132625353169
6.658850304,1.0009403995734005,126.11398055108354
6.66113792,1.0010752775986955,125.94424939527477
6.663426048,1.0011422027102177,125.77306285762276
6.665713664,1.001136875983392,125.60146418916024
6.66800128,1.0010595180474515,125.43045097829507
6.670288896,1.0009149907154882,125.26107146894783
6.672576512,1.0007124922886488,125.09420341639753
6.674864128,1.0004645471829419,124.93059632335473
6.677151744,1.0001869659384128,124.77083164456648
6.67943936,0.9998972693656886,124.61519006435256
6.681726976,0.9996137403313123,124.46371710455044
6.684015104,0.9993543085569125,124.31622718101154
6.68630272,0.9991354488330761,124.17221091820181
6.688590336,0.9989708442751275,124.03099487723266
6.690877952,0.9988713341179065,123.89173828500292
6.693165568,0.9988430264181355,123.75341413503394
6.695453184,0.998887742700616,123.61499601699198
6.6977408,0.9990026888527602,123.47541495884452
6.700028416,0.999180729431169,123.33372289170903
6.702316032,0.9994103857446623,123.18907293113267
6.70460416,0.999677350239588,123.04083860812304
6.706891776,0.9999645351107462,122.88857539986596
6.709179392,1.0002539157571637,122.73214751510271
6.711467008,1.0005271338403523,122.57164058326688
6.713754624,1.0007668853830125,122.40743316803456
6.71604224,1.000958088127729,122.2401113640275
6.718329856,1.001088737830144,122.07045740573928
6.720617472,1.0011504260007618,121.89942766217024
6.7229056,1.0011392836215727,121.72804064898857
6.725193216,1.001056055625058,121.55733828209942
6.727480832,1.0009058154162818,121.38836443511825
6.729768448,1.0006981256254883,121.2219603810114
6.732056064,1.000446088324667,121.0589111878458
6.73434368,1.0001654103963595,120.89975068550584
6.736631296,0.9998740270288118,120.74470664253785
6.738918912,0.9995902659749004,120.59390528220494
6.741206528,0.9993320997801308,120.44703211094603
6.743494656,0.9991158758735993,120.30362963520679
6.745782272,0.9989553394537365,120.16298271046611
6.748069888,0.9988607529115162,120.02420836340097
6.750357504,0.9988379967273063,119.8862978995358
6.75264512,0.9988886516866934,119.74821675369981
6.754932736,0.9990095082743631,119.60890063271268
6.757220352,0.9991929642936592,119.46737570688477
6.759507968,0.9994273638819295,119.32282685740941
6.761795584,0.9996979487868399,119.17461818744916
6.764083712,0.9999873975336687,119.02234239282308
6.766371328,1.0002776526529167,118.86588546140236
6.768658944,1.000550245794088,118.7053523026547
6.77094656,1.0007879732420137,118.54112606601677
6.773234176,1.0009758623575984,118.37382054261295
6.775521792,1.001101915614963,118.20427406922508
6.777809408,1.0011581725169894,118.03339010710188
6.780097024,1.0011412447104677,117.86223805857594
6.782385152,1.001051995335837,117.69188120936349
6.784672768,1.0008960082231622,117.52329224465672
6.786960384,1.0006832975765416,117.35736731740808
6.789248,1.000426968465025,117.19489739413115
6.791535616,1.0001433104891404,117.03632946038879
6.793823232,0.99985028123947,116.88195670580002
6.796110848,0.9995663956130452,116.73178778301934
6.798398464,0.9993096747014373,116.58554763494192
6.80068608,0.999096265371821,116.44277829844839
6.802974208,0.9989398491843176,116.30268684698899
6.805261824,0.9988502487342498,116.16442246272604
6.80754944,0.9988331515617859,116.0269315630916
6.809837056,0.998889861677924,115.88918766818757
6.812124672,0.9990166459478947,115.75011207488978
6.814412288,0.9992056273599919,115.60875534577117
6.816699904,0.9994447627512872,115.46429474833383
6.81898752,0.9997187425005183,115.31613478601352
6.821275136,1.0000107011154733,115.16385323407809
6.823563264,1.0003017155969458,115.00736797356994
6.82585088,1.0005736667968652,114.84679410907623
6.828138496,1.0008091114822695,114.6825564064568
6.830426112,1.0009933438042127,114.51528791805691
6.832713728,1.0011147992814562,114.34581603014252
6.835001344,1.0011657196875468,114.17510729625019
6.83728896,1.0011428241591682,114.00421188000873
6.839576576,1.0010474149936344,113.8341753305343
6.841864704,1.0008857220320513,113.66600306505269
6.84415232,1.000667771777097,113.50059139915592
6.846439936,1.0004073535541578,113.33867883283528
6.848727552,1.0001208118089606,113.18073306835653
6.851015168,0.9998261855822458,113.02700107620208
6.853302784,0.9995423929999971,112.87751389900198
6.8555904,0.999287152451193,112.7319095541934
6.857878016,0.9990767267295797,112.58975752156847
6.860165632,0.9989244198756206,112.45023050573091
6.86245376,0.9988400196489672,112.31249018620069
6.864741376,0.9988288025325313,112.17542758931152
6.867028992,0.9988916235059401,112.03801191129962
6.869316608,0.9990244092044674,111.899181562378
6.871604224,0.9992188517678628,111.75798584591453
6.87389184,0.9994625763304794,111.61362773410681
6.876179456,0.999740219109932,111.4654818636301
6.878467072,1.0000343328067096,111.31319186137036
6.880754688,1.0003259857234952,111.15665141187321
6.883042816,1.0005970248861173,110.99606245375307
6.885330432,1.000830299209929,110.83181670993092
6.887618048,1.0010109145695256,110.66458779911724
6.889905664,1.0011275940987319,110.49522169136708
6.89219328,1.0011727627494236,110.32468235871961
6.894480896,1.0011438844441012,110.15403201425454
6.896768512,1.0010423845487892,109.98435094196412
6.899056128,1.000874860239337,109.81660244566137
6.901344256,1.0006517477745165,109.65171289097881
6.903631872,1.0003872173101744,109.49037133600338
6.905919488,1.0000978282208453,109.33303897405311
6.908207104,0.9998018623267148,109.1799757410793
6.91049472,0.9995180786977222,109.0311507180699
6.912782336,0.9992645083708819,108.88622837246443
6.915069952,0.9990570995050253,108.74468844685674
6.917357568,0.9989090996295854,108.60575527058914
6.919645184,0.998830021781584,108.46849020604526
6.921933312,0.9988248048218688,108.33184540496303
6.924220928,0.9988937678450817,108.194781230313
