freq,mag,phase
6.0,0.9995955746835251,113.54637459280958
6.002287104,0.9994288659715782,113.39733804461585
6.004574208,0.9992989319047816,113.25050036421771
6.006861312,0.9992131222957004,113.10525943736961
6.009147904,0.9991769613126834,112.96095626846692
6.011435008,0.9991927182816709,112.81683624797306
6.013722112,0.9992595072084264,112.67213779733198
6.016009216,0.9993728896022945,112.52618685846926
6.01829632,0.999525961026951,112.37831488843332
6.020583424,0.9997090108153007,112.22803495135396
6.022870016,0.9999102901601862,112.07501699688383
6.02515712,1.000116984721502,111.9190645674955
6.027444224,1.0003161467193094,111.76016867989226
6.029731328,1.0004950982423961,111.59859057766016
6.032018432,1.0006426017612478,111.43466851355906
6.034305536,1.000749140525291,111.26892909226709
6.036592128,1.0008081666976247,111.10201595565076
6.038879232,1.0008157624881735,110.9346753402572
6.041166336,1.0007713449394382,110.767609489597
6.04345344,1.0006778874102387,110.60159928139758
6.045740544,1.0005412677955041,110.43727345553607
6.048027648,1.0003700494768897,110.27521863589405
6.05031424,1.0001749054148332,110.11585945928435
6.052601344,0.9999683872847955,109.95943670796541
6.054888448,0.9997634993389121,109.80604603598624
6.057175552,0.9995733338816083,109.65557346447984
6.059462656,0.9994097647368638,109.50770065009365
6.06174976,0.9992832720469323,109.36199126509337
6.064036352,0.9992019719701672,109.2178299857007
6.066323456,0.9991710215958667,109.07451463174684
6.06861056,0.9991923412510476,108.93129976502277
6.070897664,0.9992647142244324,108.78745246773576
6.073184768,0.9993835854064989,108.64222721829263
6.075471872,0.9995412397280453,108.49506578494147
6.077758464,0.9997278711009981,108.34540647202172
6.080045568,0.9999315489669234,108.19293846976983
6.082332672,1.0001394283096217,108.03750252895905
6.084619776,1.0003383427886232,107.87916781661886
6.08690688,1.000515581062949,107.71813340087981
6.089193984,1.00066003196999,107.55479449946782
6.091481088,1.000762709429105,107.38967766231376
6.09376768,1.000816549499538,107.22345789801112
6.096054784,1.0008186142355475,107.05686745093233
6.098341888,1.0007686397116655,106.89066391935462
6.100628992,1.0006696938748685,106.72556981871499
6.102916096,1.00052799776127,106.56222732331982
6.1052032,1.0003525620959488,106.40124675222549
6.107489792,1.0001544354382494,106.24299761099476
6.109776896,0.9999460756662631,106.0877190730955
6.112064,0.9997408031570653,105.93550355043314
6.114351104,0.9995517379614353,105.78617440476535
6.116638208,0.9993906928513493,105.63943877012912
6.118925312,0.9992679036012874,105.49482526829699
6.121211904,0.9991911669061124,105.35167549825977
6.123499008,0.9991655626720862,105.20931012130016
6.125786112,0.9991926099695103,105.06697825677637
6.128073216,0.999270623611471,104.92388895029484
6.13036032,0.9993947805390723,104.779395691979
6.132647424,0.9995570446127268,104.63282197594418
6.134934016,0.9997473786796861,104.4837394173201
6.13722112,0.9999533632193875,104.33180949495893
6.139508224,1.0001622378878776,104.17685812692076
6.141795328,1.000360686480179,104.01900319611856
6.144082432,1.0005361070382304,103.85845166445539
6.146369536,1.0006774225440578,103.69563825147164
6.148656128,1.0007755876904583,103.53111321758351
6.150943232,1.0008244785162155,103.36557440989641
6.153230336,1.0008209491606155,103.19971433957078
6.15551744,1.000765133554216,103.03429782690813
6.157804544,1.0006605216957307,102.87011228946041
6.160091648,1.0005139046329008,102.70774066732453
6.162378752,1.000334349972717,102.54775812219476
6.164665344,1.0001331641875373,102.39062699349302
6.166952448,0.9999231852082059,102.23647078200239
6.169239552,0.9997176584689926,102.08537162484863
6.171526656,0.999529855459792,101.93716453007336
6.17381376,0.9993713528579657,101.79153398298361
6.176100864,0.9992524355736053,101.64789537710793
6.178387456,0.9991806632593206,101.50574518007855
6.18067456,0.999160528356122,101.36427230254857
6.182961664,0.9991934748003966,101.2227643308031
6.185248768,0.9992773557988727,101.08039996672642
6.187535872,0.9994067365546802,100.93652743208189
6.189822976,0.9995736653164417,100.79055779852506
6.192109568,0.9997675179648546,100.64195605723945
6.194396672,0.9999758360309547,100.49050092977343
6.196683776,1.0001856882514815,100.33599025977657
6.19897088,1.0003834629236321,100.17856143932636
6.201257984,1.0005568258167459,100.01846845681429
6.203545088,1.0006947372570856,99.85615822011468
6.20583168,1.0007884073365436,99.69216280294644
6.208118784,1.0008320541227111,99.52720360527431
6.210405888,1.0008227394865223,99.36204984176076
6.212692992,1.000761035236551,99.19744153680014
6.214980096,1.0006507669413955,99.03408489220692
6.2172672,1.0004990984752138,98.87263825433416
6.219553792,1.0003153490231045,98.71369534454706
6.221840896,1.000111291130846,98.55757138612526
6.224128,0.9998998028401139,98.40450220986263
6.226415104,0.9996943468599686,98.25450165887872
6.228702208,0.9995079593380393,98.10734508624068
6.230989312,0.99935226723707,97.96276049762992
6.233275904,0.9992373781180366,97.82015129811165
6.235563008,0.9991706488076145,97.67891191350283
6.237850112,0.9991561141399318,97.5382828582782
6.240137216,0.9991951154244035,97.39750617332525
6.24242432,0.9992846592988506,97.25584273780152
6.244711424,0.9994196367227492,97.11254157411737
6.246998528,0.9995911548469891,96.96706758820028
6.24928512,0.9997884444782634,96.81894084770131
6.251572224,0.999999040940065,96.66785752790885
6.253859328,1.000209502519611,96.51376655176658
6.256146432,1.0004065285773387,96.35670223519917
6.258433536,1.0005776224349259,96.19701825664531
6.26072064,1.0007119434888259,96.0351461289647
6.263007232,1.0008010490163803,95.87165530735439
6.265294336,1.0008392102003287,95.70728654287296
6.26758144,1.000823911476377,95.54278161014918
6.269868544,1.0007561940516738,95.37887807901221
6.272155648,1.0006403168583777,95.21636200424979
6.274442752,1.000483426832551,95.05582501424826
6.276729344,1.00029568284847,94.8978351571579
6.279016448,1.0000887466515522,94.74271610057913
6.281303552,0.9998758774412262,94.59069895673801
6.283590656,0.9996705576513214,94.44172886202377
6.28587776,0.999485639076017,94.29562861374698
6.288164864,0.9993330463851118,94.1520309656085
6.290451456,0.9992224017042086,94.01039265806139
6.29273856,0.9991608207970004,93.8699922373857
6.295025664,0.9991522606576286,93.73016384751753
6.297312768,0.9991971879028162,93.59011363361942
6.299599872,0.9992928630250917,93.44904858940785
6.301886976,0.9994331164813213,93.3063065260471
6.304173568,0.9996092428891176,93.16125504619691
6.306460672,0.9998100389618886,93.01352905369971
6.308747776,1.0000226125372307,92.8627896610126
6.31103488,1.0002336218385954,92.70899907028985
6.313321984,1.0004296693244084,92.55232498657507
6.315609088,1.0005984923555673,92.39296065203979
6.317896192,1.0007290266023732,92.23149452156126
6.320182784,1.0008132969978059,92.06847583828664
6.322469888,1.0008455951750186,91.90463457537601
6.324756992,1.0008243747753118,91.74072535338905
6.327044096,1.0007505224721736,91.57754796658435
6.3293312,1.0006288935543377,91.41580246348765
6.331618304,1.0004671584422284,91.25612352539908
6.333904896,1.000275336405119,91.09905515323689
6.336192,1.0000656688051905,90.94493382856643
6.338479104,0.9998516026678215,90.79390324237642
6.340766208,0.9996463566053152,90.64595833046961
6.343053312,0.9994633567095577,90.50083623054141
6.345340416,0.9993140485371931,90.35820248758398
6.347627008,0.9992078364780013,90.21742342471026
6.349914112,0.9991515570713732,90.0778903854885
6.352201216,0.9991489985751781,89.93879154665689
6.35448832,0.9992000339392398,89.79934911849624
6.356775424,0.9993017404683722,89.65887217248164
6.359062528,0.999447573120405,89.51658647583704
6.36134912,0.9996282200963656,89.37194476494054
6.363636224,0.9998322347208729,89.22453048840764
6.365923328,1.0000468890487844,89.07410768674724
6.368210432,1.0002583106113998,88.92062863733808
6.370497536,1.0004531195910313,88.76420232010791
6.37278464,1.0006192017595645,88.60514871131518
6.375071232,1.0007458179640984,88.44403172919816
6.377358336,1.0008249704642413,88.28143392584185
6.37964544,1.0008516862891317,88.11807321278532
6.381932544,1.0008242414437796,87.95476975014638
6.384219648,1.0007441679754188,87.7922216034369
6.386506752,1.0006168301633267,87.63124394462619
6.388793344,1.0004498298729132,87.47240835936674
6.391080448,1.0002542332377238,87.31622723852601
6.393367552,1.0000419578995647,87.16302501172912
6.395654656,0.9998267175832561,87.01293745916765
6.39794176,0.9996220980160384,86.8659754036428
6.400228864,0.9994409709770606,86.72180364262792
6.402515968,0.9992950458940035,86.58007048800818
6.40480256,0.9991934693515258,86.44015768797456
6.407089664,0.9991428461647649,86.30136692243859
6.409376768,0.999146369866346,86.16295887956836
6.411663872,0.9992037281737515,86.02413664858099
6.413950976,0.9993114265095798,85.88412910794038
6.41623808,0.9994626893382411,85.74226228354527
6.418524672,0.9996478550318969,85.59796154593252
6.420811776,0.9998551256446225,85.45084246891955
6.42309888,1.0000715495916173,85.30066357562902
6.425385984,1.0002833178577326,85.14734669277767
6.427673088,1.0004768387328906,84.99118729313987
6.429960192,1.0006401421089746,84.83239987459959
6.432246784,1.0007624921303806,84.67158728080541
6.434533888,1.000836470253105,84.50936899468931
6.436820992,1.0008571917898845,84.34645116148289
6.439108096,1.0008234814494035,84.18366167903449
6.4413952,1.0007372023187813,84.02177914744374
6.443682304,1.0006039943102225,83.86150078575159
6.445968896,1.0004320177272867,83.7034561570421
6.448256,1.0002324084760585,83.54811075645117
6.450543104,1.0000177069815221,83.39582490816784
6.452830208,0.9998015031862229,83.24666271763364
6.455117312,0.9995974550615677,83.10060599662344
6.457404416,0.9994185869881572,82.95735889965357
6.459691008,0.999276234935989,82.81647142139357
6.461978112,0.9991795187012188,82.6773458215053
6.464265216,0.9991346469915777,82.53928858562422
6.46655232,0.9991443542890989,82.40149980416393
6.468839424,0.9992082668945464,82.26317942186085
6.471126528,0.9993220567626804,82.12362699716867
6.473413632,0.999478758329675,81.98211196323741
6.475700224,0.9996683484900145,81.83809190901007
6.477987328,0.9998788111111209,81.69117972539662
6.480274432,1.000096858717518,81.5411766649833
6.482561536,1.0003086196842468,81.38809180997957
6.48484864,1.0005006189889272,81.23207235074229
6.487135744,1.0006608194309294,81.07349508072323
6.489422336,1.0007788312436254,80.9129358378028
6.49170944,1.0008475040101343,80.75103819399082
6.493996544,1.0008620856634582,80.58854907944449
6.496283648,1.0008218543120444,80.4262704845444
6.498570752,1.0007292931502747,80.26497041415908
6.500857856,1.0005902074875097,80.10537054552834
6.503144448,1.0004133029000546,79.94805551229767
6.505431552,1.0002099717413864,79.79355505955384
6.507718656,0.9999927847567066,79.64212174027833
6.51000576,0.9997757569932894,79.49385757806407
6.512292864,0.9995725725574053,79.34865681783945
6.514579968,0.9993961126845045,79.20628808914852
6.51686656,0.9992576249091736,79.06617936294062
6.519153664,0.9991659106587679,78.92781744607903
6.521440768,0.9991268258768574,78.79039408445409
6.523727872,0.9991430034483271,78.65316101788436
6.526014976,0.9992132730880128,78.51536482957741
6.52830208,0.9993332835482788,78.37617350471598
6.530588672,0.9994954125884428,78.23495599534819
6.532875776,0.9996894741344895,78.09115977314555
6.53516288,0.9999029579749766,77.94440452613748
6.537449984,1.0001225897096953,77.79452600350021
6.539737088,1.0003342010919096,77.64154845126943
6.542024192,1.0005244572273775,77.48565160758476
6.544310784,1.0006814604396794,77.32725603304489
6.546597888,1.0007950158779164,77.16691083199211
6.548884992,1.0008579404756461,77.00529516520254
6.551172096,1.0008663464956167,76.8431725386538
6.5534592,1.0008195435299343,76.6813674123561
6.555746304,1.0007206039659535,76.52061483355395
6.558033408,1.0005756786434068,76.36165854064417
6.56032,1.000393905615025,76.20507494649638
6.562607104,1.0001866835069488,76.05135423710435
6.564894208,0.9999673640730755,75.90072550762322
6.567181312,0.9997496979609963,75.7533147620129
6.569468416,0.9995474836222913,75.60895396287678
6.57175552,0.9993736444806723,75.46735806259109
6.574042112,0.999239212576859,75.32802793761849
6.576329216,0.9991526765504646,75.19034603185433
6.57861632,0.9991197005810497,75.05353366948334
6.580903424,0.9991423447061648,74.91683502533121
6.583190528,0.9992191812249495,74.77943721285567
6.585477632,0.9993453309503454,74.64055371305017
6.587764224,0.9995129639364589,74.49957389326265
6.590051328,0.9997112941504035,74.35592836169748
6.592338432,0.9999278126393224,74.20930025062617
6.594625536,1.0001486599902585,74.05948833874143
6.59691264,1.0003600360797062,73.90655179441089
6.599199744,1.0005483655321006,73.75075282946699
6.601486336,1.0007018318577072,73.59246561814892
6.60377344,1.0008107617614947,73.43227699978308
6.606060544,1.000867960615513,73.27092531609122
6.608347648,1.0008699052604688,73.10914039772798
6.610634752,1.0008165477743842,72.94774164861515
6.612921856,1.0007111565780116,72.78752817631691
6.615208448,1.0005603737670126,72.62914692264219
6.617495552,1.000373719891989,72.47327203334667
6.619782656,1.0001629813298816,72.32024488874265
6.62206976,0.9999414800147091,72.17042098871353
6.624356864,0.999723295249672,72.02378821539652
6.626643968,0.9995223207614007,71.88025648496725
6.628931072,0.9993512798592465,71.73941682688022
6.631217664,0.999221050790673,71.60079775540477
6.633504768,0.9991400403851655,71.46373617686534
6.635791872,0.9991131677346318,71.32747971894761
6.638078976,0.9991424135332947,71.19122207367637
6.64036608,0.9992259407930515,71.05418684014579
6.642653184,0.9993583473213579,70.91556168360522
6.644939776,0.9995313630843949,70.77473608840447
6.64722688,0.9997338650814119,70.63120805841939
6.649513984,0.9999531460854851,70.48461891342471
6.651801088,1.0001753106596525,70.33482565478039
6.654088192,1.0003861662688587,70.18193149155438
6.656375296,1.0005724429512501,70.02611356851693
6.658661888,1.0007223361645992,69.86790219076195
6.660948992,1.0008261661735351,69.70785900245548
6.663236096,1.0008774087577241,69.54669201068533
6.6655232,1.0008728443345918,69.38522957402863
6.667810304,1.0008128520016186,69.22419152812745
6.670097408,1.0007008783495972,69.06442879587566
6.672384,1.0005442641780027,68.90663797883991
6.674671104,1.0003527842842035,68.75138799456691
6.676958208,1.0001385574658512,68.5990934710213
6.679245312,0.99991515649166,68.45000253146628
6.681532416,0.9996966510520665,68.30411026237887
6.68381952,0.9994971330860203,68.1613173016052
6.686106112,0.99932910162447,68.02118693178353
6.688393216,0.9992032626169411,67.88322666536594
6.69068032,0.9991278045718548,67.74674590440169
6.692967424,0.9991073068032524,67.61098463252674
6.695254528,0.9991434104278848,67.47513613668568
6.697541632,0.9992335455873107,67.33837952051202
6.699828224,0.9993721597172394,67.19996602985056
6.702115328,0.9995505015168192,67.05926237461553
6.704402432,0.9997572779776324,66.91577061364171
6.706689536,0.9999792350990943,66.7691577205069
6.70897664,1.000202422625887,66.61933974878278
6.711263744,1.0004126316795603,66.4663644407629
6.713550848,1.0005965380126323,66.31056293901895
6.71583744,1.0007424420695807,66.15235207179299
6.718124544,1.0008412345397897,65.99239324172025
6.720411648,1.0008864481470934,65.83138795400669
6.722698752,1.0008752229978402,65.67014674277274
6.724985856,1.0008083137663908,65.50948096557309
6.72727296,1.0006898630442436,65.35016084008166
6.729559552,1.0005274930412473,65.19289247472217
6.731846656,1.0003311302816427,65.03824946181878
6.73413376,1.0001134974337167,64.88661897238853
6.736420864,0.9998882577535391,64.73821059645626
6.738707968,0.9996697542128149,64.59306144056552
6.740995072,0.9994717298004178,64.45094869493285
6.743281664,0.9993069418725705,64.31148062604588
6.745568768,0.999185792454032,64.174136225483
6.747855872,0.9991160315136957,64.0381840865316
6.750142976,0.9991020613489741,63.90284454874397
6.75243008,0.9991449221157668,63.76732900289819
6.754717184,0.9992418374154941,63.630790705722355
6.757003776,0.9993867514724399,63.492530404275826
6.75929088,0.9995703446401321,63.35185978567468
6.761577984,0.9997811362758756,63.208368376065586
6.763865088,1.00000569534977,63.06168034873976
6.766152192,1.0002296273736775,62.91175406465668
6.768439296,1.000438987909158,62.75870747800576
6.770725888,1.000620394879952,62.60280119225977
6.773012992,1.0007623657609899,62.44456797631476
6.775300096,1.0008556594223423,62.28466632152474
6.7775872,1.0008946407569004,62.12378183301071
6.779874304,1.0008767034671378,61.96273490288881
6.782161408,1.0008028558275142,61.80238843207614
6.784448512,1.0006779597284978,61.64348833324698
6.786735104,1.0005097024800382,61.4867214307312
6.789022208,1.0003087356820324,61.332634127195
6.791309312,1.0000877772857817,61.181618746389965
6.793596416,0.9998608954393937,61.033873184456766
6.79588352,0.9996424678247636,60.88939397037027
6.798170624,0.9994463085454861,60.747909094712796
6.800457216,0.9992849330521392,60.60906902839915
6.80274432,0.9991685400294191,60.47225871903202
6.805031424,0.999104728519138,60.33678148459759
6.807318528,0.9990974256851206,60.201821683288074
6.809605632,0.9991472639955119,60.066578487402964
6.811892736,0.9992509821746695,59.93023439827235
6.814179328,0.9994021138971397,59.79203510748915
6.816466432,0.9995910443476244,59.65136891385442
6.818753536,0.999805633691625,59.507768528603066
6.82104064,1.0000326274719868,59.36097758609644
6.823327744,1.0002573442841216,59.21090829375902
6.825614848,1.000465621527246,59.057675961872874
6.82790144,1.000644253744661,58.901691260377184
6.830188544,1.0007818136377886,58.74337210243882
6.832475648,1.0008697914017108,58.583436846527455
6.834762752,1.0009023819187082,58.42264550136645
6.837049856,1.000877448103994,58.261776660364895
6.83933696,1.0007967382400682,58.1017072166321
6.841623552,1.0006651528840835,57.94315299558008
6.843910656,1.0004911426211378,57.7868377522429
6.84619776,1.0002856209421565,57.63329496030163
6.848484864,1.0000615940065016,57.48285015322701
6.850771968,0.9998332556644319,57.33573295534947
6.853059072,0.9996150401972065,57.191842354211
6.855345664,0.9994208248392258,57.050986507454766
6.857632768,0.9992631921856207,56.91272303899111
6.859919872,0.9991518667988589,56.776399179412984
6.862206976,0.9990941544554801,56.64133248750067
6.86449408,0.9990936661605876,56.506703432329076
6.866781184,0.9991504458294556,56.371655605726474
6.869068288,0.9992610908008304,56.23542551253871
6.87135488,0.9994184109052838,56.097233388984044
6.873641984,0.9996124688913846,55.95651052613404
6.875929088,0.9998310214980577,55.81277141007103
6.878216192,1.0000601629770567,55.66579880573745
6.880503296,1.0002854057718256,55.515516801895366
6.8827904,1.0004924460132194,55.36209180406315
6.885076992,1.0006681200706624,55.20591414169182
6.887364096,1.000801220297354,55.04747930868715
6.8896512,1.0008834623369758,54.88749202896384
6.891938304,1.0009094118299706,54.72673417387306
6.894225408,1.00087761733424,54.566009772206066
6.896512512,1.0007899034292531,54.406157788328066
6.898799104,1.000651779113333,54.24794626136246
6.901086208,1.0004720103151994,54.09205282696779
6.903373312,1.0002618977709754,53.93898129745559
6.905660416,1.0000348909740602,53.7891087916014
6.90794752,0.9998052167144825,53.64254285510211
6.910234624,0.999587478922201,53.49923766217818
6.912521216,0.9993955934179735,53.358946746557244
6.91480832,0.9992416488255209,53.22117553239284
6.917095424,0.9991355852817653,53.08528762295428
6.919382528,0.9990841082602759,52.95057071432159
6.921669632,0.9990904312846725,52.81619278369878
6.923956736,0.9991544023458774,52.68131635761825
6.926243328,0.9992719143852159,52.545135288804524
6.928530432,0.9994353805393791,52.406915147504456
6.930817536,0.9996346398651592,52.26604030008065
6.93310464,0.9998568370310065,52.12210276515971
