freq,mag,phase
6.0,0.9998300518903454,-6.394437430260295
6.010126336,0.999704510914273,-6.7140947532731605
6.020253184,0.9995945256998179,-7.032253496956318
6.03037952,0.9995050403026535,-7.3491940436082555
6.040506368,0.9994405692149568,-7.665164889364432
6.050632704,0.9994044884420554,-7.980517940176772
6.060759552,0.9993987637794295,-8.295654766728134
6.070885888,0.9994235850139622,-8.610903919375847
6.081012736,0.9994777272355096,-8.926756256661362
6.091139072,0.9995586760284568,-9.243500614911216
6.10126592,0.9996621484562586,-9.561466138958766
6.111392256,0.9997830470024742,-9.880914383342606
6.121519104,0.99991496359363,-10.202105407848862
6.13164544,1.0000517322038078,-10.525012568650226
6.141772288,1.0001858124818315,-10.849788933261538
6.151898624,1.0003108998139991,-11.176250266111557
6.162025472,1.0004204421620906,-11.504257121084189
6.172151808,1.0005088551236399,-11.83362592148485
6.182278656,1.000571573841754,-12.163985920227669
6.192404992,1.0006055410210037,-12.495070740142596
6.20253184,1.0006088167923992,-12.826389756484305
6.212658176,1.000581330210542,-13.157648239842628
6.222785024,1.0005244028755753,-13.488416658372685
6.23291136,1.0004409451287313,-13.818289643556723
6.243038208,1.000334999470643,-14.14698585597077
6.253164544,1.0002119647232288,-14.474244892555957
6.263291392,1.0000779782950462,-14.799848666536048
6.273417728,0.9999400124565822,-15.123805700905624
6.283544064,0.9998049397051825,-15.445952819073046
6.293670912,0.9996797278075137,-15.766514375866807
6.303797248,0.9995706330378868,-16.08554639513629
6.313924096,0.9994833033969734,-16.4033727974385
6.324050432,0.9994219996789274,-16.72027037851791
6.33417728,0.9993901236092245,-17.036574001110058
6.344303616,0.9993893361465468,-17.352694298449887
6.354430464,0.999419519315497,-17.66903931695185
6.3645568,0.9994793734510237,-17.986056502282683
6.374683648,0.9995657090053022,-18.304054035135216
6.384809984,0.9996744052761677,-18.623335565184323
6.394936832,0.9997997622706479,-18.9441675295431
6.405063168,0.9999354911523043,-19.266781527342957
6.415190016,1.0000748267305513,-19.591182505420036
6.425316352,1.0002106380619449,-19.917415799660247
6.4354432,1.0003359695591703,-20.245422151433345
6.445569536,1.0004444814978775,-20.575016055663205
6.455696384,1.0005308684298098,-20.90585237519574
6.46582272,1.0005902246918097,-21.237729877638078
6.475949568,1.0006200788575559,-21.57019727331124
6.486075904,1.0006184600938408,-21.902905148621045
6.496202752,1.0005854269715473,-22.235487279715993
6.506329088,1.0005229707604089,-22.567420490131116
6.516455936,1.0004337886668926,-22.89846209652052
6.526582272,1.000322675583048,-23.228261221249948
6.536708608,1.0001949895434061,-23.556544901550332
6.546835456,1.0000574005875054,-23.883166391661337
6.556961792,0.9999167461092657,-24.20802378378927
6.56708864,0.9997799715573318,-24.531131495870582
6.577214976,0.9996544389768294,-24.852577885040983
6.587341824,0.9995462583782367,-25.172525421695568
6.59746816,0.9994611358540847,-25.491262625743218
6.607595008,0.9994032444333787,-25.809110713611563
6.617721344,0.9993755850185497,-26.12644307414471
6.627848192,0.9993797859883277,-26.443676435721752
6.637974528,0.9994153987547079,-26.761167741449288
6.648101376,0.9994809114532682,-27.079401840391533
6.658227712,0.9995729853962122,-27.398679020954223
6.66835456,0.9996868992458426,-27.719345157396603
6.678480896,0.9998169764446913,-28.041626810651398
6.688607744,0.9999566252049814,-28.365715330758405
6.69873408,1.0000985843247956,-28.69166098935021
6.708860928,1.0002360114546762,-29.01948003059669
6.718987264,1.0003616231616794,-29.349075495044232
6.729114112,1.000469233135368,-29.680205663578022
6.739240448,1.00055322126635,-30.0126215852963
6.749367296,1.000609320743155,-30.34600190348035
6.759493632,1.0006346524162086,-30.679977766181448
6.76962048,1.0006280296608567,-31.01408905725466
6.779746816,1.0005895063990324,-31.347999232813706
6.789873664,1.000521031514345,-31.68125545641705
6.8,1.0004262707535703,-32.01351893239597
6.810126336,1.0003098067581528,-32.34443946370217
6.820253184,1.000177501859517,-32.67380664332166
6.83037952,1.0000360145405298,-33.00144220769001
6.840506368,0.9998923791556545,-33.32728480595469
6.850632704,0.99975426578333,-33.65134499666823
6.860759552,0.999628366606913,-33.97372284670574
6.870885888,0.9995213509561004,-34.29460723781806
6.881012736,0.9994383894281377,-34.61433623389915
6.891139072,0.9993839783141832,-34.93319865452528
6.90126592,0.9993607949596762,-35.251581086268104
6.911392256,0.9993700712313827,-35.569932257254536
6.921519104,0.999411356872636,-35.888662536548594
6.93164544,0.9994826742458826,-36.20817749898907
6.941772288,0.9995805983726046,-36.528783377145686
6.951898624,0.9996999456820244,-36.85088010764575
6.962025472,0.9998347090392797,-37.17464692577224
6.972151808,0.9999782960677951,-37.50029996380732
6.982278656,1.0001230854021612,-37.82781987391222
6.992404992,1.000261847750371,-38.15729274477931
7.00253184,1.0003877703114534,-38.488518187058204
7.012658176,1.0004942385302993,-38.82127076024447
7.022785024,1.0005759218690626,-39.15532311402448
7.03291136,1.0006285006007183,-39.490301701709214
7.043038208,1.000649481638384,-39.82578901721849
7.053164544,1.0006375941069614,-40.16139743477211
7.063291392,1.0005934330961865,-40.49667773775397
7.073417728,1.0005191803860622,-40.831276819572146
7.083544064,1.00041843636186,-41.164796049588304
7.093670912,1.0002965197382863,-41.496922836939596
7.103797248,1.0001594708399133,-41.82737114470738
7.113924096,1.0000139851746568,-42.15607342616005
7.124050432,0.9998677840764763,-42.482953085441146
7.13417728,0.9997280920307092,-42.80798966435769
7.144303616,0.999601919157669,-43.13137013040528
7.154430464,0.9994960695412635,-43.453245189655185
7.1645568,0.9994153886100035,-43.77397654730908
7.174683648,0.9993644939644271,-44.093897579567106
7.184809984,0.9993458052147735,-44.413414107682186
7.194936832,0.9993604293139603,-44.732930830213604
7.205063168,0.9994075299057775,-45.0529476905438
7.215190016,0.9994849283602127,-45.3737438033999
7.225316352,0.9995886611038214,-45.695785880690835
7.2354432,0.9997135822359537,-46.019336701310195
7.245569536,0.9998532311142845,-46.34468684452559
7.255696384,1.0000005632676117,-46.671909326924876
7.26582272,1.0001482267950885,-47.001147662501644
7.275949568,1.0002887195558428,-47.33225618573936
7.286075904,1.0004147111006239,-47.66517160092827
7.296202752,1.0005201056725892,-47.99964862298445
7.306329088,1.0005993757415501,-48.33536153010562
7.316455936,1.0006483322094104,-48.671989663240055
7.326582272,1.0006648150965216,-49.00905500501569
7.336708608,1.0006474097125158,-49.346192444248366
7.346835456,1.0005974234503474,-49.68292369956455
7.356961792,1.0005170186318344,-50.018935333710544
7.36708864,1.0004104023442686,-50.353717191895115
7.377214976,1.000282873067523,-50.68706577742003
7.387341824,1.0001408017551259,-51.01870958076834
7.39746816,0.9999914614114587,-51.348519515350304
7.407595008,0.9998423341780481,-51.6764640467515
7.417721344,0.999701061723707,-52.0025221054687
7.427848192,0.9995747771258701,-52.32691204036092
7.437974528,0.9994699508956256,-52.64984858247724
7.448101376,0.9993917886415055,-52.97166356160991
7.458227712,0.9993446389790595,-53.29264397129593
7.46835456,0.9993306664099271,-53.61331358794308
7.478480896,0.9993507388080144,-53.934079716619756
7.488607744,0.999403963145893,-54.25533214749006
7.49873408,0.9994873698944129,-54.57755922789806
7.508860928,0.9995972134896306,-54.901017390740435
7.518987264,0.9997276161012026,-55.2261406620878
7.529114112,0.999872228909245,-55.55310473576721
7.539240448,1.000023737111229,-55.88197480417151
7.549367296,1.0001742102241789,-56.21292432292549
7.559493632,1.0003162643157377,-56.545799342396755
7.56962048,1.0004425560451142,-56.88046006102453
7.579746816,1.0005466042744753,-57.2166891890836
7.589873664,1.000623313320881,-57.5541586361705
7.6,1.0006686974361434,-57.8924275085819
7.610126336,1.000680315894828,-58.231166431484034
7.620253184,1.0006573620298682,-58.56984387115857
7.63037952,1.0006012460939062,-58.908153412230206
7.640506368,1.0005146378972523,-59.24553227252558
7.650632704,1.0004019509987634,-59.58165851821214
7.660759552,1.0002685378952738,-59.91629476975271
7.670885888,1.0001215863776969,-60.24913939327708
7.681012736,0.9999681593514047,-60.58010994586417
7.691139072,0.9998162347914992,-60.9091287549458
7.70126592,0.9996733435157118,-61.23627141366837
7.711392256,0.9995467279708966,-61.56174495139135
7.721519104,0.9994431199995107,-61.88573825671221
7.73164544,0.9993676846606834,-62.20862505609737
7.741772288,0.9993241880825358,-62.53078780316451
7.751898624,0.9993151002994551,-62.8526689518834
7.762025472,0.9993407784583261,-63.1746948822212
7.772151808,0.9994000596833528,-63.497286906645314
7.782278656,0.9994898630831234,-63.820894435731915
7.792404992,0.9996059502818192,-64.1459333782591
7.80253184,0.99974217505715,-64.4726146953687
7.812658176,0.9998919111045302,-64.80122685776256
7.822785024,1.0000474734124227,-65.13187191639003
7.83291136,1.0002008640915032,-65.46457593997044
7.843038208,1.0003444855471058,-65.79924370390718
7.853164544,1.0004708842377452,-66.13573368909304
7.863291392,1.0005738912085078,-66.47376423853048
7.873417728,1.000648006196851,-66.81298365426113
7.883544064,1.0006893548868065,-67.15303564143956
7.893670912,1.0006960391989683,-67.49344475368672
7.903797248,1.0006675108281304,-67.83379131211429
7.913924096,1.0006051534209215,-68.17358362994291
7.924050432,1.0005121664537506,-68.51247089507899
7.93417728,1.0003930665831349,-68.8500313353558
7.944303616,1.0002538254362563,-69.18593605066994
7.954430464,1.0001016470252868,-69.52003721385198
7.9645568,0.9999440492040338,-69.85217743031939
7.974683648,0.999789103756262,-70.18233224471206
7.984809984,0.9996446302653712,-70.51060795386925
7.994936832,0.9995177740511809,-70.83715652876427
8.005063168,0.999415468830848,-71.16229377945598
8.015190016,0.9993426104185857,-71.48631007723225
8.025316352,0.9993032092984725,-71.80966475329595
8.0354432,0.999299002343338,-72.13275928485433
8.045569536,0.999330486411593,-72.45606595881588
8.055696384,0.9993960910118204,-72.7801162960927
8.06582272,0.9994925872742872,-73.10518599829705
8.075949568,0.9996150632453955,-73.43175760136094
8.086075904,0.9997572881745481,-73.76008095978202
8.096202752,0.9999121726008902,-74.09043377046292
8.106329088,1.0000719302192795,-74.42283835753565
8.116455936,1.0002283248985058,-74.75737352140051
8.126582272,1.000373601186054,-75.09390129351355
8.136708608,1.0005002729978911,-75.43226431528261
8.146835456,1.000601946109885,-75.77213829321762
8.156961792,1.0006732115229493,-76.11323305197605
8.16708864,1.0007106581638927,-76.45508247583038
8.177214976,1.0007122377017765,-76.7972624322144
8.187341824,1.000677879584183,-77.13925414034237
8.19746816,1.0006090954145987,-77.48067118884558
8.207595008,1.0005093587335332,-77.82107703649211
8.217721344,1.00038379259841,-78.1600267748813
8.227848192,1.0002385836216958,-78.4973142509354
8.237974528,1.000080930734359,-78.83272201250175
8.248101376,0.9999191064188289,-79.16605508714356
8.258227712,0.999760997673821,-79.49740761728128
8.26835456,0.9996148386176733,-79.82682270213061
8.278480896,0.999488011512162,-80.15452043975289
8.288607744,0.9993869457039791,-80.48077904712316
8.29873408,0.9993168800462654,-80.80598861115
8.308860928,0.9992814812274667,-81.13054803739251
8.318987264,0.9992824957067186,-81.45491039211443
8.329114112,0.9993199754766863,-81.77957901759966
8.339240448,0.9993921705174301,-82.10501604149117
8.349367296,0.9994952948478228,-82.43166006683194
8.359493632,0.9996243522542926,-82.75985040229192
8.36962048,0.9997729483814128,-83.08986653304046
8.379746816,0.9999331755509331,-83.42197303159747
8.389873664,1.0000973225925913,-83.75621362867768
8.4,1.000256880116268,-84.09263351104427
8.410126336,1.0004038185764896,-84.43109207345493
8.420253184,1.0005305466260732,-84.77137628951539
8.43037952,1.0006307206127791,-85.11319099098644
8.440506368,1.0006993515302982,-85.45617501857429
8.450632704,1.0007326645737675,-85.79988511990119
8.460759552,1.0007290246036986,-86.14388163986574
8.470885888,1.0006884737415636,-86.48759832837932
8.481012736,1.000613023348947,-86.83064681061519
8.491139072,1.0005065079365585,-87.17260630459288
8.50126592,1.000374118938087,-87.51306439479147
8.511392256,1.0002226303502169,-87.85173670526191
8.521519104,1.0000595761320024,-88.18846021149953
8.53164544,0.9998931278333489,-88.52308072995682
8.541772288,0.9997319819895109,-88.85562755858042
8.551898624,0.9995840500691442,-89.18621438843363
8.562025472,0.9994570330611218,-89.51508796700246
8.572151808,0.9993572432093213,-89.84252056366793
8.582278656,0.9992901005602406,-90.16892263171286
8.592405504,0.999258872384339,-90.49472043474061
8.60253184,0.9992652916527611,-90.82041457656462
8.612658176,0.9993089662266883,-91.1464903716237
8.622784512,0.9993878353439901,-91.473390384819
8.632911872,0.9994980169328881,-91.80160202892559
8.643038208,0.9996339243908391,-92.13143669707708
8.653164544,0.9997888440379975,-92.46320347394789
8.66329088,0.9999548082558317,-92.79713361437703
8.673417216,1.0001233401132128,-93.13326686769287
8.683544576,1.00028618202257,-93.47161470773185
8.693670912,1.0004348108322896,-93.8120664003155
8.703797248,1.000561812569248,-94.15434824276596
8.713923584,1.0006606481232168,-94.49813399996602
8.724050944,1.0007263591278441,-94.84309738161083
8.73417728,1.0007553621429424,-95.18870656345699
8.744303616,1.0007463654156632,-95.53451078127638
8.754429952,1.0006994143008603,-95.88004923733936
8.764557312,1.0006172689414945,-96.22478788092626
8.774683648,1.0005035300989036,-96.56836484047878
8.784809984,1.0003642459766613,-96.91033966413136
8.79493632,1.0002061446885775,-97.25046525136773
8.80506368,1.000037416377777,-97.58851271986133
8.815190016,0.9998664073460563,-97.92441958978681
8.825316352,0.9997019989964124,-98.25823770224233
8.835442688,0.9995522386574369,-98.59002445105777
8.845570048,0.9994250602280567,-98.92008350997709
8.855696384,0.9993268747074782,-99.24872254055425
8.86582272,0.9992625330822619,-99.57636540582182
8.875949056,0.9992356495614487,-99.90346283063863
8.886076416,0.9992474476706277,-100.23050826994086
8.896202752,0.9992976134746986,-100.5579990200623
8.906329088,0.999383512093318,-100.88643955064151
8.916455424,0.9995009966602171,-101.21622644255345
8.926582784,0.9996440975600879,-101.54776648140731
8.93670912,0.9998054984380828,-101.88134234012215
8.946835456,0.9999772969889774,-102.21712325729015
8.956961792,1.0001506298256089,-102.55522636728803
8.967088128,1.0003167208225974,-102.89560556110959
8.977215488,1.0004672031820128,-103.23804709817212
8.987341824,1.0005945061020622,-103.58236975646443
8.99746816,1.000691862141181,-103.92825215349256
9.007594496,1.0007546116483104,-104.2752104115514
9.017721856,1.0007791883761774,-104.62278365364135
9.027848192,1.0007645103183282,-104.97051062942086
9.037974528,1.0007111858766489,-105.31788881787897
9.048100864,1.0006216959092544,-105.66437493331422
9.058228224,1.000500660283583,-106.00961184116422
9.06835456,1.00035403475816,-106.35313919107831
9.078480896,1.0001891771874036,-106.6947221846188
9.088607232,1.00001453864407,-107.03418712105953
9.098734592,0.999838705282018,-107.37143208513142
9.108860928,0.9996708132919404,-107.70648280687477
9.118987264,0.9995192466171132,-108.03952657367023
9.1291136,0.9993917897080393,-108.37079545387104
9.13924096,0.9992949638600772,-108.7006854765599
9.149367296,0.9992336927098003,-109.02958458577895
9.159493632,0.9992113391738167,-109.35798502267986
9.169619968,0.9992289396413139,-109.68641557048684
9.179747328,0.9992857113887623,-110.01538240633444
9.189873664,0.9993789985745555,-110.34534567175669
9.2,0.9995039735640046,-110.67678701131882
9.210126336,0.9996544888979658,-111.01008126951477
9.220252672,0.9998228587025342,-111.34549344973591
9.230380032,1.000000731026865,-111.6832229291698
9.240506368,1.0001788812523107,-112.02331679734833
9.250632704,1.0003485998057284,-112.36571468116401
9.26075904,1.000500992065917,-112.71029315563125
9.2708864,1.0006284266557535,-113.05672622975793
9.281012736,1.0007244011418817,-113.40468660616865
9.291139072,1.0007840698695287,-113.75373512274042
9.301265408,1.0008041636482385,-114.10335740668265
9.311392768,1.0007836741354588,-114.45305246242164
9.321519104,1.0007234547017374,-114.8022863945335
9.33164544,1.0006266322912192,-115.15060539808862
9.341771776,1.0004978222084002,-115.4975160624912
9.351899136,1.000343680766368,-115.84267527919506
9.362025472,1.0001717746449628,-116.18577619912062
9.372151808,0.9999908564331724,-116.52664439513941
9.382278144,0.9998099914134466,-116.86523473745007
9.392405504,0.9996384437542479,-117.2015731616902
9.40253184,0.999484840087788,-117.53590415186304
9.412658176,0.9993571243691952,-117.86842636111014
9.422784512,0.9992616918346948,-118.1995797035076
9.432911872,0.9992035664537451,-118.52976047440251
9.443038208,0.9991858274191001,-118.85950699130494
9.453164544,0.9992094100302232,-119.1893137698829
9.46329088,0.9992731054258521,-119.51976201172266
9.473417216,0.9993739470038006,-119.8513443749459
9.483544576,0.9995067932427786,-120.18449227413046
9.493670912,0.9996650654284053,-120.51957351378366
9.503797248,0.9998406753919353,-120.85688434552999
9.513923584,1.0000249024618317,-121.19656072133411
9.524050944,1.000208361017739,-121.53872822238431
9.53417728,1.0003817168334397,-121.88324049506271
9.544303616,1.0005361921053606,-122.22996284837
9.554429952,1.000663962989117,-122.57857873103949
9.564557312,1.000758444499769,-122.92870404999567
9.574683648,1.0008148597827435,-123.27989466150377
9.584809984,1.0008302372931153,-123.63159663517669
9.59493632,1.0008036626860544,-123.98332817524533
9.60506368,1.0007364810005963,-124.33450794434766
9.615190016,1.0006318731801593,-124.68464795814796
9.625316352,1.0004950439305074,-125.033319513532
9.635442688,1.0003329188075316,-125.38010450494279
9.645570048,1.000153574108443,-125.72475075490475
9.655696384,0.9999661129277208,-126.06707769535372
9.66582272,0.9997799574952858,-126.4070488653008
9.675949056,0.9996044994350317,-126.7447558701702
9.686076416,0.9994487829636288,-127.08034979910619
9.696202752,0.9993206162119668,-127.41416423814613
9.706329088,0.9992267189122955,-127.74655963539956
9.716455424,0.9991718197785996,-128.07805763782028
9.726582784,0.9991588277056412,-128.40915284469173
9.73670912,0.9991885889776545,-128.74043594373413
9.746835456,0.9992595303017822,-129.0724002636141
9.756961792,0.9993683578508011,-129.40557868884346
9.767088128,0.9995094241152574,-129.74045327148363
9.777215488,0.9996757959284862,-130.0773798219207
9.787341824,0.9998591433684719,-130.41662406469746
9.79746816,1.0000499376830332,-130.75833873527606
9.807594496,1.0002388764891446,-131.10259603080527
9.817721856,1.0004162547371678,-131.44930329705946
9.827848192,1.000572989192819,-131.7982294847666
9.837974528,1.0007011379600264,-132.14909304032466
9.848100864,1.0007941978853043,-132.50145936316306
9.858228224,1.0008473814483483,-132.85482597036648
9.86835456,1.0008579137500424,-133.20869466412722
9.878480896,1.0008250588699157,-133.5625048902959
9.888607232,1.0007504024611664,-133.9156879817481
9.898734592,1.0006377086345941,-134.26771801247966
9.908860928,1.000492429021974,-134.6181942671143
9.918987264,1.0003219855563732,-134.96666183991442
9.9291136,1.0001347623090644,-135.3128980557828
9.93924096,0.9999404492914756,-135.6567272322931
9.949367296,0.9997485381943652,-135.99810466677454
9.959493632,0.9995690358944327,-136.33713814998765
9.969619968,0.9994109666803817,-136.6740489879475
9.979747328,0.9992823309679097,-137.00914515527955
9.989873664,0.9991898244835554,-137.3428385233493
10.0,0.9991382821216173,-137.6756754401772
10.010126336,0.9991302906495902,-138.0081645748801
10.020252672,0.9991663478551092,-138.3408720541854
10.030380032,0.999244978242979,-138.67438822893718
10.040506368,0.9993620069716932,-139.00924425256576
