freq,mag,phase
6.0,0.9999210228319048,1.8900711154177483
6.024615424,0.9999038102524572,1.1517407336605665
6.049230848,0.9998885831096119,0.4134392471852904
6.073846272,0.9998766517554072,-0.3248124438324191
6.098461696,0.9998681069872957,-1.0630438305464056
6.12307712,0.9998634660961551,-1.8012965862202661
6.147692544,0.999862914375397,-2.5396274648051183
6.172307456,0.9998660795236285,-3.2780450743005445
6.19692288,0.9998733987048682,-4.016647394411658
6.221538304,0.9998843047136755,-4.755413123917557
6.246153728,0.9998986421917715,-5.494450747779046
6.270769152,0.9999158059672199,-6.233689050033149
6.295384576,0.9999353409066345,-6.973226733179143
6.32,0.9999567893774574,-7.7130848681281385
6.344615424,0.9999793478643477,-8.453248107977853
6.369230848,1.000002305086781,-9.193729018348593
6.393846272,1.0000250226973342,-9.934531772091734
6.418461696,1.0000467262464532,-10.675702246736384
6.44307712,1.0000668298701225,-11.417183307778192
6.467692544,1.0000846706726783,-12.158920841769284
6.492307456,1.0000995961579602,-12.90093111888077
6.51692288,1.0001111962793368,-13.643163186392824
6.541538304,1.000119157454852,-14.385633855362771
6.566153728,1.000123345838318,-15.128232536729
6.590769152,1.000123242732784,-15.87099815700009
6.615384576,1.0001191652684367,-16.613796768585004
6.64,1.0001113017438321,-17.35664713172975
6.664615424,1.0000994896229825,-18.09953069300526
6.689230848,1.0000844671765787,-18.84233514634085
6.713846272,1.0000666131589382,-19.585082988051948
6.738461696,1.0000461894939199,-20.327808706586033
6.76307712,1.0000242501704721,-21.070369301511434
6.787692544,1.0000011800236326,-21.81277565073359
6.812307456,0.9999778570087433,-22.555054723788846
6.83692288,0.999954922275863,-23.297208577627377
6.861538304,0.9999329854822187,-24.03929535276252
6.886153728,0.9999130968278386,-24.78119474658296
6.910769152,0.9998953091629872,-25.523060475881394
6.935384576,0.9998805803009788,-26.26483687473069
6.96,0.9998693143369379,-27.006584805282284
6.984615424,0.9998618480642756,-27.748353274890633
7.009230848,0.9998584728098688,-28.49014761087401
7.033846272,0.9998591167725822,-29.232042056421534
7.058461696,0.9998638497841661,-29.974038846686092
7.08307712,0.9998725127620911,-30.7162405512718
7.107692544,0.9998850441393178,-31.458635193417525
7.132307456,0.9999008254847831,-32.201304734553204
7.15692288,0.999919582878069,-32.9442021869592
7.181538304,0.9999404791482391,-33.68741148409068
7.206153728,0.9999630978367299,-34.430971647992045
7.230769152,0.999986612152048,-35.1748357889442
7.255384576,1.0000104033909394,-35.919074925819906
7.28,1.0000335152310462,-36.66365903740513
7.304615424,1.0000556523315356,-37.40856442711327
7.329230848,1.0000757224450465,-38.15378058327695
7.353846272,1.0000931889145341,-38.89927756362917
7.378461696,1.0001075926563188,-39.64507421658148
7.40307712,1.0001186165639084,-40.391080387364305
7.427692544,1.0001255931681126,-41.13730072993284
7.452307456,1.0001284455466897,-41.8836691259317
7.47692288,1.0001271883121592,-42.63015666966679
7.501538304,1.0001216707726557,-43.37669338906938
7.526153728,1.000112089261328,-44.123285204133275
7.550769152,1.0000987841384266,-44.8698554696512
7.575384576,1.0000821760651686,-45.616403805685266
7.6,1.0000626987702497,-46.36283674800906
7.624615424,1.0000410549892598,-47.10920132782496
7.649230848,1.0000177900631506,-47.8554461533698
7.673846272,0.9999938132279298,-48.6015359455367
7.698461696,0.9999696597633638,-49.34748484554411
7.72307712,0.9999460310074012,-50.0933140317565
7.747692544,0.9999238442129039,-50.839026583666374
7.772307456,0.999903730042941,-51.58461961645084
7.79692288,0.9998862120688697,-52.33011076032396
7.821538304,0.9998719694543284,-53.07554878766074
7.846153728,0.9998615198625455,-53.82097706837488
7.870769152,0.9998551034429654,-54.56642551245731
7.895384576,0.9998528118606204,-55.311929808589895
7.92,0.9998548083481754,-56.057556691859325
7.944615424,0.9998611161481672,-56.80330056665232
7.969230848,0.9998714372264135,-57.54925862393846
7.993846272,0.9998855020634098,-58.29541539041553
8.018461696,0.9999029414688302,-59.04184197793397
8.04307712,0.9999231856577582,-59.7885869779643
8.067692544,0.9999455439282648,-60.53561799044241
8.092307456,0.9999694618685449,-61.28302010512499
8.11692288,0.9999941521422775,-62.03076539218885
8.141538304,1.000018761538631,-62.778830237281305
8.166153728,1.000042697300832,-63.52730392519582
8.190769152,1.0000651040057924,-64.27608720781612
8.215384576,1.0000852277388956,-65.02521036931925
8.24,1.0001025687527854,-65.7745987295862
8.264615424,1.0001165547861415,-66.52427886995314
8.289230848,1.0001267036986807,-67.2741688383954
8.313846272,1.000132720827812,-68.02426529629727
8.338461696,1.000134339646661,-68.77449056843342
8.36307712,1.0001316477748308,-69.524834380704
8.387692544,1.0001245641421916,-70.27524572070696
8.412307456,1.0001134398864873,-71.02565160699726
8.43692288,1.000098425632341,-71.77603917470167
8.461538304,1.0000802751531066,-72.52635672427807
8.486153728,1.0000591582552798,-73.27663437891965
8.510769152,1.0000359859898014,-74.02673989755345
8.535384576,1.0000115098416438,-74.77673466875206
8.56,0.9999861836574284,-75.5265441683058
8.584615424,0.9999611602940182,-76.27623632669398
8.609230848,0.9999368382674102,-77.0257818305741
8.63384576,0.9999142762040052,-77.77520266186731
8.658461696,0.9998939930759612,-78.5244956470055
8.683076608,0.9998767374796734,-79.27370571497174
8.707692544,0.9998630440848627,-80.02289048400748
8.732307456,0.9998532388166181,-80.7720396953758
8.756923392,0.999847674793398,-81.52121085920926
8.781538304,0.9998466161398223,-82.27045864123231
8.80615424,0.9998501321749387,-83.0197992800081
8.830769152,0.9998579559035043,-83.76932589639061
8.855385088,0.9998699753470695,-84.51904038382732
8.88,0.9998858519508607,-85.26900335235169
8.904614912,0.9999049303384998,-86.01926754655169
8.929230848,0.9999269456196688,-86.76981815901001
8.95384576,0.999950830644288,-87.52070374159749
8.978461696,0.9999762542673604,-88.27197291451941
9.003076608,1.00000215720149,-89.02357652765355
9.027692544,1.0000277005244198,-89.77554732445502
9.052307456,1.000052459057266,-90.52789005976432
9.076923392,1.0000752525430567,-91.28057424671522
9.101538304,1.0000956091744821,-92.03355871874712
9.12615424,1.0001128054937058,-92.78687032428665
9.150769152,1.0001263528037643,-93.54043073906472
9.175385088,1.0001357324782099,-94.29422058045
9.2,1.0001408110765388,-95.04815609016384
9.224614912,1.0001412402237448,-95.80223078312243
9.249230848,1.0001370646541174,-96.5564161748805
9.27384576,1.000128426887825,-97.31064740119695
9.298461696,1.0001155003737838,-98.06486135434547
9.323076608,1.0000988385531122,-98.81905769925261
9.347692544,1.0000787788126502,-99.57313188243437
9.372307456,1.0000559184616196,-100.32710100682672
9.396923392,1.000031063351553,-101.08095772812138
9.421538304,1.0000049865964404,-101.83462756268099
9.44615424,0.9999784470243317,-102.588165497844
9.470769152,0.9999522054772937,-103.34151635740024
9.495385088,0.9999271669684171,-104.09470208841134
9.52,0.9999040146903893,-104.84777588197977
9.544614912,0.9998835263153015,-105.60070241784022
9.569230848,0.999866265471147,-106.35355955580295
9.59384576,0.9998530151323569,-107.10636304718936
9.618461696,0.9998439329478622,-107.85912858922455
9.643076608,0.9998395462997095,-108.61194691921139
9.667692544,0.999839671689326,-109.36482306528744
9.692307456,0.9998446431337656,-110.1178368912378
9.716923392,0.9998541501570105,-110.87101117174092
9.741538304,0.9998679205161701,-111.62441292450872
9.76615424,0.9998856683098111,-112.37807626130257
9.790769152,0.9999066640756477,-113.1320195706648
9.815385088,0.9999304778092373,-113.88629515473475
9.84,0.9999561998539243,-114.64090247453008
9.864614912,0.9999831565102023,-115.39589179581293
9.889230848,1.000010484508657,-116.15127599829368
9.91384576,1.0000373105376965,-116.90700381731885
9.938461696,1.0000629328713415,-117.6630910039102
9.963076608,1.000086435472282,-118.41953482225544
9.987692544,1.0001069546892651,-119.17630953699359
10.012307456,1.0001242128848584,-119.93336736744519
10.036923392,1.0001373329792878,-120.69067161906806
10.061538304,1.0001460190736975,-121.44818392422364
10.08615424,1.0001500799809502,-122.20588303969308
10.110769152,1.0001492686640785,-122.96367944954174
10.135385088,1.000143567912988,-123.72154527145314
10.16,1.0001331418213617,-124.47943086538115
10.184614912,1.0001183707745278,-125.2372867193785
10.209230848,1.0000997375360154,-125.99508836642916
10.23384576,1.0000777038170625,-126.75277848288094
10.258461696,1.0000529449182813,-127.51031522629403
10.283076608,1.0000261785191906,-128.26770161804365
10.307692544,0.999998254202435,-129.02489565024547
10.332307456,0.9999702089588607,-129.78190248246008
10.356923392,0.9999427162822027,-130.53872246096557
10.381538304,0.9999165940200501,-131.2953858388833
10.40615424,0.9998927496787895,-132.05186487324053
10.430769152,0.9998719244524576,-132.8082326333774
10.455385088,0.9998547659305779,-133.5644774337235
10.48,0.9998417822035218,-134.32066760428077
10.504614912,0.9998334329550145,-135.0768553381322
10.529230848,0.9998298968410969,-135.83306024918
10.55384576,0.9998314889656672,-136.58933745057342
10.578461696,0.9998378597905819,-137.34577901511926
10.603076608,0.999849248445164,-138.102367665104
10.627692544,0.9998650132424538,-138.85919779067373
10.652307456,0.9998847886826253,-139.61627766224666
10.676923392,0.9999079345888775,-140.3736668470982
10.701538304,0.9999338038876603,-141.1314079228978
10.72615424,0.9999616078418536,-141.88951279606127
10.750769152,0.9999905216311572,-142.64796953156744
10.775385088,1.0000194725128104,-143.40683681601453
10.8,1.0000477539965011,-144.16608578888574
10.824614912,1.000074515585474,-144.92566170129157
10.849230848,1.0000987705024262,-145.68562650307197
10.87384576,1.0001198980580703,-146.44588637479086
10.898461696,1.0001371343592882,-147.20644653598043
10.923076608,1.0001500472774174,-147.96724325298806
10.947692544,1.0001581308008352,-148.72821920916945
10.972307456,1.0001610829521377,-149.48936451052018
10.996923392,1.0001589189073723,-150.2506134766659
11.021538304,1.0001515909452476,-151.01189002745585
11.04615424,1.0001393566570296,-151.77314660135684
11.070769152,1.0001225314337077,-152.5343640897239
11.095385088,1.0001016188388465,-153.29546445755673
11.12,1.0000772818292494,-154.05644588201233
11.144614912,1.0000503168746888,-154.8172354576448
11.169230848,1.0000213517818217,-155.5778404538226
11.19384576,0.9999913884351043,-156.33822207348015
11.218461696,0.9999613755391131,-157.0983887643495
11.243076608,0.9999323026785694,-157.8583547847182
11.267692544,0.9999048396379953,-158.6181097482142
11.292307456,0.999880131651107,-159.37768866045957
11.316923392,0.9998587248715232,-160.137097678934
11.341538304,0.9998413377327597,-160.89640284915134
11.36615424,0.999828579611489,-161.65562737833977
11.390769152,0.9998207996006043,-162.414827325973
11.415385088,0.9998182809886897,-163.17406317366687
11.44,0.9998211581677507,-163.93336847011545
11.464614912,0.9998293903020549,-164.69281430478543
11.489230848,0.99984267818652,-165.45244282593492
11.51384576,0.9998606538611393,-166.2123022520267
11.538461696,0.9998827810612598,-166.97244315111195
11.563076608,0.9999084852437115,-167.73290151694505
11.587692544,0.9999367644992719,-168.49370076474537
11.612307456,0.9999669719084907,-169.25488728974878
11.636923392,0.9999980869394347,-170.01645911533387
11.661538304,1.0000292305518719,-170.77842116981694
11.68615424,1.000059367853513,-171.5407622885053
11.710769152,1.0000874821144285,-172.30347540456526
11.735385088,1.0001129738759755,-173.06654042206387
11.76,1.000134863641058,-173.82992291988924
11.784614912,1.0001523541624082,-174.59358684171872
11.809230848,1.0001650743869352,-175.35748758914806
11.83384576,1.0001726095950134,-176.12155355498703
11.858461696,1.0001745420145842,-176.88573514830958
11.883076608,1.0001710017459817,-177.65001954300934
11.907692544,1.0001618125105125,-178.41430822037225
11.932307456,1.0001476140459722,-179.17853778899214
11.956923392,1.0001282925462387,-179.94269713230167
11.981538304,1.0001049182322155,179.2933194757218
12.00615424,1.0000778297815633,178.52948659225757
12.030769152,1.0000480661230529,177.76587217656623
12.055385088,1.0000164954990653,177.00249511854102
12.08,0.9999840172741168,176.23935650619057
12.104614912,0.9999515850418026,175.4764825305387
12.129230848,0.9999204435012404,174.71387219965004
12.15384576,0.9998912054654627,173.95149701380348
12.178461696,0.9998651354061296,173.18933293330858
12.203076608,0.999842823521243,172.42733639628818
12.227692544,0.9998250178643494,171.66547957886897
12.252307456,0.9998122563959191,170.9037252316826
12.276923392,0.9998049993385426,170.14200624729187
12.301538304,0.9998035060256284,169.38025533676637
12.32615424,0.999807940412646,168.61844369796495
12.350769152,0.9998180940503132,167.85649642985706
12.375385088,0.9998336718588468,167.09435547168397
12.4,0.9998542566251543,166.33196838663474
12.424614912,0.9998791811560189,165.56930101480285
12.449230848,0.9999078049927295,164.8062994948531
12.47384576,0.9999391224407432,164.04293595042745
12.498461696,0.9999724251593569,163.27918150003
12.523076608,1.0000064534534314,162.51502517492585
12.547692544,1.0000402221718163,161.75046620862628
12.572307456,1.000072780891626,160.98551062454126
12.596923392,1.0001029651887416,160.22017916012933
12.621538304,1.0001299950501237,159.45449966801758
12.64615424,1.0001529399318834,158.68848226574872
12.670769152,1.0001712064179946,157.92220710720588
12.695385088,1.0001839082913997,157.15573284175952
12.72,1.0001909107962466,156.38907278370036
12.744614912,1.0001917468311485,155.6223165672145
12.769230848,1.0001865945802968,154.85550671103132
12.79384576,1.000175480209875,154.0887182194408
12.818461696,1.0001585081037272,153.32201995404387
12.843076608,1.0001364483951047,152.55544812706452
12.867692544,1.0001099347326372,151.78906263773717
12.892307456,1.000079532734142,151.0229086572064
12.916923392,1.0000463498466896,150.2570260420013
12.941538304,1.0000112812841049,149.49141789782604
12.96615424,0.9999755343144844,148.72611650374608
12.990769152,0.9999400974260982,147.96111428171474
13.015385088,0.9999060011601371,147.1964135500033
13.04,0.9998744073181959,146.43201815343863
13.064614912,0.9998463594127343,145.66785803968222
13.089230848,0.9998225887917908,144.9039069155492
13.11384576,0.9998039977139098,144.14012710591072
13.138461696,0.9997910164446312,143.376446435176
13.163076608,0.999784238988967,142.61284688126008
13.187692544,0.9997838752068671,141.8492346139169
13.212307456,0.9997899904392988,141.0855420805582
13.236923392,0.9998023993472103,140.32173255426352
13.261538304,0.9998207685283256,139.55771604833137
13.28615424,0.9998445711278142,138.7934386982571
13.310769152,0.9998730619237652,138.02885520299898
13.335385088,0.9999054887220532,137.26394432017838
13.36,0.9999408525343682,136.4986172733436
13.384614912,0.9999781113405845,135.73290511068095
13.409230848,1.0000160404838394,134.96676513594707
13.43384576,1.0000535401876334,134.200201250435
13.458461696,1.0000893490398035,133.43321566956027
13.483076608,1.000122538904694,132.66582398251063
13.507692544,1.0001519107893104,131.898095731961
13.532307456,1.0001766943998953,131.1300426184041
13.556923392,1.0001959205219286,130.36172126774318
13.581538304,1.0002090116910374,129.59317535900564
13.60615424,1.0002157701863745,128.824495394795
13.630769152,1.0002155378751612,128.05572965626533
13.655385088,1.0002084347465547,127.28695522642363
13.68,1.0001946602216356,126.51824125076715
13.704614912,1.0001747444160618,125.74963944937353
13.729230848,1.0001489093619174,124.98123282417446
13.75384576,1.0001181455272377,124.21305824695202
13.778461696,1.0000832027431914,123.44517848739308
13.803076608,1.0000453258581696,122.67761679375046
13.827692544,1.0000055738031068,121.91042114100827
13.852307456,0.9999650959788557,121.14359324284088
13.876923392,0.9999251598890804,120.37713352316703
13.901538304,0.9998871111838886,119.61102337391297
13.92615424,0.9998519495603836,118.84527083896441
13.950769152,0.9998208401050426,118.0798075986894
13.975385088,0.9997947792513296,117.31461372426485
14.0,0.9997746343754904,116.54962831525964
