freq,mag,phase
6.0,1.0004478551486098,27.51240333133055
6.00478464,1.0004369701674602,27.38240891125601
6.00956928,1.0004002245873225,27.252758842744452
6.01435392,1.0003395453222235,27.12380472415012
6.01913856,1.000258897859785,26.995811387417312
6.0239232,1.0001629045915563,26.869102196995232
6.028708352,1.0000573516552245,26.743761612997847
6.033492992,0.9999485477270548,26.619945862825293
6.038277632,0.9998430092560582,26.49766476963245
6.043062272,0.9997472090662812,26.376772495510412
6.047846912,0.9996666402652469,26.25716414327418
6.052631552,0.9996064157624501,26.138512570232457
6.057416192,0.9995699532209937,26.02056071209517
6.062200832,0.9995595381309611,25.902907061830444
6.066985472,0.9995758025675673,25.785230780639825
6.071770112,0.9996177328862798,25.667112030256526
6.076555264,0.9996828915466848,25.548277318912067
6.081339904,0.9997673403320239,25.428322048789838
6.086124544,0.9998660852988351,25.307144138597447
6.090909184,0.9999730559107717,25.18444978672984
6.095693824,1.0000820100074614,25.06021399173012
6.100478464,1.0001862238425978,24.934478131647126
6.105263104,1.0002796366493512,24.807379057074648
6.110047744,1.0003565349343804,24.679038840330747
6.114832384,1.000412344962417,24.549754437309097
6.119617024,1.000443761340815,24.41982914291727
6.124401664,1.0004488230711122,24.28969128274114
6.129186816,1.0004271758612582,24.15964833972637
6.133971456,1.000380213723754,24.03002899724971
6.138756096,1.0003107105695876,23.90125523852812
6.143540736,1.000222736730139,23.77362303316501
6.148325376,1.0001216232996155,23.647312166806238
6.153110016,1.0000134821487427,23.52244050050631
6.157894656,0.999904625827373,23.39909767577584
6.162679296,0.9998017796328883,23.277286144399042
6.167463936,0.9997110080309253,23.156801245883127
6.172248576,0.9996377514391407,23.037492387814424
6.177033728,0.9995864114388303,22.919049879386463
6.181818368,0.9995601144237731,22.8011533303184
6.186603008,0.9995605126956238,22.683425738694012
6.191387648,0.9995874169095141,22.565523075688194
6.196172288,0.9996394182139828,22.447005662883218
6.200956928,0.9997132152459426,22.32765479103696
6.205741568,0.9998046024630584,22.207100695635717
6.210526208,0.9999078901376364,22.085208510526538
6.215310848,1.0000169866666035,21.961771354046842
6.220095488,1.0001254044259733,21.83677509187648
6.224880128,1.0002265468736287,21.710305976099633
6.22966528,1.0003143635877392,21.582555328618664
6.23444992,1.0003836752014492,21.453580900421116
6.23923456,1.0004301875568773,21.323840872484954
6.2440192,1.0004511964546776,21.19360210724939
6.24880384,1.0004454496199573,21.063276198951765
6.25358848,1.000413229116704,20.933207914351787
6.25837312,1.00035638236333,20.803727042199448
6.26315776,1.000278572810607,20.675235384386383
6.2679424,1.0001841025139315,20.547923078168147
6.27272704,1.0000789062868056,20.42203285372101
6.277512192,0.9999690953399761,20.297636840477523
6.282296832,0.9998613208013705,20.174796956842364
6.287081472,0.9997620849469087,20.053386876299932
6.291866112,0.9996772691484527,19.93328217062123
6.296650752,0.9996120879130227,19.814251854854312
6.301435392,0.9995702996773925,19.695940023272595
6.306220032,0.999554498625977,19.578071609617016
6.311004672,0.9995658007486696,19.4602186480563
6.315789312,0.999603329890221,19.34198960900286
6.320573952,0.9996647924360711,19.22309266991586
6.325359104,0.9997467137709568,19.10314729984865
6.330143744,0.9998440343036891,18.981928511181177
6.334928384,0.9999510336089614,18.859293043927575
6.339713024,1.000061270525441,18.73509679783102
6.344497664,1.0001680520392198,18.60931676855299
6.349282304,1.0002650055531042,18.482163510352468
6.354066944,1.000346484923934,18.353714655144078
6.358851584,1.0004072916430702,18.224244567943806
6.363636224,1.0004440523879674,18.094099270734567
6.368420864,1.000454472924311,17.963601781439838
6.373205504,1.000437791122777,17.83312172617328
6.377990656,1.0003950688392145,17.703119312187624
6.382775296,1.0003289931033847,17.573831225603307
6.387559936,1.0002434048123787,17.445576255824495
6.392344576,1.000143362534446,17.318690319034836
6.397129216,1.0000349303093363,17.193211046629994
6.401913856,0.9999245914300662,17.069316498403733
6.406698496,0.9998189303353362,16.946930587777477
6.411483136,0.9997242549263949,16.82593729012225
6.416267776,0.9996463696824156,16.706159426083943
6.421052416,0.9995899581393585,16.587369001140186
6.425837568,0.9995583242927811,16.469150298850515
6.430622208,0.9995532606625908,16.35121874473351
6.435406848,0.9995753532005072,16.233154824000977
6.440191488,0.9996231721515653,16.114595072163564
6.444976128,0.9996937938817003,15.995188455368842
6.449760768,0.999783019693465,15.874627450166892
6.454545408,0.9998855710279774,15.752688361340333
6.459330048,0.9999951984545572,15.629306622800701
6.464114688,1.0001054226102788,15.504326362742942
6.468899328,1.0002096065831743,15.377846383889253
6.473683968,1.0003015082709328,15.249969797265718
6.47846912,1.0003755523748192,15.120888363390597
6.48325376,1.0004273851547756,14.99093942676949
6.4880384,1.000453791438555,14.860395586274162
6.49282304,1.000453288076862,14.729686172182207
6.49760768,1.000425729969062,14.599183403390592
6.50239232,1.0003730287759225,14.46922377621166
6.50717696,1.0002981248201384,14.340166948369392
6.5119616,1.0002055083733083,14.212278807266697
6.51674624,1.0001007477653843,14.085746564424836
6.52153088,0.9999902102573034,13.960795319321523
6.526316032,0.9998803036125097,13.837342102296986
6.531100672,0.999777801960939,13.715404177781815
6.535885312,0.999688755811689,13.59481619981055
6.540669952,0.9996186292145581,13.47534236692961
6.545454592,0.9995715213725351,13.356706954276994
6.550239232,0.999550337154248,13.238573731072092
6.555023872,0.9995562541358752,13.120471859211785
6.559808512,0.9995891796323619,13.002130229808152
6.564593152,0.9996468872486942,12.883146790996227
6.569377792,0.999726006715899,12.76320076560583
6.574162432,0.9998217848316939,12.64199448269845
6.578947584,0.9999285829016467,12.519350236207117
6.583732224,1.0000398922403952,12.395171572186431
6.588516864,1.0001490554426817,12.269411602145885
6.593301504,1.0002495497078796,12.142166953390854
6.598086144,1.0003353337785241,12.013614642453494
6.602870784,1.0004012334512042,11.883989119818642
6.607655424,1.0004434550231243,11.753559960755574
6.612440064,1.0004592279284177,11.622738831654088
6.617224704,1.000447781685185,11.491883890558157
6.622009344,1.0004096551390733,11.361326688137686
6.626794496,1.0003472126398805,11.231520463456267
6.631579136,1.0002640853366198,11.102725652957817
6.636363776,1.0001653217504876,10.975205111425485
6.641148416,1.000056862571694,10.849140397269366
6.645933056,0.9999450938412253,10.724675525437092
6.650717696,0.9998368436549819,10.601672286400287
6.655502336,0.9997385068203639,10.480192577092376
6.660286976,0.9996559400140204,10.359944913264474
6.665071616,0.9995943338444048,10.240722470893251
6.669856256,0.9995571497197882,10.122202557402002
6.674640896,0.9995467600250603,10.003989618681498
6.679426048,0.9995638490239996,9.885771627423196
6.684210688,0.9996071396364029,9.767072097476458
6.688995328,0.9996744061373216,9.647600721265704
6.693779968,0.9997613150578026,9.527054079665312
6.698564608,0.9998628678060995,9.405173438431882
6.703349248,0.9999728518183373,9.28174504206173
6.708133888,1.0000847693724257,9.156803347126473
6.712918528,1.0001917691552358,9.030253087790888
6.717703168,1.00028759774991,8.90229612629991
6.722487808,1.000366529300611,8.773091453419093
6.72727296,1.0004235596693698,8.642939465326187
6.7320576,1.0004555917494542,8.51212442116954
6.73684224,1.0004603987955878,8.381027155516
6.74162688,1.000438008983429,8.250038186042117
6.74641152,1.0003894555695478,8.11959019721122
6.75119616,1.000317732979254,7.989987326776891
6.7559808,1.0002271716532471,7.86148574674793
6.76076544,1.0001231053800363,7.734378189583415
6.76555008,1.0000119570189137,7.60875013804867
6.77033472,0.9999001494971836,7.484695540428705
6.775119872,0.9997945585312239,7.362224677048668
6.779904512,0.9997013234549676,7.241100030129121
6.784689152,0.9996262028427326,7.12119837269278
6.789473792,0.9995737446707852,7.002161232243674
6.794258432,0.9995469466944517,6.8836974398542985
6.799043072,0.9995475407437303,6.7654357287833395
6.803827712,0.9995755924679698,6.646926820061445
6.808612352,0.999629188702381,6.527869487183061
6.813396992,0.999705353058951,6.407824905009621
6.818181632,0.9997993968269363,6.286644782882308
6.822966272,0.9999056518548278,6.163996410866852
6.827751424,1.0000179566683522,6.0398659133020365
6.832536064,1.0001292689678096,5.91407815437859
6.837320704,1.0002332218799743,5.786751894479693
6.842105344,1.0003233840077517,5.658112991525103
6.846889984,1.000394386074042,5.528288095050155
6.851674624,1.0004420079140592,5.397637129410857
6.856459264,1.0004634519325288,5.266469921793041
6.861243904,1.0004572293503093,5.135197792845872
6.866028544,1.0004238285918188,5.0041982814877555
6.870813184,1.0003651881387092,4.873819598318929
6.875598336,1.0002848485376912,4.744440930892153
6.880382976,1.0001876666299951,4.616316865426718
6.885167616,1.000079297669571,4.489617899746868
6.889952256,0.9999663656720381,4.364500851367735
6.894736896,0.9998555928198143,4.240941850659688
6.899521536,0.9997536251161246,4.118855226247968
6.904306176,0.9996666578515051,3.9981197026657895
6.909090816,0.9995996880631832,3.878496208267619
6.913875456,0.9995569372753234,3.759612723962949
6.918660096,0.9995409764398331,3.641122859186872
6.923444736,0.9995527892746656,3.5227130319759916
6.928229888,0.999591597000681,3.4038809920638147
6.933014528,0.9996550735096585,3.284353923153293
6.937799168,0.9997395334936842,3.163768186985541
6.942583808,0.9998398565390665,3.0418896929893293
6.947368448,0.9999499640824111,2.918504190648684
6.952153088,1.0000633132576298,2.7935094516350447
6.956937728,1.000173082597772,2.6669486619098732
6.961722368,1.0002728347837166,2.5389006471192292
6.966507008,1.0003565184243983,2.409573946427976
6.971291648,1.0004188698739618,2.2791507352128617
6.9760768,1.0004564319531524,2.1480614100960356
6.98086144,1.0004669155377606,2.0166118717072243
6.98564608,1.0004495374170141,1.8852190463958214
6.99043072,1.000405429555898,1.7542158177305809
6.99521536,1.000337267336137,1.6240308267319412
7.0,1.0002489688925444,1.4949622654600663
7.00478464,1.000145960631957,1.3671791145790706
7.00956928,1.0000343349859908,1.2409480277169365
7.01435392,0.9999207076470621,1.116265498800957
7.01913856,0.9998120072164913,0.9931723049700587
7.0239232,0.9997147530548821,0.8715331275540269
7.028708352,0.9996347504697651,0.7511240358226244
7.033492992,0.9995768214621897,0.6316994597327587
7.038277632,0.999544377893758,0.5129085625332719
7.043062272,0.9995395107279226,0.3943869574111194
7.047846912,0.9995623913497427,0.27569978140097984
7.052631552,0.9996118304996843,0.15654419611583226
7.057416192,0.9996846559360212,0.03650685293530894
7.062200832,0.9997767410103967,-0.08471787296065368
7.066985472,0.9998823912626709,-0.2073523898062881
7.071770112,0.9999952852081097,-0.33155405608475264
7.076555264,1.000108627825532,-0.45731761236610013
7.081339904,1.0002158723092764,-0.5846862765689849
7.086124544,1.0003103664588118,-0.7134539686919631
7.090909184,1.000386509065216,-0.8434509753853384
7.095693824,1.0004397032686774,-0.9743658414066441
7.100478464,1.0004667160971408,-1.1058373538443713
7.105263104,1.000465938805292,-1.237540740515922
7.110047744,1.000437547983111,-1.368985095539542
7.114832384,1.0003830671044454,-1.4999301428474217
7.119617024,1.0003057135274607,-1.6299021715782995
7.124401664,1.0002103142161083,-1.7586763067437763
7.129186816,1.0001022988999142,-1.8859929903230213
7.133971456,0.9999883104920911,-2.0117839277252587
7.138756096,0.9998752111612197,-2.1359611459989503
7.143540736,0.9997698010018781,-2.258619271779911
7.148325376,0.9996781586286855,-2.379901613384822
7.153110016,0.9996059942397066,-2.499982745863957
7.157894656,0.9995576108585579,-2.6192557999329993
7.162679296,0.9995361255717875,-2.7379794601311334
7.167463936,0.9995424116970609,-2.8566687765359675
7.172248576,0.9995763838818754,-2.9756197332069605
7.177033728,0.999636011009089,-3.0952340957780065
7.181818368,0.9997176651847051,-3.215869080142699
7.186603008,0.9998165336794137,-3.337780858103196
7.191387648,0.9999265413994817,-3.461125328185991
7.196172288,1.0000412913127237,-3.586125578128921
7.200956928,1.0001536822675747,-3.7127228789049878
7.205741568,1.0002571369612778,-3.8408558538468074
7.210526208,1.000345571382346,-3.970337381162385
7.215310848,1.0004132927987783,-4.100936643219296
7.220095488,1.0004566180200187,-4.232343774246393
7.224880128,1.0004726592892847,-4.364167345893636
7.22966528,1.0004606915394476,-4.496027683736768
7.23444992,1.00042128586725,-4.627533232947774
7.23923456,1.0003567626337746,-4.758304812748086
7.2440192,1.0002709909759986,-4.888038325990405
7.24880384,1.000169113853676,-5.016431054519307
7.25358848,1.0000573024890353,-5.143328247814024
7.25837312,0.999942212723556,-5.268626581009968
7.26315776,0.9998305185858903,-5.392347735145359
7.2679424,0.9997291984598606,-5.514545300945212
7.27272704,0.9996443099167752,-5.635459291757465
7.277512192,0.9995808464856233,-5.7553479001613566
7.282296832,0.9995427310074635,-5.874449585314591
7.287081472,0.9995321613461082,-5.993250428813232
7.291866112,0.9995497612722354,-6.112124940143116
7.296650752,0.9995947583229079,-6.231440919674064
7.301435392,0.9996641485231794,-6.3515320173115395
7.306220032,0.999753843329179,-6.472796384072308
7.311004672,0.9998586367845251,-6.595436689416453
7.315789312,0.9999720171976116,-6.719590921009269
7.320573952,1.000087448612674,-6.8454060970497865
7.325359104,1.0001977359746734,-6.972824411790789
7.330143744,1.0002965000600677,-7.101700376749544
7.334928384,1.0003776703455034,-7.231850873150843
7.339713024,1.0004364880306187,-7.363023872013993
7.344497664,1.000469244673868,-7.494842654807428
7.349282304,1.0004741996172122,-7.626925710906581
7.354066944,1.0004509339072463,-7.758917919899913
7.358851584,1.0004007061557858,-7.890360984721539
7.363636224,1.000326673264681,-8.02098587312733
7.368420864,1.000233294650899,-8.150385630302459
7.373205504,1.0001258079357964,-8.278411090590991
7.377990656,1.0000110884908004,-8.404852976040797
7.382775296,0.9998958712488674,-8.529686615536129
7.387559936,0.9997868972050444,-8.652932195491962
7.392344576,0.9996907913073995,-8.774718263985394
7.397129216,0.9996134460146243,-8.89533606983935
7.401913856,0.9995595226033384,-9.014962121889692
7.406698496,0.9995319738486252,-9.1340775244837
7.411483136,0.9995327393500134,-9.252950669842587
7.416267776,0.9995616943310602,-9.37210444157421
7.421052416,0.9996171591743146,-9.491792429099299
7.425837568,0.9996957725070917,-9.612484818893991
7.430622208,0.9997928489881251,-9.734409542675811
7.435406848,0.9999025492407094,-9.857803263187835
7.440191488,1.0000183586906148,-9.982811099844648
7.444976128,1.0001334262856059,-10.10942633199388
7.449760768,1.0002405431251749,-10.237627777108475
7.454545408,1.0003334805850677,-10.367268908032164
7.459330048,1.0004066337539956,-10.498068730864727
7.464114688,1.0004557929803926,-10.62974439789206
7.468899328,1.000477791429085,-10.761941118213269
7.473683968,1.0004712045062463,-10.894263504044018
7.47846912,1.0004366051176765,-11.02626266258104
7.48325376,1.0003760890271567,-11.15767049354787
7.4880384,1.0002931066410767,-11.288008436896902
7.49282304,1.0001926819241123,-11.417108541727169
7.49760768,1.000080922769614,-11.544667669191014
7.50239232,0.999964348601481,-11.670658083988467
7.50717696,0.9998499629256622,-11.794998331369138
7.5119616,0.9997447426153395,-11.917813935653722
7.51674624,0.9996549278104484,-12.039236323867526
7.52153088,0.9995859736497218,-12.159552504113197
7.526316032,0.9995420014927933,-12.279053729118697
7.531100672,0.9995255906133201,-12.398156982924371
7.535885312,0.9995378237610522,-12.517238435981591
7.540669952,0.9995778609931699,-12.63668339818364
7.545454592,0.9996435262289822,-12.756880665477127
7.550239232,0.9997307805692391,-12.878182857108284
7.555023872,0.9998344602946341,-13.000818808207596
7.559808512,0.9999482195091199,-13.125021059263123
7.564593152,1.000065278465293,-13.250820991442572
7.569377792,1.0001786646492101,-13.378278915631505
7.574162432,1.0002816475901621,-13.507265078710343
7.578947584,1.0003678840822803,-13.637618764486648
7.583732224,1.000432194063887,-13.769029939244424
7.588516864,1.000471046857667,-13.901200891238613
7.593301504,1.0004817674781874,-14.033705177873465
7.598086144,1.0004637307151303,-14.166152393922856
7.602870784,1.000418143235382,-14.29817763430637
7.607655424,1.0003476938066143,-14.429402216634482
7.612440064,1.00025651907848,-14.559479819610448
7.617224704,1.0001500276032027,-14.688190023363607
7.622009344,1.0000346300359289,-14.815333407868163
7.626794496,0.9999173415042059,-14.94080341884585
7.631579136,0.9998051140755759,-15.064702839102608
7.636363776,0.9997046209523773,-15.18706838810515
7.641148416,0.999621916923325,-15.30816477885788
7.645933056,0.999562031896785,-15.428263733228368
7.650717696,0.9995287133255033,-15.547680657376553
7.655502336,0.999523671048785,-15.666885237238763
7.660286976,0.9995473899839737,-15.786184506370144
7.665071616,0.9995984092410477,-15.906020775949672
7.669856256,0.9996738414574852,-16.02676194275997
7.674640896,0.9997689102339077,-16.148711551820394
7.679426048,0.9998780621850303,-16.272123202569322
7.684210688,0.999994827188405,-16.397139228544276
7.688995328,1.0001121853388102,-16.523806205057845
7.693779968,1.00022295107563,-16.65208104581707
7.698564608,1.0003204496361051,-16.781856726841195
7.703349248,1.0003991486808075,-16.912872355998392
7.708133888,1.0004541027867662,-17.04483598254181
7.712918528,1.000482040855996,-17.177395889966814
7.717703168,1.0004812406309205,-17.310164677234315
7.722487808,1.000451762861446,-17.44272807785074
7.72727296,1.0003954732603517,-17.5746825316569
7.7320576,1.0003155445171876,-17.705723656595396
7.73684224,1.0002167335491303,-17.835479208248785
7.74162688,1.0001052004367255,-17.963765987107763
7.74641152,0.9999873554534804,-18.09044608444889
7.75119616,0.9998705282353012,-18.215432367799064
7.7559808,0.9997614178707688,-18.338874225053928
7.76076544,0.9996667665486976,-18.460845420458135
7.76555008,0.9995921063456399,-18.581668971186296
7.77033472,0.9995421630805832,-18.701573797036282
7.775119872,0.999519789924055,-18.82099543067611
7.779904512,0.9995264493321289,-18.940282986716035
7.784689152,0.9995615851737415,-19.059901804798052
7.789473792,0.9996233049144818,-19.18018986224747
7.794258432,0.9997075952229488,-19.301543941680098
7.799043072,0.9998098689757741,-19.424197862005865
7.803827712,0.9999237187955646,-19.548414395783038
7.808612352,1.0000422632441608,-19.674264965826616
7.813396992,1.0001586009827368,-19.80178880461914
7.818181632,1.0002656278076365,-19.930895085540282
7.822966272,1.0003569740644414,-20.0614048718616
7.827751424,1.000427114084679,-20.193060793638526
7.832536064,1.0004718957708612,-20.325542255229564
7.837320704,1.000488617480689,-20.458458924734376
7.842105344,1.0004762229017103,-20.591410806805087
7.846889984,1.0004353694241697,-20.724007385438757
7.851674624,1.0003685972609475,-20.855862709785498
7.856459264,1.0002800329861992,-20.986635326310076
7.861243904,1.0001746502731919,-21.116010818944513
7.866028544,1.000058882852119,-21.243847128803857
7.870813184,0.9999396650900456,-21.37007502038127
7.875598336,0.9998242269760551,-21.494563362453082
7.880382976,0.9997194150040939,-21.6175880044235
7.885167616,0.9996316359185232,-21.73923216557366
7.889952256,0.999565908495865,-21.85976108108905
7.894736896,0.9995263144703337,-21.97957273985563
7.899521536,0.9995154315325362,-22.099033337981027
7.904306176,0.9995336843813555,-22.218559590265336
7.909090816,0.999580149173801,-22.33854208779452
7.913875456,0.9996519508829913,-22.4593435568281
7.918660096,0.9997448016569646,-22.581348085357547
7.923444736,0.9998531266593056,-22.70475725912778
