freq,mag,phase
6.0,0.9997311001614384,84.02239561695666
6.002287104,0.9999997303783906,83.8644952640088
6.004574208,1.0002682779094738,83.70269434309101
6.006861312,1.000519987757705,83.53711721061177
6.009147904,1.0007388695986124,83.36820381140986
6.011435008,1.000911374714654,83.19641096341162
6.013722112,1.0010262628985522,83.0226085838102
6.016009216,1.0010763622539582,82.84758227993984
6.01829632,1.0010584719805677,82.67232887673644
6.020583424,1.0009737542772794,82.49789057309684
6.022870016,1.0008274854722716,82.32507708981599
6.02515712,1.0006288059926678,82.15482552150735
6.027444224,1.000390319879052,81.9877439303336
6.029731328,1.0001270728557614,81.8243178391859
6.032018432,0.9998556581038903,81.66478144997046
6.034305536,0.9995932644001074,81.50916200817805
6.036592128,0.9993564631615501,81.3571879669852
6.038879232,0.9991603585081544,81.20838229743637
6.041166336,0.9990174636619188,81.06206839638813
6.04345344,0.9989367149851095,80.91741127802288
6.045740544,0.9989234287206837,80.77344123537333
6.048027648,0.9989782514583763,80.62919479412788
6.05031424,0.9990980476357727,80.48371786415798
6.052601344,0.9992750246497549,80.33607319478139
6.054888448,0.9994981028966046,80.18552515123935
6.057175552,0.9997530557788528,80.03157710286553
6.059462656,1.000023825528171,79.87380207233602
6.06174976,1.0002930665283931,79.71208591535502
6.064036352,1.0005441833118907,79.5466466487513
6.066323456,1.0007608432493813,79.37780486980158
6.06861056,1.0009296607755762,79.20620663111829
6.070897664,1.00103975127471,79.03258955702545
6.073184768,1.001084224340356,78.85787180638897
6.075471872,1.001060244783665,78.68300156601904
6.077758464,1.000969284298867,78.50897302225138
6.080045568,1.0008169242171245,78.33676420992798
6.082332672,1.0006130163734162,78.16709980870405
6.084619776,1.0003702145554614,78.00070576852883
6.08690688,1.000103923210259,77.83801929823805
6.089193984,0.9998308747843655,77.6792643329464
6.091481088,0.9995684815101372,77.52442883344052
6.09376768,0.9993332013885576,77.373212848233
6.096054784,0.9991401909339224,77.22514677296331
6.098341888,0.9990014718615788,77.07953715286024
6.100628992,0.9989261129942424,76.93546065822598
6.102916096,0.9989188284259655,76.79201123626555
6.1052032,0.9989800494090243,76.64820451818925
6.107489792,0.9991059808333201,76.50303915266294
6.109776896,0.9992886208775885,76.35566506730393
6.112064,0.9995164889898815,76.20530418945899
6.114351104,0.9997751623138051,76.0514192899783
6.116638208,1.0000482237415969,75.89366569366133
6.118925312,1.0003183552195272,75.73203492435736
6.121211904,1.000568437117738,75.56659006934433
6.123499008,1.000782731668119,75.39782342076694
6.125786112,1.0009477528683897,75.22629575098566
6.128073216,1.001052970492626,75.05285215776851
6.13036032,1.0010916901134561,74.87832940370706
6.132647424,1.0010614835448517,74.70380524556244
6.134934016,1.0009640850235686,74.53017570496498
6.13722112,1.0008057685593412,74.35843393480391
6.139508224,1.000596576091225,74.18933806275399
6.141795328,1.0003494088583411,74.02358495422935
6.144082432,1.0000801052217487,73.86158060481303
6.146369536,0.999805632542554,73.70355614107056
6.148656128,0.9995433851398926,73.5494358893005
6.150943232,0.9993098653938594,73.39892516397877
6.153230336,0.9991199708572542,73.25151164531192
6.15551744,0.9989858554463606,73.10651083549271
6.157804544,0.9989158919587304,72.96296097879686
6.160091648,0.9989147291573577,72.8199676177253
6.162378752,0.9989824017773273,72.67651748452731
6.164665344,0.9991145117425532,72.53161836806167
6.166952448,0.9993029956711772,72.38439472225471
6.169239552,0.9995356722182341,72.23414008626129
6.171526656,0.9997979174785268,72.08026652437101
6.17381376,1.0000730911552842,71.92252084606856
6.176100864,1.0003438744342137,71.76083437437917
6.178387456,1.0005929702980834,71.595366234469
6.18067456,1.00080473877959,71.42654581165313
6.182961664,1.0009658212037347,71.25506171536354
6.185248768,1.0010658983061613,71.08171380465278
6.187535872,1.0010987373299975,70.90737244032431
6.189822976,1.0010620831041492,70.7330585018932
6.192109568,1.0009583234677117,70.55979181516247
6.194396672,1.0007939920110216,70.38846260764811
6.196683776,1.0005794175803757,70.21988742252509
6.19897088,1.000328142997985,70.05471825263082
6.201257984,1.0000559242751137,69.89334116110884
6.203545088,0.9997800632705158,69.73595276677422
6.20583168,0.9995179589206109,69.58249764788908
6.208118784,0.999286306905299,69.4326434048901
6.210405888,0.9990997985275961,69.28584100736093
6.212692992,0.9989702532710053,69.14134487004118
6.214980096,0.9989059695307065,68.99829430947091
6.2172672,0.9989110319238608,68.8556844013783
6.219553792,0.998985162939187,68.71250260411635
6.221840896,0.9991236431215318,68.5677850049765
6.224128,0.999317837855922,68.4206569803147
6.226415104,0.9995552620720926,68.27041146296894
6.228702208,0.9998211643154623,68.11650443056038
6.230989312,1.0000984192829676,67.95867248113501
6.233275904,1.0003696637573831,67.7968652734884
6.235563008,1.000617681027595,67.63128230174475
6.237850112,1.0008267596961893,67.46238924425525
6.240137216,1.0009837170372822,67.2908744914232
6.24242432,1.001078590745614,67.1175045066353
6.244711424,1.0011052999906893,66.9432955555702
6.246998528,1.0010622899029553,66.76917133633852
6.24928512,1.0009520855659677,66.59620139472241
6.251572224,1.0007817082521038,66.4252388940736
6.253859328,1.0005617811820755,66.25711710840223
6.256146432,1.0003062782275356,66.09245933120118
6.258433536,1.000031223615729,65.93166336064112
6.26072064,0.9997541576804828,65.77487024554176
6.263007232,0.9994924824533332,65.62202486973302
6.265294336,0.999262836907217,65.47273710191331
6.26758144,0.9990798662691323,65.32646780168555
6.269868544,0.9989550701042136,65.18246162643256
6.272155648,0.9988965183708847,65.03978487824895
6.274442752,0.9989079204022558,64.89748989248142
6.276729344,0.9989886464675127,64.75449773409436
6.279016448,0.9991334439019923,64.6099126405434
6.281303552,0.9993333560612232,64.46279341211778
6.283590656,0.999575613196097,64.31248124496892
6.28587776,0.9998449355766919,64.1584825028985
6.288164864,1.000124220182354,64.00046734810492
6.290451456,1.0003957817386597,63.83845933337908
6.29273856,1.0006425505408005,63.672715897168324
6.295025664,1.000848729109843,63.5036836278672
6.297312768,1.0010014693203002,63.332044643979735
6.299599872,1.0010909553196636,63.1586639318384
6.301886976,1.0011115648640068,62.98447064001426
6.304173568,1.0010620294784516,62.810486806371
6.306460672,1.0009452853633898,62.637734144003375
6.308747776,1.000768812391202,62.46709072238787
6.31103488,1.0005435841484918,62.29937041725126
6.313321984,1.0002838965921603,62.13517919803492
6.315609088,1.0000061968382272,61.97486838603622
6.317896192,0.9997279361442212,61.81862231172532
6.320182784,0.9994667358034718,61.66630686635935
6.322469888,0.9992393089809221,61.51752596145257
6.324756992,0.9990599430017125,61.371749803858386
6.327044096,0.9989400922882414,61.22812350440039
6.3293312,0.9988874308290758,61.08578229241963
6.331618304,0.9989052830646178,60.94371763517348
6.333904896,0.9989925758836804,60.80088774543287
6.336192,0.9991438457340595,60.65632681448511
6.338479104,0.999349531345723,60.50917383262932
6.340766208,0.9995964675039558,60.358708069493446
6.343053312,0.9998691440632568,60.20447883278269
6.345340416,1.000150331858152,60.046248646029476
6.347627008,1.0004221054250484,59.884000898713744
6.349914112,1.0006674573169299,59.71799799041402
6.352201216,1.000870611277161,59.5487367047897
6.35448832,1.0010189577061988,59.37692917696956
6.356775424,1.0011029729775025,59.20346704568413
6.359062528,1.0011173515146248,59.029258207260625
6.36134912,1.0010611327521208,58.8553633166917
6.363636224,1.000937846761797,58.68277923766963
6.365923328,1.0007552544814022,58.51239786524915
6.368210432,1.00052470482356,58.34501443193163
6.370497536,1.0002610146684459,58.18120874272057
6.37278464,0.9999806289761471,58.02134806315756
6.375071232,0.9997013578100178,57.86557209139974
6.377358336,0.999440843713519,57.71370714008785
6.37964544,0.9992156448484392,57.56539889619579
6.381932544,0.9990400700208301,57.42002208396798
6.384219648,0.9989253648676861,57.27675593111985
6.386506752,0.9988785644879407,57.13466822130885
6.388793344,0.998903013589505,56.992731250148246
6.391080448,0.9989969900771158,56.849979843321194
6.393367552,0.9991545843295503,56.70536199028375
6.395654656,0.999366030159024,56.55808798444232
6.39794176,0.9996177126267948,56.407437131989596
6.400228864,0.9998937262386942,56.25293383083068
6.402515968,1.0001766131328236,56.09440016503182
6.40480256,1.0004485658582332,55.9318215413651
6.407089664,1.0006922514300784,55.765515353569874
6.409376768,1.000892312225709,55.595973395642645
6.411663872,1.0010361174059978,55.423952616071
6.413950976,1.0011145525127667,55.250304013704536
6.41623808,1.001122560588677,55.07603629583
6.418524672,1.00105961937884,54.90214092735806
6.420811776,1.0009296748407157,54.729673418608854
6.42309888,1.0007409529992761,54.55949538503757
6.425385984,1.0005053004167324,54.392370992019686
6.427673088,1.0002376034975533,54.22891954804313
6.429960192,0.9999546235887169,54.069474675661674
6.432246784,0.9996745386187288,53.914092217567735
6.434533888,0.99941485022292,53.7626500746679
6.436820992,0.9991920848380031,53.61471772078319
6.439108096,0.9990204775277379,53.4696617061435
6.4413952,0.998910881548908,53.32666768541853
6.443682304,0.9988702790227411,53.18476669917881
6.445968896,0.9989012953343938,53.042934614406676
6.448256,0.9990020506786017,52.90014703716023
6.450543104,0.999166169203893,52.755415712878296
6.452830208,0.9993832412750883,52.60793091441792
6.455117312,0.9996394578694298,52.45699747803039
6.457404416,0.9999187806732285,52.3021839598081
6.459691008,1.0002033242804553,52.143248837527345
6.461978112,1.000475204461403,51.980287769785036
6.464265216,1.0007171953380916,51.813579067759626
6.46655232,1.0009140017885427,51.64369115043728
6.468839424,1.001053123708673,51.471382686656845
6.471126528,1.0011257772680955,51.297518594124
6.473413632,1.0011273423299671,51.12310457901259
6.475700224,1.0010576605880173,50.94917538246025
6.477987328,1.0009211270050793,50.77676009599103
6.480274432,1.000726335393389,50.606702173022036
6.482561536,1.0004854651694013,50.439822181348305
6.48484864,1.0002137771621689,50.276652165330646
6.487135744,0.999928432460377,50.11752411833932
6.489422336,0.9996474997561231,49.96249349419234
6.49170944,0.9993887128013118,49.81139609785338
6.493996544,0.9991685812224015,49.663810017631064
6.496283648,0.9990009833879553,49.51900474032042
6.498570752,0.9988967755982796,49.3762001664878
6.500857856,0.9988622989900747,49.234418151337714
6.503144448,0.9989001007336216,49.09258593163299
6.505431552,0.9990076327373157,48.949735579086436
6.507718656,0.9991781507925273,48.80481093139626
6.51000576,0.9994009614255803,48.65705415312959
6.512292864,0.9996617372140267,48.50576180063713
6.514579968,0.9999441581178437,48.350530353642704
6.51686656,1.0002302526273503,48.19115092968105
6.519153664,1.0005020241334617,48.027725205762366
6.521440768,1.0007421433862465,47.860579865564404
6.523727872,1.0009355027814595,47.69028122651952
6.526014976,1.0010698724015004,47.51759124686845
6.52830208,1.0011365923788467,47.343458470103215
6.530588672,1.001131749833891,47.1688449950919
6.532875776,1.0010552567952147,46.9948224263367
6.53516288,1.0009120723683826,46.82239996910629
6.537449984,1.0007111555401405,46.65242022733691
6.539737088,1.0004651566365799,46.48570353357244
6.542024192,1.000189638403791,46.322757598615716
6.544310784,0.9999019819798535,46.16389902006715
6.546597888,0.9996203600691929,46.00917045854911
6.548884992,0.999362712048158,45.85835077499253
6.551172096,0.9991453001917789,45.711012889539326
6.5534592,0.9989819747801878,45.56640618134679
6.555746304,0.998883096209143,45.4237303541901
6.558033408,0.9988549376176192,45.281978479709856
6.56032,0.9988995223213644,45.140096504820484
6.562607104,0.9990138743922209,44.99705340854783
6.564894208,0.9991907719307372,44.85189638762881
6.567181312,0.9994191544601466,44.70376765601776
6.569468416,0.9996845074030626,44.55206614951224
6.57175552,0.999969924045754,44.39634364650315
6.574042112,1.0002575131810971,44.236460227324805
6.576329216,1.0005288984043446,44.07249837275803
6.57861632,1.0007670313111694,43.90484318760897
6.580903424,1.0009568662276906,43.73407971410614
6.583190528,1.0010862453308977,43.56095687373696
6.585477632,1.0011471150442974,43.386471560555165
6.587764224,1.0011355549796923,43.21160970318476
6.590051328,1.0010522364027077,43.03742874033259
6.592338432,1.000902366372618,42.86492476689487
6.594625536,1.0006953472358322,42.69500976524157
6.59691264,1.000444266311784,42.52839105027527
6.599199744,1.0001650507040591,42.36559844251687
6.601486336,0.9998750891487492,42.20693132228003
6.60377344,0.9995930104405714,42.05244598743419
6.606060544,0.9993364616381396,41.90182504744421
6.608347648,0.9991219469546603,41.75466762868781
6.610634752,0.9989629298436774,41.610215034292814
6.612921856,0.9988695977485166,41.46759644489699
6.615208448,0.9988478990520805,41.32579885115876
6.617495552,0.9988992620465833,41.18378446902811
6.619782656,0.9990203516185729,41.04051870402148
6.62206976,0.9992038064469371,40.89502129976036
6.624356864,0.9994377210200751,40.74649735473399
6.626643968,0.9997074791271395,40.594296123400916
6.628931072,0.9999959226939865,40.43801120392166
6.631217664,1.0002847804492834,40.27753555502813
6.633504768,1.0005557940044167,40.11296597483473
6.635791872,1.0007918232161146,39.94472904309031
6.638078976,1.0009779491289938,39.77341771851839
6.64036608,1.001102359190165,39.599841460203656
6.642653184,1.0011572474936619,39.42493488618994
6.644939776,1.0011389468492775,39.24978450213474
6.64722688,1.001048753733141,39.075364189484176
6.649513984,1.000892191750085,38.90274673170445
6.651801088,1.000679168964053,38.73279380247887
6.654088192,1.0004231165013857,38.56621960706429
6.656375296,1.0001401360495143,38.40353431671364
6.658661888,0.9998481405758096,38.24501757260428
6.660948992,0.9995656687086679,38.09066654537186
6.663236096,0.9993105226732402,37.940228949604446
6.6655232,0.9990988534100508,37.79317979738266
6.667810304,0.9989443730365155,37.64877407554616
6.670097408,0.9988566048397527,37.5061408411266
6.672384,0.9988413908351278,37.3642548199787
6.674671104,0.9988996345693861,37.22204619293616
6.676958208,0.9990276962985442,37.07846674747053
6.679245312,0.9992174046226009,36.93256792717064
6.681532416,0.9994569335749625,36.78351506148963
6.68381952,0.9997309739199871,36.63075960395325
6.686106112,1.0000222465271462,36.47384180618545
6.688393216,1.0003122195042353,36.3127050473429
6.69068032,1.0005827834876135,36.14749677844082
6.692967424,1.000816561677194,35.97859067521569
6.695254528,1.0009988646793126,35.80668816151841
6.697541632,1.0011181445473685,35.63257105194565
6.699828224,1.001166884684545,35.45721348842541
6.702115328,1.0011418839273167,35.281671783649905
6.704402432,1.0010447899380086,35.107003958527216
6.706689536,1.0008815540340894,34.93418842780095
6.70897664,1.0006625544845302,34.76412450252255
6.711263744,1.000401526091579,34.59755135959439
6.713550848,1.0001149316100595,34.434903480494896
6.71583744,0.9998210015977986,34.2764851806153
6.718124544,0.99953815243916,34.12222457004963
6.720411648,0.9992844488781997,33.97185743972239
6.722698752,0.9990760092200549,33.8248902405491
6.724985856,0.9989259463520489,33.68047179019962
6.72727296,0.9988439457885017,33.53773770830264
6.729559552,0.998835183163174,33.39568934164152
6.731846656,0.9989004174475304,33.25318444962569
6.73413376,0.9990352752114959,33.10923209523575
6.736420864,0.9992315400077864,32.96285490898078
6.738707968,0.9994764143652338,32.8132604533444
6.740995072,0.9997547200021628,32.659828617958176
6.743281664,1.0000487471209445,32.5022512490943
6.745568768,1.0003399186596973,32.34037327775942
6.747855872,1.000609664417903,32.17444048716434
6.750142976,1.0008411563721291,32.00483524006773
6.75243008,1.0010195179170351,31.83224903389272
6.754717184,1.0011335603187232,31.65751505548374
6.757003776,1.0011761419245597,31.481649296462233
6.75929088,1.0011444021367353,31.305684851774757
6.761577984,1.0010403257600182,31.130664686782154
6.763865088,1.000870496057483,30.95760342222192
6.766152192,1.0006454881000715,30.78740587254642
6.768439296,1.0003795700301745,30.620751228054736
6.770725888,1.0000894818696962,30.458091731798444
6.773012992,0.9997936121593486,30.29969561290872
6.775300096,0.9995106465384913,30.14548869578017
6.7775872,0.9992585918475899,29.995125928742567
6.779874304,0.9990533402785278,29.848121854201338
6.782161408,0.9989078941504046,29.70363658153338
6.784448512,0.9988316984058037,29.560758824306603
6.786735104,0.9988295851845186,29.41844387659439
6.789022208,0.9989015845896653,29.27562167479758
6.791309312,0.9990434109441374,29.131194374879318
6.793596416,0.9992459057527144,28.984278542381993
6.79588352,0.9994963734412987,28.834033494239367
6.798170624,0.9997788172753352,28.67990427835817
6.800457216,1.0000755132063597,28.521540352127367
6.80274432,1.0003675907275809,28.358888393802612
6.805031424,1.0006366352935372,28.19215229227183
6.807318528,1.000865577816752,28.02178642624814
6.809605632,1.001039925719506,27.84848359833041
6.811892736,1.0011487413886135,27.673085654538365
6.814179328,1.001184977827219,27.49662144055987
6.816466432,1.0011463595345838,27.320154439293358
6.818753536,1.0010353909678826,27.14475270749041
6.82104064,1.000858880794085,26.97141783184536
6.823327744,1.0006279973140082,26.800987059292595
6.825614848,1.000357240432663,26.634189221600174
6.82790144,1.0000638034039393,26.471477806079665
6.830188544,0.9997661317896309,26.313010614557854
6.832475648,0.9994830804082874,26.15875930797747
6.834762752,0.9992326473622476,26.00838566483481
6.837049856,0.9990307015722139,25.8612847690014
6.83933696,0.9988901266894316,25.716655359079095
6.841623552,0.9988197055948841,25.573565130906946
6.843910656,0.9988242470929717,25.430920633912574
6.84619776,0.9989032565820756,25.287675873400822
6.848484864,0.9990518986138555,25.14273884057869
6.850771968,0.9992606800244282,24.99518718521761
6.853059072,0.9995165251713174,24.844239407890452
6.855345664,0.9998031319840489,24.689332213877474
6.857632768,1.000102311857159,24.53014310076442
6.859919872,1.0003952617000982,24.36663963982392
6.862206976,1.0006634280602142,24.199038697845303
6.86449408,1.000889754912731,24.027848576555083
6.866781184,1.0010600407152237,23.853726681970183
6.869068288,1.001163502434391,23.677620921086895
6.87135488,1.0011934170219754,23.50050920778023
6.873641984,1.0011480117643548,23.323515086511186
6.875929088,1.0010301138024138,23.147645978952816
6.878216192,1.0008469894236491,22.9739380121398
6.880503296,1.000610155995348,22.803250340191525
6.8827904,1.000334737089919,22.636261633578123
6.885076992,1.0000379319049215,22.47340508097282
6.887364096,0.9997386162879265,22.314848935214954
6.8896512,0.9994556631626684,22.16049516939418
6.891938304,0.9992071011848183,22.01000483738856
6.894225408,0.9990084965839412,21.86275941034184
6.896512512,0.9988726894229658,21.717913473134512
6.898799104,0.9988082579359051,21.57451664785736
6.901086208,0.9988194289749203,21.431485712110913
6.903373312,0.9989054613023425,21.287752247867655
6.905660416,0.9990608747854961,21.142208843268467
6.90794752,0.9992759817664129,20.993984115258517
6.910234624,0.9995370506678658,20.842250511691915
6.912521216,0.9998275915075078,20.68650367559423
6.91480832,1.0001293446024442,20.526400017128505
6.917095424,1.000423004028863,20.36196946800195
6.919382528,1.0006901986322825,20.19347138193963
6.921669632,1.0009138366552486,20.021358517722867
6.923956736,1.00107995872191,19.846399322488697
6.926243328,1.0011778314010245,19.669497133859938
6.928530432,1.0012014902072772,19.49170452140272
6.930817536,1.0011492129211987,19.31408778400491
6.93310464,1.001024336672466,19.137700799724442
6.935391744,1.0008347075385988,18.963592260086777
