freq,mag,phase
6.0,0.9996940447812611,-159.6128791444344
6.002286592,0.9998014056451783,-159.75537160430727
6.004572672,0.9999213967065586,-159.89950621146963
6.006859264,1.000046532501379,-160.04540272342078
6.009145344,1.0001690125267586,-160.19311829808953
6.011431936,1.000280951867962,-160.34254777960982
6.013718016,1.000375236126413,-160.49343304900083
6.016004608,1.000445985881939,-160.64555901294068
6.018290688,1.000488586415212,-160.79850008214203
6.02057728,1.0005003973849784,-160.95183826796796
6.022863872,1.0004806080634732,-161.10512261134366
6.025149952,1.0004304166401115,-161.2578784704739
6.027436544,1.0003531213691426,-161.4097607418413
6.029722624,1.0002534638169271,-161.5603249038179
6.032009216,1.000137800079643,-161.70932974405198
6.034295296,1.0000134668503082,-161.85659227852102
6.036581888,0.9998884368866398,-162.00205047860268
6.03886848,0.9997704681469362,-162.1456965343442
6.04115456,0.9996671343420124,-162.28778730377357
6.043441152,0.999585091304485,-162.4284898817207
6.045727232,0.9995294705093138,-162.5681832980337
6.048013824,0.9995038178298288,-162.7073182037816
6.050299904,0.9995098517865506,-162.84626856968924
6.052586496,0.999547242739362,-162.9855579618003
6.054872576,0.9996134492562929,-163.1255682391943
6.057159168,0.9997044340588812,-163.26677863095833
6.05944576,0.9998143972412576,-163.40940356397059
6.06173184,0.9999363800274033,-163.55373642446455
6.064018432,1.0000626361402485,-163.69983790608998
6.066304512,1.0001851133332187,-163.8477874299757
6.068591104,1.000296157811563,-163.99743218542326
6.070877184,1.0003885713748775,-164.14853972683494
6.073163776,1.0004565096962916,-164.30081252522285
6.075450368,1.000495703274551,-164.45388899038136
6.077736448,1.0005037120661848,-164.60729870109213
6.08002304,1.0004798393461385,-164.76056431607893
6.08230912,1.000425627144789,-164.9133173384122
6.084595712,1.0003446671370761,-165.0650509607583
6.086881792,1.0002418220211582,-165.2154813285146
6.089168384,1.0001237936146687,-165.36425786884783
6.091454464,0.9999979645471108,-165.5112976701199
6.093741056,0.9998723290112475,-165.65648363511144
6.096027648,0.9997549126449398,-165.79993331207336
6.098313728,0.9996530814268149,-165.9417613243679
6.10060032,0.9995734323447684,-166.08227553337414
6.1028864,0.9995209018430156,-166.22179399426005
6.105172992,0.9994989755172614,-166.36081427492843
6.107459072,0.9995090362123533,-166.49971064347523
6.109745664,0.9995504920394667,-166.63899389443725
6.112032256,0.9996206200204727,-166.77908898615365
6.114318336,0.9997149875812137,-166.92037913584164
6.116604928,0.9998277724407704,-167.06317101478768
6.118891008,0.9999516697540333,-167.20765364677413
6.1211776,1.0000788399774787,-167.3539943900288
6.12346368,1.0002012260131548,-167.5021459628345
6.125750272,1.0003112079552012,-167.65199813016918
6.128036352,1.0004015750359914,-167.80328395776806
6.130322944,1.0004667929856168,-167.95570379996823
6.132609536,1.0005023716283803,-168.1088450134265
6.134895616,1.0005065279670526,-168.26230233009784
6.137182208,1.0004785622551224,-168.4156025657913
6.139468288,1.0004203654686488,-168.56825434633518
6.14175488,1.0003357121812155,-168.71984321721743
6.14404096,1.000229814629227,-168.87007706551663
6.146327552,1.000109535500144,-169.01865924851458
6.148614144,0.999982204091629,-169.16544216733115
6.150900224,0.9998562354284491,-169.31037866736608
6.153186816,0.9997393967825652,-169.4535582949771
6.155472896,0.9996391898930321,-169.59511703336412
6.157759488,0.9995620420948361,-169.73542010414354
6.160045568,0.9995128732586216,-169.8747898159403
6.16233216,0.9994947027051733,-170.01365105331325
6.16461824,0.9995087952530671,-170.15249130558783
6.166904832,0.9995541919504346,-170.29175998357758
6.169191424,0.9996282622271775,-170.4319055838441
6.171477504,0.9997260051874549,-170.57326363069188
6.173764096,0.9998414869921045,-170.7162027073795
6.176050176,0.9999672380278746,-170.86091281268344
6.178336768,1.0000952627272806,-171.0074205059251
6.180622848,1.0002175011295054,-171.1557615681763
6.18290944,1.000326199316489,-171.30579792596365
6.18519552,1.0004144486191269,-171.4572493958303
6.187482112,1.000476643876769,-171.609806027438
6.189768704,1.0005087857206754,-171.76302794606974
6.192054784,1.0005088384340308,-171.9164782415808
6.194341376,1.0004768348238413,-172.06975230579022
6.196627456,1.0004145795944897,-172.22227560197496
6.198914048,1.0003263427114522,-172.37376064986495
6.201200128,1.000217421950958,-172.52375993501386
6.20348672,1.0000947672922578,-172.6720942046544
6.205773312,0.9999663026279777,-172.81861457458123
6.208059392,0.9998399195352836,-172.96328252180905
6.210345984,0.9997239607035676,-173.1061522074657
6.212632064,0.9996254414038946,-173.24748586086693
6.214918656,0.99955093744797,-173.38754556123737
6.217204736,0.9995050987858033,-173.52670773526725
6.219491328,0.9994907068361935,-173.66547805306018
6.221777408,0.9995088844351239,-173.80420595267069
6.224064,0.9995585408374607,-173.94346476362364
6.226350592,0.9996363415313854,-174.08363228916969
6.228636672,0.9997374673797583,-174.2250841246269
6.230923264,0.9998556049507787,-174.36816587845667
6.233209344,0.9999829510546474,-174.5130099366157
6.235495936,1.0001118042628943,-174.65970717869754
6.237782016,1.0002338319396011,-174.80823516862213
6.240068608,1.0003412084364605,-174.95844116902634
6.2423552,1.0004271333314698,-175.11003480411298
6.24464128,1.0004862468197093,-175.26269057801707
6.246927872,1.0005147733292425,-175.41597984383603
6.249213952,1.0005107783236153,-175.56942597349686
6.251500544,1.0004746016599664,-175.72261936471705
6.253786624,1.0004083879849621,-175.87503127950754
6.256073216,1.00031655782525,-176.02634064353077
6.258359296,1.0002046722398565,-176.17611635287238
6.260645888,1.0000799732179377,-176.32421918100124
6.26293248,0.9999501418451736,-176.47040837872345
6.26521856,0.9998236511785468,-176.61478898150594
6.267505152,0.9997085350681822,-176.75738348584562
6.269791232,0.999611914105082,-176.8984255239958
6.272077824,0.9995400937215729,-177.03823599659654
6.274363904,0.9994976201336473,-177.17723190713983
6.276650496,0.9994872764275687,-177.31581036234576
6.278937088,0.9995096241063115,-177.45447318345484
6.281223168,0.9995633222347646,-177.5936672428418
6.28350976,0.9996449829336044,-177.73389243935182
6.28579584,0.9997494098042834,-177.8754460588155
6.288082432,0.9998700953831444,-178.0186165970492
6.290368512,0.9999991541603941,-178.16358981392213
6.292655104,1.000128597251048,-178.3104798592659
6.294941184,1.0002501458349924,-178.45918562331892
6.297227776,1.000356184403595,-178.6095581532043
6.299514368,1.0004396845251107,-178.7612540413984
6.301800448,1.000495619416208,-178.91400342339892
6.30408704,1.0005203473570174,-179.06731508248916
6.30637312,1.000512261907957,-179.22077718128185
6.308659712,1.0004718498297813,-179.37384476477527
6.310945792,1.000401734335617,-179.52614933929357
6.313232384,1.0003062669964966,-179.67722231350106
6.315518464,1.0001914907337497,-179.8267866773387
6.317805056,1.0000647099755051,-179.97456503675053
6.320091648,0.999933843825414,179.87952889545582
6.322377728,0.999807342043517,179.73549996000492
6.32466432,0.9996931386419342,179.59320837479513
6.3269504,0.9995985470116077,179.45247216684197
6.329236992,0.9995295906403364,179.31288820839774
6.331523072,0.9994906134018389,179.17414259985767
6.333809664,0.999484290964118,179.03570075524306
6.336096256,0.999510801576557,178.89710497967855
6.338382336,0.9995687184171339,178.75793516349276
6.340668928,0.9996542646058418,178.61771858876298
6.342955008,0.9997619056438324,178.47609163785276
6.3452416,0.9998849852084749,178.33279458446677
6.34752768,1.0000155822871055,178.18767450363865
6.349814272,1.0001455325331046,178.04063335856537
6.352100352,1.0002664390709648,177.89177768167195
6.354386944,1.0003709071085363,177.74128958243327
6.356673536,1.0004520241517696,177.58945977210624
6.358959616,1.0005046535785886,177.43667798136892
6.361246208,1.000525574080787,177.28330812452984
6.363532288,1.0005132802698402,177.12992297148205
6.36581888,1.0004687482705932,176.9769395759619
6.36810496,1.0003944854851095,176.82483873299282
6.370391552,1.000295576785636,176.67394542223323
6.372678144,1.0001779066185303,176.5246784589364
6.374964224,1.0000490124494348,176.37719376426224
6.377250816,0.9999172025902187,176.23163424947936
6.379536896,0.9997907864177329,176.08792777205147
6.381823488,0.9996777794407948,175.94596740596188
6.384109568,0.9995853841972491,175.8055088681188
6.38639616,0.9995192731454976,175.6662367879733
6.38868224,0.9994840681927892,175.52768555423378
6.390968832,0.9994817943121949,175.38938214386496
6.393255424,0.9995125821241113,175.25093819625775
6.395541504,0.9995744472852501,175.1117837702329
6.397828096,0.9996637363034394,174.97156377650597
6.400114176,0.9997746200082325,174.82989859011076
6.402400768,0.9999001221990551,174.68649045264792
6.404686848,1.0000322015456398,174.5412071195198
6.40697344,1.0001624767385986,174.39402122097914
6.409260032,1.000282840644076,174.24505592508976
6.411546112,1.0003854610764977,174.0944323864635
6.413832704,1.0004639345698616,173.94252014794074
6.416118784,1.000513364541384,173.7896449419304
6.418405376,1.000530279822691,173.6363516365448
6.420691456,1.0005137425632766,173.48303425493847
6.422978048,1.0004650239988142,173.33014318472203
6.425264128,1.0003868395896922,173.17823088425388
6.42755072,1.0002843369126222,173.02762060805884
6.429837312,1.0001637824565857,172.878622119884
6.432123392,1.000033067622541,172.73144237313954
6.434409984,0.9999004812707031,172.58620866823136
6.436696064,0.9997741750222656,172.442844377894
6.438982656,0.9996623159040726,172.3012525468847
6.441268736,0.999572196018639,172.16111210428068
6.443555328,0.9995092471700964,172.02210251279433
6.44584192,0.9994777770289809,171.88379975468715
6.448128,0.9994795521953166,171.7456964249335
6.450414592,0.9995145812139459,171.6073473034519
6.452700672,0.9995807973346928,171.46825422118806
6.454987264,0.9996738086469723,171.32800846739906
6.457273344,0.9997878454694463,171.18628912080746
6.459559936,0.9999155912473543,171.04278544777475
6.461846016,1.0000489907898997,170.89738125156038
6.464132608,1.0001796037860966,170.75009981013537
6.4664192,1.0002991853080365,170.60095428098506
6.46870528,1.0003999829090893,170.450258635602
6.470991872,1.0004757349065008,170.29824950746988
6.473277952,1.0005215189275798,170.1453818754472
6.475564544,1.000534516884095,169.99208445932342
6.477850624,1.0005137797186205,169.83881883154874
6.480137216,1.0004606455965348,169.68611842949588
6.482423296,1.0003785831948098,169.5344085071074
6.484709888,1.0002725039790963,169.38405925967615
6.48699648,1.0001494038156948,169.23538076328154
6.48928256,1.0000169146513267,169.08855441578834
6.491569152,0.9998833919469199,168.94368782348374
6.493855232,0.9997574842053635,168.80069862735027
6.496141824,0.9996470865729153,168.65945175585918
6.498427904,0.999559288165237,168.51963944008673
6.500714496,0.9994995567540477,168.38091609126226
6.503001088,0.99947181070349,168.24282899084747
6.505287168,0.9994778419677625,168.10491391636558
6.50757376,0.9995171898822245,167.9666791166098
6.50985984,0.9995874844992619,167.82764388566275
6.512146432,0.9996842851171204,167.6874113980146
6.514432512,0.9998015085325586,167.54561518911277
6.516719104,0.9999314631754246,167.40204882587406
6.519005184,1.0000661386692993,167.25654603552374
6.521291776,1.0001969727870013,167.10911308523146
6.523578368,1.000315390644216,166.9598910762422
6.525864448,1.0004144541931392,166.80905905555315
6.52815104,1.0004871468999152,166.65701017957787
6.53043712,1.0005293896093348,166.5041462381413
6.532723712,1.000538344363091,166.35090298343454
6.535009792,1.0005132751471952,166.19773445752165
6.537296384,1.0004559501646775,166.04520498777052
6.539582976,1.0003697444044115,165.89371388827
6.541869056,1.0002603976484474,165.74366751518502
6.544155648,1.000134575515018,165.59529424560995
6.546441728,1.00000031977837,165.4488539967063
6.54872832,0.9998662821720694,165.3043611326065
6.5510144,0.9997407136171987,165.16176189699604
6.553300992,0.9996319872836575,165.02086479211425
6.555587072,0.9995465511913157,164.88140119531937
6.557873664,0.9994901489890626,164.74299138772804
6.560160256,0.9994663783776053,164.6051528149919
6.562446336,0.9994767020957688,164.46741554094888
6.564732928,0.9995203624085356,164.32931246991248
6.567019008,0.9995949695204724,164.19035908895566
6.5693056,0.9996953843875594,164.05012823180752
6.57159168,0.9998155151726178,163.90829583167516
6.573878272,0.9999476418806331,163.76463457592104
6.576164864,1.000083526532169,163.6190102536144
6.578450944,1.0002142187851908,163.47148682488063
6.580737536,1.0003317711888917,163.3221437408712
6.583023616,1.0004285846984937,163.17127034161715
6.585310208,1.0004984738892189,163.01918020163416
6.587596288,1.0005369917780271,162.86628949243098
6.58988288,1.0005417255805904,162.71309370293267
6.59216896,1.0005122386525542,162.56007384753184
6.594455552,1.0004506617939934,162.40775003767283
6.596742144,1.0003604630612628,162.2565214607297
6.599028224,1.0002476313070525,162.10675162320027
6.601314816,1.0001193641036752,161.9587492053033
6.603600896,0.9999835288468086,161.81267940191475
6.605887488,0.9998489047951967,161.66859336755275
6.608173568,0.9997239941332243,161.52637837143868
6.61046016,0.9996167499208912,161.38587396416554
6.612746752,0.9995340587843863,161.24676915751598
6.615032832,0.9994811265262286,161.10863582916366
6.617319424,0.9994614200789605,160.97106688756776
6.619605504,0.9994758956783879,160.8335206006085
6.621892096,0.9995241144503734,160.69555443981957
6.624178176,0.9996027540897481,160.55666228552866
6.626464768,0.9997068895912395,160.41642528185307
6.628750848,0.9998300511973255,160.27455943262302
6.63103744,0.999964275583448,160.13084158004307
6.633324032,1.0001009028506986,159.98515051172518
6.635610112,1.0002317843142667,159.83751209278995
6.637896704,1.0003480194067322,159.6880732997636
6.640182784,1.0004425784055193,159.53711437530382
6.642469376,1.0005093254890658,159.38500968401848
6.644755456,1.000544022101122,159.23215028729936
6.647042048,1.000544499995304,159.0790334328554
6.649328128,1.0005107048430093,158.92617803300183
6.65161472,1.0004447120682678,158.7740573806086
6.653901312,1.000350617453992,158.62310924167707
6.656187392,1.0002345070494205,158.47365952903215
6.658473984,1.0001036476229421,158.32603517574148
6.660760064,0.9999664233692516,158.18034459489064
6.663046656,0.9998313579681083,158.03667914631296
6.665332736,0.9997072184076828,157.89488123618906
6.667619328,0.9996017967876083,157.75478565458184
6.66990592,0.9995219037151051,157.6160134857105
6.672192,0.9994725282872874,157.4782184396133
6.674478592,0.9994566952042535,157.34088242965817
6.676764672,0.9994757198674297,157.20357533692888
6.679051264,0.9995284024240818,157.06570112635208
6.681337344,0.9996112075616203,156.92689531608298
6.683623936,0.9997190359641623,156.78668852655474
6.685910016,0.9998450230164535,156.6447938284106
6.688196608,0.9999811188490262,156.50102390372118
6.6904832,1.0001188938301844,156.35519890551376
6.69276928,1.000249300727357,156.20748144933808
6.695055872,1.0003642952255876,156.05796323104042
6.697341952,1.000456481437028,155.90697219457624
6.699628544,1.0005199648565861,155.75484919937455
6.701914624,1.0005507705257581,155.60204449441548
6.704201216,1.0005470603019917,155.4490393477612
6.706487808,1.0005086665287715,155.2963395421404
6.708773888,1.0004382909993066,155.14440912508448
6.71106048,1.0003403706654046,154.99378909525785
6.71334656,1.0002209386820224,154.84468818981657
6.715633152,1.000087726116829,154.69742841607217
6.717919232,0.9999489019447741,154.55218188771588
6.720205824,0.9998135973909571,154.408912401949
6.722491904,0.999690410640277,154.26755129852074
6.724778496,0.9995868910095629,154.12785514780796
6.727065088,0.9995097991119105,153.98946427837052
6.729351168,0.999464047640422,153.85198205052563
6.73163776,0.9994524792826422,153.71494615604541
6.73392384,0.999476144717151,153.5777890451475
6.736210432,0.9995330854163784,153.44008592587784
6.738496512,0.9996202187627269,153.3013421925299
6.740783104,0.9997316200566579,153.1611664593076
6.743069696,0.9998605321141345,153.0192357812432
6.745355776,0.9999983665340916,152.87536772885687
6.747642368,1.0001368336308767,152.7295173130106
6.749928448,1.000266971618217,152.58170283409558
6.75221504,1.000380509950908,152.4321195428353
6.75450112,1.0004701519813628,152.28108989516048
6.756787712,1.0005302743496698,152.12897045594087
6.759073792,1.0005571110897085,151.97622676365796
6.761360384,1.0005487895278065,151.8233341598598
6.763646976,1.0005059968463006,151.67082336044396
6.765933056,1.000431339603782,151.5191699163706
6.768219648,1.0003294001629024,151.3688127352665
6.770505728,1.0002067931428174,151.22008701462963
6.77279232,1.0000711503578432,151.07326301285661
6.7750784,0.9999312683432282,150.92842777847397
6.777364992,0.9997959223519496,150.78561858792227
6.779651584,0.999673468933924,150.64467627117543
6.781937664,0.9995721346182888,150.5053723480621
6.784224256,0.9994980997983101,150.36738907851398
6.786510336,0.9994560793432954,150.2302202853979
6.788796928,0.999448844931242,150.09344109742557
6.791083008,0.999476958944326,149.95651296291555
6.7933696,0.9995384484608189,149.81896628134055
6.79565568,0.9996297717940917,149.68028915754624
6.797942272,0.9997446504578255,149.5401423305554
6.800228864,0.9998761948025042,149.39820819108752
6.802514944,1.0000160902965614,149.25430172575741
6.804801536,1.0001550696841297,149.10833468005288
6.807087616,1.0002847081834898,148.9604529299847
6.809374208,1.0003965140976674,148.81084747569165
6.811660288,1.0004836015328007,148.65977302418008
6.81394688,1.0005402417367135,148.50769405731066
6.81623296,1.0005629561234117,148.35499727981812
6.818519552,1.0005502522132317,148.20225258401592
6.820806144,1.0005027395934314,148.04992276131725
6.823092224,1.0004237996497682,147.8985698048642
6.825378816,1.0003180204862578,147.74854309228667
6.827664896,1.0001922025775816,147.60018083806463
6.829951488,1.000054454529766,147.45376636594074
6.832237568,0.999913389159472,147.30939335845073
6.83452416,0.9997778533887115,147.16703160391737
6.836810752,0.9996566761047728,147.02653279591593
6.839096832,0.9995574149037363,146.887692622343
6.841383424,0.9994866246476323,146.75007145294853
6.843669504,0.9994485260591471,146.6132687924244
6.845956096,0.9994456319325418,146.47673682511981
6.848242176,0.9994784159787379,146.3400447248734
6.850528768,0.9995444045762838,146.2026091103544
6.852814848,0.9996397051358162,146.0640298997357
6.85510144,0.9997583137749891,145.92389485178646
6.857388032,0.9998924919720052,145.7819289276175
6.859674112,1.0000338671083115,145.6379709162617
6.861960704,1.0001735925587314,145.49196342945316
6.864246784,1.0003023895992296,145.34401297207208
6.866533376,1.0004124901445322,145.19435176828458
6.868819456,1.0004968343600007,145.04328279534136
6.871106048,1.0005498235140897,144.89119459617092
6.87339264,1.0005683690125018,144.73860575663127
6.87567872,1.000551058484111,144.58602539491676
6.877965312,1.000499065208722,144.43392888243574
6.880251392,1.0004155901986092,144.28284601975997
6.882537984,1.000306008280439,144.1331754937953
6.884824064,1.0001770630701292,143.98522346574626
6.887110656,1.000037160126642,143.83924123060353
6.889396736,0.9998950303755116,143.6953355396057
6.891683328,0.9997597362096072,143.55344195621228
6.89396992,0.9996398116404861,143.41342276609691
6.896256,0.9995430352401734,143.2749707676626
6.898542592,0.9994754522634073,143.13774866369536
6.900828672,0.9994413364007652,143.0012832623526
6.903115264,0.9994429957299484,142.8650489846059
6.905401344,0.9994803188944237,142.72855804048234
6.907687936,0.9995508649759671,142.5912728674728
6.909974528,0.9996503918222766,142.45275673197116
6.912260608,0.9997723902199821,142.3126441375209
6.9145472,0.9999092211885722,142.17069904926737
6.91683328,1.000052155786835,142.02668692959344
