freq,mag,phase
6.0,1.0004709373270946,13.564535787486273
6.007866368,1.0004741490870863,13.336980654826855
6.015732736,1.0004506899790553,13.109631367010207
6.023598592,1.0004022753543738,12.882691778894342
6.03146496,1.0003314999277375,12.65656002564637
6.039331328,1.0002423754781569,12.431526610501678
6.047197696,1.0001396148854975,12.207753962197025
6.055064064,1.000028923180276,11.985392895386031
6.062930432,0.9999164005782023,11.764518476743206
6.070796288,0.9998079585317933,11.545129670492738
6.078662656,0.9997099220186778,11.327157210609869
6.086529024,0.9996273821481623,11.110401791702783
6.094395392,0.9995650348024067,10.894552543221872
6.10226176,0.9995261359825293,10.679429439921181
6.110127616,0.9995130166315629,10.464609277674716
6.117993984,0.9995263982899933,10.249835390203817
6.125860352,0.9995654558849478,10.034661702240236
6.13372672,0.9996282502945641,9.818814141271746
6.141593088,0.9997111386557093,9.601967634444147
6.149458944,0.9998098303532283,9.383853025037425
6.157325312,0.9999187308213361,9.164351279231253
6.16519168,1.0000319443360217,8.94332596620923
6.173058048,1.000143269239687,8.72079911456403
6.180924416,1.0002467979399545,8.496808707611006
6.188790784,1.0003365038407488,8.271462323810658
6.19665664,1.0004076420202503,8.04505119380193
6.204523008,1.0004563837379041,7.8177756941928696
6.212389376,1.0004799187471776,7.590036038628405
6.220255744,1.0004770474144438,7.362141188791278
6.228122112,1.0004477831516274,7.134472158089264
6.235987968,1.0003937829082403,6.907273195514809
6.243854336,1.000317954482882,6.681025367918009
6.251720704,1.000224427051031,6.455866695094454
6.259587072,1.000118183558029,6.232030193055254
6.26745344,1.0000053073260808,6.009669780113039
6.275319808,0.9998917522332817,5.78879364866103
6.283185664,0.9997838277112573,5.569449028656666
6.291052032,0.9996874272071191,5.351440940220805
6.2989184,0.9996078449150606,5.1346592178997925
6.306784768,0.9995495217242424,4.918727855579169
6.314651136,0.9995154609844339,4.703494410842366
6.322516992,0.9995079957534655,4.488463460661021
6.33038336,0.9995269891906831,4.273392573107969
6.338249728,0.9995718576307054,4.057866636468262
6.346116096,0.9996399225791511,3.8415248826198636
6.353982464,0.9997277453036044,3.6242009004583084
6.36184832,0.9998301958836779,3.405546766085959
6.369714688,0.9999418402518281,3.185413128425423
6.377581056,1.0000565324720678,2.9637349082477735
6.385447424,1.0001680580438186,2.740549021060041
6.393313792,1.0002703308759298,2.515908326292888
6.40118016,1.000357556080991,2.289953465235757
6.409046016,1.0004251385219463,2.0629854400609755
6.416912384,1.0004693421514739,1.8351735087587604
6.424778752,1.0004875284558805,1.6069528028160942
6.43264512,1.0004789301223527,1.37867765040213
6.440511488,1.0004438620314813,1.1506762450884718
6.448377344,1.0003842783437362,0.9232931279145878
6.456243712,1.0003033382202025,0.6968355231583951
6.46411008,1.0002054216327243,0.47158776182216644
6.471976448,1.000096130032394,0.24769788978454374
6.479842816,0.999980964502177,0.02531345555893298
6.487709184,0.9998668225001673,-0.19550059995967084
6.49557504,0.9997594752538201,-0.414850394623421
6.503441408,0.9996651424230827,-0.6328417515748749
6.511307776,0.999588735633413,-0.8497019618330681
6.519174144,0.9995346465778001,-1.0656971703007947
6.527040512,0.9995056261627018,-1.2811309465009317
6.534906368,0.9995037155632519,-1.4963995535144001
6.542772736,0.9995286107976291,-1.7117713109088153
6.550639104,0.9995792830544502,-1.9276803735089052
6.558505472,0.9996527702023009,-2.144436976288723
6.56637184,0.9997451447134985,-2.3623869088728773
6.574238208,0.9998513431482955,-2.581604144812365
6.582104064,0.9999656795857982,-2.802389621621249
6.589970432,1.0000815783541266,-3.0247050387512173
6.5978368,1.0001930821454887,-3.248547025549757
6.605703168,1.000293886408735,-3.4738703930930446
6.613569536,1.0003784179728208,-3.7004466807380787
6.621435392,1.0004420649412342,-3.9280096531479827
6.62930176,1.000481517275524,-4.156345980160484
6.637168128,1.0004943320377877,-4.385001034118726
6.645034496,1.0004798232216328,-4.6136727034914085
6.652900864,1.000438976276282,-4.841954236139056
6.66076672,1.0003736622572044,-5.069582312872003
6.668633088,1.0002877488210256,-5.2962035797842715
6.676499456,1.0001857081457666,-5.5215942068319315
6.684365824,1.000073168462916,-5.7455035633245295
6.692232192,0.9999563024254267,-5.9678801620259305
6.70009856,0.9998416228910793,-6.188695103197857
6.707964416,0.9997352458219754,-6.408081523960364
6.715830784,0.9996429641594469,-6.626137315928624
6.723697152,0.9995700856189031,-6.8430255229179275
6.73156352,0.9995203632166864,-7.059109222361411
6.739429888,0.999496755206522,-7.274752274162964
6.747295744,0.9995004984500795,-7.490230653991383
6.755162112,0.9995313358595871,-7.705970202004517
6.76302848,0.999587810674791,-7.922277144922955
6.770894848,0.9996666064718962,-8.139548963408329
6.778761216,0.9997635686703809,-8.358004755447226
6.786627584,0.999873465292388,-8.577892499544287
6.79449344,0.9999900185044154,-8.79927496846706
6.802359808,1.0001071038445406,-9.022268570992647
6.810226176,1.0002183157274682,-9.246841642502503
6.818092544,1.0003174133379757,-9.472798966752817
6.825958912,1.000398949729986,-9.70003217746591
6.833824768,1.0004585752148956,-9.928212864613165
6.841691136,1.000492926132005,-10.157051812896169
6.849557504,1.0005001138632905,-10.386181719666604
6.857423872,1.000479739358879,-10.6152426229732
6.86529024,1.000432880826838,-10.843857605965704
6.873156096,1.0003619672164432,-11.07168448254878
6.881022464,1.0002710832241897,-11.298445603345751
6.888888832,1.0001649750369574,-11.523913407716165
6.8967552,1.000049613251285,-11.747891847571617
6.904621568,0.9999310928933816,-11.970293149001408
6.912487936,0.9998160810807483,-12.191149318431172
6.920353792,0.9997107050878863,-12.410502034476046
6.92822016,0.9996209818510577,-12.628574688558919
6.936086528,0.9995516337006404,-12.845567277992552
6.943952896,0.9995066456970517,-13.061812574237154
6.951819264,0.9994884644719946,-13.277616360044338
6.95968512,0.9994980367872958,-13.493387555917346
6.967551488,0.9995350666096464,-13.709504780413797
6.975417856,0.9995973028706555,-13.926254598843748
6.983284224,0.9996813006982534,-14.144041529255757
6.991150592,0.9997828655259945,-14.363094206266831
6.99901696,0.9998960571813291,-14.583585313916526
7.006882816,1.0000149743342306,-14.805676962053413
7.014749184,1.0001328439905819,-15.029366762718865
7.022615552,1.0002435267640954,-15.254596461063144
7.03048192,1.0003406149777605,-15.481260913387889
7.038348288,1.000419051292751,-15.709112988216798
7.046214144,1.0004744305120992,-15.937893402126281
7.054080512,1.0005036357323638,-16.167260637594143
7.06194688,1.0005050537756166,-16.396849301281193
7.069813248,1.0004785760964967,-16.626317957600847
7.077679616,1.0004256466215704,-16.855225283671615
7.085545472,1.0003492781451273,-17.08331650717446
7.09341184,1.0002534767220643,-17.31022007001057
7.101278208,1.0001433443361931,-17.535755365502162
7.109144576,1.0000252340922244,-17.759779331895086
7.117010944,0.999905342760436,-17.982243869547055
7.124877312,0.9997901476504542,-18.20309145377651
7.132743168,0.9996863661956108,-18.42245368849176
7.140609536,0.9995992814051803,-18.64058027613609
7.148475904,0.9995338142863306,-18.85766523091679
7.156342272,0.9994936419125733,-19.074059652436475
7.16420864,0.9994810677580398,-19.290119266325224
7.172074496,0.9994967246612193,-19.506157572719445
7.179940864,0.9995396834028883,-19.722639288431957
7.187807232,0.9996077818752395,-19.93988539625061
7.1956736,0.9996971985741491,-20.15821350477767
7.203539968,0.9998031050903354,-20.377863820801235
7.211406336,0.9999196411691529,-20.599029526899503
7.219272192,1.0000405814634994,-20.82179750029981
7.22713856,1.0001591453773344,-21.046192539665643
7.235004928,1.000268934723073,-21.272131102645027
7.242871296,1.0003637867776336,-21.499517055768223
7.250737664,1.0004388687189116,-21.72803998980116
7.25860352,1.000489539458829,-21.957424667780757
7.266469888,1.0005134407674752,-22.18733421499649
7.274336256,1.0005090057015311,-22.417387330261647
7.282202624,1.000476524537085,-22.64719054800966
7.290068992,1.000417563242938,-22.876433240881717
7.297934848,1.0003355068062052,-23.10470272726791
7.305801216,1.000234709019369,-23.331821974104983
7.313667584,1.0001209461314986,-23.5574443956617
7.321533952,1.000000246302328,-23.781500135258657
7.32940032,0.9998790797774513,-24.003956141691273
7.337266688,0.9997642121832959,-24.224853633115146
7.345132544,0.9996617660940851,-24.444252354655145
7.352998912,0.9995777709778026,-24.662421995818672
7.36086528,0.9995164323507917,-24.879636087126045
7.368731648,0.9994814264448711,-25.096203441044334
7.376598016,0.9994745948826321,-25.312460967181117
7.384463872,0.9994962044523013,-25.528869114600948
7.39233024,0.9995454008590465,-25.745747941508437
7.400196608,0.9996194050646171,-25.963485673685597
7.408062976,0.9997139410935939,-26.182386593530026
7.415929344,0.9998241164145366,-26.402646915478112
7.423795712,0.9999439222607021,-26.624500713637076
7.431661568,1.0000665467648102,-26.847990530598228
7.439527936,1.0001856500800306,-27.073103756349948
7.447394304,1.0002943825701462,-27.299821817289505
7.455260672,1.0003869091507496,-27.5278750888271
7.46312704,1.0004581674614024,-27.757055134328755
7.470992896,1.000504168960397,-27.987033194788268
7.478859264,1.0005223854815886,-28.217498719267788
7.486725632,1.000511988769016,-28.448031883410913
7.494592,1.0004732235248923,-28.67820354530756
7.502458368,1.0004082961291334,-28.907758138327786
7.510324736,1.0003207698572656,-29.136255397270542
7.518190592,1.0002152460890326,-29.363488234815893
7.52605696,1.0000977343325939,-29.589185568275976
7.533923328,0.9999744488460426,-29.813352630598043
7.541789696,0.999852390837696,-30.035834639583342
7.549656064,0.9997377832285665,-30.25671649270999
7.55752192,0.9996373548923978,-30.476178240985618
7.565388288,0.9995564421400043,-30.69441534433095
7.573254656,0.9994995341893839,-30.9117451930087
7.581121024,0.9994698588638339,-31.128512056625176
7.588987392,0.9994688975854066,-31.345061678685813
7.596853248,0.9994968611666544,-31.561826648121215
7.604719616,0.9995523074297717,-31.779153407121953
7.612585984,0.999632018272223,-31.99739202885214
7.620452352,0.9997318401843789,-32.21687188529568
7.62831872,0.9998461213908832,-32.43780156477169
7.636185088,0.9999689880754418,-32.66034402461691
7.644050944,1.0000933521020254,-32.88455556156014
7.651917312,1.0002124632505172,-33.11047068202875
7.65978368,1.000320056979804,-33.337879398887736
7.667650048,1.000409875576072,-33.56665730380566
7.675516416,1.0004772101108375,-33.79655143191735
7.683382272,1.0005182038079081,-34.02712953304336
7.69124864,1.0005307400615484,-34.258125954164846
7.699115008,1.0005141854840527,-34.48909982261517
7.706981376,1.0004690580495557,-34.71968059971632
7.714847744,1.0003980783894406,-34.94948384112678
7.722714112,1.000304906890427,-35.17821362879316
7.730579968,1.0001947741735253,-35.40560354783088
7.738446336,1.0000736346566192,-35.63144591240716
7.746312704,0.9999481513401695,-35.85563467190152
7.754179072,0.9998251224686334,-36.078122574737044
7.76204544,0.9997113605445144,-36.299054301397206
7.769911296,0.9996130878045891,-36.51856552659918
7.777777664,0.999535487414842,-36.736909342196824
7.785644032,0.9994832766464796,-36.954361776132195
7.7935104,0.9994590567367768,-37.17134584459085
7.801376768,0.9994641927233875,-37.38818669217458
7.809242624,0.9994985724422178,-37.60529894392564
7.817108992,0.9995601724281102,-37.82310939771986
7.82497536,0.9996457547567359,-38.04189353922519
7.832841728,0.9997506431741106,-38.26198492906326
7.840708096,0.9998691522836451,-38.48361415492943
7.848574464,0.9999947018993628,-38.70687701798167
7.85644032,1.0001205810646319,-38.931847507931124
7.864306688,1.0002397247310455,-39.15850887618382
7.872173056,1.0003457032867311,-39.38670176219532
7.880039424,1.000432666775809,-39.616203631757756
7.887905792,1.0004957254913516,-39.846739958907776
7.895771648,1.0005316761616123,-40.077964992377076
7.903638016,1.0005380908321344,-40.309516122135484
7.911504384,1.0005152252843046,-40.540910033584936
7.919370752,1.0004637427495557,-40.77186154140056
7.92723712,1.0003865660935776,-41.0019997305909
7.935103488,1.0002878627847112,-41.23095100238755
7.942969344,1.0001732228991043,-41.45844702207641
7.950835712,1.0000486640161834,-41.684384977431826
7.95870208,0.9999211470561591,-41.90861095739699
7.966568448,0.9997974549695986,-42.13116970082946
7.974434816,0.9996846386992848,-42.35215123809736
7.982300672,0.9995885396493633,-42.57171370230962
7.99016704,0.9995149127002722,-42.79014282526039
7.998033408,0.999467438369052,-43.00779247593468
8.005899776,0.9994488902211003,-43.22499712029773
8.013766144,0.999460326415402,-43.44216338099733
8.021632,0.9995011061087353,-43.65968724544776
8.029498368,0.9995690995135188,-43.877948848883214
8.037364736,0.9996605575130528,-44.09731153344957
8.045231104,0.9997705423920333,-44.31805628493751
8.053097472,0.9998929481559216,-44.540346928602446
8.06096384,1.0000212514511075,-44.764379082654784
8.068829696,1.000148312421174,-44.99015134238533
8.076696064,1.0002671581100206,-45.21759643752902
8.084562432,1.000371289587581,-45.4465376052133
8.0924288,1.0004549564356149,-45.67678212245704
8.100295168,1.000513752610737,-45.908016134477776
8.108161024,1.0005442514878784,-46.13985175783961
8.116027392,1.0005446594874745,-46.371943209849334
8.12389376,1.0005152236056223,-46.60384166531524
8.131760128,1.0004572645595415,-46.835139311280884
8.139626496,1.0003738827932416,-47.0655606976219
8.147492864,1.0002698606780902,-47.29469273769774
8.15535872,1.0001505215613422,-47.52236967261976
8.163225088,1.0000227979330447,-47.74838215515696
8.171091456,0.9998933284359065,-47.97267212720467
8.178957824,0.9997693808055147,-48.195272475245766
8.186824192,0.9996576216395927,-48.41631081223462
8.194690048,0.9995642638007107,-48.63596147084112
8.202556416,0.9994944997346155,-48.85448953140504
8.210422784,0.9994520660226611,-49.072319320998794
8.218289152,0.99943950506336,-49.28977586369348
8.22615552,0.9994571885202014,-49.50729157718664
8.234021888,0.9995047555410911,-49.7252079728559
8.241887744,0.9995791662074811,-49.94399204439557
8.249754112,0.9996764866826756,-50.16397539934087
8.25762048,0.9997913649681943,-50.385372467515815
8.265486848,0.9999177095562662,-50.60840434698928
8.273353216,1.0000484077362641,-50.833211569389995
8.281219072,1.0001765147073551,-51.05978005535082
8.28908544,1.000294900578702,-51.28800620958909
8.296951808,1.0003968997698964,-51.51774143462664
8.304818176,1.0004772925157601,-51.74874118127969
8.312684544,1.0005312343016464,-51.9806560113474
8.3205504,1.0005562058732367,-52.21312376550426
8.328416768,1.0005503751799405,-52.44575947760684
8.336283136,1.000514336111531,-52.67810195255463
8.344149504,1.0004496492190391,-52.909809785553136
8.352015872,1.0003602311833821,-53.14050030363445
8.35988224,1.000250752145454,-53.36985770680451
8.367748096,1.0001270346331996,-53.597660657095545
8.375614464,0.9999961105724732,-53.82377347031913
8.383480832,0.9998650028906995,-54.048109789801806
8.3913472,0.9997409987017406,-54.27078208383523
8.399213568,0.9996305928697824,-54.49183314029463
8.407079424,0.999540099838235,-54.711564153761955
8.414945792,0.9994745941325461,-54.93027188575995
8.42281216,0.9994375296907267,-55.14829323031306
8.430678528,0.9994309644424372,-55.366019506972286
8.438544896,0.9994554052915088,-55.583858006564974
8.446411264,0.9995095753273452,-55.802278036091174
8.45427712,0.999590355694173,-56.021587232607466
8.462143488,0.9996934880707435,-56.24216391725318
8.470009856,0.999813425303934,-56.46427550437866
8.477876224,0.9999435096752233,-56.68807998559514
8.485742592,1.000076524602563,-56.913681939236405
8.493608448,1.0002053458265727,-57.14103617855838
8.501474816,1.0003229182604696,-57.37009086463355
8.509341184,1.0004228116262297,-57.60065424215679
8.517207552,1.0004993843448162,-57.83239375165937
8.52507392,1.0005484996966605,-58.06500335683084
8.532939776,1.0005673556411978,-58.298127228284116
8.540806144,1.0005551304328337,-58.53128933514063
8.548672512,1.0005122658456145,-58.76411907446038
8.55653888,1.0004410075366756,-58.99617575805911
8.564405248,1.0003454121346818,-59.2271301621255
8.572271616,1.0002304916345086,-59.456708259801204
8.580137472,1.0001025567809614,-59.68466528404707
8.58800384,0.999968653307694,-59.91084803171656
8.595869696,0.9998361350220073,-60.13525382690176
8.603736064,0.9997120572444798,-60.35797938155152
8.611602432,0.9996033922366165,-60.579105562470595
8.6194688,0.999516133539642,-60.798943046718826
8.627335168,0.9994550548363387,-61.01777736799213
8.635201536,0.999423520174381,-61.235981524138474
8.643067904,0.9994232942609226,-61.454026252951614
8.650934272,0.9994544493088597,-61.67229344372618
8.65880064,0.9995154720187016,-61.89112859239223
8.666667008,0.9996027287316978,-62.11101603055023
8.674533376,0.9997117317456065,-62.332286063609146
8.68239872,0.9998364791622047,-62.55510174387441
8.690265088,0.9999700890123978,-62.77967504045934
8.698131456,1.0001052504364951,-63.00610621261055
8.705997824,1.0002348158291696,-63.23431289044936
8.713864192,1.0003511514605634,-63.46421186148791
8.72173056,1.0004485344656717,-63.69554966185617
8.729596928,1.00052106554064,-63.92808317890852
8.737463296,1.000565089268756,-64.16142695145176
8.745329664,1.000577863591202,-64.39514791931389
8.753196032,1.0005589610774288,-64.62885563316716
8.7610624,1.0005092347862483,-64.8621183958021
8.768927744,1.0004312198340337,-65.09457236769622
8.776794112,1.000329379973501,-65.3258182165955
8.78466048,1.0002090360895703,-65.5555936628634
8.792526848,1.0000770288260667,-65.78367782656126
8.800393216,0.9999402154127464,-66.00995919746143
8.808259584,0.9998063516894877,-66.23445327973879
8.816125952,0.999682736247247,-66.45718668382217
8.82399232,0.9995760432952947,-66.6784018782856
8.831858688,0.9994921623363971,-66.89833692532845
8.839725056,0.9994358101271096,-67.11735800863279
8.847591424,0.9994100709751146,-67.33580802808602
8.855456768,0.999416420493125,-67.55412927176823
8.863323136,0.9994545226172477,-67.77280789519554
8.871189504,0.9995223444095135,-67.99219754500983
8.879055872,0.9996161463571438,-68.21267284451996
8.88692224,0.9997310077431485,-68.43459337880485
8.894788608,0.9998606041610792,-68.6581681383685
8.902654976,0.9999976620158589,-68.88354350734257
8.910521344,1.000134809815073,-69.11079800706193
8.918387712,1.0002645003087656,-69.33988306609953
8.92625408,1.0003797782658916,-69.57063534569878
8.934120448,1.0004741340988097,-69.80281223209118
8.941985792,1.0005425482474746,-70.03611194206891
8.94985216,1.0005810333322245,-70.27015016639545
8.957718528,1.0005876394653268,-70.50454677787359
8.965584896,1.0005618089399924,-70.73879105431334
8.973451264,1.000505053684519,-70.97250688865999
8.981317632,1.000420236100894,-71.20531442513379
8.989184,1.0003121334287208,-71.43684999271672
8.997050368,1.000186589119709,-71.66681407657717
9.004916736,1.0000503752308119,-71.89504248609626
9.012783104,0.9999110275442087,-72.1214099354998
9.020649472,0.9997760332952251,-72.34595579924446
9.028514816,0.9996528761180822,-72.56874988235693
9.036381184,0.9995484100716736,-72.79007977870702
9.044247552,0.9994683481428221,-73.01012889941326
9.05211392,0.9994169889384147,-73.22930734602443
9.059980288,0.9993972934284515,-73.44802538297884
9.067846656,0.9994103517579964,-73.66670193329225
9.075713024,0.999455540247327,-73.88579756226753
9.083579392,0.9995304112172817,-74.10570410469555
9.09144576,0.999630929644179,-74.3268075825808
9.099312128,0.9997514726144165,-74.54943856793926
9.107177472,0.999885704528922,-74.77376406669151
9.11504384,1.0000260679791648,-75.00000430840196
9.122910208,1.0001650123603902,-75.22813116106556
9.130776576,1.0002949203408125,-75.45811028426313
9.138642944,1.000408600027424,-75.689720991865
9.146509312,1.0004998077900011,-75.9227298580007
