freq,mag,phase
6.0,0.9997351597949665,-93.57233776810412
6.00351488,0.9997709337974308,-93.75040881360437
6.00702976,0.9998196132615705,-93.9291326531646
6.01054464,0.99987915478257,-94.10864723869885
6.01405952,0.9999459348559226,-94.28909372882238
6.017574912,1.0000159303450655,-94.47056213122707
6.021089792,1.0000848398422961,-94.65301872216622
6.024604672,1.0001482144741585,-94.83645894297271
6.028119552,1.0002025175217737,-95.02073517804735
6.031634432,1.0002441319045086,-95.20578551417546
6.035149312,1.0002706325745037,-95.39130168781523
6.038664192,1.000280345582134,-95.57710784780566
6.042179072,1.0002728890134818,-95.76296985452719
6.045693952,1.000248287927389,-95.94864383551442
6.049209344,1.0002083903824637,-96.133897054591
6.052724224,1.0001554013819802,-96.31849057852345
6.056239104,1.0000928412757708,-96.50229936886531
6.059753984,1.0000243520021659,-96.68515169406119
6.063268864,0.9999542362874291,-96.86709137034836
6.066783744,0.9998866066319394,-97.04806622529199
6.070298624,0.999825792404463,-97.22812397385384
6.073813504,0.9997755795344135,-97.40743561078841
6.077328896,0.9997390192324687,-97.58614733466466
6.080843776,0.9997180340347076,-97.76447130195221
6.084358656,0.9997143078716341,-97.94267406157931
6.087873536,0.9997279736122879,-98.12093060407666
6.091388416,0.9997581605228437,-98.29955052143778
6.094903296,0.9998030486557754,-98.47870760724301
6.098418176,0.9998597918300588,-98.65867516344734
6.101933056,0.9999250474069371,-98.83947851094916
6.105447936,0.9999946873797501,-99.02131683800482
6.108963328,1.0000645581635446,-99.2041750104687
6.112478208,1.000130328115227,-99.38802188988406
6.115993088,1.0001879141871057,-99.57275183722517
6.119507968,1.0002338587882516,-99.7582568306078
6.123022848,1.000265290919318,-99.94435434762813
6.126537728,1.0002801842106575,-100.13083771789802
6.130052608,1.0002778237410337,-100.31743391748745
6.133567488,1.0002583555185711,-100.50385634975466
6.137082368,1.0002227705800277,-100.6899291815445
6.14059776,1.000173361413002,-100.87542362913652
6.14411264,1.0001131245576296,-101.06018848163205
6.14762752,1.0000456892685934,-101.24401733192495
6.1511424,0.9999754007068613,-101.42693429109517
6.15465728,0.9999065282713145,-101.60886964518959
6.15817216,0.9998430469143956,-101.78985764714893
6.16168704,0.9997889714377223,-101.9700863883622
6.16520192,0.9997477422314568,-102.1495931974772
6.1687168,0.99972183974084,-102.32871880225545
6.172232192,0.9997127802859612,-102.50756520740336
6.175747072,0.9997211998265998,-102.68646997104833
6.179261952,0.9997465591762994,-102.86559468392036
6.182776832,0.9997874048757069,-103.0452445207635
6.186291712,0.9998410925665202,-103.22559783732973
6.189806592,0.9999042865261286,-103.40680620728997
6.193321472,0.9999733506585748,-103.58901679570013
6.196836352,1.0000437572330958,-103.77220603631572
6.200351744,1.0001113418111278,-103.95641007788215
6.203866624,1.0001720774554737,-104.14161352504479
6.207381504,1.0002220914702855,-104.32757711809049
6.210896384,1.000258263104667,-104.51418846931264
6.214411264,1.0002784815576236,-104.70124089013844
6.217926144,1.0002814333083074,-104.88849884671717
6.221441024,1.0002670001531537,-105.07569177006813
6.224955904,1.0002360178121334,-105.26258107016976
6.228470784,1.0001904971805013,-105.44896467665903
6.231986176,1.0001329991420416,-105.63464708813578
6.235501056,1.000067153136643,-105.81943045112729
6.239015936,0.9999970707131851,-106.0032812943431
6.242530816,0.9999270295696827,-106.18618503436598
6.246045696,0.999861206969316,-106.3681290903503
6.249560576,0.9998037816734147,-106.54920641721046
6.253075456,0.9997581952309283,-106.72958777842915
6.256590336,0.9997272742917345,-106.90944750340178
6.260105216,0.9997129991870631,-107.08900210173589
6.263620608,0.9997160070834692,-107.26850934866873
6.267135488,0.9997364010340494,-107.44818707084957
6.270650368,0.999772762850885,-107.62827440504367
6.274165248,0.9998229454540698,-107.80906172776972
6.277680128,0.9998839125899912,-107.99065035424321
6.281195008,0.9999518098758298,-108.17318296641999
6.284709888,1.0000225449076223,-108.35671482893923
6.288224768,1.0000916904305568,-108.54130912356537
6.291739648,1.000155149327628,-108.72686218532891
6.29525504,1.00020892588719,-108.91328370839007
6.29876992,1.000249751413632,-109.100359664547
6.3022848,1.0002750915854863,-109.28802749716554
6.30579968,1.0002834314162503,-109.47586167927967
6.30931456,1.0002742130923234,-109.66378974419167
6.31282944,1.0002481297049788,-109.85146840686501
6.31634432,1.0002066059363055,-110.03865135879532
6.3198592,1.000152251458526,-110.22522502930092
6.323374592,1.0000884157185703,-110.41093722277763
6.326889472,1.0000189900007959,-110.59577010705334
6.330404352,0.9999481985029054,-110.77958048482667
6.333919232,0.9998804082633037,-110.96244853978662
6.337434112,0.9998198005525267,-111.14442096113575
6.340948992,0.9997700113923957,-111.32563816593331
6.344463872,0.9997343330814377,-111.50622991068617
6.347978752,0.9997146418721383,-111.68651278164205
6.351493632,0.999712349996086,-111.86664316023119
6.355009024,0.9997276579527116,-112.04682746385568
6.358523904,0.9997593946283609,-112.22743430078931
6.362038784,0.9998058286769494,-112.40859143962486
6.365553664,0.9998639753327281,-112.59057127204376
6.369068544,0.9999303984070202,-112.77341059039077
6.372583424,1.0000008914326408,-112.95732339027582
6.376098304,1.0000711504366564,-113.1421942268808
6.379613184,1.0001369675596283,-113.32809945278696
6.383128064,1.000194468155092,-113.51489478341851
6.386643456,1.0002396507699043,-113.70248609224
6.390158336,1.0002700093501407,-113.89060760520282
6.393673216,1.0002837771640782,-114.07904799898533
6.397188096,1.000279934890617,-114.26764045876857
6.400702976,1.0002588314328393,-114.45604165702046
6.404217856,1.0002216452996353,-114.64406251172687
6.407732736,1.0001708297662164,-114.83148930348976
6.411247616,1.0001093338804488,-115.01810873752328
6.414762496,1.0000409206673118,-115.20384231628468
6.418277888,0.9999698499783679,-115.38862298771014
6.421792768,0.9999004614302698,-115.57237596559145
6.425307648,0.9998369553433412,-115.75525224818774
6.428822528,0.9997834304438253,-115.93727439927828
6.432337408,0.9997429071006244,-116.11869219305758
6.435852288,0.9997181403258615,-116.29960802397417
6.439367168,0.9997103695699666,-116.48036661542294
6.442882048,0.999720253153321,-116.66114533764264
6.44639744,0.9997471912299385,-116.84221614434148
6.44991232,0.9997895816227217,-117.02377700260507
6.4534272,0.9998446810490305,-117.20609648564096
6.45694208,0.9999090967755833,-117.3892699934049
6.46045696,0.9999790524927078,-117.57346147450154
6.46397184,1.0000501049946642,-117.7586582176794
6.46748672,1.0001180684586237,-117.94486424506694
6.4710016,1.000178558107605,-118.1320290355525
6.47451648,1.0002280395908847,-118.31999548829748
6.478031872,1.0002633669725753,-118.50858250889526
6.481546752,1.0002825274248655,-118.69761358755537
6.485061632,1.0002840749721882,-118.88679323633811
6.488576512,1.0002681305648238,-119.07592541277106
6.492091392,1.0002356875929186,-119.26469838726399
6.495606272,1.0001885646842803,-119.4529254531182
6.499121152,1.0001297482888243,-119.64044376312805
6.502636032,1.0000628515554386,-119.82705840661603
6.506150912,0.9999918854489316,-120.01273841554942
6.509666304,0.9999213092355788,-120.19742666438594
6.513181184,0.9998553428899066,-120.38118905279048
6.516696064,0.9997980995862911,-120.56404289981664
6.520210944,0.9997532035748998,-120.74620216292442
6.523725824,0.9997232134514457,-120.92786467185509
6.527240704,0.9997100576335827,-121.10922183187007
6.530755584,0.9997145072444458,-121.2905214667742
6.534270464,0.9997363640176086,-121.47205880313975
6.537785344,0.999774319894711,-121.65407841811123
6.541300736,0.999825951900191,-121.83673071606322
6.544815616,0.9998881517426896,-122.02021778887121
6.548330496,0.9999570821925188,-122.20466698646675
6.551845376,1.0000285491556735,-122.39014163954326
6.555360256,1.0000980616479258,-122.57665481278025
6.558875136,1.000161525860843,-122.76411916245124
6.562390016,1.0002148760681207,-122.95246098410954
6.565904896,1.0002550252490214,-123.14149098799236
6.569420288,1.0002794061344233,-123.33100930924073
6.572935168,1.0002864320593032,-123.52077097536976
6.576450048,1.0002759794784872,-123.71051521948272
6.579964928,1.0002482808240396,-123.90004758567216
6.583479808,1.0002053093830143,-124.08905053173122
6.586994688,1.0001495970730057,-124.27741575111197
6.590509568,1.000084578897579,-124.46490528236176
6.594024448,1.0000141073909128,-124.65147976093441
6.597539328,0.9999427662260204,-124.8370382021249
6.60105472,0.9998746834201774,-125.0216311475695
6.6045696,0.9998141421658566,-125.20532952455426
6.60808448,0.9997649255975246,-125.38828917772531
6.61159936,0.9997298822367847,-125.57064417211356
6.61511424,0.99971135145756,-125.75264139776108
6.61862912,0.9997103047696652,-125.9345008102609
6.622144,0.9997270163188101,-126.11652786573599
6.62565888,0.9997601577649633,-126.29890316179755
6.62917376,0.9998080984290293,-126.48189074846684
6.632689152,0.9998675427862105,-126.66569737001224
6.636204032,0.9999350291514387,-126.85041326494428
6.639718912,1.0000064981696297,-127.03614087114858
6.643233792,1.0000772719612638,-127.22288068516696
6.646748672,1.000143306223411,-127.41063914608063
6.650263552,1.000200405475097,-127.59932485103414
6.653778432,1.0002451094900948,-127.78873836431261
6.657293312,1.0002747795337628,-127.97867455051166
6.660808192,1.0002873149491895,-128.16899521169807
6.664323584,1.0002821734904304,-128.35936542796819
6.667838464,1.0002596334914324,-128.54955374424028
6.671353344,1.0002209984476926,-128.73934011590487
6.674868224,1.0001687003867672,-128.92848392107865
6.678383104,1.0001059945862498,-129.11684243857636
6.681897984,1.0000365768786292,-129.30426579724724
6.685412864,0.9999647318431524,-129.49070899117356
6.688927744,0.9998949994199259,-129.67616880105427
6.692443136,0.9998314543055234,-129.8606652819381
6.695958016,0.9997781207067228,-130.0443921577736
6.699472896,0.9997383077786516,-130.2274517460105
6.702987776,0.9997144100832223,-130.41007049891354
6.706502656,0.9997077614888973,-130.59248276476262
6.710017536,0.9997191434477369,-130.77496537731275
6.713532416,0.9997474625432018,-130.95775524539576
6.717047296,0.9997911745719685,-131.1410880758587
6.720562176,0.9998476369401735,-131.3251358917573
6.724077568,0.9999132614024641,-131.51008609227162
6.727592448,0.999984149844598,-131.6960186515764
6.731107328,1.0000559232686963,-131.88301004014357
6.734622208,1.0001241349161538,-132.07104790218153
6.738137088,1.0001845613222644,-132.26000548714202
6.741651968,1.0002336606459732,-132.44976843557
6.745166848,1.0002683114273867,-132.64013203330768
6.748681728,1.000286392493984,-132.83090360346208
6.752196608,1.0002868264849052,-133.0218339559507
6.755712,1.000269569578955,-133.21268156539412
6.75922688,1.0002356487677406,-133.40313911519232
6.76274176,1.0001871689622412,-133.5930666990353
6.76625664,1.0001269869840794,-133.7822512220623
6.76977152,1.0000590009188868,-133.97049290962735
6.7732864,0.9999871390372853,-134.15778459584016
6.77680128,0.999916051814953,-134.3440803256012
6.78031616,0.9998499040407018,-134.52941491094944
6.78383104,0.9997928233968225,-134.71386108922385
6.787346432,0.999748402922244,-134.897616509742
6.790861312,0.9997191851431287,-135.08088112616375
6.794376192,0.9997070842010811,-135.26385806027542
6.797891072,0.9997128490549329,-135.44682929848082
6.801405952,0.9997360540614681,-135.6299924927116
6.804920832,0.9997754107111555,-135.81362360943942
6.808435712,0.9998284144729177,-135.9979524516184
6.811950592,0.9998917913644332,-136.18315117410657
6.815465984,0.9999617166334409,-136.36929123624185
6.818980864,1.0000338959113118,-136.5564863445318
6.822495744,1.0001039545864374,-136.7447304103661
6.826010624,1.0001674524162476,-136.93390971203877
6.829525504,1.000220719319528,-137.12397030895247
6.833040384,1.0002602605834892,-137.314708519217
6.836555264,1.0002837495430585,-137.5059131807501
6.840070144,1.000289671920578,-137.69734611731593
6.843585024,1.0002778692559717,-137.88879289265927
6.847100416,1.0002488385608221,-138.0799379059107
6.850615296,1.0002044687835163,-138.27058124051305
6.854130176,1.0001474720432353,-138.46050633648503
6.857645056,1.0000811716969802,-138.64959606486494
6.861159936,1.0000099119206924,-138.83768790513858
6.864674816,0.9999377768144349,-139.0248129310488
6.868189696,0.9998693863228458,-139.2109169440258
6.871704576,0.9998088443696311,-139.39613341454535
6.875219456,0.9997599178611957,-139.580601730952
6.878734848,0.9997256359339004,-139.76451067387876
6.882249728,0.999707973946911,-139.94802074369355
6.885764608,0.9997081090041346,-140.13146022187516
6.889279488,0.9997261106123235,-140.3149760176262
6.892794368,0.9997606804478795,-140.4989896248431
6.896309248,0.9998099225448414,-140.68357297396813
6.899824128,0.999870644126804,-140.86894063480406
6.903339008,0.9999392939171183,-141.05529495305782
6.906853888,1.0000114809947627,-141.24262050496654
6.91036928,1.0000829274386047,-141.43102837796872
6.91388416,1.0001491432471243,-141.62045219470767
6.91739904,1.0002062005640397,-141.8107594973326
6.92091392,1.0002504392454223,-142.0018212968424
6.9244288,1.0002793740159033,-142.19338359698978
6.92794368,1.0002909233404724,-142.38530541287707
6.93145856,1.000284590990018,-142.57724757616825
6.93497344,1.000260739903178,-142.76899800453424
6.938488832,1.000220744933695,-142.96030898194982
6.942003712,1.0001671979452098,-143.15099923956328
6.945518592,1.0001031592624978,-143.3408689210394
6.949033472,1.0000327594434413,-143.52978424433098
6.952548352,0.9999602320128449,-143.7176900664932
6.956063232,0.9998898935484608,-143.90457844370303
6.959578112,0.9998262608971465,-144.0905561474986
6.963092992,0.9997732044016107,-144.27571573011699
6.966607872,0.9997338193422461,-144.46021081465705
6.970123264,0.999710728659799,-144.6442810137543
6.973638144,0.9997051868909572,-144.828202673942
6.977153024,0.9997176763056348,-145.0121468343411
6.980667904,0.9997474024270044,-145.1964106203014
6.984182784,0.9997924730258808,-145.38126217204217
6.987697664,0.9998501611992938,-145.5668404881456
6.991212544,0.9999169426037133,-145.7533078643268
6.994727424,0.9999888026355019,-145.94082518955722
6.998242304,1.0000611642925503,-146.12935638206355
7.001757696,1.0001297083584029,-146.31895695140815
7.005272576,1.0001903133803,-146.50944706624512
7.008787456,1.00023914596372,-146.70077695548355
7.012302336,1.00027315112409,-146.8926930059979
7.015817216,1.0002904503477634,-147.08499806828067
7.019332096,1.0002897302357114,-147.27744196560272
7.022846976,1.0002712264488502,-147.46978982186096
7.026361856,1.0002359388794042,-147.66175147486302
7.029876736,1.0001860844770598,-147.85309835929795
7.033392128,1.0001248067175244,-148.0437035689043
7.036907008,1.0000557137572348,-148.23337892026143
7.040421888,0.9999830152420809,-148.4220362476475
7.043936768,0.9999113121162042,-148.60972250685768
7.047451648,0.9998448920079254,-148.79644591667994
7.050966528,0.9997878805926755,-148.98227354082644
7.054481408,0.999743718629908,-149.16737667119318
7.057996288,0.9997152199697554,-149.35200864931716
7.061511168,0.9997040022008864,-149.53637452102606
7.06502656,0.9997109443670338,-149.72073493093478
7.06854144,0.9997353646689668,-149.90529208746977
7.07205632,0.9997761268903731,-150.0903602232686
7.0755712,0.9998303103014525,-150.27611688703772
7.07908608,0.9998949095233876,-150.4627337110659
7.08260096,0.9999658994612819,-150.6503601499789
7.08611584,1.0000388777299403,-150.83902985555088
7.08963072,1.0001093771401892,-151.02871699043047
7.093146112,1.0001731346293705,-151.21940576413647
7.096660992,1.0002262209806645,-151.4109270506218
7.100175872,1.0002653125549656,-151.6031542616478
7.103690752,1.0002880825621914,-151.79580327206378
7.107205632,1.0002930990410999,-151.98867727119514
7.110720512,1.0002800942203876,-152.1815149410812
7.114235392,1.0002497987218588,-152.3740715808615
7.117750272,1.0002041015745364,-152.56608613884623
7.121265152,1.0001457860680367,-152.75737606924085
7.124780544,1.0000783725668185,-152.9477966561048
7.128295424,1.000006171980157,-153.1372204679167
7.131810304,0.9999334077633966,-153.32566024714166
7.135325184,0.9998645983984906,-153.51306130100403
7.138840064,0.9998040264769492,-153.69956107710587
7.142354944,0.9997552495749585,-153.88531250197366
7.145869824,0.9997214509391985,-154.07048294334814
7.149384704,0.9997046147110465,-154.25529803760293
7.152899584,0.9997058171031603,-154.44002571682574
7.156414976,0.9997248903213554,-154.62489951584277
7.159929856,0.9997608606361083,-154.81020161097217
7.163444736,0.9998113478428706,-154.99612085442686
7.166959616,0.9998733078190598,-155.18287043571218
7.170474496,0.9999429721554349,-155.3705740210342
7.173989376,1.0000161113676067,-155.5593209092279
7.177504256,1.0000881640462278,-155.74909895726012
7.181019136,1.0001546760743896,-155.9399023378556
7.184534016,1.0002117461824716,-156.13160646172395
7.188049408,1.0002557541452974,-156.32403241395627
7.191564288,1.0002839717741097,-156.51701815562188
7.195079168,1.0002947196984753,-156.7102764386721
7.198594048,1.0002873633556362,-156.9035894345117
7.202108928,1.000262264113469,-157.0966503125177
7.205623808,1.0002210538234377,-157.28929518946123
7.209138688,1.0001661712468273,-157.48123295073663
7.212653568,1.0001009776432048,-157.6723377699298
7.21616896,1.0000295016083616,-157.86248262244436
7.21968384,0.9999561366381932,-158.05162740271032
7.22319872,0.9998853229896206,-158.23975744198074
7.2267136,0.9998214588412783,-158.4269253981468
7.23022848,0.9997684347633762,-158.61326614689528
7.23374336,0.9997295569126843,-158.7989932457905
7.23725824,0.9997069972041476,-158.98427529682735
7.24077312,0.9997025029991644,-159.1693587495714
7.244288,0.9997161257055811,-159.3545421785061
7.247803392,0.9997470378111937,-159.5400546091137
7.251318272,0.9997932973093415,-159.72613915024584
7.254833152,0.9998523487134121,-159.91296623580578
7.258348032,0.9999202210415836,-160.10073788558446
7.261862912,0.9999930271640644,-160.28954187984422
7.265377792,1.000066120234871,-160.47938059697097
7.268892672,1.0001351829038145,-160.67026839174636
7.272407552,1.0001959443538435,-160.8620702310741
7.275922432,1.0002445521378782,-161.05467416723482
7.279437824,1.0002780656788859,-161.247919293969
7.282952704,1.0002945585516496,-161.4414782832917
7.286467584,1.0002929159793892,-161.63520780809472
7.289982464,1.0002732073807685,-161.82877456991454
7.293497344,1.0002367672861405,-162.02196174041669
7.297012224,1.0001856821171284,-162.21451955438087
7.300527104,1.0001230927924754,-162.406277656615
7.304041984,1.0000528917817426,-162.59712389235872
7.307556864,0.9999792988883095,-162.7869814616851
7.311072256,0.9999069455266117,-162.97575992132087
7.314587136,0.9998401903923367,-163.16360174089456
7.318102016,0.9997830759998372,-163.35055810874064
7.321616896,0.9997393007704268,-163.5367584120362
7.325131776,0.9997112895890506,-163.72251210865153
7.328646656,0.9997009073506158,-163.90795645522658
7.332161536,0.999708801081512,-164.09346622419275
7.335676416,0.999734484171732,-164.2791848539349
7.339191808,0.9997763911782507,-164.4653961619948
7.342706688,0.9998318793921965,-164.6523139472756
7.346221568,0.9998976969684288,-164.84013659822878
7.349736448,0.9999696958445692,-165.02894967539578
7.353251328,1.000043555452481,-165.21880361414597
7.356766208,1.0001146419593547,-165.4097155368703
7.360281088,1.0001785944334982,-165.60160523824086
7.363795968,1.0002316103035596,-165.79436296050272
7.367310848,1.0002704208367343,-165.9877677356927
7.37082624,1.0002925420363646,-166.1816350462004
7.37434112,1.0002967163396268,-166.3756850086229
7.377856,1.0002825213396436,-166.56967219260403
7.38137088,1.0002510657124593,-166.76336679375635
7.38488576,1.0002041201758358,-166.95649680267536
7.38840064,1.000144607992997,-167.14889745844687
7.39191552,1.0000760618636992,-167.34042309735602
