freq,mag,phase
6.0,1.0001201914304618,-110.12589547300193
6.003236352,1.0001124738860216,-110.3037500029768
6.006472704,1.0000972424363448,-110.48144402059998
6.009708544,1.00007599607873,-110.65889555372095
6.012944896,1.000050000644866,-110.83603719153045
6.016181248,1.0000208578327188,-111.01281482717978
6.0194176,0.9999904675955388,-111.18917179498155
6.022653952,0.9999605074603838,-111.36513177928344
6.025889792,0.9999328715505313,-111.54070146135298
6.029126144,0.9999094547463029,-111.71591376281656
6.032362496,0.9998915514677729,-111.89084186209564
6.035598848,0.9998801979732183,-112.06559202944844
6.0388352,0.9998762665523752,-112.24027971837903
6.04207104,0.9998798175100975,-112.41498412620255
6.045307392,0.9998908112408573,-112.58980384068626
6.048543744,0.9999084749848305,-112.76483153502713
6.051780096,0.9999318777844017,-112.94018884540161
6.055015936,0.9999593304890176,-113.11591883375213
6.058252288,0.999989330325152,-113.292089278632
6.06148864,1.0000198193174998,-113.46873666537091
6.064724992,1.0000492743117435,-113.64577203727387
6.067961344,1.000075558931223,-113.82327563580253
6.071197184,1.0000971933423197,-114.00112603754495
6.074433536,1.000112834430403,-114.1792904310754
6.077669888,1.0001214340209061,-114.35768417540822
6.08090624,1.0001225800330562,-114.53609179948951
6.084142592,1.0001161252548931,-114.71452485523372
6.087378432,1.0001023768254114,-114.89283992552292
6.090614784,1.0000825071468733,-115.07091456771923
6.093851136,1.000057361381352,-115.24870910473355
6.097087488,1.000028696578431,-115.42610332194671
6.10032384,0.9999981472283443,-115.60312226853918
6.10355968,0.9999677674547192,-115.77972903679891
6.106796032,0.999939173197129,-115.95590483614463
6.110032384,0.9999144015152353,-116.13174140308769
6.113268736,0.9998947533763503,-116.30727995737192
6.116505088,0.9998816970837024,-116.48262496329737
6.119740928,0.9998758558675711,-116.65783410638994
6.12297728,0.9998776186945362,-116.83304259869105
6.126213632,0.9998868488214818,-117.00832298908136
6.129449984,0.9999031868061168,-117.18382596682704
6.132686336,0.9999253718370849,-117.35964362576641
6.135922176,0.999952158958312,-117.53580936754969
6.139158528,0.9999818241444761,-117.71241455465
6.14239488,1.000012679110981,-117.88945855802078
6.145631232,1.0000426465076813,-118.06696546559168
6.148867072,1.0000701254560507,-118.24491729214718
6.152103424,1.0000932516044712,-118.42326256642451
6.155339776,1.0001105348109391,-118.60190608838332
6.158576128,1.0001210438106554,-118.780743310059
6.16181248,1.0001240884865006,-118.959740056633
6.16504832,1.0001195629243358,-119.13869910711811
6.168284672,1.0001074712852,-119.31760636947848
6.171521024,1.000088778813865,-119.49630270376711
6.174757376,1.0000646360053678,-119.67469181199976
6.177993728,1.0000364925226297,-119.85275656730899
6.181229568,1.0000059565095136,-120.03039253463649
6.18446592,0.9999751666842979,-120.20764359166293
6.187702272,0.9999458595910334,-120.3844510902726
6.190938624,0.9999197513498529,-120.56090214744697
6.194174976,0.9998986433430644,-120.73700886742357
6.197410816,0.9998836528710546,-120.91290914806076
6.200647168,0.9998759142386647,-121.08867273487331
6.20388352,0.9998758017932494,-121.26438754881731
6.207119872,0.999883290867722,-121.44014788443096
6.210356224,0.9998979714020351,-121.61611450364946
6.213592064,0.999918987089769,-121.79236507085804
6.216828416,0.9999448990946204,-121.9689227989184
6.220064768,0.9999742996062453,-122.14596830517661
6.22330112,1.000005177398222,-122.32343976361499
6.226537472,1.0000358515934342,-122.5013331086281
6.229773312,1.0000642667105137,-122.67973226537768
6.233009664,1.0000887776731062,-122.85848048850008
6.236246016,1.000107768454847,-123.03760320883424
6.239482368,1.0001201157112845,-123.21695774453612
6.242718208,1.0001251758768186,-123.39641567104445
6.24595456,1.0001223714623617,-123.57598070332305
6.249190912,1.0001120131270922,-123.75541352664115
6.252427264,1.0000948867797024,-123.9346847283796
6.255663616,1.0000717490926758,-124.1137198110032
6.258899456,1.0000442845355884,-124.29236547404464
6.262135808,1.0000139978144225,-124.47061790298811
6.26537216,0.9999828598134652,-124.64848688879039
6.268608512,0.9999527774159268,-124.8259334992107
6.271844864,0.9999255222938472,-125.00297254452865
6.275080704,0.9999028741759228,-125.17970094335314
6.278317056,0.999886194928728,-125.35613168268556
6.281553408,0.999876440386671,-125.53243202364473
6.28478976,0.9998743801543039,-125.70862207384391
6.288026112,0.99988010632132,-125.88488879134877
6.291261952,0.9998931540495067,-126.06127920667683
6.294498304,0.9999128474024783,-126.2379389036868
6.297734656,0.9999378140737394,-126.41493435887107
6.300971008,0.9999667044971838,-126.5923794667521
6.30420736,0.9999976158522551,-126.77019640349218
6.3074432,1.0000287655999904,-126.94854640249558
6.310679552,1.0000581345917317,-127.12731679186511
6.313915904,1.0000839683710865,-127.30650827562013
6.317152256,1.000104597620745,-127.48606747305958
6.320388096,1.000118800620625,-127.66587016230534
6.323624448,1.0001256833371839,-127.84582479745428
6.3268608,1.0001248248125034,-128.02588774714175
6.330097152,1.0001162974372244,-128.20587566843363
6.333333504,1.0001006534057801,-128.38572530495708
6.336569344,1.0000787573624768,-128.56533622367894
6.339805696,1.0000519725968815,-128.74460090346588
6.343042048,1.000021980817585,-128.92350032362052
6.3462784,0.9999907019996565,-129.10195011800812
6.349514752,0.9999599030607618,-129.27998994751894
6.352750592,0.9999316302980891,-129.45762330259564
6.355986944,0.9999074481422002,-129.63488841400397
6.359223296,0.9998889982478213,-129.81188579954065
6.362459648,0.9998774535560434,-129.98867597681635
6.365696,0.9998734453567903,-130.16540804216137
6.36893184,0.9998771475587725,-130.3421290025163
6.372168192,0.9998885880481745,-130.51893833058185
6.375404544,0.999906796984683,-130.69600372965306
6.378640896,0.9999307310166561,-130.8734132138315
6.381877248,0.9999590995140004,-131.05119637961727
6.385113088,0.999989912979653,-131.22944642472314
6.38834944,1.0000213581457738,-131.40815448537487
6.391585792,1.0000515014145925,-131.58730535655602
6.394822144,1.000078560101494,-131.7669002591444
6.398058496,1.0001008551046398,-131.94683081361651
6.401294336,1.000116834617613,-132.12710637526368
6.404530688,1.0001256766426094,-132.3075702065535
6.40776704,1.000126839003766,-132.48809599548176
6.411003392,1.0001201681799314,-132.66862405986964
6.414239232,1.0001060872020657,-132.84903086323308
6.417475584,1.0000855462100957,-133.02918156954226
6.420711936,1.0000595784113688,-133.20904230357704
6.423948288,1.0000300920626113,-133.38849770776525
6.42718464,0.9999986622780354,-133.56755618752535
6.43042048,0.9999673413165743,-133.74619418593068
6.433656832,0.9999380092472626,-133.9243816417932
6.436893184,0.999912501367569,-134.1022271853798
6.440129536,0.9998924417898165,-134.2797558419705
6.443365888,0.9998789441127409,-134.45705399034833
6.446601728,0.9998728842163612,-134.63424093231342
6.44983808,0.9998747442257684,-134.81140628134457
6.453074432,0.9998843936273168,-134.98867069197942
6.456310784,0.99990101245379,-135.16616709464728
6.459547136,0.9999238421707924,-135.34393478962681
6.462782976,0.9999514278144466,-135.52208402044332
6.466019328,0.9999820360238103,-135.70069004449587
6.46925568,1.000013754464826,-135.87972809848873
6.472492032,1.0000446539554182,-136.05926901731982
6.475728384,1.000072879084788,-136.2392038234694
6.478964224,1.0000966195335952,-136.4195842389947
6.482200576,1.0001143893236226,-136.60024059245916
6.485436928,1.0001251778666027,-136.7811725242257
6.48867328,1.0001283090359432,-136.9621647573491
6.491909632,1.0001235839437526,-137.14316087889586
6.495145472,1.0001112084104191,-137.32409882049672
6.498381824,1.0000920106048605,-137.5048108384203
6.501618176,1.0000671127987704,-137.6852243725324
6.504854528,1.0000381133442102,-137.86525010485295
6.508090368,1.0000067424392842,-138.04491556114633
6.51132672,0.9999750051562847,-138.22409132997652
6.514563072,0.9999448459361246,-138.40285952773513
6.517799424,0.9999179956901495,-138.58124361767048
6.521035776,0.9998962740458701,-138.7593018022768
6.524271616,0.999880895832944,-138.9370692058193
6.527507968,0.9998728750640183,-139.1147504389473
6.53074432,0.9998727142994462,-139.29235075416278
6.533980672,0.9998804620611784,-139.4700369705108
6.537217024,0.9998956080635285,-139.64788413196982
6.540452864,0.9999171457245735,-139.82605009965545
6.543689216,0.9999438295364775,-140.00454208164996
6.546925568,0.9999741179755168,-140.18347399807237
6.55016192,1.000005925434412,-140.36287176116286
6.553398272,1.0000374672186103,-140.54273689537584
6.556634112,1.0000667494317064,-140.7230491723585
6.559870464,1.0000918837177568,-140.90380375079357
6.563106816,1.0001114937657025,-141.0848629321611
6.566343168,1.0001242172114748,-141.26617965997934
6.56957952,1.00012937586692,-141.44760863323552
6.57281536,1.000126502223519,-141.62912499103663
6.576051712,1.0001159177982273,-141.81053585866093
6.579288064,1.0000982982971935,-141.99177426774597
6.582524416,1.0000745073365311,-142.17272990559613
6.585760768,1.0000462076105603,-142.35333684467707
6.588996608,1.000015035852849,-142.53352313549712
6.59223296,0.9999829155739053,-142.7132717487048
6.595469312,0.999951954094944,-142.8926066350109
6.598705664,0.999923919494752,-143.07147983440282
6.601941504,0.999900541967363,-143.25006683845348
6.605177856,0.9998833212823209,-143.42833909363853
6.608414208,0.9998733845215847,-143.60645090528942
6.61165056,0.999871203016318,-143.78450566700616
6.614886912,0.9998770036006792,-143.96258684066223
6.618122752,0.9998904246044454,-144.1408200083823
6.621359104,0.9999106553264157,-144.31929876951557
6.624595456,0.9999363727068654,-144.49815423476326
6.627831808,0.9999661493901773,-144.67738746250762
6.63106816,0.9999979968775295,-144.8571115328191
6.634304,1.0000300043155044,-145.03730554499703
6.637540352,1.0000602415927797,-145.21794525271793
6.640776704,1.0000868156411002,-145.3990343991882
6.644013056,1.000108091973215,-145.5804599273355
6.647249408,1.000122781207607,-145.76216988598338
6.650485248,1.0001299214322845,-145.94403576079125
6.6537216,1.000129114289126,-146.12597723119814
6.656957952,1.0001204059844826,-146.30786219476914
6.660194304,1.000104261490149,-146.4896001087396
6.663430656,1.0000817501001462,-146.6710704934047
6.666666496,1.0000541909519247,-146.85222768989433
6.669902848,1.000023388628455,-147.03294986370105
6.6731392,0.999991086530757,-147.21323038455986
6.676375552,0.9999594462318431,-147.39308077298918
6.679611904,0.9999302659918152,-147.5725057461058
6.682847744,0.9999054412313354,-147.75157679614642
6.686084096,0.9998863470096302,-147.9303165844761
6.689320448,0.9998743747921324,-148.10888797670012
6.6925568,0.9998702719942162,-148.28734043930203
6.69579264,0.9998740143068314,-148.4658155946079
6.699028992,0.9998857684129211,-148.64440065805996
6.702265344,0.9999044389725158,-148.8232380902224
6.705501696,0.9999290754298399,-149.00238736454844
6.708738048,0.9999581802007242,-149.18194912816176
6.711973888,0.9999899246705507,-149.36196547125502
6.71521024,1.000022359781729,-149.54243184947484
6.718446592,1.000053514058148,-149.72338792014872
6.721682944,1.0000812843437397,-149.9048069712124
6.724919296,1.0001042247911454,-150.08656358807463
6.728155136,1.0001207807230532,-150.26863108589322
6.731391488,1.0001300371526383,-150.4509048298031
6.73462784,1.0001311869764171,-150.63326749568375
6.737864192,1.0001243430263476,-150.81560332164906
6.741100544,1.000110009421987,-150.9978448703796
6.744336384,1.0000887599904946,-151.17978085970077
6.747572736,1.0000622084726374,-151.36144174082267
6.750809088,1.000031752873297,-151.54268673145734
6.75404544,0.9999994671851061,-151.72350049914772
6.757281792,0.9999671693897105,-151.90386426372925
6.760517632,0.9999369952024052,-152.08381792296692
6.763753984,0.9999106086188998,-152.26336411681652
6.766990336,0.9998898488643355,-152.44258846899066
6.770226688,0.9998759488516838,-152.62157018455477
6.773462528,0.999869660921275,-152.8004132323581
6.77669888,0.9998714906572611,-152.97924382660744
6.779935232,0.999881305095809,-153.15818762623596
6.783171584,0.9998984258186078,-153.33737490008946
6.786407936,0.9999219194225515,-153.51677756341655
6.789643776,0.9999502563196231,-153.696652454699
6.792880128,0.9999817347132913,-153.8769429467667
6.79611648,1.0000143843692246,-154.05771754082582
6.799352832,1.0000462982680585,-154.2389147812991
6.802589184,1.0000754148523705,-154.42062598353382
6.805825024,1.000099872485656,-154.6026993802902
6.809061376,1.000118324067541,-154.78511830037417
6.812297728,1.00012953970442,-154.9677553884996
6.81553408,1.0001327931136135,-155.15050775858143
6.818770432,1.0001279589011784,-155.33326883794248
6.822006272,1.000115264901469,-155.51591761613423
6.825242624,1.0000956141468271,-155.69838480996412
6.828478976,1.0000700365538235,-155.88052368188116
6.831715328,1.000040249685324,-156.0622536129511
6.83495168,1.000007946165804,-156.24357834558742
6.83818752,0.9999751559514152,-156.42443053215686
6.841423872,0.9999440267165935,-156.60487857378243
6.844660224,0.9999163812817831,-156.78487875091406
6.847896576,0.9998938809661915,-156.96455488574838
6.851132928,0.9998780183335003,-157.1439507316402
6.854368768,0.9998697254152831,-157.32321376244312
6.85760512,0.999869435577725,-157.50238574788227
6.860841472,0.9998772771257917,-157.6816779651698
6.864077824,0.9998927569227097,-157.86112376655169
6.867313664,0.9999149196996769,-158.04086016017868
6.870550016,0.999942397445913,-158.2209595120593
6.873786368,0.9999734972527271,-158.40152599732417
6.87702272,1.0000062929361162,-158.5825528589708
6.880259072,1.0000388108388583,-158.7640227341562
6.883494912,1.0000689663987918,-158.94598321985083
6.886731264,1.0000951080586518,-159.1283720792146
6.889967616,1.0001153349075098,-159.3110867310419
6.893203968,1.0001285118629568,-159.49406116130527
6.89644032,1.000133925560194,-159.67719215357346
6.89967616,1.0001311413475793,-159.86033974827234
6.902912512,1.0001203602354538,-160.0434090821325
6.906148864,1.0001022089099232,-160.22629439918046
6.909385216,1.000077742939853,-160.40888783178335
6.912621568,1.0000486417748267,-160.591119145056
6.915857408,1.0000165223900777,-160.77291410807348
6.91909376,0.999983406299412,-160.9542634142871
6.922330112,0.9999514902528644,-161.1351687553487
6.925566464,0.9999226039353614,-161.31562849590946
6.928802816,0.9998984330930762,-161.49575035527772
6.932038656,0.9998805996951158,-161.67555821234217
6.935275008,0.9998701947971778,-161.85519049787408
6.93851136,0.9998678527111781,-162.03473809551016
6.941747712,0.9998737530226635,-162.21432035962988
6.944984064,0.9998873839983843,-162.39405061962006
6.948219904,0.9999081510021579,-162.57402808743527
6.951456256,0.9999346688398802,-162.75439872964438
6.954692608,0.9999651934044486,-162.93518471835688
6.95792896,0.999998082672708,-163.1164147476728
6.9611648,1.0000310789952285,-163.29815436698294
6.964401152,1.000062301990831,-163.4803647397447
6.967637504,1.0000897415308405,-163.6629957273557
6.970873856,1.000111737228049,-163.84598869361383
6.974110208,1.0001270247919112,-164.0292911961684
6.977346048,1.000134503296493,-164.21275346730152
6.9805824,1.0001336998921673,-164.39629389942118
6.983818752,1.0001249173655586,-164.57973045244614
6.987055104,1.000108363228513,-164.76304813124318
6.990291456,1.00008529853184,-164.94608540736178
6.993527296,1.000056995092525,-165.12874941977427
6.996763648,1.0000251811226362,-165.31101705940884
7.0,0.9999919615343592,-165.49282020157193
7.003236352,0.9999592096408068,-165.67416529687057
7.006472704,0.9999290886790886,-165.85507566387074
7.009708544,0.9999034131551147,-166.03558382932513
7.012944896,0.9998837052869084,-166.2158196490976
7.016181248,0.9998712344362867,-166.3958043031591
7.0194176,0.9998667586064426,-166.5756967176362
7.022653952,0.9998705898543856,-166.75556368546555
7.025889792,0.9998824439724253,-166.9355924958421
7.029126144,0.9999016934991753,-167.11582193151224
7.032362496,0.9999270015141472,-167.29642723877828
7.035598848,0.9999569307765834,-167.4774000400922
7.0388352,0.9999896294899996,-167.65885718045956
7.04207104,1.0000230705613564,-167.8407920882832
7.045307392,1.0000551550956438,-168.0232023252784
7.048543744,1.0000839371032657,-168.20607838363316
7.051780096,1.000107732456485,-168.3893386300068
7.055015936,1.0001248481719731,-168.5728827927434
7.058252288,1.000134534049497,-168.7566664006988
7.06148864,1.000135910240178,-168.94053811322829
7.064724992,1.0001290322383767,-169.12436575976326
7.067961344,1.000114289331079,-169.3080723278736
7.071197184,1.0000924923807446,-169.491500957851
7.074433536,1.0000652022637866,-169.67460910378514
7.077669888,1.0000338768898775,-169.85730525749057
7.08090624,1.0000005368011147,-170.03954341685488
7.084142592,0.9999671992979026,-170.2213541152726
7.087378432,0.9999359679389884,-170.4026779709515
7.090614784,0.9999088350125356,-170.58361323485042
7.093851136,0.9998871894793494,-170.7641790766175
7.097087488,0.9998727366387556,-170.94449852973946
7.10032384,0.9998661205860503,-171.12471649192557
7.10355968,0.9998678648940699,-171.30492163105646
7.106796032,0.9998778172457081,-171.4851686337901
7.110032384,0.9998953374772883,-171.66566083876629
7.113268736,0.9999194293353064,-171.8464253539733
7.116505088,0.9999486790408425,-172.02761420463438
7.119740928,0.9999810831319401,-172.2092385172322
7.12297728,1.0000148141127136,-172.39136561581208
7.126213632,1.0000476722779035,-172.57399670111005
7.129449984,1.0000777861401042,-172.75706815161402
7.132686336,1.0001031404508183,-172.94054995989168
7.135922176,1.0001222567578631,-173.12435505410684
7.139158528,1.0001340102862162,-173.30839098024023
7.14239488,1.0001375588311063,-173.4925642677317
7.145631232,1.0001326943008304,-173.67675318691093
7.148867072,1.0001197615495712,-173.86078222652625
7.152103424,1.0000995869720504,-174.04464996416766
7.155339776,1.0000733353570563,-174.2281280731904
7.158576128,1.0000426417250208,-174.4112428828389
7.16181248,1.00000936386658,-174.59392419258583
7.16504832,0.9999755485592661,-174.7761220560664
7.168284672,0.9999433654310018,-174.95785339110856
7.171521024,0.9999146979275676,-175.1391676626338
7.174757376,0.9998913902735321,-175.32010629180616
7.177993728,0.999874882044827,-175.50079313881326
7.181229568,0.9998660651196648,-175.6812885854685
7.18446592,0.9998656817674827,-175.86173430349666
7.187702272,0.9998735579596361,-176.04226466594181
7.190938624,0.9998894133282837,-176.22292507623968
7.194174976,0.9999121431631419,-176.4039232478529
7.197410816,0.9999404524899901,-176.58529343793705
7.200647168,0.9999724367916061,-176.76709172265106
7.20388352,1.0000063319739296,-176.9493667653305
7.207119872,1.000039813484303,-177.1321397462725
7.210356224,1.0000710907904307,-177.315370464994
7.213592064,1.0000980936438808,-177.49906233522043
7.216828416,1.0001190785905023,-177.6830965606621
7.220064768,1.0001329006014559,-177.86740314512923
7.22330112,1.0001386110824435,-178.05185637487554
7.226537472,1.0001359004691734,-178.23630927878608
7.229773312,1.0001249167794526,-178.42070952201593
7.233009664,1.0001063799895944,-178.60489232647853
7.236246016,1.00008129195901,-178.78879596584446
7.239482368,1.0000512568784359,-178.97229230020704
7.242718208,1.0000182360432055,-179.15537284974872
7.24595456,0.9999840860359409,-179.3379449325515
7.249190912,0.9999510397627877,-179.5200526096225
7.252427264,0.9999211007996112,-179.70174584997474
7.255663616,0.9998960461969085,-179.8830526685985
7.258899456,0.999877481179783,179.93596943691063
7.262135808,0.9998664950249422,179.75516295651474
7.26537216,0.9998639015741638,179.57446698775132
7.268608512,0.9998698288256642,179.39373624433054
7.271844864,0.9998838354568593,179.21284894850842
7.275080704,0.9999050876074768,179.03169154958678
7.278317056,0.9999322299197437,178.85017978035387
7.281553408,0.9999638069606565,178.6682282376153
7.28478976,0.9999977537396014,178.48582130492247
