freq,mag,phase
6.0,1.0000560945212675,-97.69305979657067
6.005513216,1.0000180431806385,-97.95460072223945
6.011026944,0.9999786323613803,-98.21561598982579
6.01654016,0.9999401341721267,-98.47606136840643
6.022053888,0.9999051116792644,-98.73604904537723
6.027567104,0.9998753714247027,-98.99555475738154
6.033080832,0.9998527317506561,-99.2547502611586
6.038594048,0.9998384951031608,-99.51367233733372
6.044107264,0.9998335493466136,-99.77245591768978
6.049620992,0.9998379684530193,-100.03125147972312
6.055134208,0.9998516293285079,-100.29020848023485
6.060647936,0.9998737969166157,-100.54938537865114
6.066161152,0.9999031369491646,-100.80891075226299
6.07167488,0.9999380571115399,-101.0689335738361
6.077188096,0.9999764568189291,-101.32944541292866
6.082701824,1.0000160761693278,-101.59051513575642
6.08821504,1.0000545922288315,-101.85215746247444
6.093728256,1.0000900015812049,-102.11427834689503
6.099241984,1.0001201273828566,-102.3768760125087
6.1047552,1.0001432613888892,-102.63988376986532
6.110268928,1.0001580158234964,-102.90312372245835
6.115782144,1.0001636218004182,-103.16651038661742
6.121295872,1.000159723729453,-103.42993289959125
6.126809088,1.0001464197685248,-103.69325198192037
6.132322304,1.0001247127547346,-103.95630679456535
6.137836032,1.0000956412177675,-104.21903892235292
6.143349248,1.000060956856106,-104.48133298763977
6.148862976,1.0000226735380409,-104.74312368075476
6.154376192,0.9999829224654015,-105.00438645118592
6.15988992,0.9999440564320261,-105.26512979147118
6.165403136,0.9999083586844162,-105.52534486632037
6.170916864,0.9998777692339877,-105.78511465139799
6.17643008,0.9998542054085501,-106.04452264464396
6.181943296,0.9998388772206593,-106.30367685505279
6.187457024,0.9998327852251291,-106.56264896788647
6.19297024,0.9998361305486303,-106.82164875387161
6.198483968,0.9998490376416569,-107.0807310500584
6.203997184,0.9998703257479395,-107.3400744226733
6.209510912,0.9998991691898396,-107.59979947948179
6.215024128,0.9999336601307731,-107.85991741151794
6.220537344,0.9999719371913409,-108.12059155821605
6.226051072,1.0000117140924125,-108.38178577113139
6.231564288,1.0000506989648275,-108.64355275104317
6.237078016,1.0000867254026597,-108.90584987273182
6.242591232,1.0001177431235406,-109.16858548065
6.24810496,1.0001418469574106,-109.43178068997751
6.253618176,1.0001576915430683,-109.69518258399222
6.259131392,1.000164336133736,-109.95879663677026
6.26464512,1.0001614306915045,-110.2224149376738
6.270158336,1.0001491261501296,-110.48595631190358
6.275672064,1.0001281853565533,-110.74924338198328
6.28118528,1.0000997330595849,-111.0122368369208
6.286699008,1.0000653974784448,-111.27477464982226
6.292212224,1.000027186117766,-111.53682091328353
6.297725952,0.9999873595899301,-111.7983572013048
6.303239168,0.9999481137281849,-112.05932715090151
6.308752384,0.9999117566069939,-112.31979818340356
6.314266112,0.9998804164294146,-112.57978086402309
6.319779328,0.9998557392791619,-112.83939342709053
6.325293056,0.9998393972344816,-113.09875078692312
6.330806272,0.9998321396072541,-113.35795077254693
6.33632,0.9998344759177555,-113.61708043491781
6.341833216,0.9998462987788663,-113.87636216974457
6.347346432,0.9998669036815094,-114.13585782622465
6.35286016,0.9998950138110664,-114.39567914057145
6.358373376,0.9999291762804763,-114.65593723825788
6.363887104,0.9999673408203688,-114.91673149469838
6.36940032,1.000007217368321,-115.17805001745502
6.374914048,1.0000466684803733,-115.43993395268349
6.380427264,1.0000833066187105,-115.70236389531628
6.38594048,1.0001152211571844,-115.96523168719106
6.391454208,1.0001401725272063,-116.22856709047286
6.396967424,1.0001571352545555,-116.49214278648319
6.402481152,1.000164941610131,-116.75593727262466
6.407994368,1.0001630982590006,-117.01975898028806
6.413508096,1.0001518223759218,-117.28348048709562
6.419021312,1.0001316559954647,-117.54704403715319
6.42453504,1.0001038068941577,-117.81023156914107
6.430048256,1.0000699583620596,-118.07299856158447
6.435561472,1.0000318771154257,-118.33530917658739
6.4410752,0.9999918266596621,-118.59704361982992
6.446588416,0.9999521845420601,-118.85827953878734
6.452102144,0.9999152020987936,-119.11895022569809
6.45761536,0.9998830293287596,-119.37917336130087
6.463129088,0.9998574721641634,-119.63897067176377
6.468642304,0.9998400032789493,-119.8985130539604
6.47415552,0.999831687098746,-120.15787661258356
6.479669248,0.9998329378254704,-120.41719863851371
6.485182464,0.9998437958089517,-120.67660237600701
6.490696192,0.9998634518263668,-120.93620571294122
6.496209408,0.9998910140888335,-121.19615550902364
6.501723136,0.9999246965906963,-121.45652444168556
6.507236352,0.9999627149737301,-121.71742398250515
6.51275008,1.0000027722718534,-121.97884619786987
6.518263296,1.0000425927154135,-122.24084533789232
6.523776512,1.00007991721133,-122.50338904359768
6.52929024,1.0001125223723428,-122.76640104368214
6.534803456,1.0001385348191407,-123.0298342666517
6.540317184,1.000156617796633,-123.293586146444
6.5458304,1.0001654349291875,-123.5575215208216
6.551344128,1.0001646973843261,-123.82153875736715
6.556857344,1.0001543867634999,-124.08545878464477
6.56237056,1.000135134138454,-124.34917407330363
6.567884288,1.0001079710358696,-124.61260062791823
6.573397504,1.0000743953721,-124.87560442254266
6.578911232,1.0000365125364545,-125.1381028515057
6.584424448,0.999996404319711,-125.4000820850943
6.589938176,0.9999564589151617,-125.66152163156153
6.595451392,0.999918789502908,-125.92241798939074
6.600964608,0.9998857787153529,-126.18283867091617
6.606478336,0.9998591888407435,-126.44283335230323
6.611991552,0.9998407929428189,-126.70255230431641
6.61750528,0.9998313127969259,-126.96205453222119
6.623018496,0.9998314661885361,-127.22151509571079
6.628532224,0.9998412478537233,-127.48102199459721
6.63404544,0.9998601701004287,-127.74075931283812
6.639559168,0.9998870262942186,-128.00079908001283
6.645072384,0.9999202978816984,-128.26129499507405
6.6505856,0.999958139716725,-128.5222710725282
6.656099328,0.9999983158762665,-128.78378480805569
6.661612544,1.0000384827321989,-129.045849190588
6.667126272,1.000076372542849,-129.30851168276095
6.672639488,1.00010979390131,-129.5716066639567
6.678153216,1.0001368394033263,-129.8351593581511
6.683666432,1.0001558706582705,-130.09905053011775
6.689179648,1.0001659297388859,-130.36313219533162
6.694693376,1.000166236169347,-130.62727781345203
6.700206592,1.000156945924214,-130.89138993963104
6.70572032,1.0001385246598633,-131.15529485487298
6.711233536,1.0001120376197052,-131.41891262042344
6.716747264,1.0000789874419491,-131.68212013686596
6.72226048,1.0000412163123307,-131.94483735044315
6.727773696,1.000001092027717,-132.20702725878908
6.733287424,0.9999606984307885,-132.46867378580947
6.73880064,0.9999224943879669,-132.72975705040864
6.744314368,0.9998886986494544,-132.99036039760693
6.749827584,0.9998611862877422,-133.25054724520137
6.755341312,0.9998415156423234,-133.51037851567636
6.760854528,0.9998310006946914,-133.77005568542072
6.766368256,0.9998300540073418,-134.02962329749843
6.771881472,0.9998388624104979,-134.28926295987034
6.777394688,0.9998568373091864,-134.54908805494665
6.782908416,0.9998830476485039,-134.8092100771779
6.788421632,0.999915840805687,-135.0697850069465
6.79393536,0.9999534322887963,-135.3308353614393
6.799448576,0.9999936700737562,-135.59240751578
6.804962304,1.000034211122906,-135.85456721860317
6.81047552,1.00007269426997,-136.117266842962
6.815988736,1.0001069136868637,-136.38046592613875
6.821502464,1.00013489575116,-136.64411151789932
6.82701568,1.000155036703599,-136.9080941181429
6.832529408,1.000166211519617,-137.17231938545586
6.838042624,1.0001677114430252,-137.43661580976539
6.843556352,1.000159379804294,-137.70088596338886
6.849069568,1.0001418562756041,-137.9649696910683
6.854583296,1.0001160971467906,-138.22873880954972
6.860096512,1.0000835136151238,-138.49213491550225
6.865609728,1.0000459965021582,-138.75505504035974
6.871123456,1.0000057528416546,-139.01743873862145
6.876636672,0.9999650912343839,-139.2792517080028
6.8821504,0.999926266126235,-139.54051791174246
6.887663616,0.9998916867997283,-139.8013018058453
6.893177344,0.9998631665335014,-140.0616223411684
6.89869056,0.9998425065609312,-140.32161549168578
6.904203776,0.9998307933792808,-140.5813928729502
6.909717504,0.9998287148660855,-140.84110633670358
6.91523072,0.9998364541511576,-141.1008375145221
6.920744448,0.9998535324870138,-141.36072812540286
6.926257664,0.9998789968642758,-141.62093598143784
6.931771392,0.9999113550158513,-141.88154124375532
6.937284608,0.999948764667411,-142.14264781122142
6.942797824,0.9999890220195513,-142.40426218752674
6.948311552,1.0000298527882105,-142.66648882253742
6.953824768,1.0000689327867962,-142.92924265711548
6.959338496,1.0001039359652504,-143.192519027047
6.964851712,1.0001329091016473,-143.45624669723207
6.97036544,1.0001541673019654,-143.7203222668219
6.975878656,1.0001663682133515,-143.98462612289387
6.981392384,1.0001689810061143,-144.24905421566822
6.9869056,1.0001617713877842,-144.51344116286336
6.992418816,1.000145134632104,-144.77767879397044
6.997932544,1.0001200934887027,-145.04165177090852
7.00344576,1.0000880315400238,-145.30518057518222
7.008959488,1.0000507104932994,-145.5682710883198
7.014472704,1.0000105006738902,-145.83083946824198
7.019986432,0.9999694956363019,-146.0928144082669
7.025499648,0.9999302138273193,-146.35426249998122
7.031012864,0.9998947918178899,-146.61518334350356
7.036526592,0.9998653178416239,-146.87567848793464
7.042039808,0.9998435820235816,-147.1357821625791
7.047553536,0.9998306615136109,-147.3956866668408
7.053066752,0.9998275118408878,-147.65545925678038
7.05858048,0.9998342111548844,-147.91525481020838
7.064093696,0.9998503635268711,-148.1752376062851
7.069606912,0.9998750549444875,-148.4355081196544
7.07512064,0.9999068748690003,-148.6961453338899
7.080633856,0.9999439979314091,-148.95727829010755
7.086147584,0.9999843190788584,-149.2189554174739
7.0916608,1.0000254660859056,-149.48117421746275
7.097174528,1.000065044845875,-149.74397751439588
7.102687744,1.0001008521000914,-150.00731799842703
7.108201472,1.0001307280199943,-150.27108978392192
7.113714688,1.0001530683437594,-150.53526141113508
7.119227904,1.0001664843371738,-150.7996539834904
7.124741632,1.0001702234553551,-151.06418044759718
7.130254848,1.000164075507581,-151.32869467224748
7.135768576,1.000148457472369,-151.59305812795148
7.141281792,1.000124073049982,-151.85713236030662
7.14679552,1.0000925763928648,-152.12085276383408
7.152308736,1.0000556668364493,-152.38410870589308
7.157821952,1.0000152305979937,-152.64680008804967
7.16333568,0.9999740194591109,-152.908956573246
7.168848896,0.9999341728379793,-153.1705390228621
7.174362624,0.9998980438389614,-153.43159458123907
7.17987584,0.999867629455234,-153.69219546733362
7.185389568,0.999844766564373,-153.9524332527274
7.190902784,0.9998307383075729,-154.21241176271133
7.196416512,0.9998264069094633,-154.47227212479544
7.201929728,0.9998320518664127,-154.73215077456186
7.207442944,0.999847240401506,-154.9921636199559
7.212956672,0.9998711070242374,-155.25244466960103
7.218469888,0.9999023929481629,-155.51313431287025
7.223983616,0.999939244725043,-155.77428096755898
7.229496832,0.9999795829874002,-156.03596622121
7.23501056,1.000020939667408,-156.29822612362474
7.240523776,1.0000611167590976,-156.56104808845024
7.246036992,1.0000976695146402,-156.82439367481618
7.25155072,1.000128519589573,-157.0882195982567
7.257063936,1.0001519413805748,-157.35243443627903
7.262577664,1.0001664756251378,-157.61689844368775
7.26809088,1.0001713431761463,-157.8815162111046
7.273604608,1.0001662871371773,-158.14612316813793
7.279117824,1.0001516182732877,-158.41059485789503
7.28463104,1.0001280280232137,-158.6748196017272
7.290144768,1.0000971482596233,-158.93865347570676
7.295657984,1.000060413397312,-159.2020406681751
7.301171712,1.0000201627394518,-159.46487979827165
7.306684928,0.9999786330708426,-159.72715650055213
7.312198656,0.9999382237491222,-159.9888774783565
7.317711872,0.9999012955845376,-160.25005328250379
7.3232256,0.9998699372426629,-160.51075700277906
7.328738816,0.9998460938976776,-160.77108691531075
7.334252032,0.9998308623860134,-161.03115982636697
7.33976576,0.999825341563399,-161.2910654374662
7.345278976,0.9998298200745842,-161.55100406615477
7.350792704,0.9998441043204374,-161.81105215889474
7.35630592,0.9998672634765965,-162.0713547892802
7.361819648,0.9998980290898393,-162.3320258734074
7.367332864,0.9999345118179969,-162.59318672481484
7.37284608,0.9999747268930141,-162.85488141308667
7.378359808,1.0000164607762911,-163.11711977148386
7.383873024,1.0000570244189155,-163.37993433078879
7.389386752,1.0000943259240376,-163.64331877185083
7.394899968,1.0001261115570743,-163.90717757638697
7.400413696,1.000150594888479,-164.17139208795297
7.405926912,1.000166319545577,-164.43592241216496
7.41144064,1.0001724102815917,-164.7005926812958
7.416953856,1.0001684543319724,-164.96527492116886
7.422467072,1.000154764892798,-165.2298620615675
7.4279808,1.000132090593473,-165.49418314834142
7.433494016,1.0001016205257944,-165.75814849893823
7.439007744,1.0000652971960502,-166.02164222638035
7.44452096,1.0000250689228742,-166.28459351993314
7.450034688,0.9999832414432146,-166.54699962359072
7.455547904,0.9999424257995289,-166.80884011299952
7.46106112,0.9999047141277392,-167.07012795034953
7.466574848,0.9998724423173617,-167.3309373249605
7.472088064,0.9998474396183156,-167.59133500182247
7.477601792,0.9998311674481944,-167.8514569905949
7.483115008,0.9998244493459806,-168.11144086981884
7.488628736,0.9998278302026569,-168.3713776800964
7.494141952,0.9998410472064891,-168.63144055624718
7.499655168,0.9998633636420449,-168.89174470996994
7.505168896,0.9998934832316082,-169.15242128952076
7.510682112,0.9999297278336557,-169.41354699438273
7.51619584,0.9999699273127151,-169.675210515211
7.521709056,1.0000117405682452,-169.93743057075673
7.527222784,1.0000528975551284,-170.20026715122972
7.532736,1.000090989405443,-170.46363054391003
7.538249728,1.0001236876043642,-170.72745891812946
7.543762944,1.0001492185022527,-170.9917250099127
7.54927616,1.0001661544654106,-171.2562935046205
7.554789888,1.000173394723059,-171.5210036537979
7.560303104,1.000170561508084,-171.78574634248827
7.565816832,1.0001579039544355,-172.05041215886374
7.571330048,1.00013602657613,-172.31480143204072
7.576843776,1.0001061853192734,-172.57887413668155
7.582356992,1.0000701617719396,-172.842452074957
7.587870208,1.0000300276815908,-173.10553122433677
7.593383936,0.9999880887174312,-173.36804800026079
7.598897152,0.9999465657776245,-173.62996898632426
7.60441088,0.9999082845157404,-173.89134586521416
7.609924096,0.9998750340507574,-174.15224644542891
7.615437824,0.9998489471884194,-174.41272340910595
7.62095104,0.9998314841235452,-174.67288309579155
7.626464256,0.9998237119743987,-174.93287441361568
7.631977984,0.9998259072714968,-175.1928458040408
7.6374912,0.9998380362938897,-175.45290179080467
7.643004928,0.9998595225379264,-175.71317655124872
7.648518144,0.9998890854140369,-175.9738296509454
7.654031872,0.9999248868860208,-176.23492812150505
7.659545088,0.9999649729653219,-176.49655841097277
7.665058816,1.0000070016482063,-176.7587469710243
7.670572032,1.0000487461594318,-177.0215371847601
7.676085248,1.0000874386506453,-177.2848526074606
7.681598976,1.0001211332629005,-177.54868447312165
7.687112192,1.0001478040857312,-177.81296234081785
7.69262592,1.0001658114155891,-178.07752953895059
7.698139136,1.0001742153599387,-178.34227815723187
7.703652864,1.0001725311541967,-178.60706733458412
7.70916608,1.000160939112205,-178.87176609919018
7.714679296,1.0001398735380234,-179.1362435484315
7.720193024,1.000110672482149,-179.40040157017245
7.72570624,1.000075124695122,-179.66407138610364
7.731219968,1.0000350194524184,-179.9272385022394
7.736733184,0.9999928519515584,179.81017569282517
7.742246912,0.9999509829273582,179.54817451271003
7.747760128,0.9999118421961976,179.28671317044262
7.753273856,0.9998778091489647,179.02576590662474
7.758787072,0.999850642632925,178.76523771116337
7.764300288,0.9998320048415227,178.50505276990836
7.769814016,0.9998229239502457,178.24503031283786
7.775327232,0.9998239590011144,177.98507195666568
7.78084096,0.9998351862854987,177.72504787524647
7.786354176,0.9998557550965251,177.464769685451
7.791867904,0.9998845976501484,177.2041639528626
7.79738112,0.9999200898496747,176.94313853048763
7.802894336,0.999960022634799,176.681558397215
7.808408064,1.000002316293595,176.4194265956747
7.81392128,1.0000443369046552,176.15670671385908
7.819435008,1.000083880763664,175.89340723642306
7.824948224,1.0001184074429674,175.62960534176358
7.830461952,1.0001460799100976,175.36536767612492
7.835975168,1.0001653845952412,175.1008076715859
7.841488384,1.0001750137210783,174.8360344751676
7.847002112,1.0001745251886038,174.5712254355132
7.852515328,1.0001639083970164,174.30648212693006
7.858029056,1.000143753826544,174.04195196523753
7.863542272,1.0001151949169669,173.77775536923582
7.869056,1.0000799758438128,173.5139881752484
7.874569216,1.000040019904249,173.25076202753567
7.880082944,0.9999977948767175,172.98808768061804
7.88559616,0.9999554249100912,172.72602299098702
7.891109376,0.9999156442896395,172.46451188042
7.896623104,0.9998805522905218,172.20349736862795
7.90213632,0.9998523734486475,171.9429544790222
7.907650048,0.9998324915241623,171.68274474740116
7.913163264,0.9998222479218246,171.42271834636907
7.918676992,0.9998220993331893,171.16278164809003
7.924190208,0.99983227872947,170.9027812463339
7.929703424,0.9998519783862893,170.6425649586333
7.935217152,0.9998802266147496,170.38203140726196
7.940730368,0.9999152372829382,170.1210385474189
7.946244096,0.9999550859476142,169.85954033066102
7.951757312,0.9999974720313989,169.59747846839514
7.95727104,1.0000399734905798,169.3348350080915
7.962784256,1.0000801065454967,169.0716095054406
7.968297472,1.0001156673481946,168.8078585574316
7.9738112,1.000144303285953,168.54367315083047
7.979324416,1.000164803345219,168.27912073968224
7.984838144,1.0001755710964468,168.01438168471697
7.99035136,1.000176365790781,167.74955085505863
7.995865088,1.000166678667321,167.4847836626301
8.001378304,1.0001474640538044,167.22020738562182
8.006892032,1.0001197024723416,166.9559635169938
8.012405248,1.0000848433403742,166.69215864288708
8.017918464,1.0000451719780794,166.4288541610147
8.023432192,1.0000026829492992,166.1661338884754
8.028945408,0.9999599300361965,165.904005997778
8.034459136,0.9999195317278609,165.64245244769725
8.039972352,0.9998835064019522,165.38142865720943
8.04548608,0.9998542087191605,165.12086265478936
8.050999296,0.9998332476268094,164.86063854799153
8.056512512,0.9998217343939582,164.6006505403961
8.06202624,0.9998205150894586,164.34074132118002
8.067539456,0.9998294713269472,164.08078407182626
8.073053184,0.9998482644304302,163.82064219167088
8.0785664,0.9998757489301673,163.5601750409334
8.084080128,0.9999103510376819,163.2992718768226
8.089593344,0.9999500267731211,163.03786859298802
8.095107072,0.999992543270363,162.77589161328132
8.100620288,1.0000354382875123,162.5133338097384
8.106133504,1.0000762794819062,162.2501805229743
8.111647232,1.0001126397620075,161.9864916672779
8.117160448,1.000142573563917,161.72235735245363
8.122674176,1.000164152653298,161.45786823733835
8.128187392,1.0001761951786614,161.1931622726218
8.13370112,1.0001780416491484,160.92831327670734
8.139214336,1.0001696207832653,160.66356226445382
8.144727552,1.0001512515571593,160.39894226115572
8.15024128,1.0001242607184935,160.1346765956417
8.155754496,1.0000898572215406,159.87083818471658
8.161268224,1.0000502124924942,159.60750592662643
8.16678144,1.0000076880478044,159.34474751899677
8.172295168,0.9999645686047047,159.08255525999877
8.177808384,0.999923472170537,158.82097889448184
8.1833216,0.9998866436853165,158.55994552767973
8.188835328,0.9998561959022203,158.29937009519816
8.194348544,0.999833937141475,158.03916211620123
