freq,mag,phase
6.0,0.9996570560641376,145.18068172548215
6.002287104,0.9997070609235615,145.04176643129787
6.004574208,0.9997775436308131,144.9020552945913
6.006861312,0.9998619312114401,144.7612985812166
6.009147904,0.9999552580319301,144.61932335475714
6.011435008,1.0000514193026642,144.475977397868
6.013722112,1.0001442525352826,144.3313578857617
6.016009216,1.0002280816495084,144.185524335814
6.01829632,1.00029744647456,144.03861389420518
6.020583424,1.0003478681457605,143.8908783782376
6.022870016,1.0003763062322644,143.74265872143746
6.02515712,1.0003807496044443,143.5942551628361
6.027444224,1.0003609836808298,143.44600706230773
6.029731328,1.0003182130184358,143.2983169251941
6.032018432,1.0002551530587243,143.15138730638688
6.034305536,1.0001757156480457,143.00559544199447
6.036592128,1.0000850279376974,142.86109401586603
6.038879232,0.9999885632739954,142.71801648155872
6.041166336,0.9998928794122848,142.57637177200866
6.04345344,0.9998035820081708,142.43616511230232
6.045740544,0.999726670500434,142.29721936351777
6.048027648,0.999666921546189,142.15936967272964
6.05031424,0.9996281696169199,142.02225856024148
6.052601344,0.9996129149507741,141.88559372740193
6.054888448,0.9996221907226844,141.74908960347665
6.057175552,0.9996552588074811,141.61229573985565
6.059462656,0.9997103106070722,141.47495358988127
6.06174976,0.9997837015168679,141.3367306343571
6.064036352,0.9998708358040554,141.19736437756148
6.066323456,0.9999660859082041,141.05678589613393
6.06861056,1.0000636353200818,140.91483454082646
6.070897664,1.0001570563069924,140.77160736108866
6.073184768,1.000240655154396,140.62709150348704
6.075471872,1.000308849090438,140.48153689993302
6.077758464,1.0003575998324856,140.33520334958195
6.080045568,1.0003835401862462,140.18840011964886
6.082332672,1.0003851846177727,140.041456074501
6.084619776,1.0003622380202455,139.8947148185412
6.08690688,1.0003161664007143,139.7485232530549
6.089193984,1.000249903848057,139.60320525043747
6.091481088,1.0001676057579112,139.45903243806
6.09376768,1.000074513927587,139.31617730375376
6.096054784,0.9999764705235799,139.17477899844982
6.098341888,0.999879635985027,139.03487949325478
6.100628992,0.9997903242181996,138.8963735656854
6.102916096,0.9997141455113668,138.75915492557195
6.1052032,0.999656015140982,138.62297039416325
6.107489792,0.9996195185897754,138.4875088023424
6.109776896,0.9996070860488058,138.35247697310032
6.112064,0.9996192980274969,138.21754071010682
6.114351104,0.9996559254359381,138.0822986499164
6.116638208,0.9997142624234839,137.94638350638894
6.118925312,0.9997905633260556,137.8096183970359
6.121211904,0.9998803942137743,137.67166686478186
6.123499008,0.9999777532610177,137.53243362475737
6.125786112,1.000076477808759,137.3918060450482
6.128073216,1.0001704276122674,137.24985410665712
6.13036032,1.0002535924448186,137.10666565274158
6.132647424,1.0003205984729449,136.96242511364323
6.134934016,1.0003674357129633,136.81747290733188
6.13722112,1.0003906826693028,136.6720130227076
6.139508224,1.0003892916714936,136.5264440789967
6.141795328,1.0003628628070125,136.3811702787132
6.144082432,1.0003134906748232,136.23647174339095
6.146369536,1.0002440087150124,136.0927208332483
6.148656128,1.0001587456594703,135.9501502202699
6.150943232,1.0000634027357846,135.808912019661
6.153230336,0.9999637450650197,135.6691858500543
6.15551744,0.9998661076848171,135.5309491083789
6.157804544,0.9997769068923396,135.39411024920153
6.160091648,0.9997015192514919,135.25854041611038
6.162378752,0.9996448765336765,135.12400010651857
6.164665344,0.9996108556867209,134.99018953107716
6.166952448,0.9996014477293603,134.856747780198
6.169239552,0.9996170178360154,134.72330965446147
6.171526656,0.9996568901212857,134.5895532007389
6.17381376,0.9997187674305477,134.455087639948
6.176100864,0.9997981555981127,134.31965726933706
6.178387456,0.999890593319669,134.18304757816716
6.18067456,0.9999897913294237,134.04507862411123
6.182961664,1.0000898083673269,133.90575823016133
6.185248768,1.0001840890682967,133.76504423770936
6.187535872,1.0002667504030323,133.62311865072664
6.189822976,1.0003324213733928,133.48017284728482
6.192109568,1.0003771398579604,133.33646254177816
6.194396672,1.000397631615113,133.1923654790321
6.196683776,1.0003929311391118,133.0481629925981
6.19897088,1.0003631284259389,132.90431930278956
6.201257984,1.0003100836879515,132.76105648072087
6.203545088,1.0002373795620934,132.6188436254299
6.20583168,1.0001493006785471,132.47779158992336
6.208118784,1.0000515758255215,132.33818694287982
6.210405888,0.9999503569208132,132.20006472274343
6.212692992,0.9998521099737576,132.06343781544027
6.214980096,0.9997630009947502,131.92823710822728
6.2172672,0.9996887239372291,131.79428877974712
6.219553792,0.9996340026238368,131.66136779723686
6.221840896,0.9996026326498055,131.52912714669642
6.224128,0.9995960876100607,131.39719618222028
6.226415104,0.9996152853122009,131.265226892862
6.228702208,0.9996587329084109,131.13288643368594
6.230989312,0.9997238833655568,130.99981503145955
6.233275904,0.9998064947083114,130.8657025754669
6.235563008,0.9999013546008939,130.73037295529264
6.237850112,1.000002667481571,130.59363254807604
6.240137216,1.0001037687065646,130.455539728506
6.24242432,1.000198337009514,130.31605146262112
6.244711424,1.000280151130364,130.1753178043532
6.246998528,1.0003442927884427,130.03358623138232
6.24928512,1.0003865122398983,129.8911339408727
6.251572224,1.0004041436685285,129.74829986827763
6.253859328,1.0003959785580196,129.60545132771608
6.256146432,1.0003627139179263,129.4629416031022
6.258433536,1.000306196540213,129.32113378056022
6.26072064,1.0002298749790162,129.18038490030955
6.263007232,1.0001389493012993,129.0408732492218
6.265294336,1.0000390837100332,128.9027881113263
6.26758144,0.9999363193965984,128.7662639220653
6.269868544,0.9998375070419235,128.6312518851924
6.272155648,0.9997486455270782,128.49762836300118
6.274442752,0.9996755494204945,128.36529094516789
6.276729344,0.9996230117220449,128.2339044638566
6.279016448,0.9995942261594092,128.1031757583643
6.281303552,0.9995910567255659,127.97272317783991
6.283590656,0.9996137453064647,127.84219771130994
6.28587776,0.9996609883011206,127.71118762735493
6.288164864,0.999729699484102,127.57943978704479
6.290451456,0.9998155156919978,127.4465896547893
6.29273856,0.9999130624632625,127.31245481682275
6.295025664,1.000016029169642,127.17695217813555
6.297312768,1.0001182520964123,127.03999388805393
6.299599872,1.0002127038007467,126.90165468736208
6.301886976,1.0002938213804735,126.76209559619005
6.304173568,1.0003562266130526,126.62152491925845
6.306460672,1.0003959342381012,126.48026982028772
6.308747776,1.0004105339607303,126.33866680996448
6.31103488,1.0003989530119046,126.19710238510457
6.313321984,1.0003618254748115,126.05592221262084
6.315609088,1.000301616234099,125.91552884431316
6.317896192,1.000222089666174,125.77618994680178
6.320182784,1.0001281903180652,125.63815038192541
6.322469888,1.0000259453479767,125.50159530037536
6.324756992,0.9999219606715781,125.36660903655029
6.327044096,0.9998224342399326,125.23314091408612
6.3293312,0.9997342174614462,125.10110097025687
6.331618304,0.9996625480743532,124.97029305869701
6.333904896,0.9996121943381725,124.84041050265846
6.336192,0.9995863006718729,124.71113645832591
6.338479104,0.9995864958594277,124.5821096227725
6.340766208,0.9996129072322373,124.4529479481109
6.343053312,0.9996639342725497,124.32325263504569
6.345340416,0.9997362749846339,124.19275488488452
6.347627008,0.9998251934629653,124.06112614609638
6.349914112,0.9999253238278174,123.9281730930006
6.352201216,1.000030128768149,123.79376232362758
6.35448832,1.0001330935533626,123.65791704468938
6.356775424,1.0002276017711684,123.52067295005777
6.359062528,1.0003076491067535,123.38219000841195
6.36134912,1.000368144762465,123.24276900914789
6.363636224,1.0004052607658018,123.1026667845168
6.365923328,1.0004165399822706,122.96224397803181
6.368210432,1.0004011301373799,122.82193220825086
6.370497536,1.0003602832068632,122.68206633000861
6.37278464,1.0002962727925966,122.54301544333757
6.375071232,1.0002133726877094,122.40507509636245
6.377358336,1.0001165472347924,122.26847628263378
6.37964544,1.0000122444076225,122.13341836605619
6.381932544,0.9999068495820813,121.99990818262992
6.384219648,0.99980710875878,121.86796335418643
6.386506752,0.999719413554736,121.73744892756442
6.388793344,0.9996492849607277,121.60810429186215
6.391080448,0.9996013915562423,121.47969896677692
6.393367552,0.9995786208422751,121.3518402104854
6.395654656,0.999582442837062,121.2241680984972
6.39794176,0.9996128005231343,121.09633829349332
6.400228864,0.9996675240716323,120.96790572488901
6.402515968,0.9997435259203807,120.83860937175291
6.40480256,0.999835723471709,120.7080972226158
6.407089664,0.999938326639661,120.57626288935714
6.409376768,1.0000448518993035,120.44291407967519
6.411663872,1.0001484801834426,120.30811667351345
6.413950976,1.0002427960733262,120.17191906452855
6.41623808,1.000321648124425,120.03449510167079
6.418524672,1.0003800079724685,119.89612284820483
6.420811776,1.0004140801988706,119.75715736878846
6.42309888,1.0004220588283843,119.61790236917956
6.425385984,1.000402867457468,119.47877435353291
6.427673088,1.0003580970208619,119.34016176766818
6.429960192,1.0002902123563377,119.20244547325338
6.432246784,1.0002037583161918,119.06582831061232
6.434533888,1.000104146209666,118.93067265101499
6.436820992,0.9999977064826588,118.79705608486867
6.439108096,0.9998910573632087,118.66500562383582
6.4413952,0.999791176675259,118.53453280482556
6.443682304,0.9997042850854041,118.40544328003237
6.445968896,0.9996360382581065,118.27757587141878
6.448256,0.9995906692079386,118.15055895119183
6.450543104,0.9995711506415138,118.02408442728378
6.452830208,0.9995787700233196,117.89774553511319
6.455117312,0.9996129323551853,117.77117364754379
6.457404416,0.9996717363209783,117.64394637414279
6.459691008,0.9997514915091609,117.5157691079667
6.461978112,0.9998468735022118,117.38633775450896
6.464265216,0.9999518547144797,117.2555676731198
6.46655232,1.000060145560004,117.12322775174746
6.468839424,1.000164338137571,116.98940483168568
6.471126528,1.0002582128977704,116.85418897587627
6.473413632,1.000335755932756,116.71778273228811
6.475700224,1.0003917741814072,116.58045231113228
6.477987328,1.0004229746097109,116.44250841310723
6.480274432,1.0004271745043976,116.30438676172369
6.482561536,1.0004040775543734,116.16640196340721
6.48484864,1.0003551626489025,116.02901298515758
6.487135744,1.000283468331245,115.89256023629764
6.489422336,1.0001935275853038,115.75731091084758
6.49170944,1.00009121191331,115.62350261036734
6.493996544,0.9999825924770981,115.49126201644104
6.496283648,0.9998749589599273,115.36065346580044
6.498570752,0.9997750618851647,115.23160849177697
6.500857856,0.9996892232648051,115.10397585874298
6.503144448,0.9996228580468115,114.97746841245055
6.505431552,0.9995802953967561,114.85182409855258
6.507718656,0.9995642216008284,114.72667126589415
6.51000576,0.9995757678123514,114.60159354403666
6.512292864,0.9996140578660893,114.47620290756342
6.514579968,0.9996770524947924,114.35010521693286
6.51686656,0.9997603252418098,114.22300982685617
6.519153664,0.999858958476494,114.09464716975023
6.521440768,0.9999662994419103,113.96480187715296
6.523727872,1.0000760390011996,113.83344722444295
6.526014976,1.0001809535843857,113.70056888564046
6.52830208,1.0002741119909633,113.56627181212727
6.530588672,1.000349976132297,113.43081744039576
6.532875776,1.0004036623877501,113.2944616568068
6.53516288,1.0004314686607256,113.15755187112723
6.537449984,1.0004318479889365,113.0204610320724
6.539737088,1.0004046342859463,112.88364297975805
6.542024192,1.0003516010669202,112.74740315323545
6.544310784,1.0002760174937397,112.61217207518602
6.546597888,1.0001825534686457,112.47821992855727
6.548884992,1.0000773176710467,112.34574783571951
6.551172096,0.9999668861474675,112.2148767920344
6.5534592,0.9998583426003635,112.0856602168778
6.555746304,0.9997584923101247,111.95801607789953
6.558033408,0.9996738444396132,111.83172019698964
6.56032,0.9996097374450709,111.70658093538009
6.562607104,0.9995699901688403,111.58225879793706
6.564894208,0.999557626097793,111.45837641729453
6.567181312,0.9995732343833885,111.3344926007267
6.569468416,0.9996158070399865,111.21025113336093
6.57175552,0.9996828878782541,111.08523342125604
6.574042112,0.9997698592771026,110.95915467694552
6.576329216,0.9998716158036721,110.83173412958534
6.57861632,0.9999815659046486,110.70283313578558
6.580903424,1.0000924519366767,110.57237931823117
6.583190528,1.0001976235308396,110.4403877149098
6.585477632,1.000290237177778,110.30697760876399
6.587764224,1.0003643465354428,110.17240704634521
6.590051328,1.0004153297228986,110.03698567583609
6.592338432,1.00043961366443,109.90103392177006
6.594625536,1.0004359977437856,109.76499429410953
6.59691264,1.000404611039303,109.62922917688725
6.599199744,1.00034725810549,109.49413650103715
6.601486336,1.0002676713314633,109.36010055139694
6.60377344,1.0001707401344988,109.22740756858074
6.606060544,1.0000628214209746,109.09623173545477
6.608347648,0.999950621762476,108.96668741777303
6.610634752,0.9998411979715139,108.83880605677435
6.612921856,0.9997416707582419,108.71251688173214
6.615208448,0.9996583646990809,108.58757184045974
6.617495552,0.9995964191548354,108.46373132771068
6.619782656,0.9995600426569596,108.34068834995944
6.62206976,0.9995514470694244,108.21797857840905
6.624356864,0.999571291490525,108.0952499758634
6.626643968,0.9996182334599362,107.97208669844277
6.628931072,0.9996894417177339,107.84810819087248
6.631217664,0.999780317806198,107.72296434404625
6.633504768,0.9998851732572875,107.59646891418278
6.635791872,0.9999973213082592,107.46843897306212
6.638078976,1.0001095048306536,107.33879563861335
6.64036608,1.0002148334051173,107.20762518472459
6.642653184,1.0003064178089147,107.0750706350399
6.644939776,1.0003785837340224,106.94135130195993
6.64722688,1.0004265796266079,106.80680573527758
6.649513984,1.0004473739439654,106.67179982565024
6.651801088,1.0004396061059404,106.53671986317387
6.654088192,1.0004038139509193,106.40199477930801
6.656375296,1.0003420923416257,106.26804444962598
6.658661888,1.0002583500175541,106.13514692075846
6.660948992,1.0001581061736569,106.00367791569909
6.663236096,1.0000474732723015,105.87374835009209
6.6655232,0.9999336104400661,105.74549970859717
6.667810304,0.9998235086805278,105.61892008673271
6.670097408,0.9997244908727644,105.49394100226478
6.672384,0.999642758869711,105.3702869145211
6.674671104,0.9995834498822002,105.24769895849121
6.676958208,0.9995503822304591,105.12585497486072
6.679245312,0.9995458807515609,105.0043025912277
6.681532416,0.9995699872321692,104.88266874373387
6.68381952,0.9996214779802477,104.76052089426041
6.686106112,0.9996969206875952,104.63752188410146
6.688393216,0.9997915248222694,104.513279887645
6.69068032,0.9998994141200468,104.38762585692238
6.692967424,1.000013765798914,104.26040390837737
6.695254528,1.000127082184429,104.13156087045918
6.697541632,1.00023243198289,104.00115316786419
6.699828224,1.000322895890773,103.86936596987333
6.702115328,1.0003928683208365,103.73645052623468
6.704402432,1.000437684452356,103.60275629112546
6.706689536,1.000454764955857,103.46861465400825
6.70897664,1.0004426640917299,103.33449458616465
6.711263744,1.0004022691482246,103.20078016112846
6.713550848,1.000336222453942,103.06786690240733
6.71583744,1.0002484472774211,102.93610622754751
6.718124544,1.0001447655917086,102.80580544101034
6.720411648,1.0000313827713867,102.67708936164225
6.722698752,0.9999159701386923,102.55010664810388
6.724985856,0.9998054872719823,102.42478264820303
6.72727296,0.9997070971681364,102.30106392896896
6.729559552,0.9996270603123988,102.1786418414038
6.731846656,0.9995705968142506,102.0572946923189
6.73413376,0.999541143893442,101.93659120926623
6.736420864,0.9995408089199213,101.81613669023065
6.738707968,0.9995694615306491,101.69554197678346
6.740995072,0.9996255250127103,101.57435448346584
6.743281664,0.9997051959621988,101.45224614086399
6.745568768,0.9998036222481835,101.32886849671337
6.747855872,0.9999145432984521,101.2040102915945
6.750142976,1.0000308192874159,101.0775275991402
6.75243008,1.0001451973282607,100.94941188606899
6.754717184,1.0002503596463586,100.819721139931
6.757003776,1.0003394626004938,100.6886553444994
6.75929088,1.0004069546151613,100.55648162070639
6.761577984,1.0004485519704374,100.42356984041535
6.763865088,1.0004615185732866,100.29025938440499
6.766152192,1.0004449691281048,100.15705228492648
6.768439296,1.0004000259660133,100.02432321441829
6.770725888,1.0003294171008854,99.89243871265295
6.773012992,1.0002376207894421,99.76178552989461
6.775300096,1.0001303627698628,99.63262345092254
6.7775872,1.0000145744746662,99.505104013195
6.779874304,0.999897642514489,99.37931741266735
6.782161408,0.9997868743219338,99.2552276735186
6.784448512,0.9996893252363581,99.13270969169736
6.786735104,0.9996113666857231,99.01149592697168
6.789022208,0.9995578335824508,98.89129613119961
6.791309312,0.9995322924077608,98.77173788193198
6.793596416,0.9995362728547668,98.65232083938047
6.79588352,0.9995697101606873,98.5326909992019
6.798170624,0.9996302512451936,98.41242790024197
6.800457216,0.9997143328770158,98.29115441895338
6.80274432,0.9998166057743467,98.16854937974736
6.805031424,0.9999303746999731,98.04440660546375
6.807318528,1.0000487276083887,97.91861186027893
6.809605632,1.0001638745160242,97.79117517138955
6.811892736,1.0002685221348098,97.66215986679666
6.814179328,1.000356111370897,97.53176437270218
6.816466432,1.0004210067525485,97.40031232837667
6.818753536,1.0004591615269334,97.26813194769211
6.82104064,1.000467831144212,97.13564688218732
6.823327744,1.0004466156487475,97.00328458652082
6.825614848,1.000396960225628,96.87146942007095
6.82790144,1.000321702240497,96.74057852030988
6.830188544,1.0002257980895426,96.61100035298625
6.832475648,1.0001153612395381,96.48292375141861
6.834762752,0.9999971846347794,96.35656563517533
6.837049856,0.9998788280889772,96.23196766717346
6.83933696,0.9997680446645281,96.10908828320456
6.841623552,0.9996715741408576,95.98772410941747
6.843910656,0.9995957806791593,95.86768117163317
6.84619776,0.9995454709873066,95.74858052681586
6.848484864,0.9995239397795785,95.63003874824797
6.850771968,0.9995324201959203,95.51166068408008
6.853059072,0.9995705689166954,95.3929318989477
6.855345664,0.9996359569410724,95.27352003044714
6.857632768,0.9997244580088496,95.15300858105107
6.859919872,0.9998303927678496,95.03113492994655
6.862206976,0.9999471612890304,94.90767078565953
6.86449408,1.000067257238753,94.78251695585635
6.866781184,1.0001829616993343,94.65566069831469
6.869068288,1.0002870064422136,94.52727805745943
6.87135488,1.0003728363137234,94.39751220398385
6.873641984,1.0004349333403122,94.26671851497916
6.875929088,1.0004691466716638,94.1352403126101
6.878216192,1.0004735591271419,94.00353125803001
6.880503296,1.000447565472778,93.87200303523014
6.8827904,1.0003930496178814,93.7410561938848
6.885076992,1.0003132262601466,93.61116649817923
6.887364096,1.0002132026040609,93.48258440618282
6.8896512,1.0000994035402178,93.35560512803168
6.891938304,0.9999789308664415,93.23035045295082
6.894225408,0.9998594552049038,93.10687056074872
6.896512512,0.9997486790518527,92.98512875433723
6.898799104,0.9996535659344098,92.86491975376437
6.901086208,0.9995802212284508,92.74597529965115
6.903373312,0.9995334044786462,92.62793729812174
6.905660416,0.999516041148208,92.51040059848533
6.90794752,0.9995292574837974,92.39294909793603
6.910234624,0.9995724057037867,92.27510258642161
6.912521216,0.9996426363161484,92.15646399937818
6.91480832,0.9997355250902401,92.03669422167766
6.917095424,0.9998451022637026,91.91547541051618
6.919382528,0.9999646181683559,91.79260667196111
6.921669632,1.0000863612292759,91.66803839784212
6.923956736,1.0002025280832647,91.54175318713604
6.926243328,1.000305869277565,91.41389523111755
