freq,mag,phase
6.0,1.0001676854417583,-77.53828894212006
6.008743424,1.0001853992354477,-77.95154954806395
6.017486336,1.0001916043131203,-78.36509738108576
6.02622976,1.0001877463834568,-78.77874223428796
6.034972672,1.0001738491748804,-79.1924145080382
6.043716096,1.0001504322125425,-79.60600945365358
6.052459008,1.000118685387971,-80.01938115027045
6.061202432,1.000080488337093,-80.43238737045485
6.069945344,1.000037703212969,-80.84496885359339
6.078688768,0.9999923412866175,-81.25719691820426
6.08743168,0.9999470435128589,-81.6689054194796
6.096175104,0.9999038994192724,-82.08013986433434
6.104918016,0.9998653298134229,-82.49101600258054
6.11366144,0.9998331635175589,-82.90152898136527
6.122404352,0.9998092309227375,-83.31181489417148
6.131147776,0.9997946297564929,-83.72195486339558
6.139890688,0.9997902696986375,-84.13212208720172
6.148634112,0.9997963745449306,-84.54244881064349
6.157377024,0.9998125670727568,-84.952995364479
6.166120448,0.9998381472316235,-85.36398814207925
6.17486336,0.9998716559213686,-85.77545106880594
6.183606784,0.9999114792327803,-86.1875545639525
6.192349696,0.9999555934914052,-86.60031635733488
6.20109312,1.0000017242672632,-87.01378064693344
6.209836032,1.0000473436751391,-87.42804208628309
6.218579456,1.0000903032014745,-87.84296571269834
6.227322368,1.0001282415474508,-88.25857647500325
6.236065792,1.0001593475986408,-88.67474643702187
6.244808704,1.000181670201862,-89.09139357355737
6.253552128,1.0001944081181373,-89.50841351281865
6.26229504,1.0001968220912039,-89.92565428915667
6.271038464,1.0001885112642217,-90.34300458417083
6.279781376,1.000170184619204,-90.76026869974181
6.2885248,1.0001426831250257,-91.17741409491981
6.297267712,1.0001072321016289,-91.59426261849794
6.306011136,1.000065975890617,-92.01073366194031
6.314754048,1.0000207191828259,-92.42674968020567
6.323497472,0.9999739377711983,-92.84229762378634
6.332240384,0.999928018358869,-93.25740148136252
6.340983808,0.9998853936004541,-93.67200762440878
6.34972672,0.9998481594797641,-94.0862433514776
6.358470144,0.9998182980300608,-94.50019095567718
6.367213056,0.999797496117257,-94.9138652139491
6.37595648,0.9997866043890208,-95.32749566734799
6.384699392,0.9997863204545995,-95.74119131769848
6.393442816,0.9997968031057507,-96.15503101775519
6.402185728,0.999817381293954,-96.5692276073741
6.410929152,0.9998469294739152,-96.98392843347949
6.419672064,0.999884124066244,-97.39910914657929
6.428415488,0.9999270101784864,-97.8149663473259
6.4371584,0.9999734464850026,-98.23153886057717
6.445901824,1.0000208948551914,-98.64884871649504
6.454644736,1.0000669053492597,-99.06690699139493
6.46338816,1.0001091811111964,-99.48567660628864
6.472131072,1.0001455180529277,-99.90506279622508
6.480874496,1.0001741697328426,-100.32502064831172
6.489617408,1.0001933888243175,-100.74540648222487
6.498360832,1.0002023239858822,-101.16611576258705
6.507103744,1.000200361107288,-101.58699241707433
6.515847168,1.0001877767444673,-102.00789844419671
6.52459008,1.0001649924653642,-102.42872148862168
6.533333504,1.0001333955136171,-102.84930001901351
6.542076416,1.000094410964321,-103.26954560361092
6.55081984,1.0000500694786,-103.68937748619007
6.559562752,1.0000027600006198,-104.10871962751119
6.568306176,0.9999547380456556,-104.5275672548931
6.577049088,0.9999085984407886,-104.94591962333801
6.585792512,0.9998667468617436,-105.36384879543374
6.594535424,0.9998312869958645,-105.78135446082908
6.603278848,0.999804054473138,-106.19858827817
6.61202176,0.9997866022937,-106.61566564474096
6.620765184,0.9997796704386043,-107.03266456632441
6.629508096,0.9997837269358095,-107.44982134647998
6.63825152,0.9997986639950063,-107.86714744736051
6.646994432,0.9998235299419295,-108.28490987457059
6.655737856,0.9998572672828454,-108.70317636726519
6.664480768,0.9998978791211042,-109.12204312559072
6.673224192,0.9999437380010537,-109.54157974900123
6.681967104,0.9999920958826888,-109.96188641632394
6.690710528,1.0000405324061257,-110.38291466813466
6.69945344,1.0000867214095086,-110.80473466348775
6.708196864,1.0001280512352644,-111.22722268458679
6.716939776,1.000162551229125,-111.65027855343094
6.7256832,1.0001882924152201,-112.07391029078998
6.734426112,1.0002040508588481,-112.49795929553228
6.743169536,1.000208953439037,-112.92222345872491
6.751912448,1.0002027069730706,-113.34662844413951
6.760655872,1.0001855071630736,-113.77097510784306
6.769398784,1.000158428209431,-114.1951733602552
6.778142208,1.0001227891076077,-114.61907836784916
6.78688512,1.0000803862968064,-115.04260342714053
6.795628544,1.0000331910865137,-115.46566197872762
6.804371456,0.9999840207715114,-115.88821499271921
6.81311488,0.9999350669889367,-116.31023363262138
6.821857792,0.9998891318576917,-116.73173396495474
6.830601216,0.9998483714980432,-117.15281156309767
6.839344128,0.9998150187240797,-117.57352457320593
6.848087552,0.9997907798240635,-117.9939693116891
6.856830464,0.9997768842820796,-118.41427677295368
6.865573888,0.9997741193569829,-118.8345723692897
6.8743168,0.9997825923191089,-119.25506472154039
6.883060224,0.9998020852022925,-119.6758014134327
6.891803136,0.999831323601675,-120.09701638389755
6.90054656,0.9998690184384593,-120.51877783744624
6.909289472,0.9999131445103954,-120.94116884179448
6.918032896,0.9999615453135857,-121.36431211062724
6.926775808,1.0000116051611343,-121.78820807114288
6.935519232,1.000060840559699,-122.2128610744093
6.944262144,1.0001067585690329,-122.63826003945243
6.953005568,1.0001467699480173,-123.06434056989305
6.96174848,1.0001789775410743,-123.49101944394654
6.970491904,1.0002017299133013,-123.91815628312239
6.979234816,1.0002136722034893,-124.34566942095468
6.98797824,1.0002143627721325,-124.77333753890589
6.996721152,1.0002035465706476,-125.20110745452554
7.005464576,1.0001818576999244,-125.62875414097596
7.014207488,1.0001504336255274,-126.0561647311056
7.022950912,1.00011076946559,-126.4832743814439
7.031693824,1.00006509350223,-126.90989263345804
7.040437248,1.0000154135873567,-127.33601913076421
7.04918016,0.9999646594808812,-127.76159580619371
7.057923584,0.9999151578860084,-128.18662850322386
7.066666496,0.9998694761113651,-128.61119095041144
7.07540992,0.9998302244463486,-129.03525525687576
7.084152832,0.9997992355941339,-129.45898856734658
7.092896256,0.9997781669444241,-129.88250493458838
7.101639168,0.9997681917007125,-130.305910526426
7.110382592,0.9997697261750925,-130.72938106376884
7.119125504,0.9997828185554725,-131.1530510008151
7.127868928,0.9998067156070749,-131.57708074665018
7.13661184,0.9998403356769803,-132.00157513773985
7.145355264,0.9998819255548448,-132.42670673659464
7.154098176,0.9999293957193243,-132.85252941512854
7.1628416,0.9999801920575688,-133.27907576856586
7.171584512,1.0000317207374436,-133.7064191140249
7.180327936,1.0000814128634117,-134.13452390720127
7.189070848,1.0001266366385717,-134.56336168705255
7.197814272,1.000165121955816,-134.9928822371623
7.206557184,1.0001947640758466,-135.42292114344409
7.215300608,1.0002141547317178,-135.85342831445385
7.22404352,1.0002221416190138,-136.28423035910342
7.232786944,1.000218320119569,-136.71515946664343
7.241529856,1.0002029333520193,-137.14608813721875
7.25027328,1.0001765986575335,-137.57681484823303
7.259016192,1.0001408923109782,-138.00729336088628
7.267759616,1.0000973607894394,-138.43731498562136
7.276502528,1.0000484583242633,-138.86685549328092
7.285245952,0.9999965617737089,-139.29590589067976
7.293988864,0.9999443725731144,-139.72430353190688
7.302732288,0.9998945833109121,-140.15217395267214
7.3114752,0.9998497470323248,-140.57954436251683
7.320218624,0.9998122697566716,-141.00644325602423
7.328961536,0.9997839327609397,-141.43304483122714
7.33770496,0.999766412702653,-141.85946792293632
7.346447872,0.9997605217454962,-142.28581328218496
7.355191296,0.9997666623615689,-142.71225448752742
7.363934208,0.9997843861906087,-143.13896233686052
7.372677632,0.9998129738979663,-143.56608462644476
7.381420544,0.9998509161526528,-143.9937342714405
7.390163968,0.9998962368886452,-144.42202206585975
7.39890688,0.9999467857625671,-144.8510278573437
7.407650304,0.9999997417774904,-145.28084030374447
7.416393216,1.0000524665718538,-145.71143858938618
7.42513664,1.0001023414636723,-146.14282851377794
7.433879552,1.0001466749255432,-146.5749278849413
7.442622976,1.0001831709805893,-147.00763928677995
7.451365888,1.0002099663551374,-147.4408955474408
7.460109312,1.0002256723270666,-147.87453460680064
7.468852224,1.0002294288453142,-148.30841098435212
7.477595648,1.000221012522679,-148.74232603810376
7.48633856,1.000200857913495,-149.17616759597635
7.495081984,1.0001699551338337,-149.60981595287205
7.503824896,1.0001299449408196,-150.04308479358886
7.51256832,1.000082731257586,-150.47587924131201
7.521311232,1.000030780678915,-150.9081285201385
7.530054656,0.999976844549645,-151.33978712845104
7.538797568,0.9999236387799232,-151.77087030644083
7.547540992,0.9998739034784311,-152.20133495922826
7.556283904,0.9998301221584529,-152.63131468962928
7.565027328,0.9997946964498362,-153.06084998177502
7.57377024,0.9997694500883243,-153.49009165267
7.582513664,0.9997557214184224,-153.9191600267966
7.591256576,0.9997541958849521,-154.3482348050432
7.6,0.9997650222725963,-154.77748305988052
7.608743424,0.9997875805599874,-155.20699056509127
7.617486336,0.9998207803850181,-155.637008891613
7.62622976,0.9998629906310704,-156.06758377434193
7.634972672,0.9999121772490153,-156.49886309628502
7.643716096,0.9999654689423866,-156.9309036405566
7.652459008,1.0000204050445316,-157.36375055034264
7.661202432,1.0000740455332797,-157.7973974633911
7.669945344,1.0001237108293513,-158.23182373837943
7.678688768,1.0001667514169201,-158.6669321937059
7.68743168,1.000200979320676,-159.1026583389942
7.696175104,1.0002245766431876,-159.53885942833716
7.704918016,1.0002363413998707,-159.97539619986028
7.71366144,1.0002355651074304,-160.41207999821117
7.722404352,1.0002224649618976,-160.84878207495524
7.731147776,1.000197390412962,-161.28535939400683
7.739890688,1.000161856956729,-161.72159307674642
7.748634112,1.000117576181725,-162.15741631025372
7.757377024,1.0000666964220868,-162.59269439927334
7.766120448,1.000011975949713,-163.02739359496618
7.77486336,0.9999561540163349,-163.46145028125898
7.783606784,0.9999022296575055,-163.89489678411718
7.792349696,0.9998527128583987,-164.32772355360646
7.80109312,0.9998104464375958,-164.76005279731274
7.809836032,0.9997774747104501,-165.19197443887026
7.818579456,0.9997556280355633,-165.62364671086053
7.827322368,0.9997458316050377,-166.05516913879654
7.836065792,0.9997489308618743,-166.48671503427897
7.844808704,0.9997646097178671,-166.91850874737742
7.853552128,0.9997921454364148,-167.35065984155568
7.86229504,0.9998300254694618,-167.78329397428445
7.871038464,0.9998765602025209,-168.21657319568376
7.879781376,0.9999291123352416,-168.65062803684378
7.8885248,0.9999851707686499,-169.08543265733604
7.897267712,1.0000418283033499,-169.52108421571083
7.906011136,1.0000961324697057,-169.95752033184687
7.914754048,1.0001453204714015,-170.39475122288246
7.923497472,1.0001867382802894,-170.8326687093763
7.932240384,1.0002183969589586,-171.2711233225686
7.940983808,1.0002384720080773,-171.70998959805442
7.94972672,1.0002461058579228,-172.1491382334176
7.958470144,1.0002406720089283,-172.58841207150408
7.967213056,1.000222499135557,-173.0276147987971
7.97595648,1.0001925412074166,-173.4665703226791
7.984699392,1.0001522323033014,-173.90514217722742
7.993442816,1.0001037194131481,-174.34325196207206
8.002185728,1.0000493263178383,-174.7807508081648
8.010929152,0.9999920125372866,-175.21760598705052
8.019672064,0.9999346541793147,-175.65377995774713
8.028415488,0.9998801275047996,-176.08930961738966
8.0371584,0.999831340956333,-176.52426795560805
8.045901824,0.9997907987035545,-176.95868287318564
8.054644736,0.9997606055539342,-177.39272177901037
8.06338816,0.9997423777515944,-177.82651816460367
8.072131072,0.9997370043759771,-178.2602453170127
8.080874496,0.999744885297599,-178.69403793128814
8.089617408,0.9997656355947601,-179.12811467548497
8.098360832,0.9997981637157463,-179.56261333510747
8.107103744,0.999840737227951,-179.9976530758373
8.115847168,0.99989157465047,179.56660018688464
8.12459008,0.9999475300651941,179.13006288387416
8.133333504,1.0000061820176827,178.69273604766457
8.142076416,1.0000642434339795,178.25455977632313
8.15081984,1.0001189345334616,177.81555859508364
8.159562752,1.0001671630119504,177.37582458451004
8.168306176,1.0002068105916104,176.93543094201343
8.177049088,1.0002354073050996,176.49451094146193
8.185792512,1.0002516944306374,176.0532145420159
8.194535424,1.0002548213648141,175.61172072762562
8.203278848,1.0002443705508237,175.17020768148626
8.21202176,1.0002211424562533,174.72881237838948
8.220765184,1.0001861548897324,174.28774182599497
8.229508096,1.0001411242334137,173.84712064534023
8.23825152,1.0000884034008006,173.4070512595788
8.246994432,1.0000306363988902,172.9676437834201
8.255737856,0.9999708661810922,172.5289155155587
8.264480768,0.9999121362343352,172.09090799781066
8.273224192,0.9998574209717918,171.65356744706995
8.281967104,0.9998096072455245,171.2168427918468
8.290710528,0.9997712010701439,170.78059705871712
8.29945344,0.9997441164447284,170.3447381409323
8.308196864,0.9997298991148404,169.909077744067
8.316939776,0.9997291581516058,169.47343238230843
8.3256832,0.9997421686246992,169.0376758072012
8.334426112,0.9997681228845793,168.6015600894414
8.343169536,0.9998057873356229,168.16498887630146
8.351912448,0.9998532107743945,167.72780942007222
8.360655872,0.9999080496531803,167.28986196664786
8.369398784,0.9999674058611564,166.85113966484576
8.378142208,1.0000283561217844,166.41154999927537
8.38688512,1.000087639543273,165.9711118608038
8.395628544,1.000142255217681,165.5298597223313
8.404371456,1.0001893961096615,165.08788224173963
8.41311488,1.0002266630633052,164.6452699920509
8.421857792,1.000252032387819,164.2021975449812
8.430601216,1.000264229978768,163.75880264769336
8.439344128,1.0002624281130177,163.31527418677163
8.448087552,1.0002469027343597,162.8717940536126
8.456830464,1.0002181907681202,162.4285458648078
8.465573888,1.0001780458291292,161.98567964338383
8.4743168,1.0001282359911101,161.5433200151805
8.483060224,1.0000713486002832,161.10160342129876
8.491803136,1.0000103248309016,160.66060020598005
8.50054656,0.9999483230736899,160.2203243957875
8.509289472,0.9998884820270706,159.78082663034945
8.518032896,0.9998339539038694,159.34197264223883
8.526775808,0.999787401429151,158.9037643821492
8.535519232,0.9997514894334943,158.465993949979
8.544262144,0.9997279224855932,158.02861036914118
8.553005568,0.9997178928261173,157.5913719613627
8.56174848,0.9997221409014532,157.15409195923033
8.570491904,0.9997405002869055,156.716658665882
8.579234816,0.999771874815717,156.27881762771068
8.58797824,0.9998147595078238,155.8404407178595
8.596721664,0.9998669450166499,155.40139556364144
8.605464576,0.9999260166279129,154.96157983819316
8.614207488,0.999988549134218,154.5208879529395
8.6229504,1.000051586446115,154.07933914553718
8.631694336,1.0001118004404241,153.63693497023218
8.640437248,1.0001661624231648,153.19372734191953
8.64918016,1.0002118876350068,152.74978401760384
8.657923072,1.0002464938425102,152.30529154766373
8.666667008,1.0002680841784177,151.8603503177948
8.67540992,1.0002758285330091,151.4151739389107
8.684152832,1.0002688246510099,150.96994082135754
8.692895744,1.0002478607833807,150.52481911914217
8.70163968,1.0002137345381243,150.08000167259783
8.710382592,1.0001681629723855,149.63565611989006
8.719125504,1.0001136053133821,149.19191246613627
8.727868416,1.0000524817126184,148.74886870285562
8.736612352,0.9999883950847785,148.30660308866206
8.745355264,0.9999243476810569,147.8651161143149
8.754098176,0.9998637124210891,147.42439922802976
8.762841088,0.9998095834190363,146.98437448964006
8.771585024,0.9997648635066092,146.54497728627405
8.780327936,0.9997316857063524,146.1060392019754
8.789070848,0.9997120424474666,145.66739087104568
8.79781376,0.9997068408205665,145.22887382637145
8.806557696,0.9997163833718093,144.79028664904618
8.815300608,0.9997402985644087,144.35143837074745
8.82404352,0.9997773415315144,143.91213885149043
8.832786432,0.9998255799579415,143.47226843622602
8.841530368,0.9998826363330922,143.0316520158483
8.85027328,0.9999457436651121,142.59023082816387
8.859016192,1.0000114297997502,142.1478951989015
8.867759104,1.000076436499428,141.704666617047
8.87650304,1.0001373806971958,141.26056844393702
8.885245952,1.0001910213760146,140.8156822858402
8.893988864,1.0002348497671798,140.37012062264037
8.902731776,1.000266305122311,139.92400071807862
8.911475712,1.000284012694093,139.47751890454566
8.920218624,1.0002865731478863,139.03087325239878
8.928961536,1.0002743742397218,138.58422328994914
8.937704448,1.000247603903488,138.1377971798042
8.946448384,1.0002076928560097,137.69175204032533
8.955191296,1.0001566709873462,137.24627508906053
8.963934208,1.0000971554083777,136.8014449640478
8.97267712,1.0000321622629402,136.3574122313344
8.981421056,0.9999650047881365,135.9142023241419
8.990163968,0.9998991032242441,135.4718443847538
8.99890688,0.9998379410575572,135.03023865532197
9.007649792,0.9997845801495183,134.58936166558726
9.016393728,0.9997419534961174,134.1490843444678
9.02513664,0.9997121096297608,133.70924070208517
9.033879552,0.9996966705962359,133.26968697552203
9.042622464,0.9996966143391706,132.83016237589553
9.0513664,0.9997117984284791,132.39056183665576
9.060109312,0.9997416710423845,131.95060206817956
9.068852224,0.9997845711402368,131.51015416789477
9.077595136,0.9998382997951494,131.06903059122982
9.086339072,0.9999003152255612,130.6271202411537
9.095081984,0.9999674081551883,130.1843426215289
9.103824896,1.000035969927713,129.74065021203157
9.112567808,1.0001027107872658,129.29601474812335
9.121311744,1.0001640824324067,128.85052395222925
9.130054656,1.0002168676331828,128.40425891731886
9.138797568,1.000258340174479,127.95733978277116
9.14754048,1.0002863777578974,127.50992061948635
9.156284416,1.0002993426393547,127.06221203411927
9.165027328,1.0002967410774661,126.61437601530693
9.17377024,1.0002786557382932,126.1666552544636
9.182513152,1.0002457864872782,125.71923603035671
9.191257088,1.0001998188592427,125.27228240956619
9.2,1.000143282269389,124.82596149851368
9.208742912,1.000078798347453,124.38041280756329
9.217486848,1.0000097597177022,123.93570671713587
9.22622976,0.999939748504919,123.49187833108607
9.234972672,0.9998723475272707,123.04892776984296
9.243715584,0.9998109173436767,122.60677251147708
9.25245952,0.9997587856724727,122.16535510501518
9.261202432,0.9997186811512923,121.72451396708647
9.269945344,0.9996925291996422,121.28408755891523
9.278688256,0.999681843015124,120.8438832825676
9.287432192,0.9996872827747054,120.40369205973022
9.296175104,0.999708536443087,119.9633143650648
9.304918016,0.9997445889322669,119.52253728888205
9.313660928,0.9997936100620934,119.08118366467463
9.322404864,0.9998531490966327,118.63909746503138
9.331147776,0.999920026200812,118.19616844649462
9.339890688,0.9999910945299536,117.75231418716155
9.3486336,1.0000625722801586,117.30750497193358
9.357377536,1.000130697260787,116.86174984839113
9.366120448,1.0001920290184052,116.41515008952835
9.37486336,1.0002433666123454,115.96777309478209
9.383606272,1.0002820787511506,115.51976936382249
9.392350208,1.0003060873241223,115.07133871290077
9.40109312,1.0003141759276677,114.62266811384796
9.409836032,1.0003058659323132,114.17396708484098
9.418578944,1.00028138806502,113.72546793011018
9.42732288,1.0002421067429244,113.27734788883572
9.436065792,1.0001899823645366,112.82980314929378
9.444808704,1.0001275464159467,112.38297676636053
9.453551616,1.0000581069091252,111.93700220650426
9.462295552,0.9999851444234406,111.49192537849548
9.471038464,0.9999123761802315,111.04779100573944
9.479781376,0.9998436777139359,110.60456280010752
9.488524288,0.9997823484367818,110.16217865233484
9.497268224,0.9997318279865269,109.72049870450263
