freq,mag,phase
6.0,0.9996324400507011,58.046670797711705
6.002285568,0.9997993106842851,57.903090753140425
6.004571648,0.9999790380181014,57.75697089521931
6.006857216,1.0001605283871948,57.608209056882295
6.009142784,1.000332152819735,57.45684207400014
6.011428352,1.0004829939452557,57.3031203774218
6.013714432,1.0006036284696753,57.14740896423808
6.016,1.0006864119288943,56.99019193400438
6.018285568,1.0007260285087944,56.832091534429104
6.020571648,1.0007200151659068,56.673703360040214
6.022857216,1.0006687733529753,56.515709644333576
6.025142784,1.0005752814840219,56.35874462465617
6.027428352,1.0004457697425508,56.20337705521508
6.029714432,1.0002883033943515,56.05006992635404
6.032,1.0001127836447308,55.89913544602821
6.034285568,0.9999303639493343,55.750794603205975
6.036571648,0.9997526557915802,55.60505879550822
6.038857216,0.9995908096468399,55.4617620497063
6.041142784,0.9994551922025516,55.320608253665284
6.043428352,0.9993544369260403,55.18117299559781
6.045714432,0.9992947417671917,55.04286050765885
6.048,0.9992801961925718,54.90506832830535
6.050285568,0.9993115642487523,54.767136736982465
6.052571648,0.9993868889974445,54.62841692451852
6.054857216,0.999501449776556,54.48828444348761
6.057142784,0.9996478812907862,54.34620973541858
6.059428352,0.9998171339118027,54.20183035465201
6.061714432,0.9999981837905976,54.05488827986864
6.064,1.0001796930321138,53.905281485420986
6.066285568,1.0003501928715222,53.753080881592226
6.068571648,1.0004989520443193,53.59855117783866
6.070857216,1.000616396485201,53.44205193975598
6.073142784,1.0006950166832649,53.28410369841517
6.075428352,1.0007301365646466,53.12530491696708
6.077714432,1.0007192859254508,52.96629541478944
6.08,1.0006632139848688,52.80776011697872
6.082285568,1.0005654196448768,52.65030886540916
6.084571648,1.0004321424638556,52.49450342273673
6.086857216,1.0002717567214798,52.34081080320253
6.089142784,1.000094377402316,52.189530055519754
6.091428352,0.9999112422971181,52.04084181471762
6.093714432,0.9997340443303941,51.89476011430312
6.096,0.9995739602154904,51.751095352379004
6.098285568,0.999441143471774,51.60953741736038
6.100571648,0.9993439756824943,51.469628100603025
6.102857216,0.9992887984344647,51.33080294090221
6.105142784,0.9992789365954867,51.19242279083204
6.107428352,0.9993151175171476,51.05383020413236
6.109714432,0.9993949429057244,50.914358337050324
6.112,0.9995136779002247,50.77341431332761
6.114285568,0.9996634398818708,50.63050648731156
6.116571648,0.999834917026511,50.48521803734037
6.118857216,1.0000171990336741,50.33731815820088
6.121142784,1.000198775144167,50.18674781049069
6.123428352,1.0003681065443542,50.03360360569288
6.125714432,1.000514488931535,49.87814505869757
6.128,1.0006286352395175,49.720758029507145
6.130285568,1.0007033094358346,49.56197923821515
6.132571648,1.0007337522401263,49.40240386801286
6.134857216,1.0007181499770847,49.242671156396476
6.137142784,1.0006573822291733,49.08347771236273
6.139428352,1.0005552381712692,48.925419456524374
6.141714432,1.0004182224145173,48.76909661172432
6.144,1.000255015371005,48.61489301282162
6.146285568,1.0000758885815308,48.46313227800007
6.148571648,0.999892227963928,48.314007911769004
6.150857216,0.999715718016315,48.167448587070865
6.153142784,0.9995573882648134,48.023299945992115
6.155428352,0.9994274182528751,47.88122521205678
6.157714432,0.9993339493261548,47.74075119211095
6.16,0.9992831274401784,47.60128603397356
6.162285568,0.999277917777352,47.46219343629241
6.164571648,0.9993189355553317,47.32282016068506
6.166857216,0.9994034389261632,47.18249685882623
6.169142784,0.999526024111999,47.0406288416105
6.171428352,0.9996790579624143,46.89673696420934
6.173714432,0.9998528109869611,46.75043152496849
6.176,1.000036188053685,46.60147456399368
6.178285568,1.0002176158685456,46.44985682655305
6.180571648,1.0003856974766654,46.295665578503005
6.182857216,1.0005296762966134,46.13915381027164
6.185142784,1.0006404616910944,45.98078519475972
6.187428352,1.0007110750996402,45.82104413125691
6.189714432,1.0007370071188606,45.66057722344228
6.192,1.000716569615177,45.50001667459244
6.194285568,1.0006511174368424,45.34006726515902
6.196571648,1.0005448095419938,45.1813137015382
6.198857216,1.0004042190632378,45.024309992955914
6.201142784,1.0002383460840794,44.869518731277275
6.203428352,1.0000575997881436,44.71718948586845
6.205714432,0.9998734968193147,44.56748983665789
6.208,0.9996976965079749,44.42036037199572
6.210285568,0.9995412773641785,44.275591062858695
6.212571648,0.9994141647454312,44.132877931819884
6.214857216,0.9993245544446654,43.99170295952389
6.217142784,0.9992779776345871,43.85148145686778
6.219428352,0.9992776112589894,43.71155341339625
6.221714432,0.9993233590189667,43.571294334800584
6.224,0.9994122388083853,43.42999295138244
6.226285568,0.9995387415707511,43.28708932888673
6.228571648,0.999694844555376,43.14209586148055
6.230857216,0.999870686135479,42.99464270094467
6.233142784,1.0000550498603427,42.84453767044666
6.235428352,1.0002363127598015,42.691740528232344
6.237714432,1.0004029413284177,42.53638525466606
6.24,1.00054450197813,42.37872927762898
6.242285568,1.0006518758293377,42.21926102398512
6.244571648,1.000718417202717,42.05847238617641
6.246857216,1.0007397375930627,41.896995471754366
6.249142784,1.000714596784484,41.73552064553083
6.251428352,1.0006445824813033,41.574687159528665
6.253714432,1.0005340259007929,41.41513619726411
6.256,1.0003900787724915,41.25737333136064
6.258285568,1.0002215190960035,41.10184588091271
6.260571648,1.0000393378017112,40.94882541289319
6.262857216,0.9998548247873038,40.798420276193006
6.265142784,0.9996798416294116,40.65059097959532
6.267428352,0.999525363145462,40.50512892564225
6.269714432,0.9994012762961091,40.361644564740665
6.272,0.9993153994404776,40.219656026184204
6.274285568,0.9992733376067865,40.07855524122543
6.276571648,0.999277481409867,39.93769586718027
6.278857216,0.9993278769097254,39.79638118454033
6.281142784,0.9994211317875751,39.65399511977783
6.283428352,0.9995514732601488,39.5099403753119
6.285714432,0.9997106398875555,39.363747891290366
6.288,0.9998884562375676,39.215046852404804
6.290285568,1.0000736912454513,39.06366293859084
6.292571648,1.0002546532197572,38.90956999160097
6.294857216,1.000419854897908,38.75294458307691
6.297142784,1.0005588317181808,38.59404742537199
6.299428352,1.0006627812870796,38.433337594340635
6.301714432,1.0007251547998057,38.271388129753916
6.304,1.0007420183218116,38.108822593395814
6.306285568,1.0007122306665803,37.94628719628136
6.308571648,1.00063771252237,37.78450161791132
6.310857216,1.0005231302267845,37.623999242483045
6.313142784,1.0003756997805278,37.46536389181299
6.315428352,1.0002047529907028,37.3089972997503
6.317714432,1.0000210979791726,37.15517614704055
6.32,0.9998364404996423,37.00397240513131
6.322285568,0.9996623481566098,36.85533008059248
6.324571648,0.999509877049184,36.709022272410486
6.326857216,0.9993888344035727,36.564653592256505
6.329142784,0.9993067316400521,36.421730289911714
6.331428352,0.999268858252602,36.27962235690475
6.333714432,0.9992777926001049,36.1376894981076
6.336,0.999332746532419,35.99523921162787
6.338285568,0.9994303026018703,35.85164639159723
6.340571648,0.9995643495920427,35.706294846533716
6.342857216,0.9997263131558874,35.55877600044623
6.345142784,0.9999060407690354,35.4087023836046
6.347428352,1.0000920284191177,35.25594371724325
6.349714432,1.0002726313141888,35.10046159902087
6.352,1.0004362550196537,34.942433720652026
6.354285568,1.0005727475343604,34.782175157097285
6.356571648,1.0006732462072383,34.6201355526117
6.358857216,1.000731516338581,34.45691224470218
6.361142784,1.000743906529597,34.293137012467355
6.363428352,1.0007095334998608,34.12945849578372
6.365714432,1.000630542401715,33.96655513939998
6.368,1.0005119309326649,33.8050253808794
6.370285568,1.0003612237821098,33.645415739175434
6.372571648,1.000188001341228,33.48808173756817
6.374857216,1.0000030248906073,33.333326359192924
6.377142784,0.9998181350313573,33.18119699949161
6.379428352,0.9996450815498216,33.03160911801237
6.381714432,0.9994947270065813,32.88434793362292
6.384,0.9993766744043913,32.73896845500363
6.386285568,0.9992984458775787,32.59497630563807
6.388571648,0.9992649709728435,32.45176013824304
6.390857216,0.9992783166885691,32.30862077192662
6.393142784,0.9993378652869241,32.164925128946166
6.395428352,0.9994396238284431,32.019971629131746
6.397714432,0.9995772350916571,31.873254320220852
6.4,0.999742015716795,31.724273572589833
6.402285568,0.9999235452114333,31.572726082025316
6.404571648,1.000110259091739,31.418444928578182
6.406857216,1.00029031332984,31.261463003160625
6.409142784,1.000452421705688,31.101917899474525
6.411428352,1.0005862467668118,30.940204761583026
6.413714432,1.000683389792502,30.776738090316528
6.416,1.0007375475951505,30.612130098191646
6.418285568,1.0007455216670467,30.447006350906953
6.420571648,1.000706565206548,30.282073723006416
6.422857216,1.0006232145876324,30.117948478335762
6.425142784,1.0005008472734724,29.955277076979513
6.427428352,1.00034697867511,29.794531526743658
6.429714432,1.0001714590979638,29.636143688616816
6.432,0.9999853554092346,29.480329906770766
6.434285568,0.9998003702008491,29.327145343834225
6.436571648,0.9996283234197498,29.17650385999892
6.438857216,0.999480195860444,29.02813882686168
6.441142784,0.9993651634380747,28.881631989447843
6.443428352,0.9992906784212908,28.736445469173756
6.445714432,0.9992614615381441,28.591976105568946
6.448,0.999279358848068,28.447537089492368
6.450285568,0.9993432245231576,28.30242823384329
6.452571648,0.9994490748956483,28.156051552038704
6.454857216,0.9995902064754476,28.00780062031447
6.457142784,0.9997576566836134,27.857268950890994
6.459428352,0.9999408072048308,27.704112901759217
6.461714432,1.0001281020667705,27.548218970444367
6.464,1.0003075964036245,27.389605850684557
6.466285568,1.0004681569912304,27.228456440694504
6.468571648,1.000599408953704,27.06513181543476
6.470857216,1.0006929507627016,26.900132971741424
6.473142784,1.000743164132283,26.73401676869865
6.475428352,1.0007467569569064,26.567454842971593
6.477714432,1.0007032842155776,26.401122975276337
6.48,1.0006158149964042,26.235681147683298
6.482285568,1.0004896794472795,26.071722740187045
6.484571648,1.0003326733246796,25.909782833913326
6.486857216,1.0001550879151258,25.750184525607906
6.489142784,0.9999678587733258,25.593176318201962
6.491428352,0.9997828924155261,25.438818114879663
6.493714432,0.9996119771981012,25.286987712929417
6.496,0.9994659054368655,25.137412575148566
6.498285568,0.9993539274103518,24.989654062002458
6.500571648,0.9992831642192139,24.843175344578782
6.502857216,0.9992581622964021,24.69731449645086
6.505142784,0.9992805367546143,24.55140739857856
6.507428352,0.9993486901398912,24.404808182902272
6.509714432,0.9994585126849121,24.256835224671036
6.512,0.9996030011417091,24.106953597621253
6.514285568,0.9997730332371759,23.95471688264832
6.516571648,0.99995781739488,23.799859984097118
6.518857216,1.0001455685598615,23.64221239874999
6.521142784,1.0003244648413274,23.48187741590129
6.523428352,1.0004833581023354,23.31899856482351
6.525714432,1.0006119821793666,23.153971611775763
6.528,1.0007021985519426,22.98730743087229
6.530285568,1.000748440827258,22.819566697457894
6.532571648,1.0007476677160463,22.651455386463805
6.534857216,1.0006999749576293,22.483604928515128
6.537142784,1.0006082721650875,22.316725265394915
6.539428352,1.0004784716821713,22.151374237055403
6.541714432,1.000318583526862,21.988063110670304
6.544,1.0001389399228753,21.82715056012758
6.546285568,0.999950653489713,21.668847307697085
6.548571648,0.9997659020918577,21.513186980680082
6.550857216,0.9995960999124874,21.360042797501684
6.553142784,0.9994522364864056,21.209114355753385
6.555428352,0.9993432685767742,21.059966987890363
6.557714432,0.9992762048350287,20.912028841932873
6.56,0.9992553372929883,20.764661604699057
6.562285568,0.9992819418810719,20.617198284348756
6.564571648,0.9993544030617134,20.468949650237594
6.566857216,0.9994680811115313,20.319289113378673
6.569142784,0.9996158149971011,20.16766162369364
6.571428352,0.9997883215404072,20.01361678755503
6.573714432,0.9999744698312415,19.856924399738467
6.576,1.0001626341015597,19.697422285573314
6.578285568,1.0003409878660152,19.535208465092442
6.580571648,1.0004980175841804,19.37048765922978
6.582857216,1.00062410231405,19.20363848986693
6.585142784,1.0007109630707134,19.035194046624827
6.587428352,1.0007532550379028,18.865737046012903
6.589714432,1.0007483361917622,18.69591927214009
6.592,1.0006962661631724,18.5264566160823
6.594285568,1.0006006782686898,18.358003385567866
6.596571648,1.000467251592362,18.191148788040348
6.598857216,1.0003047098512372,18.026348524837815
6.601142784,1.0001230959454976,17.86398135279532
6.603428352,0.9999338912212146,17.704255034253578
6.605714432,0.9997491954094174,17.547163682869776
6.608,0.9995806336809813,17.392563830870976
6.610285568,0.9994389771587506,17.240166672838136
6.612571648,0.9993330762006709,17.08948317809583
6.614857216,0.9992697305658736,16.939977325187797
6.617142784,0.9992528458567362,16.790997246751765
6.619428352,0.9992836976979286,16.641819083028178
6.621714432,0.9993602531923996,16.491799651656642
6.624,0.9994777014303436,16.340299116727657
6.626285568,0.9996284779933184,16.18676940086114
6.628571648,0.9998033210767041,16.03083032691706
6.630857216,0.9999908844398111,15.872172562752976
6.633142784,1.000179440317582,15.710691148218539
6.635428352,1.000357032845401,15.546500921113005
6.637714432,1.0005124105220713,15.379806942498412
6.64,1.0006358487785494,15.211031247109654
6.642285568,1.0007194319105652,15.040676093343826
6.644571648,1.0007578494701488,14.869369518886844
6.646857216,1.0007487365462215,14.69776154330814
6.649142784,1.0006926703581407,14.526555158078603
6.651428352,1.0005931133817945,14.356403285407925
6.653714432,1.0004563182809194,14.187886738248936
6.656,1.0002909807183455,14.021502679109691
6.658285568,1.000107583878299,13.857551428477256
6.660571648,0.9999175617873438,13.696245884343565
6.662857216,0.9997330950949681,13.537599189460037
6.665142784,0.9995656764258422,13.381421390055387
6.667428352,0.9994261381399171,13.227402964563977
6.669714432,0.9993230601422217,13.075076812275173
6.672,0.999263285348389,12.923860016014194
6.674285568,0.9992504389332394,12.773104548445321
6.676571648,0.9992853433493998,12.622103890734717
6.678857216,0.9993659201850593,12.470188855138295
6.681142784,0.9994869616298458,12.316747632742516
6.683428352,0.9996407792044399,12.161220628271593
6.685714432,0.9998177907747827,12.003210003637955
6.688,1.0000066534506795,11.842474156087299
6.690285568,1.0001955224687553,11.67893061672688
6.692571648,1.0003723247166334,11.512606218067983
6.694857216,1.0005260797297237,11.343848113281775
6.697142784,1.000646921010939,11.173020322117662
6.699428352,1.0007272906422515,11.000644142062603
6.701714432,1.0007619357674389,10.827357959195695
6.704,1.0007488651039862,10.653833242824806
6.706285568,1.0006887936193838,10.480759188022748
6.708571648,1.0005854522847395,10.308791863816001
6.710857216,1.000445417401103,10.138499169332405
6.713142784,1.000277523595078,9.9703609303576
6.715428352,1.000092357539853,9.804714557618711
6.717714432,0.9999016065591015,9.641706708418909
6.72,0.9997174158827281,9.481346299624908
6.722285568,0.9995512993613932,9.323449244587271
6.724571648,0.9994138911047465,9.16770427103273
6.726857216,0.9993137405180046,9.013596657714222
6.729142784,0.9992574579569597,8.86053181844628
6.731428352,0.9992484783096834,8.70786130799178
6.733714432,0.9992873913016845,8.554933140602925
6.736,0.99937175975288,8.400995560581102
6.738285568,0.9994961452690687,8.24545740778118
6.740571648,0.9996529421409694,8.087799413492506
6.742857216,0.9998320833403782,7.92763073846413
6.745142784,1.0000221945157926,7.7647033738546565
6.747428352,1.000211235990906,7.598916709190739
6.749714432,1.0003873643147505,7.4303941343428415
6.752,1.0005393670392118,7.259434331500224
6.754285568,1.0006577854099528,7.086414533633082
6.756571648,1.0007348570302097,6.911889650166239
6.758857216,1.000765919956507,6.736513445461071
6.761142784,1.0007489722973038,6.56092652984389
6.763428352,1.0006850038548951,6.385866382959605
6.765714432,1.000578063479476,6.211935480860058
6.768,1.000434918935816,6.03975670013526
6.770285568,1.0002645337937164,5.869752431029102
6.772571648,1.0000777492776631,5.702241143668181
6.774857216,0.9998863161998737,5.5374151287723565
6.777142784,0.9997022678789106,5.375229513828447
6.779428352,0.9995374384881993,5.215475147140881
6.781714432,0.9994019722018261,5.057832953059837
6.784,0.9993047666156628,4.901791804532258
6.786285568,0.9992517879715717,4.746775229965145
6.788571648,0.999246535628733,4.592076700699171
6.790857216,0.999289256929574,4.437050948121278
6.793142784,0.999377347745217,4.280971556950471
6.795428352,0.9995051307745508,4.123216306911669
6.797714432,0.9996646029324486,3.963308452841943
6.8,0.9998457505245711,3.800853961056139
6.802285568,1.0000369851825253,3.635571802716036
6.804571648,1.0002263696069829,3.467459810032215
6.806857216,1.0004016778100893,3.2966274917590654
6.809142784,1.0005520669630892,3.1233278476933437
6.811428352,1.000667912549641,2.948019008872386
6.813714432,1.0007420049773852,2.771226006599362
6.816,1.000769525764817,2.5936157650371663
6.818285568,1.0007488714087776,2.41587823161891
6.820571648,1.0006810655578786,2.2386664312934963
6.822857216,1.0005707121046516,2.0626759866527054
6.825142784,1.0004246694836456,1.8884342251352322
6.827428352,1.0002518062808297,1.716427420490195
6.829714432,1.0000635460747436,1.546962507172859
6.832,0.9998713460500372,1.38015062917068
6.834285568,0.9996876666945721,1.215968619082692
6.836571648,0.999523918119954,1.0542528394925965
6.838857216,0.9993905270637401,0.8945969183793743
6.841142784,0.9992961356526793,0.7365065467771347
6.843428352,0.999246424761524,0.5793758115900718
6.845714432,0.9992447396876378,0.42251912924490026
6.848,0.9992911622486779,0.2652632010804871
6.850285568,0.9993828644161556,0.10689978387487005
6.852571648,0.9995138180480839,-0.053169581963897025
6.854857216,0.9996759643084658,-0.2154566568483369
6.857142784,0.9998590701343556,-0.3803371275490002
6.859428352,1.0000513510588738,-0.5480437718087778
6.861714432,1.0002407982057833,-0.7186255083998585
6.864,1.0004154225878175,-0.8919249801653623
6.866285568,1.0005642370367662,-1.0676541458752131
6.868571648,1.0006778171745783,-1.2454008620567674
6.870857216,1.0007488411415297,-1.4245831606436548
6.873142784,1.0007730348778776,-1.6045317352277464
6.875428352,1.0007487159128297,-1.7845748280280604
6.877714432,1.000677502742499,-1.9640285840964944
6.88,1.0005638137968025,-2.142253153943867
6.882285568,1.0004148258868155,-2.318655785407417
6.884571648,1.0002398409376974,-2.492775913053889
6.886857216,1.0000499922443966,-2.6643877805915723
6.889142784,0.9998571857345716,-2.8333038433328914
6.891428352,0.999673765520245,-2.999582422321298
6.893714432,0.9995111300142272,-3.1634503265049725
6.896,0.9993797878388567,-3.325258859173883
6.898285568,0.9992877788708331,-3.485544565491227
6.900571648,0.9992413817249393,-3.6449300242187914
6.902857216,0.999243090116192,-3.804063371073294
6.905142784,0.9992931031889002,-3.963663155791843
6.907428352,0.9993880439679315,-4.124437243048444
6.909714432,0.9995221008800574,-4.286953326742072
6.912,0.9996868951187912,-4.451742822375408
6.914285568,0.9998717711249567,-4.619173998678347
6.916571648,1.0000650652036274,-4.78944835582164
6.918857216,1.0002546473963616,-4.962592190069979
6.921142784,1.000428664420356,-5.13846459863186
6.923428352,1.0005758611036326,-5.316763044451227
6.925714432,1.0006871446551244,-5.497055450697594
6.928,1.0007554351573236,-5.678749462329546
6.930285568,1.000776429467255,-5.861175849102989
6.932571648,1.0007487047441468,-6.04365485086165
6.934857216,1.0006740160327026,-6.225494293083663
6.937142784,1.0005571784796563,-6.406050152321173
6.939428352,1.000405463844697,-6.584743903770694
