freq,mag,phase
6.0,1.0012511066944758,81.93664897512147
6.002287104,1.0010647571772175,81.76377974218626
6.004574208,1.000811740984897,81.59410934116838
6.006861312,1.0005078373658023,81.42849599507755
6.009147904,1.0001720958761877,81.26751976915793
6.011435008,0.9998256492188478,81.11148423697998
6.013722112,0.9994905022233953,80.96044487713036
6.016009216,0.999187862839507,80.81405113263294
6.01829632,0.9989367385884319,80.67168604898083
6.020583424,0.9987531365782631,80.53250751849751
6.022870016,0.9986488376693943,80.39544471691751
6.02515712,0.9986302719264976,80.25930185447713
6.027444224,0.9986987107235378,80.12279859633037
6.029731328,0.9988499397254973,79.98471855923233
6.032018432,0.9990741836118847,79.84392745771254
6.034305536,0.999357399801494,79.6994554268996
6.036592128,0.9996817684174191,79.55057842359652
6.038879232,1.0000266253645569,79.39686778430597
6.041166336,1.000370209844985,79.23815346843944
6.04345344,1.0006908851508263,79.07464619330966
6.045740544,1.0009684549202564,78.90682480276577
6.048027648,1.0011852829730787,78.73542467586192
6.05031424,1.0013278799874659,78.56143326211415
6.052601344,1.0013871235060081,78.38601097390804
6.054888448,1.0013592029716791,78.21035516462376
6.057175552,1.0012460191566812,78.03574222829074
6.059462656,1.001054645341795,77.86333111769993
6.06174976,1.000796932418485,77.69418602547364
6.064036352,1.0004893441598741,77.52915868105802
6.066323456,1.0001509276889469,77.36880294505936
6.06861056,0.999803393697989,77.21342319379531
6.070897664,0.9994684499296274,77.06303998202847
6.073184768,0.9991673975445783,76.91727868735144
6.075471872,0.9989191229405028,76.77552026267036
6.077758464,0.9987396537196012,76.63689886973098
6.080045568,0.9986401738832934,76.50033040909274
6.082332672,0.9986270743693105,76.36457907772196
6.084619776,0.9987012113686728,76.2284060136715
6.08690688,0.9988578169725552,76.09058724657899
6.089193984,0.9990871252488139,75.94993645333615
6.091481088,0.999374605313197,75.80556982399158
6.09376768,0.9997020168623665,75.6567221045574
6.096054784,1.0000487482784688,75.50300235125063
6.098341888,1.0003927934427528,75.34426712182034
6.100628992,1.000712388459733,75.18074502339886
6.102916096,1.000987684863407,75.01292105143472
6.1052032,1.0012009893510052,74.84157543810181
6.107489792,1.001339042245135,74.66769106955188
6.109776896,1.0013929263379058,74.4924374832313
6.112064,1.0013595434550628,74.31701400852114
6.114351104,1.0012406870729706,74.14271550932783
6.116638208,1.0010439331020358,73.97070622186347
6.118925312,1.0007816318860991,73.80203661333032
6.121211904,1.0004702522363396,73.63751699149586
6.123499008,1.000129526549008,73.47773156056411
6.125786112,0.999780823732468,73.32295940460479
6.128073216,0.9994462024263046,73.17315654750045
6.13036032,0.9991467932866478,73.02798059569405
6.132647424,0.9989016234860505,72.88677566844997
6.134934016,0.9987262691854661,72.7486342650489
6.13722112,0.998631758789029,72.61247788727167
6.139508224,0.9986241527305867,72.47706759395592
6.141795328,0.9987039612175438,72.34116788457142
6.144082432,0.9988661804731725,72.20349252682156
6.146369536,0.9991005341056509,72.0629502652434
6.148656128,0.9993921601272798,71.91859211486816
6.150943232,0.9997226988925835,71.7697098616855
6.153230336,1.0000711829417386,71.6159206605029
6.15551744,1.000415533649778,71.45712170741972
6.157804544,1.000734181850935,71.29350065962002
6.160091648,1.0010069833104118,71.12560075369865
6.162378752,1.0012166272485368,70.95422777579874
6.164665344,1.0013500220800686,70.7803980234138
6.166952448,1.0013986410128277,70.60522381310831
6.169239552,1.001359563129893,70.42999975630256
6.171526656,1.0012350310286726,70.25595796420568
6.17381376,1.0010329024161804,70.08429538539524
6.176100864,1.0007659885215814,69.91602732835324
6.178387456,1.000450941378886,69.7519763553263
6.18067456,1.000107721708961,69.59270971547275
6.182961664,0.9997580258878697,69.43846188245631
6.185248768,0.9994237329571778,69.28919934737844
6.187535872,0.9991262367346144,69.14453739869343
6.189822976,0.9988841322106452,69.00379003730517
6.192109568,0.998712902521228,68.86609807203578
6.194396672,0.9986235969621847,68.730286403364
6.196683776,0.9986215844925093,68.59514596648324
6.19897088,0.998707132096115,68.45943087372628
6.201257984,0.9988749253557686,68.32185220403846
6.203545088,0.9991142581786916,68.18132587506149
6.20583168,0.9994101509575702,68.03692405512126
6.208118784,0.9997435412599271,67.8879415017759
6.210405888,1.0000937829445815,67.73401404391467
6.212692992,1.000438475122224,67.57504897427845
6.214980096,1.0007559094960894,67.41127635317352
6.2172672,1.0010261609618265,67.24324655989838
6.219553792,1.001232103507448,67.0718036188755
6.221840896,1.0013607425971351,66.89791401047917
6.224128,1.0014038382356438,66.7228149012913
6.226415104,1.0013590732079531,66.54771727429714
6.228702208,1.0012286897809903,66.37388039363788
6.230989312,1.0010212999060395,66.20248208798704
6.233275904,1.0007498197248859,66.03457555778911
6.235563008,1.0004311825999572,65.87091846855367
6.237850112,1.0000855897245977,65.71209843009245
6.240137216,0.9997348134854154,65.55832598420166
6.24242432,0.9994010507049239,65.40954066945787
6.244711424,0.9991054664942057,65.26533763807656
6.246998528,0.998866593325086,65.1250019155375
6.24928512,0.9986997901306108,64.98764419902183
6.251572224,0.9986155094619543,64.85213207055013
6.253859328,0.9986191760700583,64.71721109672976
6.256146432,0.9987105428269437,64.5815825775353
6.258433536,0.9988840547919023,64.4440563734492
6.26072064,0.9991284284947077,64.30348575875529
6.263007232,0.9994283611528629,64.15896137654228
6.265294336,0.9997648758889905,64.00980938908526
6.26758144,1.0001166872911902,63.855663668757394
6.269868544,1.0004615768102478,63.69648053637717
6.272155648,1.000777781163817,63.53249042342375
6.274442752,1.001045345135019,63.36427769536988
6.276729344,1.0012474037463754,63.192677529256756
6.279016448,1.0013712614014687,63.01870836642139
6.281303552,1.0014090008677217,62.84356848454647
6.283590656,1.0013582504543819,62.668542425764905
6.28587776,1.0012222429523718,62.4948499537424
6.288164864,1.001009480429826,62.3236760839236
6.290451456,1.0007333459588819,62.15605234506657
6.29273856,1.000411131842599,61.99276046243476
6.295025664,1.0000632312399504,61.83431385340039
6.297312768,0.9997116192288912,61.68094861126878
6.299599872,0.9993784153269326,61.532582175529605
6.301886976,0.9990847358278627,61.38874047297828
6.304173568,0.99884924036287,61.248780299717616
6.306460672,0.9986868734581701,61.11170931770776
6.308747776,0.9986078407675796,60.976408556425476
6.31103488,0.9986173074813919,60.84161347056159
6.313321984,0.9987145115571779,60.706046696438264
6.315609088,0.9988935564708785,60.56847397974529
6.317896192,0.9991429979850732,60.42778448729224
6.320182784,0.9994469660629669,60.2830659194282
6.322469888,0.9997864599309485,60.13367431725584
6.324756992,1.000139871381058,59.979255730744924
6.327044096,1.0004848697076032,59.81978194739444
6.3293312,1.0007997670524131,59.65550167924449
6.331618304,1.0010645776899592,59.487031219299354
6.333904896,1.0012627233627018,59.31521374141808
6.336192,1.001381657793683,59.141101812945706
6.338479104,1.0014138453399786,58.96588164494668
6.340766208,1.0013573835519907,58.79086148937013
6.343053312,1.001215515498728,58.61725819760042
6.345340416,1.0009974266275992,58.4462418926876
6.347627008,1.0007166827797402,58.27884181686168
6.349914112,1.0003909321854636,58.11583346906221
6.352201216,1.0000407553771262,57.957737803497935
6.35448832,0.9996882411001636,57.80469584076464
6.356775424,0.9993557408490255,57.65666623705909
6.359062528,0.9990641765043867,57.51315399429401
6.36134912,0.9988320359982548,57.373484051477995
6.363636224,0.9986741174109443,57.23662925843393
6.365923328,0.998600320597586,57.10147795157465
6.368210432,0.9986155255953872,56.96674866353191
6.370497536,0.9987186940144183,56.83116926732032
6.37278464,0.998903366364076,56.693492772539
6.375071232,0.9991576876658367,56.55261013897056
6.377358336,0.9994658120080034,56.40764622624697
6.37964544,0.9998082422906234,56.25793006511369
6.381932544,1.0001630721495463,56.103163892734855
6.384219648,1.0005081123569457,55.94333622832518
6.386506752,1.0008215989356728,55.778721370803005
6.388793344,1.0010836141749289,55.609916184839605
6.391080448,1.0012777518510836,55.4378268839677
6.393367552,1.0013917210513081,55.263512401987946
6.395654656,1.0014184230714602,55.088179250796
6.39794176,1.0013560006910551,54.91307823672522
6.400228864,1.001208376918895,54.739494996588334
6.402515968,1.0009849452981026,54.568580564263755
6.40480256,1.0006995877472349,54.40135677913324
6.407089664,1.000370444777862,54.23857858871789
6.409376768,1.0000180832297878,54.080725137106135
6.411663872,0.9996647756148697,53.92800529564797
6.413950976,0.9993329859301027,53.78024437441016
6.41623808,0.9990436049615868,53.637003791065794
6.418524672,0.9988149047514756,53.49754893284544
6.420811776,0.9986615343031109,53.36084806147467
6.42309888,0.9985931969204899,53.22578383685036
6.425385984,0.9986141854154911,53.09106152801041
6.427673088,0.9987232644549278,52.95535398245109
6.429960192,0.9989134693628736,52.81749582777553
6.432246784,0.999172844194588,52.67637191887539
6.434533888,0.9994849831137468,52.531075876263515
6.436820992,0.999830153181,52.38100510101108
6.439108096,1.0001864831074352,52.22582623416482
6.4413952,1.0005315248483049,52.06555297093248
6.443682304,1.000843368219954,51.900528247562384
6.445968896,1.0011025945171759,51.731363177040684
6.448256,1.0012926257229917,51.55891830473113
6.450543104,1.0014015945849883,51.384346559703815
6.452830208,1.0014225948918403,51.20878504207725
6.455117312,1.001354264700501,51.03356286313162
6.457404416,1.0012009358783123,50.859965996724306
6.459691008,1.0009721301826362,50.68909121225234
6.461978112,1.0006823623136278,50.521976262646305
6.464265216,1.0003496741607438,50.35936510451478
6.46655232,0.9999951633269722,50.201705791507244
6.468839424,0.999641298937267,50.04921398533301
6.471126528,0.9993102906937718,49.901674719503355
6.473413632,0.999023109013655,49.75862988111003
6.475700224,0.9987979860850087,49.61932743620499
6.477987328,0.9986491980248304,49.48271469753646
6.480274432,0.9985861850852779,49.347655367208965
6.482561536,0.9986130553003976,49.212861049704294
6.48484864,0.9987279608825989,49.07701004280346
6.487135744,0.9989238475724886,48.938903808843456
6.489422336,0.9991881324147884,48.797458043115384
6.49170944,0.99950427823766,48.65176107504901
6.493996544,0.9998522094861205,48.50124819006133
6.496283648,1.0002099012365084,48.345585811255944
6.498570752,1.0005548057129838,48.18484032353628
6.500857856,1.0008651503616766,48.01934111114137
6.503144448,1.001121331515734,47.84971421108042
6.505431552,1.001307256676928,47.67687443058961
6.507718656,1.0014111764673823,47.50196050256397
6.51000576,1.0014265391891495,47.326156085208005
6.512292864,1.0013522783862645,47.15077665371616
6.514579968,1.0011931940453875,46.97705992848296
6.51686656,1.0009591345277,46.80617362662433
6.519153664,1.0006647973013338,46.639105077352895
6.521440768,1.000328788626286,46.476601698598294
6.523727872,0.9999722712600269,46.31909093366637
6.526014976,0.9996177651040133,46.166738069528606
6.52830208,0.9992876290165195,46.01936278348553
6.530588672,0.9990027537564108,45.87645547320288
6.532875776,0.998781204783628,45.73720972932419
6.53516288,0.9986371601267214,45.60062906144229
6.537449984,0.9985795920024756,45.465515125040504
6.539737088,0.9986122718476738,45.33058323527304
6.542024192,0.9987330709965995,45.194496237223994
6.544310784,0.9989345257920356,45.056100894581945
6.546597888,0.9992037260579412,44.91423637238139
6.548884992,0.9995237763238041,44.76809601403965
6.551172096,0.9998743363212275,44.61706945128465
6.5534592,1.0002333330261373,44.46087517962608
6.555746304,1.0005780641516835,44.29957772144518
6.558033408,1.0008867326611295,44.13351918203185
6.56032,1.0011400297947846,43.96340708708732
6.562607104,1.0013217371530332,43.790116025573354
6.564894208,1.0014205650015369,43.61479882861848
6.567181312,1.0014302076616586,43.438686402323334
6.569468416,1.0013500997123357,43.26304620108807
6.57175552,1.0011852825433623,43.08918101205153
6.574042112,1.0009459038241115,42.918219159306496
6.576329216,1.0006471714854954,42.75114348549749
6.57861632,1.0003078546674329,42.588663934941955
6.580903424,0.9999494111770223,42.43125116713458
6.583190528,0.999594319109459,42.27899250118267
6.585477632,0.9992651004378261,42.13170644099695
6.587764224,0.9989826144309432,41.98884382102414
6.590051328,0.9987647813797426,41.84961895679417
6.592338432,0.9986252791242568,41.71300245078195
6.594625536,0.9985732040893368,41.577760516515795
6.59691264,0.9986117409913092,41.44262203669613
6.599199744,0.9987384421710485,41.30625718393534
6.601486336,0.9989453982173188,41.16746669010641
6.60377344,0.9992195106544534,41.02514604907126
6.606060544,0.9995434104872051,40.87848459914007
6.608347648,0.9998966221056254,40.72687014275879
6.610634752,1.0002568762929827,40.57007559901289
6.612921856,1.0006013215023266,40.40817465912676
6.615208448,1.000908293949395,40.24152176813289
6.617495552,1.001158469054576,40.07083516970992
6.619782656,1.001335951027174,39.8970295859727
6.62206976,1.0014296972830083,39.72124135599327
6.624356864,1.0014337451522133,39.54475721393827
6.626643968,1.0013476884353956,39.36881433441334
6.628931072,1.0011770633605042,39.19472982717105
6.631217664,1.0009325572339909,39.02363567418741
6.633504768,1.0006294604268362,38.856467924567255
6.635791872,1.0002869466777113,38.69398020136374
6.638078976,0.9999264987951831,38.536585008151825
6.64036608,0.999570957394951,38.3843666926129
6.642653184,0.9992427852909158,38.23709765748519
6.644939776,0.9989627154042198,38.09422656070944
6.64722688,0.9987485697060933,37.954961918473664
6.649513984,0.9986138243035844,37.81822701314967
6.651801088,0.9985671459617275,37.682792049866485
6.654088192,0.9986115301919285,37.547362429591765
6.656375296,0.998744156645637,37.41064303129646
6.658661888,0.9989565900923867,37.27139539327582
6.660948992,0.9992355483446581,37.128555394418534
6.663236096,0.9995632229265844,36.9812962143018
6.6655232,0.9999189651035698,36.82906551175868
6.667810304,1.0002803268783134,36.67160346055463
6.670097408,1.0006244767938597,36.50902558867788
6.672384,1.0009297218782962,36.34171024001424
6.674671104,1.001176718005024,36.1703754052128
6.676958208,1.001350002732136,35.99599926099205
6.679245312,1.0014386401961115,35.819717658861734
6.681532416,1.0014369428577752,35.64276748741169
6.68381952,1.0013450825040113,35.46649118333003
6.686106112,1.0011688496825573,35.29211354999792
6.688393216,1.00091907762558,35.120822455030925
6.69068032,1.00061166480836,34.953523978772125
6.692967424,1.000265958530951,34.79095164376882
6.695254528,0.9999036712571401,34.633502004123
6.697541632,0.999547716247635,34.48123894499991
6.699828224,0.9992205806774188,34.33394329875266
6.702115328,0.9989430851339977,34.19101297323358
6.704402432,0.9987326461393221,34.05162984018292
6.706689536,0.9986026493430656,33.914699982457925
6.70897664,0.998561412172134,33.77900374986432
6.711263744,0.9986115916419909,33.64323279811394
6.713550848,0.9987500301452661,33.50608398640197
6.71583744,0.9989679493356514,33.366322895497774
6.718124544,0.9992516031532518,33.22290705644688
6.720411648,0.9995830214587614,33.07499434972589
6.722698752,0.9999412601920482,32.92203413141001
6.724985856,1.0003037582336867,32.7638455122411
6.72727296,1.000647488438226,32.60052855116627
6.729559552,1.000950829445849,32.43248450450809
6.731846656,1.001194731855768,32.260471245553795
6.73413376,1.001363748431397,32.08545109513092
6.736420864,1.0014472321742234,31.9085809302535
6.738707968,1.0014398490786771,31.73114046512685
6.740995072,1.0013421769043958,31.554447572577956
6.743281664,1.0011602213664286,31.379761447189928
6.745568768,1.0009053077594963,31.20819722545561
6.747855872,1.00059371920496,31.04070545895529
6.750142976,1.0002448321826367,30.87797891112727
6.75243008,0.9998808376068143,30.720426689049667
6.754717184,0.9995245126987815,30.568058765069043
6.757003776,0.999198537021788,30.42063775093484
6.75929088,0.9989234835063304,30.277576192437103
6.761577984,0.9987167844297943,30.138021959006327
6.763865088,0.998591515122181,30.00084598240836
6.766152192,0.9985557041368804,29.864833273980658
6.768439296,0.9986116577876709,29.728659409422402
6.770725888,0.9987558577874245,29.590999857495028
6.773012992,0.9989792559726713,29.450660927092272
6.775300096,0.9992675789967514,29.30658179754214
6.7775872,0.9996026424115897,29.157946751308113
6.779874304,0.9999633651829457,29.004241724404938
6.782161408,1.0003268037947683,28.845272720153194
6.784448512,1.00067016686,28.68113223743568
6.786735104,1.0009716951884413,28.5123194893359
6.789022208,1.0012124075721842,28.33954864561285
6.791309312,1.0013771265912494,28.16383107552153
6.793596416,1.0014555027261598,27.986344182716294
6.79588352,1.0014425326131837,27.80833031114631
6.798170624,1.0013390609325141,27.63115998906267
6.800457216,1.0011514004889048,27.456048880137644
6.80274432,1.0008916282716587,27.284165685358193
6.805031424,1.0005758138928538,27.1164296826329
6.807318528,1.0002239092439915,26.95350790164031
6.809605632,0.9998581131590356,26.795752192639714
6.811892736,0.9995015451503199,26.64324398166271
6.814179328,0.9991767305263061,26.495649551307608
6.816466432,0.998904217460566,26.35237038984162
6.818753536,0.9987012013345438,26.212559964522296
6.82104064,0.9985807128357748,26.075059182629463
6.823327744,0.9985503438371252,25.93866656417299
6.825614848,0.9986120141853004,25.802005086889753
6.82790144,0.9987620477365207,25.663808514709643
6.830188544,0.9989906769994557,25.522821703657876
6.832475648,0.9992836119948014,25.378009923015124
6.834762752,0.9996222762585533,25.228604858862546
6.837049856,0.9999853609307956,25.07406335749659
6.83933696,1.0003498827327548,24.914232407436483
6.841623552,1.000692638560976,24.74925254331013
6.843910656,1.0009923544741401,24.57960462258451
6.84619776,1.0012298488002793,24.406002135010578
6.848484864,1.0013903562613293,24.22953059865668
6.850771968,1.0014635894401096,24.051338743402347
6.853059072,1.0014450407795257,23.87273073030385
6.855345664,1.0013358021092742,23.6950193295309
6.857632768,1.0011427665022368,23.519456436275718
6.859919872,1.0008778971232126,23.347190993242645
6.862206976,1.000557976533757,23.17911399960506
6.86449408,1.000203098323545,23.015910266667856
6.866781184,0.9998357037938729,22.857929483009112
6.869068288,0.9994788313215932,22.705173317998963
6.87135488,0.9991551095930942,22.55735713632986
6.873641984,0.9988851767842363,22.413813873416636
6.875929088,0.9986859811065284,22.27367532768278
6.878216192,0.9985701447951354,22.135801662706477
6.880503296,0.9985451713755565,21.998951151511783
6.8827904,0.9986126861533483,21.861749232997827
6.885076992,0.9987682583648523,21.72291481476269
6.887364096,0.9990021518479673,21.581219476511226
6.8896512,0.9992997150836516,21.435635306556
6.891938304,0.9996419179981155,21.28536809834505
6.894225408,1.0000072257921329,21.129957382929216
6.896512512,1.000372520691268,20.969201896407352
6.898799104,1.0007148860725144,20.80331916983492
6.901086208,1.0010126136636281,20.63273563174722
6.903373312,1.0012470540792127,20.458311284460446
6.905660416,1.0014032094446177,20.281009871335694
6.90794752,1.0014714872999328,20.102073409649382
6.910234624,1.0014473755051705,19.922769625739104
6.912521216,1.0013324440144866,19.74445837196729
6.91480832,1.001133882725262,19.56839552072253
6.917095424,1.0008641104471934,19.39566979494289
6.919382528,1.0005401741033975,19.227224512797704
6.921669632,1.0001823496656281,19.06367336054237
6.923956736,0.9998132861952591,18.905374838590166
6.926243328,0.9994562763698724,18.75233066054999
6.928530432,0.9991338466180913,18.604197119448255
6.930817536,0.9988664207750314,18.460331529949666
6.93310464,0.9986709658037333,18.319805581651742
6.935391744,0.9985598988160478,18.181476161216846
