freq,mag,phase
6.0,1.0000684399069086,-32.27276498948789
6.041236992,1.0000622653469318,-33.773441392233025
6.082473984,1.0000549725827381,-35.27473064682239
6.123711488,1.0000470763842702,-36.77666922837081
6.16494848,1.0000385272150727,-38.279205798226485
6.206185472,1.000029670731564,-39.78240759617238
6.247422464,1.0000204653148173,-41.286227260684804
6.288659968,1.0000110897421584,-42.79065501853721
6.32989696,1.0000017383133697,-44.29567950544538
6.371133952,0.999992235738776,-45.80128476351884
6.412370944,0.9999830537931884,-47.30753445928474
6.453608448,0.99997415442986,-48.814399320401996
6.49484544,0.9999654147358832,-50.32183992241596
6.536082432,0.9999574705711156,-51.82989775534584
6.577319424,0.9999500182339366,-53.338569924118744
6.618556928,0.99994332632372,-54.847839080203045
6.65979392,0.9999373711021731,-56.35773948768303
6.701030912,0.9999322884068084,-57.86822512491887
6.742267904,0.9999281533635417,-59.37934563532173
6.783505408,0.9999248337359867,-60.8910795394883
6.8247424,0.9999227328101588,-62.40345717986146
6.865979392,0.9999215903809036,-63.91641430147268
6.907216384,0.9999216473904944,-65.43005072964144
6.948453376,0.9999227971004977,-66.94425757203103
6.98969088,0.9999248799309814,-68.45915633694055
7.030927872,0.9999281043534609,-69.97467537397846
7.072164864,0.9999322417017278,-71.4908450795293
7.113401856,0.9999373682182423,-73.00764620442916
7.15463936,0.9999434504741839,-74.52511939025466
7.195876352,0.9999503215040316,-76.04317536235219
7.237113344,0.9999579042269339,-77.56193463902115
7.278350336,0.999966056213689,-79.08131897450659
7.31958784,0.9999748872816404,-80.60136781872421
7.360824832,0.9999840593577398,-82.12203761461888
7.402061824,0.9999936346217665,-83.6433786319176
7.443298816,1.0000033882452735,-85.16532886593005
7.48453632,1.0000131036147526,-86.68793275377165
7.525773312,1.0000229164008465,-88.21115233029518
7.567010304,1.0000326309000132,-89.73499774999105
7.608247296,1.0000419213158973,-91.25945579228724
7.649484288,1.0000507499980547,-92.78455951692631
7.690721792,1.0000591126135687,-94.3102504471103
7.731958784,1.0000669283380155,-95.83650456050319
7.773195776,1.0000739203907074,-97.36335116713535
7.814432768,1.0000801448744128,-98.89077974867466
7.855670272,1.000085511529049,-100.41873140547904
7.896907264,1.0000898195540877,-101.9472884897434
7.938144256,1.0000931957651247,-103.47631999755966
7.979381248,1.000095446235187,-105.00593581171005
8.020618752,1.000096554012525,-106.53603122109749
8.061855744,1.0000966476334316,-108.06661117338113
8.103092736,1.000095518368465,-109.5976692163156
8.144329728,1.0000933205150788,-111.12920252344057
8.185567232,1.000090026970304,-112.66118624036682
8.226804224,1.0000856099576005,-114.19362051202755
8.268041216,1.000080197602536,-115.72644709045751
8.309278208,1.0000739244240755,-117.25968797328967
8.350515712,1.000066721854811,-118.79335318682499
8.391752704,1.0000587364292621,-120.32737729710026
8.432989696,1.000050012570447,-121.86180502537432
8.474226688,1.0000408024068492,-123.39655948822053
8.51546368,1.0000310530568368,-124.93167225871392
8.556701184,1.000021024813126,-126.46712859042681
8.597938176,1.0000107177365294,-128.0029415676295
8.63917568,1.000000237433513,-129.53902380518173
8.68041216,0.9999899132425689,-131.07545377449537
8.721649664,0.9999796387031051,-132.61217017145597
8.762886144,0.9999697124828861,-134.14919122193723
8.804123648,0.9999601485817343,-135.68647072538985
8.845361152,0.9999511527654104,-137.22407714117494
8.886597632,0.9999427868107474,-138.76196072283858
8.927835136,0.9999351850605991,-140.300102286734
8.96907264,0.9999283763673129,-141.83853504895905
9.01030912,0.9999225516229665,-143.37721869561753
9.051546624,0.9999177004111697,-144.91617200612836
9.092783104,0.9999139943145053,-146.45540876913708
9.134020608,0.9999113498186497,-147.99488433311828
9.175258112,0.999909817073091,-149.53466132337283
9.216494592,0.9999095525376259,-151.07466054039048
9.257732096,0.9999105359326907,-152.6149365948934
9.298968576,0.9999124835211622,-154.15543507813072
9.34020608,0.9999157828382564,-155.69623322138543
9.381443584,0.999920108220678,-157.23728716059387
9.422680064,0.9999255926563327,-158.7785814997188
9.463917568,0.999932073459965,-160.32011334745238
9.505155072,0.9999395270325676,-161.86189949002326
9.546391552,0.9999477364313069,-163.4039270802205
9.587629056,0.9999568292069781,-164.94619572696587
9.628865536,0.9999664633740986,-166.4887094035977
9.67010304,0.9999766706435422,-168.03143526708882
9.711340544,0.9999873349595338,-169.57439625063566
9.752577024,0.999998169903861,-171.1175720511638
9.793814528,1.0000090346843065,-172.66095377833457
9.835052032,1.0000201489570357,-174.20453482992775
9.876288512,1.000030917570314,-175.74829323439693
9.917526016,1.0000415951143007,-177.29223483417798
9.958762496,1.0000517391497126,-178.83637136111452
10.0,1.0000614051165864,179.6193836813668
10.041237504,1.0000704007071264,178.07496862041617
10.082473984,1.0000786143521925,176.5304170022351
10.123711488,1.0000860134498948,174.98578969163586
10.164947968,1.0000924402722635,173.44103557379518
10.206185472,1.0000976519170215,171.8962024280584
10.247422976,1.0001018264999708,170.3513091001363
10.288659456,1.000104801797967,168.80637782123907
10.32989696,1.0001064778510993,167.26139058743928
10.371134464,1.000107058113633,165.71642324832143
10.412370944,1.000106196980999,164.17145004073106
10.453608448,1.0001041510030602,162.62650573143551
10.494844928,1.0001008408726522,161.08159133320424
10.536082432,1.0000962822652302,159.53671658958513
10.577319936,1.0000905116834162,157.9919362346556
10.618556416,1.0000837214821567,156.44725084326828
10.65979392,1.0000758427075302,154.9026758457732
10.701031424,1.0000670318600842,153.3582113427895
10.742267904,1.0000574406757126,151.81389479916714
10.783505408,1.0000470545625175,150.2697265880595
10.824741888,1.0000360450905443,148.72573701274558
10.865979392,1.0000246500848982,147.1819298288558
10.907216896,1.0000128510255375,145.63831011049535
10.948453376,1.0000007929931325,144.094896376277
10.98969088,0.9999889043332423,142.5517056938723
11.03092736,0.9999769825464758,141.00871864749686
11.072164864,0.9999654434023869,139.46598171528993
11.113402368,0.9999541526980302,137.92347287965566
11.154638848,0.9999434431579275,136.38122068085616
11.195876352,0.9999334503546288,134.839218931628
11.237113856,0.9999242993840077,133.29747235608454
11.278350336,0.9999160151443747,131.7559776869197
11.31958784,0.9999088044555426,130.21474681396438
11.36082432,0.999902554770413,128.67378653845077
11.402061824,0.9998977407829431,127.13307969539107
11.443299328,0.999894107817702,125.59265098817976
11.484535808,0.9998918583273926,124.05247530487704
11.525773312,0.9998909672431102,122.51258841799456
11.567010816,0.9998914599404268,120.97295979630708
11.608247296,0.9998933730620271,119.43359259621523
11.6494848,0.9998966960376202,117.89447533841629
11.69072128,0.9999012679985626,116.35565108795805
11.731958784,0.9999072562120817,114.81708043014856
11.773196288,0.9999144544154637,113.27877693583316
11.814432768,0.9999228482263666,111.7407375113287
11.855670272,0.9999322458813954,110.20296063104648
11.896906752,0.9999426135617372,108.6654391766917
11.938144256,0.9999538198762885,107.12821718001359
11.97938176,0.9999657363946814,105.59124436313022
12.02061824,0.9999781654087468,104.0545497306339
12.061855744,0.9999910970170419,102.51813510138535
12.103093248,1.0000041452560688,100.98200803289704
12.144329728,1.0000174588781283,99.4461648630703
12.185567232,1.0000306020358831,97.91062114305824
12.226803712,1.000043429484709,96.3753865429909
12.268041216,1.0000558914255193,94.84045056616836
12.30927872,1.000067963442451,93.30584677668799
12.3505152,1.000079198319355,91.77156701710896
12.391752704,1.0000895465176924,90.23765875070234
12.432989184,1.0000989847221131,88.70407603672533
12.474226688,1.0001072076314463,87.17087565795657
12.515464192,1.0001142953634439,85.6380731748433
12.556700672,1.0001199681946653,84.10564699596725
12.597938176,1.0001242659948122,82.57364661028208
12.63917568,1.0001271174970299,81.04207175407913
12.68041216,1.0001283846373894,79.5109514745191
12.721649664,1.0001281148340622,77.98027452119486
12.762886144,1.0001263149204116,76.45008227198069
12.804123648,1.0001228221091745,74.9203787547816
12.845361152,1.0001178685309422,73.39118230705031
12.886597632,1.0001115303679304,71.86249904105563
12.927835136,1.0001036775422945,70.33437623709976
12.96907264,1.0000944832363106,68.80678400949778
13.01030912,1.0000840410478844,67.279766450263
13.051546624,1.0000725086401832,65.75331847456508
13.092783104,1.0000600160050392,64.22746708090777
13.134020608,1.0000466716992007,62.70221843675116
13.175258112,1.0000325739138547,61.17757697743944
13.216494592,1.000017998282341,59.65356214859351
13.257732096,1.0000030943951628,58.13017075754725
13.298968576,0.999988075596279,56.60739634279536
13.34020608,0.9999730614180503,55.08527994710503
13.381443584,0.999958158962369,53.563803405373726
13.422680064,0.9999437777234985,52.04297189204256
13.463917568,0.9999299411192986,50.52279122079212
13.505155072,0.9999169057651867,49.003251130694444
13.546391552,0.9999047932110837,47.48434822565723
13.587629056,0.9998937116446825,45.966112055839126
13.628865536,0.9998839084290331,44.448511612725746
13.67010304,0.9998755260675326,42.931533974291426
13.711340544,0.9998686478528364,41.41518430440085
13.752577024,0.9998633724007964,39.89946720289233
13.793814528,0.99985983793577,38.384356124569834
13.835052032,0.9998579859736965,36.86985051084492
13.876288512,0.999858004203401,35.355950271579935
13.917526016,0.9998597957113715,33.84263760687519
13.958762496,0.9998634874392416,32.32991130159972
14.0,0.9998689753222079,30.817735618982223
