freq,mag,phase
6.0,0.9997202602868867,-161.25792817252471
6.002284544,0.999697249145948,-161.40608097651048
6.004568576,0.9996929391976116,-161.55399937816964
6.00685312,0.9997076480773338,-161.70193096137697
6.009137664,0.9997403070214258,-161.85013215251
6.011422208,0.9997890525920564,-161.99890892976077
6.01370624,0.9998506603624427,-162.1484416483783
6.015990784,0.999921321915359,-162.29888866218968
6.018275328,0.9999965897859094,-162.45030529312928
6.020559872,1.000071615995312,-162.60284771460505
6.022843904,1.0001417902141818,-162.75633728581101
6.025128448,1.0002026105716968,-162.9107579701665
6.027412992,1.0002501979868916,-163.0658969331864
6.029697536,1.0002815650620744,-163.22161524996497
6.031981568,1.000294685925661,-163.3775505774326
6.034266112,1.0002888263454772,-163.53353585119078
6.036550656,1.0002642211065382,-163.68923273326007
6.0388352,1.0002223503391685,-163.84442397088483
6.041119232,1.0001660695800556,-163.99884353977123
6.043403776,1.0000986292950942,-164.15233369589998
6.04568832,1.0000245702398667,-164.3047558100089
6.047972352,0.9999484378567614,-164.4560131462333
6.050256896,0.9998750850604173,-164.6061830570776
6.05254144,0.9998090059124204,-164.7552757031776
6.054825984,0.9997545569308047,-164.90342021835525
6.057110016,0.9997151969510513,-165.0508616757753
6.05939456,0.9996932262122799,-165.1977966738452
6.061679104,0.9996903356133026,-165.3445079319418
6.063963648,0.9997064336945086,-165.49126058174792
6.06624768,0.999740801297519,-165.6383195644876
6.068532224,0.9997910017803116,-165.785987977213
6.070816768,0.9998541026795597,-165.93438716059316
6.073101312,0.9999261142706674,-166.0837479455521
6.075385344,1.0000022408803164,-166.23412891404558
6.077669888,1.0000779076642405,-166.3855566452021
6.079954432,1.0001483205192605,-166.5380117818854
6.082238976,1.0002089103992737,-166.69136350846122
6.084523008,1.0002558208579146,-166.8454534716184
6.086807552,1.0002862750504662,-167.0000782958514
6.089092096,1.0002982218491872,-167.15492123425906
6.091376128,1.0002907785270954,-167.30978947398202
6.093660672,1.0002646093510896,-167.46435005440452
6.095945216,1.000221155588953,-167.61841645424158
6.09822976,1.0001632824422768,-167.7716087957198
6.100513792,1.000094596537746,-167.92388261455622
6.102798336,1.0000194160608247,-168.07506197562176
6.10508288,0.9999425102244819,-168.2250864741246
6.107367424,0.9998687430614102,-168.37401604319177
6.109651456,0.9998027473544338,-168.52180466012814
6.111936,0.9997486762962443,-168.6687125409574
6.114220544,0.9997101124982269,-168.8148773482974
6.116505088,0.9996893571269206,-168.96060455709545
6.11878912,0.9996877963515521,-169.10610763311456
6.121073664,0.9997056483925291,-169.2516704428602
6.123358208,0.999741586959534,-169.39756392405246
6.12564224,0.9997934879371042,-169.54404034631716
6.127926784,0.9998580123371094,-169.6913495375106
6.130211328,0.9999312658708369,-169.83958694641305
6.132495872,1.000008314453477,-169.9888794578477
6.134779904,1.0000845392882507,-170.139221123309
6.137064448,1.000154994344958,-170.29059694268847
6.139348992,1.000215344812892,-170.44280700026016
6.141633536,1.0002616071424182,-170.5958334693836
6.143917568,1.000290961808552,-170.74933555486618
6.146202112,1.000301511499563,-170.90307499784782
6.148486656,1.000292601440851,-171.05676330836178
6.1507712,1.0002646223575775,-171.21017397584063
6.153055232,1.0002195300000336,-171.36299663430614
6.155339776,1.0001601328689789,-171.51500938864848
6.15762432,1.0000900466278428,-171.66603358021598
6.159908864,1.000013790981019,-171.81594682839258
6.162192896,0.999936049903853,-171.96471941190404
6.16447744,0.9998619427022717,-172.1123110319811
6.166761984,0.9997960609887339,-172.2588474818749
6.169046016,0.9997425631229984,-172.40444150611856
6.17133056,0.9997049339112035,-172.54934985332176
6.173615104,0.9996853977379266,-172.69379360586933
6.175899648,0.9996854003557758,-172.83803706454816
6.17818368,0.9997048546865788,-172.9823803161772
6.180468224,0.9997424659395143,-173.1270665810477
6.182752768,0.9997960582536595,-173.27238080560323
6.185037312,0.9998621524112811,-173.4185369626236
6.187321344,0.9999365520746389,-173.56561718790456
6.189605888,1.0000146623714832,-173.71376569753068
6.191890432,1.0000913751004397,-173.86303418613812
6.194174976,1.0001619541346727,-174.013280034858
6.196459008,1.000221964101019,-174.16444958075422
6.198743552,1.0002675092617945,-174.31634839932784
6.201028096,1.0002958152861192,-174.46870223741172
6.20331264,1.0003048468656617,-174.6213042085002
6.205596672,1.0002941821589477,-174.77381340057622
6.207881216,1.0002646625619747,-174.92599788549595
6.21016576,1.0002178072591612,-175.0775828911725
6.212449792,1.0001566975226845,-175.228375706549
6.214734336,1.0000852196793322,-175.37813670094812
6.21701888,1.0000078431382928,-175.5267340359716
6.219303424,0.9999295137548552,-175.67419794375928
6.221587456,0.9998550846488905,-175.82049276697282
6.223872,0.9997893106290244,-175.96570415097875
6.226156544,0.9997364465257665,-176.1099977294837
6.228441088,0.9996997488720168,-176.25360048948633
6.23072512,0.999681581846596,-176.39677146752766
6.233009664,0.9996831500422727,-176.53972250078579
6.235294208,0.9997042779284395,-176.68282685530127
6.237578752,0.9997437571650223,-176.82629762424227
6.239862784,0.9997990323788052,-176.97042642318183
6.242147328,0.9998666166076041,-177.11540335950644
6.244431872,0.9999423798909196,-177.2613745916459
6.246716416,1.0000212910766135,-177.40838002688105
6.249000448,1.0000986034936103,-177.55649246735527
6.251284992,1.0001692157956528,-177.7056329215006
6.253569536,1.000228804212527,-177.85570182406676
6.255853568,1.0002734949565992,-178.0064217715208
6.258138112,1.0003005600630936,-178.15761697555766
6.260422656,1.0003082162716497,-178.30906808811855
6.2627072,1.0002959088179721,-178.46039257884973
6.264991232,1.0002644359647537,-178.61136455255135
6.267275776,1.000215815989114,-178.76172999705426
6.26956032,1.0001531675152553,-178.91118892853902
6.271844864,1.0000802072423314,-179.0596573490563
6.274128896,1.0000017243296373,-179.2069890585824
6.27641344,0.9999227108722136,-179.35308489882803
6.278697984,0.9998479945897675,-179.4980294274905
6.280982528,0.9997824193219416,-179.64190447689373
6.28326656,0.9997301231343009,-179.78488163408713
6.285551104,0.9996945589943549,-179.92716869857657
6.287835648,0.9996778465524881,179.93099975427324
6.29011968,0.9996809611867525,179.78928951982587
6.292404224,0.9997039145088953,179.64744959997776
6.294688768,0.9997452171157525,179.5051978969043
6.296973312,0.9998023530237369,179.36226871323606
6.299257344,0.9998714502552516,179.2185304368432
6.301541888,0.999948342860029,179.07370933660317
6.303826432,1.000028279585381,178.92783081744307
6.306110976,1.0001059381359938,178.78084144476213
6.308395008,1.0001765291547609,178.63286257188938
6.310679552,1.000235689943565,178.48394721506733
6.312964096,1.000279545551678,178.33434173205606
6.31524864,1.0003052491181086,178.1842910013435
6.317532672,1.000311314099518,178.03408130475256
6.319817216,1.0002972568342225,177.88393284056013
6.32210176,1.000263930790573,177.7342291276384
6.324386304,1.000213520116955,177.58515240848882
6.326670336,1.0001490797011814,177.43695061091498
6.32895488,1.000074803188138,177.28981316776478
6.331239424,0.9999953029561455,177.1438237955755
6.333523456,0.9999154308815784,176.99905267905112
6.335808,0.9998406066159624,176.85546696154472
6.338092544,0.9997753852137625,176.7129534268261
6.340377088,0.9997238073798069,176.57134226049192
6.34266112,0.9996892548654578,176.43038596939803
6.344945664,0.9996740472800288,176.2898658160365
6.347230208,0.9996788387523657,176.14943812907316
6.349514752,0.9997037527118807,176.00890085821632
6.351798784,0.9997470149049745,175.8678788014005
6.354083328,0.9998057366070696,175.72616721052924
6.356367872,0.9998765292434931,175.5836028104183
6.358652416,0.9999547418500487,175.4399606139484
6.360936448,1.000035466043902,175.2952206672425
6.363220992,1.000113601497585,175.14941232876922
6.365505536,1.0001840844585375,175.0025745532846
6.36779008,1.000242670155491,174.85478948085586
6.370074112,1.0002854910675012,174.70637571032992
6.372358656,1.000309883108913,174.55750322614196
6.3746432,1.0003143387390838,174.40848634702823
6.376927232,1.0002983208368645,174.2595645792257
6.379211776,1.0002631193572384,174.11106926217343
6.38149632,1.000210862574199,173.96326764531452
6.383780864,1.0001447481353152,173.81640783186705
6.386064896,1.0000688691807793,173.6705951966796
6.38834944,0.9999883144123383,173.52597086658204
6.390633984,0.9999079426324786,173.38254357752757
6.392918528,0.9998329721481742,173.24035401377608
6.39520256,0.9997679836026049,173.0992049192403
6.397487104,0.9997173050682923,172.95892362407778
6.399771648,0.9996841082840546,172.8193605189931
6.402056192,0.9996704024450428,172.68017425073495
6.404340224,0.9996771025474279,172.54102924130999
6.406624768,0.9997038841190629,172.40176015596768
6.408909312,0.9997490960152906,172.26198669884542
6.411193856,0.999809724133432,172.12149574441293
6.413477888,0.9998819909079018,171.98012905370513
6.415762432,0.9999613428599724,171.83766279768247
6.418046976,1.0000429439098073,171.6941155647952
6.420331008,1.0001214499457305,171.5494427390514
6.422615552,1.0001919080472819,171.40372592835706
6.424900096,1.0002498481079172,171.25712843282406
6.42718464,1.0002916043952184,171.10988131866384
6.429468672,1.0003144159155501,170.9621986388973
6.431753216,1.0003171521885843,170.81436437471103
6.43403776,1.0002992053301696,170.66669314293839
6.436322304,1.0002620977674177,170.51947428330817
6.438606336,1.00020778931504,170.37299595419742
6.44089088,1.000139966385027,170.22741876335175
6.443175424,1.0000627812555816,170.08296169599427
6.445459968,0.9999810774024379,169.93968896327144
6.447744,0.9999001492937483,169.797675018604
6.450028544,0.9998250578419411,169.6568197363164
6.452313088,0.9997604727921335,169.51705883227066
6.45459712,0.9997106231142738,169.37819105055712
6.456881664,0.9996787184366219,169.23993290099696
6.459166208,0.9996667685119665,169.10206709687975
6.461450752,0.99967541613688,168.9642546970501
6.463734784,0.9997040767068355,168.82624791060843
6.466019328,0.9997512845536008,168.6877497641318
6.468303872,0.9998137503638886,168.54849395564327
6.470588416,0.9998877430313394,168.40828082112927
6.472872448,0.9999684946308754,168.26701977281343
6.475156992,1.0000508674826463,168.12462338429245
6.477441536,1.0001297124037851,167.98109087125383
6.47972608,1.0001998956812261,167.8365443539814
6.482010112,1.0002570169246598,167.69111315919153
6.484294656,1.0002976573936069,167.54501179489705
6.4865792,1.000319095832245,167.39851452613345
6.488863744,1.0003198888603466,167.2519137422453
6.491147776,1.000300034331234,167.1054942672443
6.49343232,1.0002608005415012,166.95956199407183
6.495716864,1.0002044134295092,166.81437061388795
6.498000896,1.0001348158359584,166.67013425311234
6.50028544,1.0000562222480274,166.52703948210794
6.502569984,0.9999734484199524,166.3851691499722
6.504854528,0.9998920030709046,166.244501061326
6.50713856,0.9998169167113296,166.10504274135886
6.509423104,0.9997528583822334,165.96667611974587
6.511707648,0.9997041653045865,165.82917044882993
6.513992192,0.9996735531438831,165.69228357832347
6.516276224,0.9996632257315287,165.55574720830785
6.518560768,0.9996738808719737,165.41925607389643
6.520845312,0.99970471095775,165.28253572716196
6.523129856,0.999753901575242,165.14525910001652
6.525413888,0.9998184126884743,165.0072403511968
6.527698432,0.9998940159662283,164.86822361014555
6.529982976,0.9999758915197486,164.7281620848092
6.53226752,1.0000590720440288,164.5868975659957
6.534551552,1.0001380728093245,164.4444960706476
6.536836096,1.000208125422434,164.30109949358518
6.53912064,1.0002645441516722,164.15685037259544
6.541404672,1.0003038464191087,164.0119156585755
6.543689216,1.0003235188409152,163.8666064185796
6.54597376,1.0003224266820376,163.72121879505715
6.548258304,1.0003004682739614,163.57606657306124
6.550542336,1.000259104140577,163.4313913588288
6.55282688,1.00020081015096,163.2875305523488
6.555111424,1.0001293905546664,163.14463137336807
6.557395968,1.0000493839580002,163.00289952482754
6.55968,0.9999656507728721,162.86237284332387
6.561964544,0.9998836618532111,162.72312800763154
6.564249088,0.9998084668931566,162.58507994026223
6.566533632,0.999745140819961,162.44807664584093
6.568817664,0.999697381198831,162.3119288453974
6.571102208,0.9996683942879506,162.17641980856064
6.573386752,0.9996599455074834,162.041219041459
6.575671296,0.9996725220659777,161.90604387869243
6.577955328,0.9997056113873491,161.77059756301767
6.580239872,0.9997569969472986,161.63454975962378
6.582524416,0.9998233172297201,161.49775312779872
6.584808448,0.9999004714709339,161.35993205036792
6.587092992,0.9999837174538158,161.22099915891258
6.589377536,1.0000675835238846,161.0809364866308
6.59166208,1.0001468514704441,160.93970262325698
6.593946112,1.0002164523223023,160.79741686337994
6.596230656,1.000272061687491,160.6543284586075
6.5985152,1.000309994733561,160.51058378184402
6.600799744,1.0003281335037109,160.36645737315467
6.603083776,1.0003248154992637,160.22230357904633
6.60536832,1.0003007985946475,160.07838386833706
6.607652864,1.0002571897419863,159.93501753561347
6.609937408,1.0001967919739272,159.79243968986682
6.61222144,1.0001236776781033,159.65087132992014
6.614505984,1.0000421352774356,159.51050673546078
6.616790528,0.9999574778151847,159.3713721529676
6.61907456,0.9998751321565829,159.233517686122
6.621359104,0.9998001381032695,159.0968620246299
6.623643648,0.9997372936666504,158.96126969465647
6.625928192,0.9996906821871034,158.82650894482933
6.628212224,0.9996632586574998,158.69231487392108
6.630496768,0.9996568632486651,158.55845306367158
6.632781312,0.999671674943801,158.42459273713163
6.635065856,0.9997069423613067,158.29040649562853
6.637349888,0.9997604180704741,158.15562300139084
6.639634432,0.99982875970655,158.01997658536422
6.641918976,0.9999075798524882,157.88337174473494
6.64420352,0.9999919606128684,157.74558895140268
6.646487552,1.0000765351823777,157.60665308809152
6.648772096,1.0001559308331787,157.46655082360166
6.65105664,1.0002251357754544,157.3254204711266
6.653341184,1.000279772189544,157.18349284231573
6.655625216,1.0003163830194035,157.0409100290839
6.65790976,1.000332367482457,156.89796346186594
6.660194304,1.0003271697569125,156.75503542649213
6.662478336,1.0003007419414007,156.61237147095292
6.66476288,1.0002548859937905,156.4703016247669
6.667047424,1.0001924454141478,156.32899640110298
6.669331968,1.000117471149729,156.18881422651413
6.671616,1.0000344481951888,156.04978296343637
6.673900544,0.9999489605122077,155.91205112320515
6.676185088,0.999866038087037,155.77558820625543
6.678469632,0.9997913207345757,155.64033152447337
6.680753664,0.9997291643152528,155.50611251249907
6.683038208,0.999683889288252,155.37272372441132
6.685322752,0.9996582021014427,155.23989565884443
6.687607296,0.9996537589494647,155.10735743002587
6.689891328,0.9996708095570473,154.97475870592686
6.692175872,0.9997084531936704,154.84182436966924
6.694460416,0.9997641756402692,154.70826420301145
6.69674496,0.9998344329143398,154.57386896349573
6.699028992,0.99991495899714,154.43839171208248
6.701313536,1.0000005232591531,154.30175832335524
6.70359808,1.0000857729190031,154.1639392932655
6.705882112,1.0001652043340676,154.02499081321636
6.708166656,1.0002338722957613,153.8850160644121
6.7104512,1.000287315645368,153.74419610181184
6.712735744,1.000322390573223,153.6027457337129
6.715019776,1.000336637104569,153.46103203887176
6.71730432,1.000329068375368,153.31929864356383
6.719588864,1.0003003801140642,153.17788065015608
6.721873408,1.0002523614217735,153.0370667371528
6.72415744,1.0001877027836066,152.89711515748283
6.726441984,1.0001108196943713,152.75823816270827
6.728726528,1.0000265598838747,152.62059144496797
6.731011072,0.9999399721900253,152.48424207754448
6.733295104,0.9998568838487487,152.34917375653998
6.735579648,0.9997823272536313,152.21529903768314
6.737864192,0.9997210799110487,152.08244567097177
6.740148736,0.9996770962938529,151.95041203881146
6.742432768,0.9996533286663571,151.8189357175456
6.744717312,0.9996508467405752,151.68771571652988
6.747001856,0.9996703923831204,151.55643405766475
6.749285888,0.9997102847631072,151.42471928931516
6.751570432,0.9997683270327896,151.29238749623423
6.753854976,0.9998405951194562,151.15915338083929
6.75613952,0.9999227489683744,151.02483405932384
6.758423552,1.0000094913569846,150.88933209667877
6.760708096,1.0000952224451591,150.75262892494186
6.76299264,1.000174761994507,150.6147789725474
6.765277184,1.0002428471553584,150.4759313532668
6.767561216,1.0002950996764781,150.3362165862
6.76984576,1.000328527784246,150.1959720826828
6.772130304,1.000340688141409,150.0554115963342
6.774414848,1.0003309416356574,149.91488546695058
6.77669888,1.0002998409887696,149.77472224327693
6.778983424,1.000249260240192,149.63515663063856
6.781267968,1.0001826034665786,149.49650722491074
6.783552,1.000103866228673,149.35900546993167
6.785836544,1.0000181101354066,149.22271221390588
6.788121088,0.9999306640376362,149.08772455844
6.790405632,0.9998472743679598,148.9540219489175
6.792689664,0.9997731541307618,148.82153232842558
6.794974208,0.9997129997359142,148.69007194315313
6.797258752,0.9996704224858143,148.55940030458152
6.799543296,0.9996484869303776,148.42924203937423
6.801827328,0.9996483378070534,148.29933005863012
6.804111872,0.9996701710578236,148.16928213938056
6.806396416,0.9997126342877254,148.0388317889494
6.80868096,0.9997728836393226,147.90768496450949
6.810964992,0.9998472354454007,147.7755949420477
6.813249536,0.9999309355035692,147.64242646938126
6.81553408,1.0000187685561261,147.50802821551036
6.817818624,1.0001050191096588,147.37245790034416
6.820102656,1.0001844405712923,147.23570239889222
6.8223872,1.0002516428582,147.09795978961415
6.824671744,1.0003028605083077,146.9593604996872
6.826955776,1.0003344521382465,146.82022582056757
6.82924032,1.0003445534788347,146.68084578833262
6.831524864,1.000332292081059,146.54151192305397
6.833809408,1.0002986155060234,146.40259462032571
6.83609344,1.0002457820327018,146.26431627915403
6.838377984,1.0001769183198526,146.12695197788736
6.840662528,1.0000962978891947,145.99075065847256
6.842947072,1.0000091462929785,145.85583731043198
6.845231104,0.9999210049584789,145.7222207234492
6.847515648,0.9998373141070301,145.5899211713045
6.849800192,0.9997636767655261,145.4587734222202
6.852084736,0.9997044087816569,145.3287000622132
6.854368768,0.99966356542081,145.19936115197552
6.856653312,0.999643642493228,145.07053331713314
6.858937856,0.9996457430663639,144.94189103905578
6.8612224,0.9996702712330472,144.8130873747356
6.863506432,0.9997151203730142,144.68384729061952
6.865790976,0.9997776592664483,144.55387574595363
6.86807552,0.9998541190054083,144.42292446180784
6.870359552,0.9999394072586621,144.290863782093
6.872644096,1.000028397712651,144.1575717466707
6.87492864,1.0001152384016772,144.02306986053338
6.877213184,1.0001943682541063,143.88740557661987
6.879497216,1.000260908733444,143.75073684762873
6.88178176,1.0003105593976056,143.61326972921594
6.884066304,1.0003402646337247,143.47524077196167
6.886350848,1.0003480105582252,143.33702445697023
6.88863488,1.0003334341994,143.198897003185
6.890919424,1.000297280856194,143.06117138668964
6.893203968,1.0002418742706347,142.9241846304642
6.895488512,1.0001707502462,142.7881117237073
6.897772544,1.0000883083910113,142.65322031855695
6.900057088,0.9999998463219952,142.51965416551545
6.902341632,0.9999108343148495,142.3873832053943
6.904626176,0.9998272217044669,142.2564401786899
6.906910208,0.9997539607785009,142.1266782152468
6.909194752,0.9996960344578931,141.99793587588752
6.911479296,0.9996568178730881,141.86996329719426
6.913763328,0.9996390800348088,141.74240473174513
6.916047872,0.9996437311654326,141.61504983227778
6.918332416,0.9996706723464203,141.4874839777791
