freq,mag,phase
6.0,1.0001474821883392,-79.07445786421842
6.002287104,1.000163748360686,-79.19918075319383
6.004574208,1.0001683040006362,-79.32408705295421
6.006861312,1.0001618362952338,-79.44893963638067
6.009147904,1.000144862895172,-79.57371228897756
6.011435008,1.0001185552824259,-79.69811380621692
6.013722112,1.0000840805759483,-79.82212945164152
6.016009216,1.0000441166281764,-79.94562658977323
6.01829632,1.00000106980805,-80.06853369814881
6.020583424,0.9999576943874918,-80.19083963764267
6.022870016,0.9999167234662271,-80.3124979243981
6.02515712,0.9998806641725593,-80.43365863449118
6.027444224,0.99985203302636,-80.55430864569485
6.029731328,0.9998325479421125,-80.67464852199672
6.032018432,0.999823419745438,-80.79481161467817
6.034305536,0.9998253069468866,-80.9149194054598
6.036592128,0.9998380108917476,-81.03516986526924
6.038879232,0.9998609382094942,-81.15569504167202
6.041166336,0.9998924525113162,-81.27661876439952
6.04345344,0.9999305314304737,-81.3980362125405
6.045740544,0.9999729085737977,-81.52009656129556
6.048027648,1.0000167232355375,-81.64279126816912
6.05031424,1.0000593355702303,-81.76616852410181
6.052601344,1.000097909847269,-81.89006921571603
6.054888448,1.0001299700319919,-82.01457237941145
6.057175552,1.0001537858664595,-82.1394788743963
6.059462656,1.0001672130388881,-82.26467622853369
6.06174976,1.000170126523312,-82.39000493838654
6.064036352,1.0001615551193983,-82.5152968205161
6.066323456,1.000142715505763,-82.64041519261114
6.06861056,1.000114566654977,-82.76522102540955
6.070897664,1.0000784952082624,-82.88956163963499
6.073184768,1.0000374889573551,-83.01336641248932
6.075471872,0.9999936387191715,-83.13652784914812
6.077758464,0.9999499367815545,-83.25913273980683
6.080045568,0.9999091391754846,-83.38109325552274
6.082332672,0.99987380031057,-83.50253596753991
6.084619776,0.9998463273917177,-83.6235177067006
6.08690688,0.9998282759416404,-83.74416777697124
6.089193984,0.9998210083118771,-83.86466410996272
6.091481088,0.9998248150943525,-83.98516190171397
6.09376768,0.9998394950676819,-84.10583590648073
6.096054784,0.9998643614749365,-84.22674341722238
6.098341888,0.9998974043711452,-84.34812368682836
6.100628992,0.9999368700358797,-84.47008644374363
6.102916096,0.9999802764362853,-84.59261342079257
6.1052032,1.0000245752788837,-84.71581447680492
6.107489792,1.0000671113165711,-84.83963832598515
6.109776896,1.0001051644282177,-84.96407244581582
6.112064,1.0001364770818466,-85.08907542653128
6.114351104,1.0001584965793604,-85.21443646117787
6.116638208,1.0001703610966333,-85.34008002611742
6.118925312,1.0001712913640366,-85.46581974392404
6.121211904,1.0001609385333472,-85.59152818523022
6.123499008,1.0001400889228327,-85.71701756353363
6.125786112,1.0001100645727437,-85.84212556330495
6.128073216,1.0000726559747524,-85.96677374564695
6.13036032,1.0000306250376736,-86.09085963100081
6.132647424,0.9999860334143634,-86.21435501842886
6.134934016,0.9999420702784646,-86.33718005082277
6.13722112,0.9999015972072058,-86.459435227755
6.139508224,0.9998672378195305,-86.58111891884174
6.141795328,0.9998408225716818,-86.70242339330524
6.144082432,0.9998244818211353,-86.82338333896354
6.146369536,0.9998188946781266,-86.94425051905661
6.148656128,0.999824576281576,-87.06510113906424
6.150943232,0.9998414199831465,-87.1861232902025
6.153230336,0.999867953973262,-87.30753040298279
6.15551744,0.9999027372083087,-87.42930965358524
6.157804544,0.9999435011559031,-87.5516763495936
6.160091648,0.999987747148114,-87.67471252327684
6.162378752,1.0000324091917316,-87.79838821988119
6.164665344,1.0000748757127236,-87.92270459054029
6.166952448,1.0001123675386936,-88.04764605522529
6.169239552,1.0001424630709836,-88.1730880844877
6.171526656,1.000163260676057,-88.29890321163653
6.17381376,1.0001734274745517,-88.42498148575537
6.176100864,1.0001722405356561,-88.5511439108504
6.178387456,1.0001600770820431,-88.67722382566873
6.18067456,1.0001372329107656,-88.80304299324065
6.182961664,1.000105327871825,-88.92848261368457
6.185248768,1.0000666783612482,-89.05342445738191
6.187535872,1.0000232144132468,-89.17779137122177
6.189822976,0.9999781028815711,-89.30152085169274
6.192109568,0.9999343180268888,-89.4245745685888
6.194396672,0.9998939681332862,-89.54710155837994
6.196683776,0.9998604532705101,-89.66907613990622
6.19897088,0.9998354902960823,-89.79063991139951
6.201257984,0.9998205804703024,-89.91187780905813
6.203545088,0.9998171203975581,-90.03304253906992
6.20583168,0.9998248689926198,-90.15425145791046
6.208118784,0.9998434881489441,-90.2756764407164
6.210405888,0.9998720035303423,-90.39743745149812
6.212692992,0.9999083869246218,-90.51966051898691
6.214980096,0.9999503381634692,-90.64250780101527
6.2172672,0.9999952474335302,-90.76598660278314
6.219553792,1.0000404550277089,-90.8901353435506
6.221840896,1.0000826355005925,-91.01494108642235
6.224128,1.0001193965631412,-91.14033740519103
6.226415104,1.0001483786797247,-91.2662150918747
6.228702208,1.0001676316911128,-91.39248661215038
6.230989312,1.0001760321920508,-91.51894858458287
6.233275904,1.0001731892166241,-91.64549486223746
6.235563008,1.000158689716243,-91.77189909844994
6.237850112,1.0001340489918538,-91.89803049351093
6.240137216,1.0001005108166363,-92.02373713985418
6.24242432,1.000060246001563,-92.1489516614413
6.244711424,1.0000159738374383,-92.27355119879518
6.246998528,0.9999704361507257,-92.39754939655393
6.24928512,0.999926245536106,-92.52086504853241
6.251572224,0.9998866827358406,-92.64359312229507
6.253859328,0.9998540611785822,-92.76579486366246
6.256146432,0.9998303619560076,-92.88761667334124
6.258433536,0.9998173344822682,-93.00918766766772
6.26072064,0.9998155878978728,-93.13060939975053
6.263007232,0.9998252864919273,-93.2521813492079
6.265294336,0.999845893302773,-93.37394216830853
6.26758144,0.9998762789242002,-93.49609753308131
6.269868544,0.9999140722346378,-93.61878273987824
6.272155648,0.9999573440976609,-93.74203231247382
6.274442752,1.0000031475770068,-93.86592568125842
6.276729344,1.0000483532750586,-93.9905308110577
6.279016448,1.000090478607006,-94.11580505242587
6.281303552,1.0001264453024143,-94.24162094488634
6.283590656,1.0001541245906027,-94.36795155763927
6.28587776,1.0001718864950404,-94.49461468684268
6.288164864,1.00017857632143,-94.62144679991127
6.290451456,1.000173498726069,-94.74833064032222
6.29273856,1.000157122990402,-94.87506000158298
6.295025664,1.0001304995658888,-95.0015166110118
6.297312768,1.0000952355875548,-95.12749039329418
6.299599872,1.0000536916481872,-95.25296173689351
6.301886976,1.0000085037951658,-95.37778782070389
6.304173568,0.9999623549253087,-95.50197203799202
6.306460672,0.9999184610850733,-95.62551256129453
6.308747776,0.9998795202844284,-95.74841795929052
6.31103488,0.9998477023896499,-95.87086770056733
6.313321984,0.9998255504332655,-95.99293466865404
6.315609088,0.9998142046733438,-96.11476790543405
6.317896192,0.9998143847109316,-96.23650365145407
6.320182784,0.9998261176514426,-96.35834292559055
6.322469888,0.9998489050199949,-96.48047873249901
6.324756992,0.9998810909414143,-96.60302190291581
6.327044096,0.9999204592607313,-96.726066027269
6.3293312,0.9999647018713881,-96.84974089064319
6.331618304,1.0000111053848924,-96.97406253388372
6.333904896,1.0000564392822535,-97.0991406739178
6.336192,1.000098288234845,-97.22479558338425
6.338479104,1.0001335184117948,-97.35104887758816
6.340766208,1.0001599090317956,-97.47779598393376
6.343053312,1.0001758668808494,-97.60482266017566
6.345340416,1.0001806456807716,-97.73200774483522
6.347627008,1.0001735432106231,-97.85923170512578
6.349914112,1.0001552178397017,-97.98625050222526
6.352201216,1.0001265355932851,-98.1129669101909
6.35448832,1.000089887850364,-98.2392255945562
6.356775424,1.0000469585385532,-98.36486191247945
6.359062528,1.0000008424188018,-98.48989139458376
6.36134912,0.9999542603975293,-98.61427685561267
6.363636224,0.9999104309220829,-98.7380098529607
6.365923328,0.999872038442953,-98.86112830973875
6.368210432,0.9998414833078122,-98.9837605048505
6.370497536,0.9998208653005035,-99.1060486066172
6.37278464,0.9998112156467818,-99.22813267666406
6.375071232,0.9998133732465936,-99.35016208643545
6.377358336,0.9998272907630243,-99.47232651694809
6.37964544,0.9998518865283889,-99.59476273039543
6.381932544,0.9998858260110395,-99.71761760841692
6.384219648,0.9999267347402643,-99.84106741088092
6.386506752,0.9999720262447894,-99.96515236636098
6.388793344,1.0000190268278901,-100.08992273826348
6.391080448,1.0000645725954322,-100.2153294363483
6.393367552,1.0001058033335626,-100.34146058420134
6.395654656,1.0001400560359728,-100.46812429682461
6.39794176,1.0001652638185137,-100.59521024966227
6.400228864,1.000179629981574,-100.72260436549563
6.402515968,1.0001823540261436,-100.8501519690716
6.40480256,1.0001732845224263,-100.97762873016993
6.407089664,1.0001528695047894,-101.1049424473346
6.409376768,1.0001224478906432,-101.23189376341354
6.411663872,1.000084029745508,-101.35834417444043
6.413950976,1.0000398697382318,-101.48421199131059
6.41623808,0.9999930004266039,-101.60939719164456
6.418524672,0.9999462519003027,-101.73393122223577
6.420811776,0.9999026312434373,-101.85784116144274
6.42309888,0.9998649529213808,-101.98113229145567
6.425385984,0.9998355575310943,-102.10400735185861
6.427673088,0.9998163849714387,-102.22647322604193
6.429960192,0.9998086680378474,-102.3487816455786
6.432246784,0.9998129650952662,-102.4710624651341
6.434533888,0.9998288785530126,-102.59347700269097
6.436820992,0.9998555071535195,-102.71622334353437
6.439108096,0.9998910552758709,-102.83946738734484
6.4413952,0.9999334117297952,-102.96329100709718
6.443682304,0.9999796918178999,-103.08773410100233
6.445968896,1.000027214982284,-103.21288620075671
6.448256,1.0000726802121311,-103.33872922350469
6.450543104,1.0001134694142992,-103.46523474339891
6.452830208,1.0001467216744333,-103.59221741007346
6.455117312,1.0001704337938584,-103.71967255447503
6.457404416,1.0001831304547444,-103.84739129077806
6.459691008,1.0001839195446485,-103.97527902563722
6.461978112,1.0001727930315887,-104.10302626853475
6.464265216,1.0001502769363104,-104.23058014208902
6.46655232,1.0001181013567948,-104.35775954764257
6.468839424,1.0000779252402257,-104.48438662072913
6.471126528,1.0000326985352885,-104.6104234756005
6.473413632,0.9999849285678435,-104.73581609100012
6.475700224,0.9999380604389979,-104.86044706570017
6.477987328,0.9998947167600295,-104.9845136559739
6.480274432,0.999857868960509,-105.10792564673557
6.482561536,0.9998297277865925,-105.23094108339384
6.48484864,0.9998122554470122,-105.35364082915702
6.487135744,0.9998064420606552,-105.47611864688248
6.489422336,0.9998126755400856,-105.59864613897211
6.49170944,0.9998306578790264,-105.72134674982868
6.493996544,0.9998591412985173,-105.84442371245282
6.496283648,0.9998965479067815,-105.96797129616745
6.498570752,0.9999402175389714,-106.09208843480094
6.500857856,0.9999875814530911,-106.21690254295112
6.503144448,1.0000354901051483,-106.34244917982797
6.505431552,1.0000809496763166,-106.46862586229582
6.507718656,1.0001209940069262,-106.59550730407855
6.51000576,1.000153214851828,-106.72288225231347
6.512292864,1.000175411297402,-106.85066859463231
6.514579968,1.0001863326359712,-106.97869714500796
6.51686656,1.0001850828412817,-107.10683554612348
6.519153664,1.0001717540169828,-107.23487320965536
6.521440768,1.0001473472931734,-107.36260050257317
6.523727872,1.0001132090165727,-107.48996689621862
6.526014976,1.0000715825995175,-107.61676852270985
6.52830208,1.000025163439324,-107.74296534430243
6.530588672,0.9999769302480517,-107.86842266060599
6.532875776,0.9999297910240467,-107.99323857256326
6.53516288,0.999886864808172,-108.11743418152307
6.537449984,0.9998508039296271,-108.24101274309477
6.539737088,0.9998241166024976,-108.364146318104
6.542024192,0.9998082530619716,-108.48698150932188
6.544310784,0.9998044682336282,-108.60964859925033
6.546597888,0.9998128143367939,-108.73241102542964
6.548884992,0.9998327888714958,-108.85537959104178
6.551172096,0.9998633673893398,-108.97871206651058
6.5534592,0.9999022280418074,-109.10255677349696
6.555746304,0.9999473140038599,-109.22705107188463
6.558033408,0.999995508742157,-109.35220847075738
6.56032,1.0000437744468944,-109.47804611956913
6.562607104,1.0000890018602546,-109.60461141730467
6.564894208,1.00012848716877,-109.73181458961467
6.567181312,1.0001594584273723,-109.85952848702321
6.569468416,1.0001801883328285,-109.9876252438978
6.57175552,1.000189152602586,-110.11595325140148
6.574042112,1.000185888932956,-110.24431330281226
6.576329216,1.0001705292556498,-110.37254412323401
6.57861632,1.0001439887073915,-110.50051077916204
6.580903424,1.0001080043543455,-110.62804140680817
6.583190528,1.0000649311025072,-110.75495468140345
6.585477632,1.0000175084195895,-110.88125454310833
6.587764224,0.9999685757415228,-111.00685352675879
6.590051328,0.9999213891327495,-111.13172641062714
6.592338432,0.9998789761713144,-111.2560015985373
6.594625536,0.999843942371806,-111.37971321109255
6.59691264,0.9998185585316732,-111.50298437400193
6.599199744,0.9998044723666332,-111.62593700120138
6.601486336,0.9998026285887056,-111.74882823012693
6.60377344,0.9998130783254267,-111.87179079737557
6.606060544,0.9998351722764001,-111.99493724653838
6.608347648,0.9998677309556452,-112.1185572368596
6.610634752,0.9999082540988886,-112.24266851197324
6.612921856,0.9999545859726,-112.36747218851194
6.615208448,1.0000035053181793,-112.49295617115197
6.617495552,1.0000521931187303,-112.61912995296757
6.619782656,1.0000971576062427,-112.7460447388268
6.62206976,1.000135771376421,-112.87352715467296
6.624356864,1.0001656701744595,-113.00153172887781
6.626643968,1.0001846685022964,-113.12992616208224
6.628931072,1.0001917946160752,-113.25846717180853
6.631217664,1.0001864125656923,-113.38709060594974
6.633504768,1.000168908724198,-113.5155263043253
6.635791872,1.000140407206336,-113.64363155132307
6.638078976,1.0001027351962126,-113.77127268926944
6.64036608,1.0000582369704194,-113.89834250084849
6.642653184,1.000009760618131,-114.0247323154334
6.644939776,0.9999603458768523,-114.15037527350881
6.64722688,0.9999131350153612,-114.27536676803378
6.649513984,0.9998713165193207,-114.39967228896796
6.651801088,0.999837268535103,-114.5235001761812
6.654088192,0.999813459345845,-114.64684375395049
6.656375296,0.9998011239340238,-114.76997414026947
6.658661888,0.9998014162449682,-114.89300883451304
6.660948992,0.9998139759673126,-115.01611893663615
6.663236096,0.9998381118795325,-115.13956076871152
6.6655232,0.9998724351933425,-115.26339748192851
6.667810304,0.9999146781353473,-115.38779267494814
6.670097408,0.9999621972856328,-115.51283117429195
6.672384,1.0000118511638474,-115.63861696058515
6.674671104,1.0000606020359377,-115.76511666101321
6.676958208,1.0001052904642396,-115.89228464384578
6.679245312,1.0001431594587238,-116.02010158295703
6.681532416,1.0001715990597795,-116.14841987036085
6.68381952,1.0001889423525765,-116.27702028475885
6.686106112,1.0001940821045108,-116.40579913540896
6.688393216,1.000186561189387,-116.53462280903442
6.69068032,1.000167003371405,-116.66322497791016
6.692967424,1.0001364528105363,-116.79147477270564
6.695254528,1.0000969537051645,-116.91918998857591
6.697541632,1.0000511314320204,-117.04634585287558
6.699828224,1.0000016759064863,-117.17278176436993
6.702115328,0.999951899983766,-117.29848949713842
6.704402432,0.9999048592997918,-117.42354947849833
6.706689536,0.9998635579678675,-117.54791539771342
6.70897664,0.9998307488939694,-117.67176277551137
6.711263744,0.9998083286139638,-117.79522104520328
6.713550848,0.9997979533202778,-117.91843435646093
6.71583744,0.9998002347478833,-118.04160569876862
6.718124544,0.9998149515216012,-118.16488871120113
6.720411648,0.9998412878710352,-118.28847945271984
6.722698752,0.9998775353482711,-118.41256994138647
6.724985856,0.9999212476462511,-118.5372077925152
6.72727296,0.9999699115808346,-118.66253367758202
6.729559552,1.0000202937494784,-118.78859791217977
6.731846656,1.0000690945885933,-118.9153670212471
6.73413376,1.0001134411300034,-119.04283262052456
6.736420864,1.0001502488536378,-119.17092417430824
6.738707968,1.0001773584960567,-119.29943110709691
6.740995072,1.000192930615634,-119.42831883421658
6.743281664,1.0001960296640178,-119.55729262485579
6.745568768,1.000186342427271,-119.68627026906981
6.747855872,1.0001645371239354,-119.81501506611362
6.750142976,1.000132179946658,-119.94335561629163
6.75243008,1.0000909050632523,-120.07118359210018
6.754717184,1.0000436990114625,-120.1983480659199
6.757003776,0.9999935104627936,-120.3248236165832
6.75929088,0.9999432814204723,-120.45056952403789
6.761577984,0.9998964493921698,-120.57562575682216
6.763865088,0.9998558353611259,-120.7000239510675
6.766152192,0.999824320718344,-120.82393962829568
6.768439296,0.999803618341948,-120.94743265887985
6.770725888,0.9997951094540967,-121.07076129482802
6.773012992,0.9997995202949269,-121.19405147191344
6.775300096,0.9998164981781272,-121.31748304794328
6.7775872,0.999844799561456,-121.44124818817174
6.779874304,0.9998828830111742,-121.56548301108688
6.782161408,0.9999282345494561,-121.69040767863332
6.784448512,0.9999779422606477,-121.81595748193912
6.786735104,1.0000288217674977,-121.94228382963203
6.789022208,1.00007780925374,-122.06931058193612
6.791309312,1.0001215382700543,-122.19705844814874
6.793596416,1.0001573272071156,-122.32534336387727
6.79588352,1.0001829361494825,-122.45409506871871
6.798170624,1.0001967334341748,-122.58317320803633
6.800457216,1.0001976783481306,-122.7123224205962
6.80274432,1.000185982627831,-122.84140265754662
6.805031424,1.0001619707114573,-122.97026059408773
6.807318528,1.0001275555882245,-123.09869062605836
6.809605632,1.0000846382689899,-123.2265751498754
6.811892736,1.0000361455944178,-123.35376841369222
6.814179328,0.999985024529373,-123.48023204528273
6.816466432,0.9999346113246694,-123.60599721442144
6.818753536,0.999888032134892,-123.73106877452388
6.82104064,0.9998483146613429,-123.85544149752508
6.823327744,0.9998180814671718,-123.97939203064402
6.825614848,0.9997990239418388,-124.1029488901098
6.82790144,0.9997925981005563,-124.22628959184422
6.830188544,0.9997990846802947,-124.34969595527308
6.832475648,0.9998182320738125,-124.47325682058569
6.834762752,0.999848679112519,-124.59718437563549
6.837049856,0.9998885422882797,-124.72160958459509
6.83933696,0.999935429050524,-124.84671039937682
6.841623552,0.9999861065559044,-124.97247565305847
6.843910656,1.000037496539665,-125.09902728030083
6.84619776,1.0000863277586551,-125.22631760020101
6.848484864,1.000129474224755,-125.35430701563845
6.850771968,1.000164159833777,-125.48282145040722
6.853059072,1.0001882696458468,-125.61179028590614
6.855345664,1.000200179397095,-125.74096771154595
6.857632768,1.000199116127583,-125.8702783915095
6.859919872,1.0001850364626217,-125.99950258124653
6.862206976,1.0001590410025694,-126.12842620646576
6.86449408,1.0001226482173469,-126.25690452648239
6.866781184,1.0000780986903148,-126.38475203086931
6.869068288,1.0000283712278193,-126.51196189600503
6.87135488,0.9999765097660263,-126.63843354362953
6.873641984,0.999925909625716,-126.76415569093317
6.875929088,0.9998797504328741,-126.88915016647033
6.878216192,0.9998408994135148,-127.01356636258491
6.880503296,0.9998119778989687,-127.1374696789942
6.8827904,0.9997947624508273,-127.2610516402695
6.885076992,0.9997903404148555,-127.38448278884107
6.887364096,0.9997990839470431,-127.50792267962089
6.8896512,0.9998204249069506,-127.63163799015969
6.891938304,0.9998530338849694,-127.7556633790746
6.894225408,0.9998946726782189,-127.88027828856917
6.896512512,0.9999428388086093,-128.00552990512958
6.898799104,0.9999945748603088,-128.13156561197488
6.901086208,1.0000463802973256,-128.25829455469324
6.903373312,1.000095117923404,-128.38579791710092
6.905660416,1.00013761724479,-128.51394677850968
6.90794752,1.000171106654495,-128.6426603109053
6.910234624,1.0001935349093243,-128.77178603573665
