freq,mag,phase
6.0,1.0000008385688843,14.48894372350057
6.041025536,0.9999979494484731,13.354840567173968
6.082051072,0.9999957408935443,12.220696208543501
6.12307712,0.9999935389602116,11.086485745766195
6.164102656,0.9999914928009527,9.95229010659532
6.205128192,0.9999895102572123,8.818043240891035
6.246153728,0.999987815177643,7.683736670517668
6.287179264,0.9999861451674855,6.549430055183468
6.328205312,0.9999848358373092,5.415069607374816
6.369230848,0.999983831932741,4.2806845753666405
6.410256384,0.9999829318777362,3.146227641680304
6.45128192,0.9999823646212322,2.011716443342389
6.492307456,0.9999820111392899,0.8772014572725856
6.533333504,0.9999820761359381,-0.25739157977215327
6.57435904,0.9999823060241108,-1.3920184760104208
6.615384576,0.9999827654586284,-2.5267073597217338
6.656410112,0.9999836016657094,-3.6614489081829396
6.697435648,0.9999847255476196,-4.796226499899709
6.738461696,0.9999860018721898,-5.931095843778005
6.779487232,0.9999875502702721,-7.066016669163536
6.820512768,0.9999892929678263,-8.201001283262768
6.861538304,0.9999913134636783,-9.33604010757694
6.902564352,0.9999932996131727,-10.471127855578029
6.943589888,0.9999954724145362,-11.606301791840227
6.984615424,0.9999978155731765,-12.741564473517233
7.02564096,1.0000001663759663,-13.87684868157214
7.066666496,1.0000026143461176,-15.012221437208822
7.107692544,1.0000050038123625,-16.147688760729125
7.14871808,1.0000072583145259,-17.28319581651674
7.189743616,1.0000096459742225,-18.418765962051985
7.230769152,1.0000118507064195,-19.554449287564868
7.271794688,1.0000139049307653,-20.690131447772433
7.312820736,1.0000158177673053,-21.825923781535327
7.353846272,1.0000175044443487,-22.961767652662008
7.394871808,1.0000189272780526,-24.09770858930707
7.435897344,1.0000202347721894,-25.233666305566747
7.47692288,1.0000212879158843,-26.369696409106336
7.517948928,1.0000219446152825,-27.505789738312583
7.558974464,1.000022470915197,-28.64194169804275
7.6,1.0000226680552657,-29.778164791514108
7.641025536,1.0000223843622487,-30.914450660066677
7.682051072,1.0000220404128106,-32.05076968497988
7.72307712,1.0000211941102484,-33.18711988864934
7.764102656,1.0000203134639225,-34.323548892149795
7.805128192,1.000018994976751,-35.46003383807518
7.846153728,1.0000175816467802,-36.59652309343565
7.887179264,1.0000158433884183,-37.73310022220521
7.928205312,1.0000139023970052,-38.86970924399825
7.969230848,1.0000118264291615,-40.00634359822539
8.010256384,1.0000095184558175,-41.14303314862604
8.05128192,1.000007232849322,-42.27975666544311
8.092307456,1.0000048110025954,-43.41652813305805
8.133333504,1.0000022570793146,-44.55334107320844
8.17435904,0.9999998316091538,-45.690184335212805
8.215384576,0.9999972465842913,-46.827049145116646
8.256410112,0.9999948001378597,-47.96396733918863
8.297435648,0.9999923785879461,-49.10093226992045
8.338461696,0.9999902617955723,-50.237942633782374
8.379487232,0.9999882283412526,-51.37499365907191
8.420512768,0.9999862887956104,-52.512086380522256
8.461538304,0.9999846084206669,-53.649209773675246
8.502564352,0.9999831938708601,-54.78639896465822
8.543589888,0.9999820390153769,-55.923602334867304
8.584615424,0.9999811577493422,-57.06090411432389
8.625641472,0.9999805284227071,-58.198220090324
8.666667008,0.9999802490405552,-59.33560314940183
8.707692544,0.999980235823263,-60.47304001487598
8.74871808,0.9999805569722537,-61.610534184297975
8.789743616,0.9999811278110453,-62.7481045931743
8.830769152,0.999982075650948,-63.885723533856755
8.871794688,0.9999832991852614,-65.02340000061191
8.912820224,0.999984676419031,-66.16114510838534
8.95384576,0.9999863926436335,-67.2989983663353
8.994871296,0.9999884023961492,-68.43687846344056
9.035897856,0.9999905275444516,-69.57484085572291
9.076923392,0.9999928891646332,-70.71287014154235
9.117948928,0.9999953222897743,-71.85099200237221
9.158974464,0.9999978962828854,-72.98917884800927
9.2,1.000000446460023,-74.12742401517204
9.241025536,1.0000031157832379,-75.26578042109384
9.282051072,1.0000058339225635,-76.40418653896408
9.323076608,1.0000083374204571,-77.54268036092733
9.364102144,1.0000109207928802,-78.68125163516703
9.405128704,1.0000134179881457,-79.81990457725952
9.44615424,1.0000157365374358,-80.95860782981188
9.487179776,1.0000178257782264,-82.0974053564459
9.528205312,1.0000196521839322,-83.23628753571698
9.569230848,1.000021268096334,-84.3752362084607
9.610256384,1.0000226548260907,-85.51424004429856
9.65128192,1.0000238484794846,-86.65329998830568
9.692307456,1.000024584414709,-87.79245629067161
9.733332992,1.0000250627901548,-88.93166287897147
9.774358528,1.0000253235877545,-90.07093832066913
9.815385088,1.0000251385683043,-91.21025255478207
9.856410624,1.0000246604383944,-92.34963605056221
9.89743616,1.0000238856332433,-93.48908026010861
9.938461696,1.000022815961873,-94.62857342097675
9.979487232,1.000021414928561,-95.76814682522973
10.020512768,1.0000196828475019,-96.90773308071401
10.061538304,1.0000178041045082,-98.04736835927989
10.10256384,1.000015650327515,-99.18705825601197
10.143589376,1.0000132960519972,-100.32678665324445
10.184614912,1.0000107821768691,-101.46656159433721
10.225641472,1.0000081429749166,-102.60639571637327
10.266667008,1.0000054769141453,-103.74624900241791
10.307692544,1.0000026268868887,-104.88615195932857
10.34871808,0.9999998034983089,-106.02608384076362
10.389743616,0.9999970149952273,-107.16607822703432
10.430769152,0.9999941908599338,-108.30609832202865
10.471794688,0.9999915888241633,-109.44616434508805
10.512820224,0.9999891806666532,-110.58627175990863
10.55384576,0.9999868865942706,-111.72641409464364
10.594871296,0.9999847916333445,-112.86661293684276
10.635897856,0.9999828177843156,-114.00686840776058
10.676923392,0.9999812613204132,-115.1471577788246
10.717948928,0.999979948004524,-116.28748641676025
10.758974464,0.9999789358544954,-117.42788807867463
10.8,0.9999782459698483,-118.56831859240354
10.841025536,0.9999779103201164,-119.70881919245141
10.882051072,0.9999779658643462,-120.8493880287047
10.923076608,0.9999782754068189,-121.98998993916564
10.964102144,0.9999790141599634,-123.1306613193273
11.005128704,0.9999799997846078,-124.27141700572595
11.04615424,0.9999813251214876,-125.41223551366484
11.087179776,0.9999830032806989,-126.55310374152302
11.128205312,0.9999849437587797,-127.69405339010493
11.169230848,0.9999871942949348,-128.8350967145086
11.210256384,0.9999896148183314,-129.97619514492828
11.25128192,0.9999922074692724,-131.11737082471794
11.292307456,0.9999950851711606,-132.2586155835961
11.333332992,0.999997964384453,-133.3999571603747
11.374358528,1.0000009577242588,-134.54136737107606
11.415385088,1.0000039913897711,-135.6828664282756
11.456410624,1.0000070505802825,-136.82443397732197
11.49743616,1.0000100540866517,-137.96608865921053
11.538461696,1.0000129724294315,-139.1078274565762
11.579487232,1.000015797311515,-140.2496301246984
11.620512768,1.0000183819149415,-141.39152290369344
11.661538304,1.000020874428855,-142.53347402451342
11.70256384,1.000023007439817,-143.67553167873902
11.743589376,1.000024888678985,-144.817630848218
11.784614912,1.0000265786600995,-145.959829897363
11.825641472,1.0000278515380332,-147.10207382833113
11.866667008,1.000028727342089,-148.24439463202637
11.907692544,1.000029364091374,-149.38679352504172
11.94871808,1.0000295528013399,-150.52923729595562
11.989743616,1.0000293983558257,-151.67174712883465
12.030769152,1.000028911997994,-152.81429533017385
12.071794688,1.0000279697614616,-153.956909647424
12.112820224,1.0000267118608033,-155.09958762878395
12.15384576,1.0000250548785456,-156.24231770024826
12.194871296,1.0000231669854194,-157.38506607160997
12.235897856,1.0000209293765399,-158.52787577282814
12.276923392,1.0000183648694765,-159.67073393374207
12.317948928,1.0000156327771175,-160.81361807080194
12.358974464,1.0000126980166086,-161.95655028395814
12.4,1.0000096280698003,-163.09952155289474
12.441025536,1.0000063934406775,-164.2425330997134
12.482051072,1.0000031588772704,-165.3855637405226
12.523076608,0.999999761001356,-166.52864012950442
12.564102144,0.9999963952768632,-167.67176022600532
12.605128704,0.9999932089491617,-168.81490631186753
12.64615424,0.9999901418410096,-169.9580879676914
12.687179776,0.9999871762321875,-171.10129121062494
12.728205312,0.9999843647122884,-172.244550192769
12.769230848,0.9999818046129515,-173.38785210592323
12.810256384,0.9999795318139882,-174.53118739708032
12.85128192,0.9999776348021454,-175.67455848805264
12.892307456,0.999976028856427,-176.81798722459286
12.933332992,0.9999748342835327,-177.9614418379127
12.974358528,0.9999738879732435,-179.10497029691376
13.015385088,0.9999734647144038,179.75148449102616
13.056410624,0.9999734761077101,178.6078546806013
13.09743616,0.9999738032823974,177.46418440966247
13.138461696,0.9999746122872312,176.32044035356853
13.179487232,0.9999758571720115,175.17665776306208
13.220512768,0.9999773846220762,174.03278392950006
13.261538304,0.9999794151709862,172.88885821517792
13.30256384,0.9999817608056164,171.7448549091514
13.343589376,0.9999843395287313,170.60079369835768
13.384614912,0.9999873160893562,169.45665364348417
13.425641472,0.9999904921443415,168.3124282986504
13.466667008,0.9999938962699697,167.16813830375324
13.507692544,0.9999974593883397,166.02375496592992
13.54871808,1.0000011217476013,164.87930027672797
13.589743616,1.0000048294395398,163.7347692529519
13.630769152,1.0000086612177304,162.59016123653393
13.671794688,1.000012340249373,161.4454661738532
13.712820224,1.0000159963431063,160.30068531594188
13.75384576,1.0000194468997448,159.155833073424
13.794871296,1.0000227409843285,158.01090063080906
13.835897856,1.0000258079277218,156.8658925361333
13.876923392,1.000028593393634,155.72080591576326
13.917948928,1.0000309592438412,154.57565228972655
13.958974464,1.0000330845679457,153.43043128781562
14.0,1.0000347859291938,152.28515023292636
