freq,mag,phase
6.0,0.9994844027602381,-12.005263067009217
6.002565632,0.9995710810933645,-12.091429838576433
6.005131264,0.9996829620383835,-12.179059108437555
6.007697408,0.9998150272623345,-12.268462250786534
6.01026304,0.9999586903653807,-12.359902936165508
6.012828672,1.000105150104834,-12.453472473718945
6.015394304,1.0002449661771287,-12.54912854910966
6.017960448,1.000369181726342,-12.646722251439483
6.02052608,1.0004699781367394,-12.745936007698921
6.023091712,1.000541054984124,-12.846446806007087
6.025657344,1.0005777876526951,-12.947736846803217
6.028222976,1.0005778844992956,-13.049338390682077
6.03078912,1.000541237484408,-13.150674131402361
6.033354752,1.000470247207335,-13.251287968086496
6.035920384,1.0003694243102783,-13.350594894832254
6.038486016,1.0002450408601358,-13.448314317636385
6.04105216,1.00010515221278,-13.544157069296512
6.043617792,0.99995843910465,-13.637869708469173
6.046183424,0.9998143054663959,-13.729500342434525
6.048749056,0.9996819328799501,-13.819154050150058
6.0513152,0.9995696142151111,-13.907036206527366
6.053880832,0.9994847043962914,-13.993495332203484
6.056446464,0.9994322891457547,-14.078954065441442
6.059012096,0.9994159322717375,-14.163952294373699
6.061577728,0.999436720689699,-14.248970543632275
6.064143872,0.9994933452863052,-14.334533601770051
6.066709504,0.9995820490391385,-14.42123956112328
6.069275136,0.9996973318090238,-14.509382540850346
6.071840768,0.9998317813620172,-14.599439952426906
6.074406912,0.9999770229991156,-14.69148039049903
6.076972544,1.0001237097886682,-14.785682943298212
6.079538176,1.0002625430341223,-14.881955950564326
6.082103808,1.0003847734435234,-14.98015878346333
6.08466944,1.0004826937557514,-15.079972076166607
6.087235584,1.0005499447632067,-15.181007128520175
6.089801216,1.0005823231693085,-15.282757025489323
6.092366848,1.0005777341119342,-15.384756959367797
6.09493248,1.0005365242376236,-15.48640777890872
6.097498624,1.0004613121929196,-15.587286978662258
6.100064256,1.0003566625719007,-15.686860582482277
6.102629888,1.000229353992908,-15.784715129296208
6.10519552,1.0000876274365662,-15.88067570360643
6.107761152,0.9999399680521462,-15.974554286185057
6.110327296,0.9997962313924537,-16.066287582096418
6.112892928,0.9996654413896057,-16.156037556465616
6.11545856,0.9995557953912925,-16.244089368056382
6.118024192,0.9994741990736555,-16.3307335972212
6.120590336,0.9994260989849255,-16.416415736951738
6.123155968,0.9994141914098598,-16.501735908249803
6.1257216,0.9994396715678994,-16.58712405669366
6.128287232,0.9995007268824795,-16.673199421357687
6.130852864,0.9995934683596855,-16.760363471781194
6.133419008,0.9997120006032453,-16.849125680319684
6.13598464,0.999848890577012,-16.939732207941944
6.138550272,0.9999954084926069,-17.032404870424138
6.141115904,1.0001422527072683,-17.127291537267144
6.143682048,1.000280143165676,-17.2241860670621
6.14624768,1.0004002279539028,-17.32303725484731
6.148813312,1.0004950313123775,-17.423422248382188
6.151378944,1.0005584700244894,-17.52495639369676
6.153945088,1.0005863240440218,-17.627196251420674
6.15651072,1.0005771321926202,-17.729587919903476
6.159076352,1.0005313428321057,-17.83162955236284
6.161641984,1.0004518922398624,-17.93271610187144
6.164207616,1.0003437178221886,-18.032451803791727
6.16677376,1.000213509252822,-18.13054487963472
6.169339392,1.000070068446913,-18.226604326519904
6.171905024,0.9999218213267363,-18.320601421383476
6.174470656,0.9997786177438966,-18.41243556769073
6.1770368,0.9996491957070689,-18.50236230579395
6.179602432,0.9995421973770217,-18.590526771611948
6.182168064,0.9994641953410565,-18.677378673851265
6.184733696,0.9994203595787992,-18.763354371916684
6.187299328,0.9994131018132472,-18.848988736337457
6.189865472,0.999443113339358,-18.93478223200295
6.192431104,0.9995085131031427,-19.02131219803685
6.194996736,0.9996053557523974,-19.10899248230942
6.197562368,0.9997270791503928,-19.198339931819632
6.200128512,0.9998661097308927,-19.28956361674835
6.202694144,1.0000138260817713,-19.382875003494604
6.205259776,1.00016068473452,-19.478375597335646
6.207825408,1.000297410473772,-19.575946138063248
6.21039104,1.000415268665956,-19.675356577388772
6.212957184,1.0005068343046415,-19.77630059812403
6.215522816,1.0005664007359036,-19.878411724863845
6.218088448,1.0005898516057317,-19.98109419567693
6.22065408,1.0005759787254394,-20.083873435082108
6.223220224,1.0005256191358998,-20.186227446061512
6.225785856,1.0004420241625054,-20.287634000209124
6.228351488,1.0003301732493517,-20.387571114548216
6.23091712,1.00019740116558,-20.48580703688432
6.233482752,1.0000520938947475,-20.582008807884947
6.236048896,0.9999033507370195,-20.676108385462825
6.238614528,0.9997608280655907,-20.768080405558642
6.24118016,0.9996331997245087,-20.858122157637872
6.243745792,0.9995290049336985,-20.94649006164299
6.246311936,0.9994547358168955,-21.033565981946523
6.248877568,0.9994149539766647,-21.119797347672243
6.2514432,0.9994123077702842,-21.20576552283258
6.254008832,0.9994469983755134,-21.291954906772617
6.256574976,0.9995168978496208,-21.378941689339353
6.259140608,0.9996174400427659,-21.46718081845636
6.26170624,0.9997423060098116,-21.557117880120064
6.264271872,0.9998835237559375,-21.648963452547356
6.266837504,1.0000322522038896,-21.742912614655765
6.269403648,1.0001789670544203,-21.83904374459048
6.27196928,1.0003144257877552,-21.937230242783208
6.274534912,1.0004299438046456,-22.037256979052664
6.277100544,1.0005182471500125,-22.138860800810416
6.279666688,1.0005737438054971,-22.241426506248686
6.28223232,1.000592763529035,-22.344574998022804
6.284797952,1.0005742353748466,-22.447768401976557
6.287363584,1.0005193892601694,-22.55042221300696
6.289929216,1.0004316269230138,-22.65207325327408
6.29249536,1.0003164355127656,-22.75224031771569
6.295060992,1.0001809455095074,-22.850635609704867
6.297626624,1.0000340835342072,-22.947005349351844
6.300192256,0.9998849907421198,-23.041203008158387
6.3027584,0.9997431350990191,-23.133315276853217
6.305324032,0.9996175683641251,-23.223480608395022
6.307889664,0.9995162407557013,-23.31202204230575
6.310455296,0.9994455894911461,-23.39930417950539
6.313020928,0.9994100576203433,-23.485867053720863
6.315587072,0.9994120744428368,-23.572165140970903
6.318152704,0.9994514191510556,-23.65877588595001
6.320718336,0.9995256476249673,-23.746233520694116
6.323283968,0.9996299659281607,-23.83504789865378
6.325850112,0.9997578479881654,-23.92553273624357
6.328415744,0.9999012676680303,-24.017990638003134
6.330981376,1.0000509004058833,-24.112622658922334
6.333547008,1.0001973417990817,-24.209411325076843
6.33611264,1.0003312283663568,-24.30824820231892
6.338678784,1.0004444122685907,-24.40891072271671
6.341244416,1.000529219515563,-24.511045018206552
6.343810048,1.0005807104115683,-24.614139694545653
6.34637568,1.000595350494473,-24.71772968756648
6.348941824,1.0005722016051581,-24.821298181310656
6.351507456,1.0005127445397939,-24.924319078782744
6.354073088,1.000420926399295,-25.026180790081792
6.35663872,1.0003023213600342,-25.12658218735003
6.359204864,1.0001644914253034,-25.22516112354034
6.361770496,1.0000161021044125,-25.321626776021336
6.364336128,0.9998667787499504,-25.41593936670187
6.36690176,0.9997258408913092,-25.508217013446135
6.369467392,0.9996021920047367,-25.59850683246926
6.372033536,0.9995039033956067,-25.68725712336768
6.374599168,0.9994370337718615,-25.77479437870421
6.3771648,0.9994058971305975,-25.861608592971493
6.379730432,0.9994124313164835,-25.948277151230272
6.382296576,0.9994562610010479,-26.03530831401392
6.384862208,0.9995348145709938,-26.12329643873444
6.38742784,0.9996429138417791,-26.212641465072608
6.389993472,0.9997737781758477,-26.30368478675323
6.392559104,0.9999188262563317,-26.39681080155875
6.395125248,1.000069371608652,-26.49208293719659
6.39769088,1.0002154332730937,-26.589540366206624
6.400256512,1.0003478185918575,-26.689033711716345
6.402822144,1.0004583663225863,-26.790308879288038
6.405388288,1.0005398570295339,-26.892953316263995
6.40795392,1.0005870912619343,-26.99658747575501
6.410519552,1.0005972197186426,-27.100660510176816
6.413085184,1.0005695249331816,-27.204636793263425
6.415650816,1.0005057100770762,-27.307907367678908
6.41821696,1.0004097256707927,-27.410089369726872
6.420782592,1.0002877941500827,-27.51070568330531
6.423348224,1.0001475439400218,-27.60939227977072
6.425913856,0.999997932228339,-27.706041318951268
6.42848,0.9998486359378687,-27.80045937411757
6.431045632,0.9997086053234547,-27.89283979267174
6.433611264,0.9995871183389344,-27.983361634167323
6.436176896,0.9994917652272217,-28.07224926509884
6.438742528,0.9994287516246116,-28.160029592439997
6.441308672,0.9994019607315425,-28.24716135966665
6.443874304,0.9994132375014158,-28.334211344478884
6.446439936,0.9994617999451961,-28.42166202223004
6.449005568,0.9995444544195012,-28.510136854798592
6.451571712,0.9996562497492008,-28.600025292822195
6.454137344,0.9997898154891133,-28.691723414891605
6.456702976,0.9999367786693145,-28.785477522379797
6.459268608,1.0000878827125197,-28.881392145879264
6.461834752,1.0002333976321516,-28.97948931703608
6.464400384,1.00036422771481,-29.079655823737458
6.466966016,1.0004720798516853,-29.181529598308586
6.469531648,1.0005498404638782,-29.28479335849444
6.47209728,1.000593146382906,-29.388915893412335
6.474663424,1.0005985752124655,-29.493435485815215
6.477229056,1.0005662956658161,-29.597769338836855
6.479794688,1.0004980498176919,-29.701369101117038
6.48236032,1.0003981595509523,-29.803840458751342
6.484926464,1.0002729965755286,-29.904619353105534
6.487492096,1.0001305411150532,-30.00348929541082
6.490057728,0.99997979398207,-30.10024493663102
6.49262336,0.9998302535044875,-30.194843633617726
6.495188992,0.9996914845933959,-30.28733373105564
6.497755136,0.9995721822437563,-30.37799164729995
6.500320768,0.9994801327058374,-30.46710687142236
6.5028864,0.9994211119494443,-30.55513085910787
6.505452032,0.9993986479959185,-30.642599337521517
6.508018176,0.9994145934536476,-30.729986801612466
6.510583808,0.9994676236093932,-30.81795708882433
6.51314944,0.9995545989046696,-30.906920456312612
6.515715072,0.9996697278749479,-30.99738882548755
6.518280704,0.9998060847795602,-31.089689619296397
6.520846848,0.9999546436429066,-31.184094905577787
6.52341248,1.000106301890211,-31.280671981753546
6.525978112,1.000251269316971,-31.379452049092603
6.528543744,1.0003803364759123,-31.48020998904043
6.531109888,1.0004853285828936,-31.582699462137878
6.53367552,1.0005596396619296,-31.686501075202358
6.536241152,1.0005984603938651,-31.791149050569867
6.538806784,1.0005995337148588,-31.89612304776926
6.541372928,1.000562494268078,-32.00082566646227
6.54393856,1.0004897973567952,-32.10478917143707
6.546504192,1.000386156502514,-32.20742864011093
6.549069824,1.0002580269703043,-32.30844246763644
6.551635456,1.0001133149066808,-32.40748814138707
6.5542016,0.9999615667132644,-32.50433241834707
6.556767232,0.9998122185753925,-32.59909801931193
6.559332864,0.9996746335569281,-32.691769456268524
6.561898496,0.999557800670762,-32.782553049016514
6.56446464,0.9994689727180959,-32.87189235945348
6.567030272,0.9994137425487448,-32.9601905093287
6.569595904,0.9993959873751346,-33.04797575350928
6.572161536,0.9994163989699576,-33.135790412975446
6.574727168,0.9994739431816055,-33.224170027256264
6.577293312,0.9995651465304439,-33.313662615768145
6.579858944,0.9996837490507585,-33.404675066817035
6.582424576,0.9998226457011548,-33.49761311373079
6.584990208,0.9999728025065141,-33.592701684337136
6.587556352,1.0001248522683,-33.68994062013063
6.590121984,1.0002690531843976,-33.789368449871404
6.592687616,1.000396236588099,-33.890787995018165
6.595253248,1.0004983569293757,-33.993859017054206
6.59781888,1.000568965042707,-34.098243390385726
6.600385024,1.0006036075274873,-34.203419470992564
6.602950656,1.0005999846049982,-34.308805826390504
6.605516288,1.0005584483015728,-34.413893018788535
6.60808192,1.0004814579632308,-34.518135471888
6.610648064,1.0003740179674312,-34.62105296526359
6.613213696,1.000242736153094,-34.7222463002617
6.615779328,1.0000960256956026,-34.82145975119476
6.61834496,0.999943320178305,-34.918496058858935
6.620910592,0.9997941668920431,-35.01336138666057
6.623476736,0.9996581012111694,-35.106134091856205
6.626042368,0.999543526921639,-35.19716954255091
6.628608,0.9994581720573158,-35.286703018373316
6.631173632,0.9994071175143175,-35.375264822562116
6.633739776,0.9993935971043386,-35.463407057634726
6.636305408,0.9994187357679666,-35.55161849388378
6.63887104,0.9994808736679786,-35.640483088165475
6.641436672,0.9995759157377879,-35.73050300985854
6.644002816,0.9996980011073129,-35.82210102456941
6.646568448,0.9998393608026902,-35.91566899359871
6.64913408,0.999991004530913,-36.01135014414544
6.651699712,1.0001432968034172,-36.109284954189334
6.654265344,1.0002865369483498,-36.20939695114103
6.656831488,1.0004118014741608,-36.31143252470326
6.65939712,1.0005110330868665,-36.41514245749585
6.661962752,1.0005777763743304,-36.52008044523896
6.664528384,1.0006080051001096,-36.62573154305073
6.667094528,1.0005999761126507,-36.73156331003737
6.66966016,1.000553760888168,-36.837005957688994
6.672225792,1.0004724579672453,-36.94156098535874
6.674791424,1.0003613211072482,-37.044760661474704
6.677357056,1.0002270719619313,-37.14613694954829
6.6799232,1.000078556462332,-37.24551825623059
6.682488832,0.9999250405056692,-37.34270570580593
6.685054464,0.9997761622358827,-37.43769446866918
6.687620096,0.9996416486889474,-37.5306618336857
6.69018624,0.9995296597454205,-37.621808831834215
6.692751872,0.9994475678910302,-37.71160308517737
6.695317504,0.9994007410840768,-37.80044144791038
6.697883136,0.9993917226479057,-37.88892507121716
6.700448768,0.9994216441162019,-37.977551387483615
6.703014912,0.9994880977167709,-38.066870199018155
6.705580544,0.9995871696114325,-38.15745033115517
6.708146176,0.9997125903210654,-38.24963599179186
6.710711808,0.9998563454357345,-38.34385861189406
6.713277952,1.0000093152710847,-38.440199386901334
6.715843584,1.0001617216336889,-38.53880410014512
6.718409216,1.0003039686184445,-38.63954398287626
6.720974848,1.000427091237313,-38.74229108349161
6.72354048,1.0005231173859015,-38.846590207636865
6.726106624,1.0005862245331634,-38.9520809859815
6.728672256,1.0006120965828265,-39.0582282842568
6.731237888,1.0005993261004147,-39.16449222673262
6.73380352,1.0005485867406603,-39.27029016550789
6.736369664,1.0004631384873017,-39.37516557834609
6.738935296,1.0003481908108756,-39.4785743578862
6.741500928,1.000211346030679,-39.58014559984751
6.74406656,1.0000609880430391,-39.67967414744545
6.746632704,0.999906753092148,-39.777001483782286
6.749198336,0.9997583966749946,-39.87217679141122
6.751763968,0.9996253879875738,-39.96527316678436
6.7543296,0.9995161321288301,-40.05665327437913
6.756895232,0.9994376330648034,-40.14665304787571
6.759461376,0.9993947989179631,-40.2357948484109
6.762027008,0.999390520501055,-40.32460195042781
6.76459264,0.9994248972891842,-40.413668446261084
6.767158272,0.9994957757769748,-40.50349059280271
6.769724416,0.999598833671305,-40.59458440552691
6.772290048,0.9997275175086645,-40.68740870715441
6.77485568,0.9998734032612535,-40.782212716503416
6.777421312,1.000027498863105,-40.87925570714835
6.779986944,1.000180007326915,-40.97852086718444
6.782553088,1.0003211805886123,-41.07995676518926
6.78511872,1.0004420595473726,-41.18327236762411
6.787684352,1.0005349203328144,-41.28821688069584
6.790249984,1.0005941123524074,-41.39428230995353
6.792816128,1.0006157095283053,-41.50090927324765
6.79538176,1.0005982071134196,-41.607618874475705
6.797947392,1.0005430329404366,-41.71376626770538
6.800513024,1.0004532794096095,-41.818904750308334
6.803078656,1.0003348443471496,-41.92254885143248
6.8056448,1.0001951842086851,-42.024379386840415
6.808210432,1.0000431176375852,-42.12406562943277
6.810776064,0.9998884164845779,-42.221548899587575
6.813341696,0.999740689972151,-42.316807233402045
6.81590784,0.9996093321577149,-42.41009012087481
6.818473472,0.999502788184333,-42.501658272198775
6.821039104,0.9994279465984229,-42.59192297790803
6.823604736,0.9993894586715508,-42.681363048241636
6.826170368,0.9993896150460833,-42.770532711236676
6.828736512,0.9994285583269524,-42.860009746682024
6.831302144,0.9995039886207446,-42.9503327721113
6.833867776,0.999610822172498,-43.0420015143323
6.836433408,0.999742565814099,-43.13542739054315
6.838999552,0.999890612433093,-43.230891895987384
6.841565184,1.0000459426509283,-43.32856757645454
6.844130816,1.000198162204826,-43.42856046821046
6.846696448,1.0003381523775823,-43.53062035863015
6.849262592,1.0004567214922895,-43.63461205590686
6.851828224,1.0005464067148804,-43.74014839522302
6.854393856,1.0006015579939522,-43.84671035462951
6.856959488,1.0006187065574643,-43.953870944872534
6.85952512,1.0005967124607449,-44.06097298494026
6.862091264,1.0005368349348853,-44.167530812092835
6.864656896,1.000442986962683,-44.272968270145064
6.867222528,1.0003210918138523,-44.376829144996755
6.86978816,1.0001789249705966,-44.47884359325862
6.872354304,1.0000253763441598,-44.578678289259344
6.874919936,0.999870155600118,-44.67628362964809
6.877485568,0.9997230453812299,-44.771746201678
6.8800512,0.9995937154075192,-44.86517065442247
6.882616832,0.9994899931462836,-44.956948066873444
6.885182976,0.9994188252987143,-45.04743322851339
6.887748608,0.9993844277073263,-45.13720625464464
6.89031424,0.9993892644670788,-45.22678599632884
6.892879872,0.9994328191910677,-45.31665761591445
6.895446016,0.9995125889558188,-45.40750770717623
6.898011648,0.9996232350550377,-45.49971562065955
6.90057728,0.9997578863603249,-45.593798489943126
6.903142912,0.9999080617457665,-45.68993853230193
6.905708544,1.0000641994458936,-45.7882783320204
6.908274688,1.0002164869763113,-45.888891866428715
6.91084032,1.0003549773580056,-45.99164474797856
6.913405952,1.0004710574995115,-46.096272675276765
6.915971584,1.0005575190470017,-46.20240498660208
6.918537728,1.0006088177971588,-46.309522602670995
6.92110336,1.000621410197511,-46.41711350040436
6.923668992,1.0005946002110107,-46.52467983061052
6.926234624,1.0005304403039437,-46.63153352586049
6.928800768,1.000432526927941,-46.73728438582903
6.9313664,1.0003071949938147,-46.841399927444314
6.933932032,1.0001624131809226,-46.94358035300129
6.936497664,1.0000075143481062,-47.04360145944615
6.939063296,0.9998518116312274,-47.14137030878662
6.94162944,0.9997057538369117,-47.23698100571715
6.944195072,0.9995781549556595,-47.33057595851435
6.946760704,0.9994774996373552,-47.42256377510296
6.949326336,0.999409988966912,-47.513334419768505
6.95189248,0.9993799401833122,-47.603397062830446
6.954458112,0.9993892610168249,-47.69333876720902
6.957023744,0.999437546295522,-47.78372838371682
6.959589376,0.9995213999731561,-47.875068537347985
6.962155008,0.9996357995159557,-47.96786776249343
6.964721152,0.9997734674286088,-48.06250763349888
6.967286784,0.9999256192959911,-48.15929229145992
6.969852416,1.000082577579191,-48.2583118678848
6.972418048,1.000234507240197,-48.35965594673192
6.974984192,1.0003715338659238,-48.46304587341956
6.977549824,1.0004852926051737,-48.568303488629
6.980115456,1.000568193867072,-48.67502183469137
6.982681088,1.0006154071694275,-48.78270718136595
6.98524672,1.0006235834184465,-48.89078239016588
6.987812864,1.000592220791233,-48.99871346467528
6.990378496,1.000523442925769,-49.1059603325051
6.992944128,1.0004214738164237,-49.211994373133244
6.99550976,1.0002929124997473,-49.31631048919632
6.998075904,1.0001458035372508,-49.41870358477206
7.000641536,0.9999893415286547,-49.51886509627025
7.003207168,0.9998335708121826,-49.61683934600781
7.0057728,0.9996883682855691,-49.71257297827843
7.008338432,0.9995630398762939,-49.80637043957857
7.010904576,0.9994653274067663,-49.89853602326135
7.013470208,0.9994016620565997,-49.98956986909818
7.01603584,0.9993758764635764,-50.07997637622474
7.018601472,0.9993898679079719,-50.170283652183315
7.021167616,0.9994426865756427,-50.261107271964875
