freq,mag,phase
6.0,1.0000519850284226,-79.41915781930437
6.002286592,1.0002013709224575,-79.55555137546337
6.004572672,1.0003341319382348,-79.69402036507313
6.006859264,1.0004454032269043,-79.83421808523289
6.009145344,1.0005284724939458,-79.97593019427742
6.011431936,1.0005776381593272,-80.1185628796651
6.013718016,1.000589893151803,-80.26170237083339
6.016004608,1.0005645993756038,-80.40476487455675
6.018290688,1.000503379814394,-80.54724745933197
6.02057728,1.000409885877487,-80.68860280829344
6.022863872,1.0002900697643615,-80.82841654891592
6.025149952,1.0001514403609706,-80.96640201558819
6.027436544,1.0000031947255104,-81.10233969865068
6.029722624,0.9998543644176602,-81.23612108297041
6.032009216,0.9997144880570676,-81.36782289169614
6.034295296,0.9995924590228519,-81.49760878312448
6.036581888,0.9994960182678871,-81.62586371730646
6.03886848,0.9994313315427228,-81.7529976734249
6.04115456,0.9994025778245489,-81.87944412685134
6.043441152,0.9994115168317942,-82.00576555734206
6.045727232,0.9994575549014723,-82.1324878553221
6.048013824,0.9995378939470629,-82.26018820200908
6.050299904,0.9996473958819787,-82.38930130188857
6.052586496,0.9997789273726377,-82.52014263042076
6.054872576,0.9999244859220047,-82.65306726263074
6.057159168,1.0000745809173603,-82.7881295054113
6.05944576,1.0002198138966174,-82.92538025501786
6.06173184,1.0003509535939166,-83.06466176181745
6.064018432,1.0004594595102554,-83.20576728139008
6.066304512,1.000538694514128,-83.34819291373361
6.068591104,1.0005836243760136,-83.49155481652613
6.070877184,1.000591263591939,-83.63530986996122
6.073163776,1.000560957855882,-83.77896462063522
6.075450368,1.000495220424209,-83.92188705495342
6.077736448,1.0003975277075412,-84.06370983345565
6.08002304,1.0002745091873895,-84.2039382883999
6.08230912,1.0001336365607438,-84.34226536003858
6.084595712,0.999984175472911,-84.4784934124018
6.086881792,0.9998353475697302,-84.61253729348228
6.089168384,0.9996966857680458,-84.74455416011789
6.091454464,0.9995770045860413,-84.87471511312393
6.093741056,0.9994837920929038,-85.00333140042937
6.096027648,0.9994232927826172,-85.13085784551457
6.098313728,0.9993990121224138,-85.25778828518982
6.10060032,0.9994127319637569,-85.38466274322272
6.1028864,0.9994635200297673,-85.51205572856664
6.105172992,0.9995483021396637,-85.6404226238605
6.107459072,0.9996612751492677,-85.77026086707811
6.109745664,0.999795643617327,-85.90187771928059
6.112032256,0.9999429933199426,-86.03558258615539
6.114318336,1.0000935912775766,-86.17153534597816
6.116604928,1.000238000754462,-86.30961292718384
6.118891008,1.0003672497262686,-86.44969487426802
6.1211776,1.0004729957584435,-86.5915038959259
6.12346368,1.000548406358749,-86.7347049791069
6.125750272,1.0005888793609525,-86.87869664465309
6.128036352,1.0005919443291673,-87.02304557328718
6.130322944,1.0005571805194249,-87.16720665355854
6.132609536,1.0004867000134932,-87.31062943378554
6.134895616,1.0003850774094167,-87.45284602536996
6.137182208,1.0002588384287012,-87.59337973733415
6.139468288,1.0001158678076534,-87.73199687230972
6.14175488,0.9999651755851217,-87.86850565206225
6.14404096,0.999816492970841,-88.00284898650901
6.146327552,0.9996790928238906,-88.13513192503218
6.148614144,0.9995618381679409,-88.26559302317459
6.150900224,0.9994721150203251,-88.39452350412697
6.153186816,0.9994158094140148,-88.5224728338493
6.155472896,0.9993960297536432,-88.64985132123994
6.157759488,0.9994145755388744,-88.77723544825817
6.160045568,0.9994699979153723,-88.90520211622287
6.16233216,0.9995588947470422,-89.03418613825929
6.16461824,0.9996756403312024,-89.16473587324091
6.166904832,0.9998126109534772,-89.29713204148888
6.169191424,0.999961399975205,-89.43164481501245
6.171477504,1.000112541229952,-89.56836527882149
6.173764096,1.0002560099687572,-89.70719533456803
6.176050176,1.0003834374673541,-89.84806102551113
6.178336768,1.0004860297678886,-89.9905895856489
6.180622848,1.0005577940858101,-90.13447061182698
6.18290944,1.0005939697407378,-90.27909287189011
6.18519552,1.0005920920933409,-90.42400116687969
6.187482112,1.000552577202258,-90.5686372887071
6.189768704,1.00047753685818,-90.712476411645
6.192054784,1.0003720892268086,-90.85499107162065
6.194341376,1.0002427424234435,-90.99581851392708
6.196627456,1.000097662495365,-91.13473600946476
6.198914048,0.9999462058962563,-91.27144852948315
6.201200128,0.99979771919707,-91.40601748645047
6.20348672,0.9996619325280504,-91.53852406636693
6.205773312,0.999547095540079,-91.66926532409012
6.208059392,0.9994608270512336,-91.79848720431154
6.210345984,0.9994086517375241,-91.92675589229266
6.212632064,0.9993936415620199,-92.05457389354846
6.214918656,0.9994168813184289,-92.18247371481917
6.217204736,0.9994767752114271,-92.31095796312616
6.219491328,0.9995700048336107,-92.44059281626919
6.221777408,0.9996900865496505,-92.57182528543697
6.224064,0.999829582635236,-92.70494336179536
6.226350592,0.9999799580239965,-92.84015343847524
6.228636672,1.0001311535093305,-92.97765428257655
6.230923264,1.0002740393469314,-93.11720601414132
6.233209344,1.000399071413065,-93.25879441044965
6.235495936,1.0004987473226234,-93.40201821136544
6.237782016,1.0005666170155463,-93.54646733837251
6.240068608,1.000598311470777,-93.69168472311172
6.2423552,1.0005916031912778,-93.83707376001396
6.24464128,1.0005474056894375,-93.9821552418079
6.246927872,1.0004680642232064,-94.1263260527839
6.249213952,1.0003588141803519,-94.26917139954038
6.251500544,1.0002265472206209,-94.41026928031776
6.253786624,1.0000796295852703,-94.54935924268024
6.256073216,0.9999271617120631,-94.68625822146628
6.258359296,0.9997792604840371,-94.8209990822049
6.260645888,0.9996449363380999,-94.95374161571021
6.26293248,0.999532806780661,-95.08467699624909
6.26521856,0.9994501566412951,-95.21418626512991
6.267505152,0.9994019921059515,-95.3427895446331
6.269791232,0.9993916729182073,-95.47100856090685
6.272077824,0.9994197539778531,-95.59932085732113
6.274363904,0.9994842081105074,-95.72832794990806
6.276650496,0.9995814096069713,-95.85855580956319
6.278937088,0.9997050207398928,-95.99037869691534
6.281223168,0.99984700063757,-96.12415891151007
6.28350976,0.9999983259289489,-96.26012365786667
6.28579584,1.0001498677316059,-96.39827598729485
6.288082432,1.0002915626028352,-96.53860399229917
6.290368512,1.0004144883160082,-96.68080737978715
6.292655104,1.0005108554636188,-96.82466832938101
6.294941184,1.0005747639324791,-96.96969436834871
6.297227776,1.000601919228926,-97.11545658576885
6.299514368,1.0005906570950982,-97.26128718038449
6.301800448,1.000541757625692,-97.40672231092971
6.30408704,1.0004581142878,-97.55120769460963
6.30637312,1.000345152055074,-97.69428207517754
6.308659712,1.0002100476754965,-97.83554200346789
6.310945792,1.0000611805636739,-97.97480374730631
6.313232384,0.9999082036919831,-98.1119179313804
6.315518464,0.9997607601663328,-98.24675801337489
6.317805056,0.9996281621226041,-98.37965579534986
6.320091648,0.9995187010232897,-98.51077919445069
6.322377728,0.9994397821917557,-98.64053760730235
6.32466432,0.9993959900100136,-98.76940653146286
6.3269504,0.9993903258831722,-98.89793649845558
6.329236992,0.9994230157229943,-99.02668882433291
6.331523072,0.9994922695714583,-99.15620599069358
6.333809664,0.9995932941192436,-99.2869640286738
6.336096256,0.9997200667190578,-99.41938599689938
6.338382336,0.9998643942332316,-99.55379291590825
6.340668928,1.0000171228148855,-99.69039162025443
6.342955008,1.0001684146391912,-99.82923457957253
6.3452416,1.00030892977108,-99.97018248679773
6.34752768,1.0004295509658003,-100.11306267239733
6.349814272,1.0005228807635824,-100.25749395352156
6.352100352,1.0005825741733394,-100.40303261351005
6.354386944,1.000605174781957,-100.54923777327615
6.356673536,1.0005892239488914,-100.69547296503441
6.358959616,1.0005356375040304,-100.84122997382669
6.361246208,1.000447656713095,-100.98599647890212
6.363532288,1.0003311227791774,-101.12926325896113
6.36581888,1.0001932793881936,-101.2707012759349
6.36810496,1.000042708227252,-101.4100444214232
6.370391552,0.9998893218764964,-101.54721883743603
6.372678144,0.9997425089865173,-101.68218776171418
6.374964224,0.9996117027811805,-101.81517227869448
6.377250816,0.999505219979209,-101.94643847133567
6.379536896,0.9994298968082691,-102.07639459839048
6.381823488,0.9993904042707886,-102.20556513535689
6.384109568,0.9993894766945468,-102.33437440798394
6.38639616,0.9994269861239535,-102.46348289277435
6.38868224,0.999500567071941,-102.59343570549763
6.390968832,0.9996056753996975,-102.72471541133291
6.393255424,0.9997355645181367,-102.85767873131846
6.395541504,0.9998820099170254,-102.99268314203776
6.397828096,1.0000356755494955,-103.12990688083765
6.400114176,1.0001870094950545,-103.26935322162605
6.402400768,1.0003262457140452,-103.41087501505504
6.404686848,1.0004443692628513,-103.55433956310269
6.40697344,1.0005341976959434,-103.69931980547756
6.409260032,1.0005899067605362,-103.84538367018332
6.411546112,1.0006080337321952,-103.99194322641969
6.413832704,1.000587290874399,-104.1385400614896
6.416118784,1.0005290443399364,-104.28454367530442
6.418405376,1.0004368995228863,-104.4295037694725
6.420691456,1.0003168357841343,-104.57292486680329
6.422978048,1.0001762535841243,-104.71444814513508
6.425264128,1.0000242860869604,-104.853884239596
6.42755072,0.999870379839806,-104.99108523256791
6.429837312,0.9997243962219315,-105.12612105524158
6.432123392,0.9995954728959298,-105.25918653136534
6.434409984,0.9994920118815295,-105.39053005495991
6.436696064,0.9994204895876353,-105.52067902224934
6.438982656,0.9993854110893375,-105.6500027485864
6.441268736,0.9993891429815847,-105.77911354850532
6.443555328,0.999431357983932,-105.9085846792115
6.44584192,0.999509386612788,-106.03891220741006
6.448128,0.9996183358962555,-106.1706653767834
6.450414592,0.9997512812893891,-106.30414509589184
6.452700672,0.9998997978037197,-106.43972814847159
6.454987264,1.0000543625919185,-106.57748756862712
6.457273344,1.0002054071332733,-106.71747767087585
6.459559936,1.000343026150473,-106.85958590285972
6.461846016,1.0004588021757677,-107.00356685122223
6.464132608,1.0005452220334499,-107.14900829632607
6.4664192,1.0005967056189702,-107.29545818322912
6.46870528,1.0006101821545728,-107.44238216041498
6.470991872,1.0005846959061806,-107.58929726285484
6.473277952,1.0005219513498924,-107.73551845984667
6.475564544,1.0004257127188505,-107.88060248388693
6.477850624,1.0003021128205634,-108.02412608583103
6.480137216,1.0001591311889293,-108.16569059298264
6.482423296,1.000005604258941,-108.3051283826298
6.484709888,0.9998515309069499,-108.44237348598111
6.48699648,0.9997064053353271,-108.57739809957339
6.48928256,0.9995797096811531,-108.71047611620705
6.491569152,0.9994793015350766,-108.84191296233786
6.493855232,0.999411520483673,-108.97214777511677
6.496141824,0.9993809325440407,-109.1016244082177
6.498427904,0.9993893713722879,-109.23099806488922
6.500714496,0.9994362832299327,-109.36074323033391
6.503001088,0.9995187262148019,-109.49146789442868
6.505287168,0.999631439140008,-109.62358581209267
6.50757376,0.9997672999036658,-109.75758914726997
6.50985984,0.9999177163910974,-109.89363696129304
6.512146432,1.0000731145101731,-110.03192299463424
6.514432512,1.0002237271112888,-110.17244182763011
6.516719104,1.0003597976686744,-110.31505698077609
6.519005184,1.0004728068309057,-110.45948893872395
6.521291776,1.0005557046132736,-110.60534521975272
6.523578368,1.0006030296547326,-110.75218006480848
6.525864448,1.000611891396541,-110.89941296425839
6.52815104,1.0005815858091884,-111.04651172378274
6.53043712,1.0005142522054962,-111.19290670223256
6.532723712,1.000413842363583,-111.3381011630184
6.535009792,1.000287002153463,-111.48166500459283
6.537296384,1.0001416272624009,-111.62323473444869
6.539582976,0.9999868346215268,-111.76262584693833
6.541869056,0.9998325035736124,-111.89979770464616
6.544155648,0.9996884509072099,-112.03479578882362
6.546441728,0.9995639513554063,-112.16785403006615
6.54872832,0.9994666883112125,-112.29930653404962
6.5510144,0.9994029739855981,-112.42959880092243
6.553300992,0.9993768568834288,-112.55921604508049
6.555587072,0.9993900615315519,-112.68876396471613
6.557873664,0.99944157029428,-112.8187953618961
6.560160256,0.9995283617565025,-112.9497991498838
6.562446336,0.9996448974331884,-113.08233449526288
6.564732928,0.9997835785119217,-113.21674462396355
6.567019008,0.9999358771134986,-113.35322793586892
6.5693056,1.0000918342662442,-113.49197353568358
6.57159168,1.0002418982052275,-113.63298588707293
6.573878272,1.0003763246876962,-113.77603748068148
6.576164864,1.0004866473176974,-113.92089951878619
6.578450944,1.00056580194497,-114.06713974878093
6.580737536,1.0006089087323442,-114.21428541970892
6.583023616,1.0006130427211055,-114.36176916245685
6.585310208,1.00057809853466,-114.50902234753653
6.587596288,1.0005061725386877,-114.65550212419427
6.58988288,1.000401794618105,-114.80074190452905
6.59216896,1.000271656396266,-114.9442894178732
6.594455552,1.000123911610011,-115.08582014377929
6.596742144,0.9999680256238103,-115.22515448542326
6.599028224,0.9998136414460902,-115.36220374663039
6.601314816,0.9996708861639227,-115.49711574851322
6.603600896,0.9995485526953153,-115.63009127846811
6.605887488,0.9994545964499032,-115.76152159130993
6.608173568,0.9993949146967187,-115.89181711359404
6.61046016,0.9993732976685477,-116.02155852798708
6.612746752,0.9993912444045157,-116.15120911419095
6.615032832,0.9994475235289059,-116.2814536871455
6.617319424,0.9995385970068971,-116.41278303313656
6.619605504,0.9996587285807381,-116.54563439037173
6.621892096,0.9998001486434935,-116.68041272141524
6.624178176,0.9999540906748319,-116.81733761728884
6.626464768,1.0001107605476536,-116.95649770958467
6.628750848,1.000260079444578,-117.09791541539497
6.63103744,1.0003926206988256,-117.24137730399742
6.633324032,1.000500090993997,-117.38659690234469
6.635610112,1.000575539802066,-117.53317257905046
6.637896704,1.0006142737305628,-117.68053518046568
6.640182784,1.0006137944152094,-117.82819973802975
6.642469376,1.0005740425362741,-117.97557703636413
6.644755456,1.000497607960635,-118.12212695690668
6.647042048,1.0003892713881277,-118.2673494756884
6.649328128,1.0002560125162463,-118.41082570205805
6.65161472,1.0001059550507827,-118.55222453268802
6.653901312,0.9999490090115773,-118.6913953885005
6.656187392,0.9997948871580555,-118.82833361902827
6.658473984,0.9996533904366379,-118.96310847654895
6.660760064,0.999533530358903,-119.09596805908339
6.663046656,0.9994429928866987,-119.22730950701076
6.665332736,0.9993873926497922,-119.35760108914312
6.667619328,0.9993703623277306,-119.48734965306883
6.66990592,0.9993930553749907,-119.61713394756238
6.672192,0.999453989939082,-119.74755455270318
6.674478592,0.9995493589304183,-119.87910122865861
6.676764672,0.9996730159810205,-120.01223698463245
6.679051264,0.9998170936641136,-120.14734533108692
6.681337344,0.9999726169406423,-120.28463737827893
6.683623936,1.000129670955955,-120.42416587424941
6.685910016,1.0002781124979243,-120.56596555940138
6.688196608,1.0004087533422357,-120.70976700602282
6.6904832,1.0005132312037524,-120.85529662123685
6.69276928,1.0005848631897738,-121.0020993328232
6.695055872,1.0006191327223815,-121.14968657345047
6.697341952,1.000613881669803,-121.29750756236987
6.699628544,1.000569453200519,-121.44490981109887
6.701914624,1.0004884173548494,-121.59147845503207
6.704201216,1.0003762676519903,-121.73659425884665
6.706487808,1.0002398423017695,-121.87993627325207
6.708773888,1.0000878390272323,-122.02115485650373
6.71106048,0.9999298590666067,-122.1601750191713
6.71334656,0.9997759348590344,-122.29689216250006
6.715633152,0.9996358767422215,-122.4314829738934
6.717919232,0.9995186673943749,-122.56421945738168
6.720205824,0.9994315428233209,-122.69539862041113
6.722491904,0.9993802222627423,-122.82561594648789
6.724778496,0.9993677824920967,-122.9553664898287
6.727065088,0.9993953127692015,-123.08523736671002
6.729351168,0.9994609106549072,-123.21577568578856
6.73163776,0.9995604663474851,-123.34750955333706
6.73392384,0.9996874975332506,-123.48091052253365
6.736210432,0.999834233899918,-123.61626735634061
6.738496512,0.999991287527191,-123.7538831861166
6.740783104,1.0001484632199769,-123.89374135215627
6.743069696,1.0002960044885638,-124.03589233669042
6.745355776,1.0004246028728867,-124.17997928337094
6.747642368,1.0005259557324757,-124.32577072124204
6.749928448,1.0005937172199089,-124.47274256844356
6.75221504,1.000623530491557,-124.62048755462902
6.75450112,1.0006135235006297,-124.7683873938543
6.756787712,1.0005642214568315,-124.91581624848926
6.759073792,1.0004789339757534,-125.06227735158424
6.761360384,1.0003628831999356,-125.20727428574325
6.763646976,1.000223381281738,-125.3503944248012
6.765933056,1.0000693850690334,-125.49145231873209
6.768219648,0.999910672513031,-125.63018433736623
6.770505728,0.9997571429552593,-125.76665539766034
6.77279232,0.9996186992942222,-125.90100561940342
6.7750784,0.9995041414888196,-126.0335015874612
6.777364992,0.999420534307729,-126.16454367949594
6.779651584,0.9993734474877095,-126.29466675374643
6.781937664,0.9993658829420106,-126.4243752023638
6.784224256,0.9993982102058627,-126.55424902807117
6.786510336,0.9994683876459045,-126.68488115791133
6.788796928,0.9995720392970209,-126.816764714477
6.791083008,0.9997026046137569,-126.9503470750367
6.7933696,0.99985173362406,-127.08598820499306
6.79565568,1.0000100439238664,-127.22383401268524
6.797942272,1.0001674730490495,-127.36399340582459
6.800228864,1.0003139284355154,-127.50636379558105
6.802514944,1.0004402968683586,-127.65070988757414
6.804801536,1.0005384808722944,-127.7966904779985
6.807087616,1.000602140942883,-127.94383653247486
6.809374208,1.0006273657733284,-128.091639839152
6.811660288,1.00061263457017,-128.23954358843312
6.81394688,1.000558563656621,-128.38693391204012
6.81623296,1.0004687920308677,-128.53326288641424
6.818519552,1.0003490295926838,-128.67808611679934
6.820806144,1.0002066588690293,-128.8209711112917
6.823092224,1.0000508067947005,-128.96171257701528
6.825378816,0.9998914067979854,-129.10017505748962
6.827664896,0.999738425825036,-129.2363560237801
6.829951488,0.99960174649783,-129.37039748111434
6.832237568,0.9994898492949177,-129.50263229860482
6.83452416,0.9994099934096562,-129.63347208898702
6.836810752,0.9993672769005149,-129.7634224770767
6.839096832,0.999364348235932,-129.8930634852344
6.841383424,0.99940153196305,-130.02289387148795
6.843669504,0.9994762501553723,-130.15356979159566
6.845956096,0.9995840615384972,-130.28558880961444
6.848242176,0.9997179440313814,-130.41932912476565
6.850528768,0.9998694993924018,-130.55514403884462
6.852814848,1.0000289979041361,-130.69323001827166
6.85510144,1.0001863595720373,-130.8335958360658
6.857388032,1.0003316840081147,-130.97618407644075
6.859674112,1.0004556422792206,-131.12070593165663
6.861960704,1.0005505231027103,-131.26686288564824
6.864246784,1.0006101554678977,-131.41410352926576
6.866533376,1.0006307436076678,-131.56193739958718
6.868819456,1.0006111023335496,-131.70975246908714
6.871106048,1.000552283092538,-131.85704150814476
6.87339264,1.0004581859201989,-132.00317235175535
6.87567872,1.000334721857272,-132.14773611260676
6.877965312,1.000189566812806,-132.29034429371825
6.880251392,1.0000319823469601,-132.43075758812185
6.882537984,0.9998719711704467,-132.56887558811522
6.884824064,0.9997197489327998,-132.7046917724634
6.887110656,0.9995848086293968,-132.8384003824987
6.889396736,0.9994758753845681,-132.97033179186195
6.891683328,0.9993998654646786,-133.10090283609975
6.89396992,0.9993615468817864,-133.2306512752124
6.896256,0.9993634730497857,-133.3601620452699
6.898542592,0.9994054548763731,-133.48995169196297
6.900828672,0.9994848337542,-133.62059121320232
6.903115264,0.9995966354021156,-133.75266657727244
6.905401344,0.9997338698992928,-133.8865316065645
6.907687936,0.9998876003911804,-134.02249316638526
6.909974528,1.000048094502147,-134.16072908119457
