freq,mag,phase
6.0,0.9998225811246283,136.67883977271254
6.002285568,0.9999085319839646,136.51719321675418
6.004571648,0.9999998364703826,136.35427247252198
6.006857216,1.0000913717639006,136.19007106959887
6.009142784,1.0001773454530947,136.02458464736975
6.011428352,1.000252307428638,135.85797605985587
6.013714432,1.000311491536951,135.69040144148997
6.016,1.0003510473569706,135.52213858864627
6.018285568,1.0003688410631821,135.3534956928808
6.020571648,1.000363221359592,135.18475755663695
6.022857216,1.0003349222940257,135.01631400163126
6.025142784,1.000285529428656,134.8484348318784
6.027428352,1.0002180841741881,134.68144463797864
6.029714432,1.000137015585045,134.51552606972922
6.032,1.0000470897379297,134.35089171482437
6.034285568,0.9999543319567156,134.18760881700751
6.036571648,0.9998644425037752,134.02566624958757
6.038857216,0.9997831849330343,133.86500596911935
6.041142784,0.9997155013633108,133.7054444959066
6.043428352,0.9996658954664417,133.5467330864942
6.045714432,0.9996374784434744,133.38864278074283
6.048,0.9996320829619497,133.23082091598508
6.050285568,0.999649824359078,133.07294152232038
6.052571648,0.9996898861516729,132.9146524868971
6.054857216,0.9997498107228511,132.75569654639764
6.057142784,0.9998256267959974,132.59576288023405
6.059428352,0.9999125693394777,132.43466179485898
6.061714432,1.000005250886629,132.2722858585265
6.064,1.0000978395444098,132.10857601735665
6.066285568,1.000184431156801,131.94360692764099
6.068571648,1.000259551536582,131.77751352605776
6.070857216,1.0003184079989242,131.610436596818
6.073142784,1.0003574006741167,131.4427113782528
6.075428352,1.0003738837818197,131.2745509453641
6.077714432,1.0003669785118015,131.1063840389475
6.08,1.0003369289824011,130.93847913222191
6.082285568,1.000285576585083,130.77119906289002
6.084571648,1.0002165366051385,130.60482175196645
6.086857216,1.0001335586465656,130.43955108480213
6.089142784,1.0000423073713487,130.27555685496017
6.091428352,0.9999483250893977,130.1129590009955
6.093714432,0.9998575282195775,129.95170622258811
6.096,0.9997758447380234,129.7917510770114
6.098285568,0.9997083353718651,129.63291416754285
6.100571648,0.9996592851334865,129.4748982473747
6.102857216,0.9996318223922648,129.3175231369002
6.105142784,0.9996276437841628,129.1603882658102
6.107428352,0.9996470766770399,129.00314369239697
6.109714432,0.9996890297198139,128.84548641578345
6.112,0.9997507303535204,128.68713582699414
6.114285568,0.9998282716776543,128.5277679234028
6.116571648,0.9999170130393404,128.36724069971027
6.118857216,1.000011090994549,128.20537882304313
6.121142784,1.0001046887114957,128.04219790218005
6.123428352,1.0001917216342489,127.87773454756743
6.125714432,1.000266978908111,127.71210314672724
6.128,1.000325513965146,127.5455310368543
6.130285568,1.00036372395538,127.37828436403784
6.132571648,1.0003790539480497,127.21068161430505
6.134857216,1.0003706101994885,127.04301183181768
6.137142784,1.0003387025726524,126.87570543764797
6.139428352,1.0002855638798498,126.70900499808515
6.141714432,1.0002145618846348,126.54322337790057
6.144,1.000129808856997,126.3786120798544
6.146285568,1.0000369930159239,126.21528111622564
6.148571648,0.9999418036551376,126.0533983719194
6.150857216,0.9998502476643963,125.89284281468238
6.153142784,0.9997681883323535,125.73357157495094
6.155428352,0.9997009154480356,125.57542242713635
6.157714432,0.9996523893900516,125.41816199403075
6.16,0.9996259821084765,125.26144276050805
6.162285568,0.9996233380336905,125.10497487313812
6.164571648,0.9996444595748695,124.94839580501099
6.166857216,0.9996882362682402,124.79136522863428
6.169142784,0.999751798698463,124.6335771115474
6.171428352,0.9998312625875307,124.47479091619338
6.173714432,0.9999215767670446,124.31480716491042
6.176,1.00001696280763,124.15348613101357
6.178285568,1.0001116648049786,123.9907876461557
6.180571648,1.0001992166339029,123.826839262197
6.182857216,1.0002745835801123,123.66170452559925
6.185142784,1.0003326592891002,123.49561771237768
6.187428352,1.0003700540387204,123.32885747375545
6.189714432,1.0003841708570977,123.16176201141752
6.192,1.0003740647764228,122.99465656061055
6.194285568,1.000340439208796,122.82787948819426
6.196571648,1.000285353148823,122.66175790642387
6.198857216,1.0002122063178291,122.49661360588865
6.201142784,1.0001258478527182,122.33262701149636
6.203428352,1.000031457127172,122.16997680546112
6.205714432,0.9999352085927256,122.00873988309739
6.208,0.9998427818888348,121.84888167634145
6.210285568,0.9997604616942296,121.69034214789274
6.212571648,0.9996932725724141,121.53291362248808
6.214857216,0.999645484886191,121.37632328181844
6.217142784,0.9996202469558111,121.22030177496369
6.219428352,0.9996189577714373,121.06449628664433
6.221714432,0.9996418371228835,120.90856181835215
6.224,0.999687505577289,120.7521467602453
6.226285568,0.9997531617435058,120.59496909017578
6.228571648,0.9998345153541406,120.4367496224936
6.230857216,0.9999265084497332,120.27728161163272
6.233142784,1.0000234045866156,120.11645416714276
6.235428352,1.0001189442044658,119.95426933708491
6.237714432,1.000207202820124,119.79077903132743
6.24,1.0002824957162757,119.62611143722106
6.242285568,1.0003400999566348,119.46052554031851
6.244571648,1.0003764800364225,119.2942430283011
6.246857216,1.0003891507163705,119.1276728106291
6.249142784,1.0003774255710387,118.96107845778104
6.251428352,1.0003419363143853,118.79485903822767
6.253714432,1.000284935038544,118.62932199390727
6.256,1.000209918909143,118.46477851599934
6.258285568,1.0001216463369391,118.30142390867047
6.260571648,1.000025678565897,118.13946005745287
6.262857216,0.99992814980637,117.97890386666849
6.265142784,0.999835114006384,117.81974582481847
6.267428352,0.9997525011331067,117.66187808639988
6.269714432,0.999685531333979,117.50515289433942
6.272,0.9996385345963418,117.34925680578942
6.274285568,0.9996144310288885,117.19392421055733
6.276571648,0.9996146847502397,117.03878958838538
6.278857216,0.9996394418407094,116.88346736602895
6.281142784,0.9996871019664616,116.72768394515484
6.283428352,0.9997547049504458,116.57106401321069
6.285714432,0.9998379701422464,116.41339228404672
6.288,0.9999316729470188,116.2544597660861
6.290285568,1.0000298862693169,116.09413791525155
6.292571648,1.0001263637385651,115.93243318615919
6.294857216,1.0002150763625794,115.76938933254839
6.297142784,1.000290405459946,115.60521442389081
6.299428352,1.0003475555851187,115.44008153176735
6.301714432,1.0003829310570287,115.27431008242907
6.304,1.0003943023574022,115.10820679664269
6.306285568,1.0003807255112338,114.94215382962236
6.308571648,1.0003433052274098,114.77649525827688
6.310857216,1.000284152632841,114.61151391917906
6.313142784,1.0002072572705694,114.44757317471414
6.315428352,1.0001171254118308,114.28488164715644
6.317714432,1.000019735653104,114.12353558096402
6.32,0.9999209940501396,113.96365345415043
6.322285568,0.9998272173045524,113.80517686506232
6.324571648,0.9997443816542726,113.64801369737981
6.326857216,0.9996777509612614,113.49198762736869
6.329142784,0.9996314094286265,113.33679000008893
6.331428352,0.9996085383998031,113.18211592118212
6.333714432,0.9996104702027041,113.02762349012065
6.336,0.9996371451067169,112.87294938672272
6.338285568,0.9996867827965814,112.71774178999482
6.340571648,0.999756511895274,112.56171063176093
6.342857216,0.9998416793916023,112.40455960426269
6.345142784,0.9999370902256407,112.24613102807382
6.347428352,1.000036610188002,112.08629030752643
6.349714432,1.0001340730433,111.92505496369719
6.352,1.0002232994115021,111.76250123643223
6.354285568,1.0002985133601257,111.59876151723014
6.356571648,1.000355052432221,111.43407431406614
6.358857216,1.0003892828670018,111.26879555038629
6.361142784,1.0003991699606711,111.10317575459474
6.363428352,1.0003839340175227,110.93763092228689
6.365714432,1.0003444733448725,110.77249622880143
6.368,1.0002832816992988,110.6081282292764
6.370285568,1.000204242186514,110.44477756987945
6.372571648,1.0001122249973515,110.28268115032488
6.374857216,1.0000132676017695,110.12200104606812
6.377142784,0.9999134588607215,109.96279631973648
6.379428352,0.9998189963728178,109.80500777304675
6.381714432,0.9997360027366593,109.64854567176845
6.384,0.9996697279427632,109.49318995813148
6.386285568,0.9996242338528383,109.33866704569711
6.388571648,0.9996027270957466,109.1846497133852
6.390857216,0.9996063161776837,109.03079934878639
6.393142784,0.9996348860630228,108.87673104577362
6.395428352,0.9996866919302103,108.72209117547592
6.397714432,0.9997584489046303,108.56661557200226
6.4,0.9998455763040932,108.41000087685485
6.402285568,0.9999427839701499,108.25204727917485
6.404571648,1.0000437324549913,108.09270148001164
6.406857216,1.0001421208411307,107.93192181976505
6.409142784,1.0002315915009505,107.76980717995664
6.411428352,1.0003067870053022,107.60648917468355
6.413714432,1.000362628356249,107.4422763347775
6.416,1.0003958533101391,107.27744016137495
6.418285568,1.0004041351315303,107.11229487101697
6.420571648,1.0003869415299567,106.94723301503
6.422857216,1.0003454353497359,106.7826410842885
6.425142784,1.0002821268728932,106.61883396395883
6.427428352,1.0002010808125532,106.45605648938032
6.429714432,1.0001071777393198,106.29460413995969
6.432,1.0000066039424427,106.13456656641834
6.434285568,0.9999055944387358,105.97600095478323
6.436571648,0.9998105730672745,105.81892095917539
6.438857216,0.9997274506536111,105.66311306811053
6.441142784,0.9996616041021145,105.50845276656524
6.443428352,0.9996172236513927,105.35459162835804
6.445714432,0.9995969842107179,105.20122780487078
6.448,0.9996023679859748,105.04799184431374
6.450285568,0.9996329803641152,104.8945342755067
6.452571648,0.9996869398654701,104.74047589034296
6.454857216,0.9997608092353335,104.5855119274519
6.457142784,0.9998500683872509,104.42939658735958
6.459428352,0.9999488726522505,104.27193225825594
6.461714432,1.0000511708136606,104.11302959517064
6.464,1.0001504588575023,103.95269891011519
6.466285568,1.0002403338328403,103.79099846117909
6.468571648,1.0003152713218408,103.62813411090444
6.470857216,1.0003704498285448,103.46433895913707
6.473142784,1.0004024742109257,103.29993240936143
6.475428352,1.0004090370819594,103.1352738876045
6.477714432,1.000389899093167,102.9707060914523
6.48,1.0003462488641273,102.80662558264343
6.482285568,1.0002807435753232,102.64335743318068
6.484571648,1.000197465671132,102.48118788904411
6.486857216,1.0001017936648737,102.32032886731669
6.489142784,0.9999996986659213,102.16093750109978
6.491428352,0.999897498028508,102.00302980474551
6.493714432,0.9998018489104307,101.84658600221486
6.496,0.9997186784135381,101.69147103309179
6.498285568,0.9996533033893372,101.53745979946446
6.500571648,0.9996099350448926,101.38428003840836
6.502857216,0.9995911771082222,101.2315336876225
6.505142784,0.9995984184318559,101.07892659262237
6.507428352,0.9996311300612171,100.92604810204617
6.509714432,0.9996873269405198,100.772537087214
6.512,0.9997634589147616,100.61808800190023
6.514285568,0.9998545805342787,100.46246858720113
6.516571648,0.999955296621214,100.30545923958239
6.518857216,1.0000588251237355,100.14699921001717
6.521142784,1.0001589312637884,99.98707875373134
6.523428352,1.0002492679882693,99.82580562965654
6.525714432,1.0003239539224131,99.66332448646568
6.528,1.0003783244240059,99.49997428614493
6.530285568,1.0004089938537037,99.33599153326425
6.532571648,1.0004138513796275,99.1717796509454
6.534857216,1.0003927158280665,99.0077041685881
6.537142784,1.0003468537429685,98.84411349218362
6.539428352,1.0002791890669493,98.681394531335
6.541714432,1.0001937167231736,98.51977627945082
6.544,1.0000961198710143,98.35950874065058
6.546285568,0.9999923916431342,98.20074883178019
6.548571648,0.9998892233800105,98.04348859838478
6.550857216,0.9997929694613563,97.88770811248929
6.553142784,0.9997098163158934,97.7332419515932
6.555428352,0.9996450580026327,97.57989241934884
6.557714432,0.9996026590608034,97.42733909295035
6.56,0.9995854292171884,97.27523056122125
6.562285568,0.9995946586902977,97.12320603713023
6.564571648,0.9996295087470005,96.9708890836567
6.566857216,0.9996879600129626,96.81793592984287
6.569142784,0.9997662227902048,96.66398434618272
6.571428352,0.9998594488524684,96.50882645753785
6.573714432,0.9999618243260278,96.35225795239423
6.576,1.000066716944425,96.19421846546243
6.578285568,1.0001677101123159,96.03468771661572
6.580571648,1.0002582612772213,95.87380120588988
6.582857216,1.0003325822532345,95.71172459871478
6.585142784,1.00038603434269,95.54875106671577
6.587428352,1.0004153946631191,95.38519299385746
6.589714432,1.0004185456135712,95.22141735087457
6.592,1.0003953618840944,95.05781042775628
6.594285568,1.0003472746826938,94.89473159312544
6.596571648,1.000277221836921,94.73251666381228
6.598857216,1.0001896396175094,94.5714685771193
6.601142784,1.0000901244646598,94.41182249734396
6.603428352,0.9999849049435552,94.25364843796528
6.605714432,0.9998805615779272,94.09702501258394
6.608,0.9997838601967582,93.94190203576385
6.610285568,0.9997006705529712,93.78806835642578
6.612571648,0.9996365409293195,93.6353660182117
6.614857216,0.9995953348022578,93.48343027521314
6.617142784,0.999579755624924,93.33192303199381
6.619428352,0.9995909338152842,93.18048218633005
6.621714432,0.9996280197148988,93.0287262422566
6.624,0.9996888053096059,92.87627590343422
6.626285568,0.9997693530075358,92.72280903661292
6.628571648,0.9998647358579575,92.56810634154508
6.630857216,0.9999688207618161,92.41194992340456
6.633142784,1.0000751079918608,92.25430194502214
6.635428352,1.0001768412502112,92.0951703491384
6.637714432,1.0002675534250733,91.93464331866048
6.64,1.0003415552775694,91.77294856950758
6.642285568,1.0003941492999877,91.61035454310114
6.644571648,1.000421988593153,91.44719959407323
6.646857216,1.000423158273012,91.28384371637486
6.649142784,1.0003979503614915,91.12068740175722
6.651428352,1.0003473950771211,90.95807861920754
6.653714432,1.0002750792797448,90.79638230265482
6.656,1.0001852187647522,90.63589517186892
6.658285568,1.0000837423696518,90.47679895713655
6.660571648,0.9999770772253497,90.31924205970479
6.662857216,0.9998716760053253,90.16323656899488
6.665142784,0.9997744676511556,90.00873816375075
6.667428352,0.9996913254736812,89.85555194711272
6.669714432,0.9996278670418457,89.70344356714646
6.672,0.9995879719598212,89.55214494638835
6.674285568,0.9995741678726092,89.40123822123256
6.676571648,0.9995873221045826,89.2503492660576
6.678857216,0.9996267590011803,89.09911647137811
6.681142784,0.999689848871957,88.94716201397785
6.683428352,0.9997727587633336,88.7941683681129
6.685714432,0.999870203310408,88.63987113201536
6.688,0.999976057759672,88.48412541971709
6.690285568,1.0000836522430692,88.32685809951516
6.692571648,1.0001861017528535,88.16808643627463
6.694857216,1.0002770585078522,88.00791898684527
6.697142784,1.0003506264224635,87.84656013967539
6.699428352,1.0004022758291822,87.68433168030637
6.701714432,1.0004284331402913,87.52154512725811
6.704,1.0004278932019397,87.35860284768728
6.706285568,1.0004001768817392,87.19586973176987
6.708571648,1.0003473895283748,87.03374093573993
6.710857216,1.0002725724839372,86.87255006914184
6.713142784,1.0001806553096266,86.71258913661481
6.715428352,1.0000772059675822,86.55406017976914
6.717714432,0.9999688574952524,86.39708894583005
6.72,0.9998625891644612,86.24169224991533
6.722285568,0.9997648217398838,86.08780761094185
6.724571648,0.9996820338973211,85.93524460037062
6.726857216,0.9996192019781773,85.78375918237766
6.729142784,0.9995806294501038,85.6330222552834
6.731428352,0.9995686119518649,85.48269054124002
6.733714432,0.9995839227906208,85.33236024191311
6.736,0.9996256647160134,85.18163547271723
6.738285568,0.9996912348629627,85.03014920081395
6.740571648,0.9997764815541423,84.87757269592387
6.742857216,0.9998760810681641,84.72370985418978
6.745142784,0.9999836099523857,84.56832608259097
6.747428352,1.0000924670881526,84.4114197015849
6.749714432,1.0001956675059018,84.25296632452395
6.752,1.0002866482907362,84.09313858438196
6.754285568,1.0003597322787048,83.9321270214495
6.756571648,1.0004102294603383,83.77024186313922
6.758857216,1.0004349590086443,83.60781515870757
6.761142784,1.0004322582543508,83.44525414697038
6.763428352,1.0004023736484604,83.28293065169159
6.765714432,1.00034705332304,83.12126628542217
6.768,1.0002698633785745,82.9605537984219
6.770285568,1.0001756459004962,82.80111016496356
6.772571648,1.0000702457433284,82.64313018307392
6.774857216,0.9999605280631587,82.48674522312875
6.777142784,0.9998530556324126,82.33192829236377
6.779428352,0.9997550354804009,82.17864171303671
6.781714432,0.9996723927998005,82.02669093522357
6.784,0.9996105196993726,81.87579999407784
6.786285568,0.9995732971813318,81.72564762150208
6.788571648,0.999563172744,81.57586322948353
6.790857216,0.9995806809933007,81.42605187767305
6.793142784,0.9996248231704352,81.27581089611924
6.795428352,0.999692952018387,81.12477184805716
6.797714432,0.9997805697193396,80.97262608921417
6.8,0.9998823086676125,80.81911351977483
6.802285568,0.9999916002498013,80.66409151486518
6.804571648,1.0001016964100091,80.50750580730582
6.806857216,1.0002055147695121,80.34937416494725
6.809142784,1.0002965666926351,80.18985337712789
6.811428352,1.0003690812197692,80.02914844936429
6.813714432,1.0004183742762078,79.86758465552117
6.816,1.0004414278585099,79.70551153158225
6.818285568,1.0004366872296853,79.54332740154365
6.820571648,1.0004043923679662,79.3813940766086
6.822857216,1.0003465898335346,79.22016531730043
6.825142784,1.00026687752255,79.05993375080736
6.827428352,1.000170341065929,78.90098669602442
6.829714432,1.000063029454797,78.74354913481237
6.832,0.9999517110272759,78.58770301150534
6.834285568,0.9998433059307683,78.43347122513326
6.836571648,0.9997448679356328,78.28077622919128
6.838857216,0.9996626041156123,78.12939821043501
6.841142784,0.9996016182224388,77.97906858560418
6.843428352,0.9995658334306934,77.82949249818266
6.845714432,0.9995576096788519,77.68024165871216
6.848,0.9995774665475278,77.53092779081088
6.850285568,0.9996241592351224,77.38116391370518
6.852571648,0.999694777444772,77.2305381101205
6.854857216,0.9997848407052281,77.07878873639761
6.857142784,0.9998887266700758,76.92562874067369
6.859428352,0.9999998014021652,76.77093850072714
6.861714432,1.000111102277298,76.61465008982768
6.864,1.0002156643677114,76.45681213332003
6.866285568,1.0003066451707323,76.29756804854043
6.868571648,1.0003784251315466,76.13716574919398
6.870857216,1.0004265371723702,75.97589811032256
6.873142784,1.000447811131378,75.81415195289372
6.875428352,1.0004408369305586,75.65230002765321
6.877714432,1.0004061154138606,75.49077880928996
6.88,1.0003456737625203,75.32994173657008
6.882285568,1.0002635002937614,75.17015777040073
6.884571648,1.000164687238761,75.01171864520222
6.886857216,1.0000553276259745,74.8547874188193
6.889142784,0.9999425252157554,74.69949441703609
6.891428352,0.9998332572952116,74.54582939374625
6.893714432,0.9997346271563669,74.3936979576746
6.896,0.9996525556461759,74.24288939051694
6.898285568,0.9995926761710944,74.09312534102753
6.900571648,0.9995584251748818,73.94407224740911
6.902857216,0.9995522581760706,73.79533485250984
6.905142784,0.9995744881834462,73.64649095449738
6.907428352,0.9996237617925942,73.49716736160372
6.909714432,0.9996968932064151,73.34696117259023
6.912,0.9997894583209791,73.1955752885784
6.914285568,0.9998954879722772,73.04275356696841
6.916571648,1.0000083004526117,72.88835515655468
6.918857216,1.0001208176131604,72.73233664641751
6.921142784,1.0002258204487382,72.57476911915272
6.923428352,1.000316807153329,72.41580201702163
6.925714432,1.000387943551452,72.25565767240076
6.928,1.0004347281352854,72.09466596009963
6.930285568,1.0004541572030556,71.93322049803778
6.932571648,1.000444873123136,71.77170758303018
6.934857216,1.000407589949129,71.6105319222312
6.937142784,1.0003445989224833,71.45011623110376
6.939428352,1.0002598234385822,71.2907649937793
6.941714432,1.000158664079827,71.13278126600275
