freq,mag,phase
6.0,0.9990973333029379,-32.6522440728253
6.013559296,0.9992080784536013,-33.15513288974883
6.027118592,0.9993557714133284,-33.65978476903428
6.040677888,0.999532804237325,-34.16661762149669
6.054237184,0.9997309695756508,-34.6760164603944
6.06779648,0.9999414113830513,-35.1881440308329
6.081355776,1.0001544883795017,-35.70306352086913
6.094915072,1.000360926722285,-36.220756934970055
6.108474368,1.0005509132259673,-36.741134714399124
6.122033664,1.0007157566104845,-37.26391940372919
6.135593472,1.0008483473412948,-37.788727799230976
6.149152768,1.0009423292284771,-38.31513470639919
6.162712064,1.0009934993489062,-38.84266985000936
6.17627136,1.0009994821501127,-39.370802888954124
6.189830656,1.0009597674341824,-39.89896027786032
6.203389952,1.000876529306403,-40.426571965265836
6.216949248,1.000752662856711,-40.95318380708703
6.230508544,1.0005945718614022,-41.47826864238984
6.24406784,1.00040892116697,-42.00147765883082
6.257627136,1.0002040716536398,-42.52250236962509
6.271186432,0.9999893974920928,-43.04122080867223
6.284745728,0.9997746087110945,-43.55748114088926
6.298305024,0.999569566459091,-44.07140516951683
6.31186432,0.9993832274966326,-44.58316302470924
6.325423616,0.9992245747025855,-45.09299264484635
6.338982912,0.999100539964933,-45.60127624722119
6.352542208,0.9990169627966066,-46.108540078530325
6.366101504,0.9989777653240383,-46.615260666702696
6.3796608,0.9989845557291352,-47.121962625449356
6.393220096,0.9990374533373211,-47.629256489688316
6.406779904,0.999133915308994,-48.13769160618707
6.4203392,0.9992694916966943,-48.647799015185846
6.433898496,0.999438432859401,-49.15991959927326
6.447457792,0.9996328274936581,-49.67456762752656
6.461017088,0.9998440048884594,-50.19192783876099
6.474576384,1.000062486246288,-50.71210227464436
6.48813568,1.0002782367645926,-51.23519344681311
6.501694976,1.0004814510724738,-51.76109420253594
6.515254272,1.0006629613415403,-52.289578368843614
6.528813568,1.0008145600955844,-52.82030085603458
6.542372864,1.0009291794281145,-53.35297322307352
6.55593216,1.001001704173865,-53.8869578472168
6.569491456,1.0010286641469628,-54.42183247877757
6.583050752,1.001009043795561,-54.95695239996975
6.596610048,1.0009432454984277,-55.491803149713114
6.610169344,1.0008344137355039,-56.02584955037394
6.62372864,1.0006874438115443,-56.558531717625556
6.637287936,1.0005088187183553,-57.089473807846105
6.650847232,1.0003064994719812,-57.61831205074059
6.664406528,1.0000897339696102,-58.14481980202463
6.677966336,0.9998682087754988,-58.668870340880645
6.691525632,0.9996520900778965,-59.19049383110366
6.705084928,0.9994512230319715,-59.70975800230745
6.718644224,0.9992745324619169,-60.226957046625095
6.73220352,0.9991303089429991,-60.742345326684486
6.745762816,0.9990251275428402,-61.25648430988406
6.759322112,0.998963740213741,-61.7697862963689
6.772881408,0.9989492088470131,-62.282845414358945
6.786440704,0.9989820487747187,-62.79624726075147
6.8,0.9990609582637624,-63.310575753772426
6.813559296,0.9991825735894456,-63.82636921062163
6.827118592,0.9993411836822964,-64.3440849352061
6.840677888,0.9995297215364924,-64.86416993173057
6.854237184,0.9997399509464789,-65.38690088999668
6.86779648,0.9999619111222409,-65.91254185917452
6.881355776,1.00018594282741,-66.44115810553473
6.894915072,1.0004018137129767,-66.97270273920041
6.908474368,1.0005995364805569,-67.50702572933976
6.922033664,1.0007704176383425,-68.04381170801517
6.935593472,1.0009064338968594,-68.58275846790744
6.949152768,1.0010013767543349,-69.12335532298087
6.962712064,1.0010510956843732,-69.6650872020977
6.97627136,1.0010531365313866,-70.20738321692599
6.989830656,1.0010073224703622,-70.74964210793085
7.003389952,1.0009156520741278,-71.29131210532664
7.016949248,1.0007820651866544,-71.8318664915043
7.030508544,1.0006124717895237,-72.37081922206609
7.04406784,1.000414852462776,-72.90775403184523
7.057627136,1.0001978085258474,-73.44240664982573
7.071186432,0.9999712468547214,-73.9745530218197
7.084745728,0.9997451174773604,-74.5042243651813
7.098305024,0.9995300516926809,-75.03136543732963
7.11186432,0.9993357819802196,-75.5562533921407
7.125423616,0.9991708586070016,-76.07916076069515
7.138982912,0.9990431706754885,-76.60051445748108
7.152542208,0.9989583276444796,-77.12075307336244
7.166101504,0.9989204187631112,-77.64048946046051
7.1796608,0.9989313712543076,-78.16027927033373
7.193220096,0.9989904201410281,-78.68073192786582
7.206779904,0.9990953447368783,-79.20241513137621
7.2203392,0.999241432165021,-79.72585110288684
7.233898496,0.9994217320691715,-80.25154798551316
7.247457792,0.9996286981809133,-80.77982768412237
7.261017088,0.9998524853867903,-81.31102536286737
7.274576384,1.000083477646856,-81.84525883056816
7.28813568,1.0003108065641486,-82.38249549936306
7.301694976,1.0005244146933907,-82.92270785160188
7.315254272,1.0007144988301853,-83.46560688778604
7.328813568,1.000872509734296,-84.01092082357071
7.342372864,1.0009912327323474,-84.55816452043815
7.35593216,1.001065093227293,-85.10682483720795
7.369491456,1.001090921531949,-85.65638430866515
7.383050752,1.001067222820008,-86.20616029003865
7.396610048,1.0009950050472964,-86.75564511086395
7.410169344,1.0008776030990454,-87.30423461106737
7.42372864,1.0007199064580026,-87.85136848032934
7.437287936,1.0005293107712718,-88.39661559541818
7.450847232,1.000314227052167,-88.93965280285663
7.464406528,1.0000841870664579,-89.48022065286885
7.477966336,0.9998497273480238,-90.01816731663055
7.491525632,0.9996214299993911,-90.55353514560942
7.505084928,0.9994095740896335,-91.08643926826836
7.518644224,0.9992238117107892,-91.6171203329455
7.53220352,0.999072820402904,-92.14597762428498
7.545762816,0.9989632083093074,-92.67345493693438
7.559322112,0.9989003403598838,-93.20011656611692
7.572881408,0.9988869776197776,-93.72652117338352
7.586440704,0.9989238381594527,-94.253339096346
7.6,0.9990094218121942,-94.78109222943587
7.613559296,0.9991399763254634,-95.3103960477551
7.627118592,0.9993096191927645,-95.84182289693834
7.640677888,0.9995106837301203,-96.37573375807244
7.654237184,0.9997344134240012,-96.91249497091182
7.66779648,0.999970315977393,-97.45232975506761
7.681355776,1.0002079921932432,-97.9952847117012
7.694915072,1.000436693406152,-98.54135020926869
7.708474368,1.000645892692191,-99.09034071542358
7.722033664,1.0008262512342379,-99.64196816213123
7.735593472,1.0009695304938615,-100.19582314209912
7.749152768,1.0010693354508688,-100.75142933964251
7.762712064,1.001120733355195,-101.3082181477478
7.77627136,1.001121519122714,-101.86557747466637
7.789830656,1.0010715454252623,-102.42288703737671
7.803389952,1.0009730102539627,-102.9795401747284
7.816949248,1.0008301420596593,-103.53499004564979
7.830508544,1.0006492755936744,-104.0887481471411
7.84406784,1.0004384243830555,-104.64032597517213
7.857627136,1.0002072365059327,-105.1894792623887
7.871186432,0.9999660850787154,-105.73598732257538
7.884745728,0.9997256933182098,-106.27976640883242
7.898305024,0.9994970571852071,-106.82092511681466
7.91186432,0.9992904704948617,-107.35965741896507
7.925423616,0.9991154559686516,-107.89628543077743
7.938982912,0.9989799633407368,-108.43122352309476
7.952542208,0.9988902580266585,-108.96501382517646
7.966101504,0.9988503342471414,-109.49824904465953
7.9796608,0.9988623877071824,-110.0315462007107
7.993220096,0.9989258549052586,-110.56548883862693
8.006779904,0.999037967561387,-111.10077758813947
8.0203392,0.9991938090766718,-111.63795217827304
8.033898496,0.9993863280033558,-112.1774903775065
8.047457792,0.9996070056575306,-112.71977108404408
8.061017088,0.9998458476560003,-113.26512357173797
8.074576384,1.000092167848329,-113.81370294321981
8.08813568,1.0003347273697092,-114.36549660377663
8.101694976,1.0005626798051939,-114.92042914048909
8.115254272,1.0007655548335892,-115.47825641955264
8.128813568,1.000934439577112,-116.038620627889
8.142372864,1.0010612942883237,-116.60101855633904
8.15593216,1.0011404964408326,-117.16495662480052
8.169491456,1.0011684440494002,-117.72977609892297
8.183050752,1.0011434787684894,-118.29486332855025
8.196610048,1.0010668042508855,-118.85965040938963
8.210169344,1.0009418176404514,-119.42340959131154
8.22372864,1.0007737404640902,-119.98568724883323
8.237287936,1.000570306026538,-120.54591824805594
8.250847232,1.000340527235828,-121.10377880636797
8.264406528,1.0000946667261872,-121.65893856964036
8.277966336,0.9998438259109645,-122.2113586706161
8.291525632,0.9995992683240797,-122.7609665773883
8.305084928,0.9993722075791702,-123.30791266830255
8.318644224,0.9991728908509926,-123.85246955843215
8.33220352,0.999010235491838,-124.39506208245187
8.345762816,0.9988919346336044,-124.93615567588171
8.359322112,0.9988233727475633,-125.47632279855387
8.372881408,0.9988077235437736,-126.01618585981606
8.386440704,0.9988459843518174,-126.5564111229042
8.4,0.9989363696662261,-127.09768281250527
8.413559296,0.999075088681248,-127.64054349110933
8.427118592,0.9992559004649091,-128.18561922132736
8.440677888,0.9994706618024524,-128.73333297105833
8.454237184,0.9997097943176897,-129.28407939460746
8.46779648,0.9999626070299731,-129.83806145694552
8.481355776,1.0002177230264266,-130.39541346509256
8.494915072,1.0004635183650492,-130.95603390675558
8.508474368,1.0006889658038158,-131.51982521792644
8.522033664,1.000883882276017,-132.0864032329211
8.535593472,1.0010393062239078,-132.6553817144136
8.549152768,1.001148228311776,-133.2262348211424
8.562712064,1.0012056397232216,-133.7983662553011
8.57627136,1.0012087076254277,-134.37112715052874
8.589830656,1.001157268112355,-134.94385481590652
8.603389952,1.0010534328049818,-135.5158811551331
8.616948736,1.0009017797152597,-136.08660694897793
8.630508544,1.000708997965836,-136.6554993944556
8.644067328,1.0004836190345026,-137.22209093172992
8.657627136,1.00023577511582,-137.7860082016315
8.671186944,0.9999764597627981,-138.3471030990513
8.684745728,0.9997174757826068,-138.90526988292683
8.698305536,0.9994704893004817,-139.4605202863121
8.71186432,0.9992466580895818,-140.01316621129212
8.725424128,0.9990561276158619,-140.56351998825005
8.738982912,0.9989076998836329,-141.11196537679126
8.75254272,0.9988081247736886,-141.6591226439696
8.766101504,0.9987621087956005,-142.20561221577717
8.779661312,0.9987718375092367,-142.75210828239477
8.793220096,0.9988370791103411,-143.29925018140105
8.806779904,0.9989549664586218,-143.847751329096
8.820338688,0.9991203218552792,-144.39821554781557
8.833898496,0.9993258598060856,-144.95115574152715
8.84745728,0.9995623134596935,-145.50704976779082
8.861017088,0.9998190770418697,-146.06617904295032
8.874575872,1.000084772328982,-146.62874291200427
8.88813568,1.000347248015343,-147.19477913767744
8.901694464,1.0005947833620488,-147.76415932502636
8.915254272,1.0008161331334349,-148.33664767023748
8.928813056,1.0010012587245487,-148.91187317240937
8.942372864,1.0011418287853524,-149.4893318905776
8.955932672,1.001231290486612,-150.068443640973
8.969491456,1.0012654576423434,-150.64857562991196
8.983051264,1.0012427452531845,-151.2289972435575
8.996610048,1.0011638854409186,-151.80909398946818
9.010169856,1.001032406053587,-152.38813419034784
9.02372864,1.0008539666135963,-152.9655556195618
9.037288448,1.0006365617706332,-153.5407996709562
9.050847232,1.0003897151531111,-154.11347090929695
9.06440704,1.0001244901345314,-154.68326985992655
9.077965824,0.9998527951600472,-155.2499807752166
9.091525632,0.9995869669306817,-155.81365862984072
9.105084416,0.9993389046832634,-156.37441586144476
9.118644224,0.9991198329993956,-156.93250781300515
9.132203008,0.9989398574482314,-157.48838806185447
9.145762816,0.9988070740639856,-158.04256205419847
9.1593216,0.9987277920674387,-158.59564290163857
9.172881408,0.9987056299147336,-159.14830553548046
9.186440192,0.9987419030471444,-159.7012431086942
9.2,0.9988349986350996,-160.2552057632166
9.213559808,0.9989809295736634,-160.81083258107844
9.227118592,0.9991732282907776,-161.36874676751845
9.2406784,0.9994034510409324,-161.92946125435716
9.254237184,0.9996611191118676,-162.49337845891753
9.267796992,0.9999350133560954,-163.06076938739773
9.281355776,1.0002124790438056,-163.63173140152892
9.294915584,1.0004812441082223,-164.20629452219833
9.308474368,1.0007290579768282,-164.78422200158062
9.322034176,1.0009447956392614,-165.3652411738161
9.33559296,1.001118663143289,-165.94886990520615
9.349152768,1.0012427065621963,-166.534535706198
9.362711552,1.001311161955008,-167.12162647135446
9.37627136,1.0013207536306392,-167.7094561960411
9.389830144,1.0012710495549555,-168.29728882013438
9.403389952,1.0011638618504433,-168.88443552466646
9.416948736,1.0010040582931845,-169.4701779166642
9.430508544,1.0007984042336204,-170.05393104164762
9.444067328,1.0005561913557743,-170.63520967383838
9.457627136,1.0002879893154988,-171.21358341146956
9.471186944,1.0000060345685273,-171.78885389952444
9.484745728,0.9997229534778171,-172.3608921555525
9.498305536,0.9994512042692367,-172.9297360739261
9.51186432,0.9992032743118371,-173.49560194475677
9.525424128,0.9989904539615352,-174.05889212247368
9.538982912,0.9988224169817532,-174.62001081882303
9.55254272,0.9987070091754683,-175.17960099949732
9.566101504,0.9986495374474966,-175.738338500379
9.579661312,0.9986526483726456,-176.29691792116677
9.593220096,0.9987166528800209,-176.85611673933292
9.606779904,0.9988386723066475,-177.41661674579674
9.620338688,0.9990134809551652,-177.97916515249315
9.633898496,0.9992332733015821,-178.54429612622795
9.64745728,0.9994883183735428,-179.11255157611998
9.661017088,0.999767281247873,-179.6842951940896
9.674575872,1.000057720176981,179.74027494769874
9.68813568,1.0003462328160229,179.16111858000062
9.701694464,1.000620362068746,178.57828272196073
9.715254272,1.0008672748469714,177.9920604729941
9.728813056,1.0010760028595442,177.40280087203817
9.742372864,1.001237044392112,176.81106877662805
9.755932672,1.0013430655140942,176.21747923003483
9.769491456,1.0013888577317542,175.62273479488923
9.783051264,1.0013724573069136,175.02754424441343
9.796610048,1.0012942825684048,174.4327091928041
9.810169856,1.0011576575784666,173.83893551720246
9.82372864,1.000968360437948,173.24690103639148
9.837288448,1.0007348264816838,172.65721438552174
9.850847232,1.0004673652995104,172.07035485245675
9.86440704,1.0001780490480483,171.48667847399335
9.877965824,0.9998794992042779,170.9063622062998
9.891525632,0.9995852109486518,170.32945660178143
9.905084416,0.9993085775139489,169.7558530632357
9.918644224,0.9990621092648793,169.18527186348473
9.932203008,0.9988568965181034,168.61723259754888
9.945762816,0.9987023560251997,168.05125041644087
9.9593216,0.9986058600197684,167.48661396158863
9.972881408,0.9985718249367869,166.92259348419506
9.986440192,0.9986019047951196,166.35842047369437
10.0,0.99869517738992,165.79334348619224
10.013559808,0.998847581699774,165.2265662414589
10.027118592,0.999052334634829,164.65740561303613
10.0406784,0.9993006253636336,164.08529879930367
10.054237184,0.9995812223618645,163.5097802479074
10.067796992,0.9998815518947637,162.93051217440077
10.081355776,1.000188364141297,162.34732974511797
10.094915584,1.0004877492287312,161.7602395202834
10.108474368,1.00076629875562,161.1694261603059
10.122034176,1.00101131534444,160.57519032316748
10.13559296,1.001211676358376,159.97801450992503
10.149152768,1.0013584730338687,159.3785197569148
10.162711552,1.0014446157002543,158.77737747921276
10.17627136,1.0014660444752217,158.17532658642853
10.189830144,1.001421848648828,157.5732104143727
10.203389952,1.0013134977368072,156.97175455347377
10.216948736,1.0011457058458542,156.37176569582434
10.230508544,1.0009256963927202,155.77390295571348
10.244067328,1.0006632944765428,155.17879040086643
10.257627136,1.0003699155574484,154.58682678225054
10.271186944,1.000058609879333,153.99833573987829
10.284745728,0.9997435073416382,153.41349882811238
10.298305536,0.9994385874073798,152.83222000961737
10.31186432,0.9991576809438423,152.25436580139677
10.325424128,0.9989134827797315,151.6795283627088
10.338982912,0.9987172957347399,151.10722995291212
10.35254272,0.9985780513000723,150.5368371554656
10.366101504,0.9985021542361563,149.96758320485182
10.379661312,0.9984935586972755,149.39870589884833
10.393220096,0.9985527363732462,148.82936646316827
10.406779904,0.9986772598899023,148.25872193184622
10.420338688,0.9988619015695074,147.68605538912186
10.433898496,0.9990984581765033,147.1106223375253
10.44745728,0.9993764694569933,146.53186043686839
10.461017088,0.9996835536448173,145.94937638483844
10.474575872,1.0000060583853219,145.36284234433566
10.48813568,1.0003295124241744,144.77219185821895
10.501694464,1.0006394923639805,144.1774810081778
10.515254272,1.0009218966940945,143.57894271012387
10.528813056,1.001163980749003,142.9770136511962
10.542372864,1.0013546739632984,142.37223189406387
10.555932672,1.001485325047863,141.76526784934381
10.569491456,1.00154973776265,141.15691409269482
10.583051264,1.0015447902811851,140.5479612903089
10.596610048,1.0014705051252593,139.93926180935034
10.610169856,1.0013297812647906,139.33164976517764
10.62372864,1.001128603956214,138.7258974209528
10.637288448,1.000876062529356,138.12267773149526
10.650847232,1.0005828571901745,137.5225836090119
10.66440704,1.0002620847121624,136.92602583042168
10.677965824,0.9999281264130194,136.33326869560833
10.691525632,0.9995958647677748,135.74440052532472
10.705084416,0.9992803106077423,135.15930812667744
10.718644224,0.9989956108525647,134.5777387606891
10.732203008,0.9987549643258953,133.9991950458085
10.745762816,0.9985690995742199,133.42314877013564
10.7593216,0.9984469432797626,132.84884086164217
10.772881408,0.9983940005378095,132.27544508084537
10.786440192,0.9984131440358927,131.7021353234663
10.8,0.9985038068423859,131.12801400885306
10.813559808,0.9986622421427511,130.55220957459935
10.827118592,0.9988813657495322,129.9739851453516
10.8406784,0.9991519322521425,129.392592162489
10.854237184,0.9994618391283933,128.8074802607758
10.867796992,0.9997970575133858,128.2182854696592
10.881355776,1.0001428715337688,127.6247435687636
10.894915584,1.000483785302315,127.02684045138494
10.908474368,1.000804389007308,126.42472757586722
10.922034176,1.0010901844322933,125.81870107518824
10.93559296,1.0013281886492942,125.20930677503723
10.949152768,1.001507732654509,124.59714954964286
10.962711552,1.0016202759893642,123.98299545996872
10.97627136,1.0016606333291842,123.36768965275286
10.989830144,1.0016265577580004,122.75215159494086
11.003389952,1.001519280261183,122.13723058290313
11.016948736,1.0013432575478467,121.52379321300471
11.030508544,1.0011060068666673,120.91268046949206
11.044067328,1.0008179788630276,120.3045539726991
11.057627136,1.0004916442297627,119.69996128799954
11.071186944,1.00014164315743,119.09928899036535
11.084745728,0.9997834167767995,118.50276455075888
11.098305536,0.9994332534618069,117.91039431826955
11.11186432,0.9991066916099801,117.32200946479874
11.125424128,0.99881871867858,116.73722771171775
11.138982912,0.9985823274115556,116.15551432517803
11.15254272,0.9984085241663129,115.57619063020799
11.166101504,0.9983055189703796,114.99842457215131
11.179661312,0.9982781881527413,114.42134318356301
11.193220096,0.9983282619851197,113.84400769854282
11.206779904,0.9984536179854443,113.26546605453731
11.220338688,0.9986492879652957,112.68484188849621
11.233898496,0.9989065945739475,112.10128537067148
11.24745728,0.9992142320734961,111.51415915672386
11.261017088,0.9995586500746093,110.92291445665762
11.274575872,0.9999244510915675,110.32714773108067
11.28813568,1.0002954035073355,109.72671698110146
11.301694464,1.000654800620883,109.12168202440375
11.315254272,1.0009864992536144,108.5122238708534
11.328813056,1.0012753904045886,107.89880813898044
11.342372864,1.0015084391485614,107.2819958185079
11.355932672,1.0016748846423096,106.66254576928974
11.369491456,1.001767049576645,106.04132916245555
11.383051264,1.0017801907164028,105.41922032856044
11.396610048,1.0017135124159722,104.79722414763951
11.410169856,1.0015695977486168,104.17626606864599
