freq,mag,phase
6.0,0.9999371384413454,43.08590337037633
6.041025536,0.9999246361787986,42.14865213040256
6.082051072,0.9999133430678403,41.211413976211695
6.12307712,0.9999031807713283,40.27428975126356
6.164102656,0.9998943776808482,39.3371448087592
6.205128192,0.9998871951350621,38.40001776642593
6.246153728,0.9998815996409562,37.46293449175774
6.287179264,0.9998777378027847,36.52587904481652
6.328205312,0.9998755585657961,35.588753807831225
6.369230848,0.9998752966263033,34.65161324447694
6.410256384,0.999876840064581,33.714426231433656
6.45128192,0.9998801773494554,32.777217108260835
6.492307456,0.99988528589318,31.839946609268587
6.533333504,0.9998920580918146,30.90256937669373
6.57435904,0.9999004057743054,29.96513877691731
6.615384576,0.9999102393361945,29.02759405852347
6.656410112,0.9999214314992055,28.08996415182577
6.697435648,0.9999337840913063,27.152228272979933
6.738461696,0.9999471775776371,26.214324960092675
6.779487232,0.9999613140449756,25.27627429204562
6.820512768,0.9999760640523204,24.33810302850379
6.861538304,0.9999912074163225,23.39981260247076
6.902564352,1.0000064347664959,22.461374115772887
6.943589888,1.0000216854337636,21.522770899902987
6.984615424,1.000036567707698,20.584050038422223
7.02564096,1.0000509455914928,19.645165507818874
7.066666496,1.0000646322351041,18.706150380573597
7.107692544,1.0000773598102037,17.767030672662873
7.14871808,1.0000888969083854,16.827739416983526
7.189743616,1.0000992830464925,15.888349696146342
7.230769152,1.0001080849151804,14.948866638505779
7.271794688,1.0001153279878965,14.009304213643683
7.312820736,1.000120868464738,13.069611495656467
7.353846272,1.00012459232185,12.129862811314087
7.394871808,1.000126499551045,11.190070251299742
7.435897344,1.000126464273552,10.250214815391505
7.47692288,1.000124582494017,9.310309708450449
7.517948928,1.0001207824619078,8.370408587968319
7.558974464,1.0001152180370907,7.430486127482222
7.6,1.0001079283395904,6.490573752791901
7.641025536,1.000098882070046,5.550656307708765
7.682051072,1.0000884748810817,4.610765416458647
7.72307712,1.0000765144354702,3.670935358537973
7.764102656,1.0000635218442313,2.7311180546361484
7.805128192,1.0000493970169888,1.7913679634625945
7.846153728,1.000034478865843,0.851658979576977
7.887179264,1.0000190597442589,-0.08795708734279564
7.928205312,1.0000031533772835,-1.0275338442583457
7.969230848,0.9999871962258962,-1.9670537657662763
8.010256384,0.9999713870152597,-2.9064695596531225
8.05128192,0.9999558033203341,-3.8458397359163743
8.092307456,0.9999408622294429,-4.785130818548008
8.133333504,0.9999267013274752,-5.724382381109532
8.17435904,0.9999135786616381,-6.663587555461196
8.215384576,0.999901806218686,-7.602718164695706
8.256410112,0.9998911469067611,-8.54185064536556
8.297435648,0.9998822147210857,-9.480954322408218
8.338461696,0.9998748326189645,-10.420028319601384
8.379487232,0.9998693904858963,-11.35908084399636
8.420512768,0.9998657918631282,-12.298199189719154
8.461538304,0.9998641044791767,-13.237309611538095
8.502564352,0.9998643811868704,-14.17645350975685
8.543589888,0.9998667417572189,-15.115677883917993
8.584615424,0.9998710344015699,-16.054953700535517
8.625641472,0.9998772180998184,-16.994316015277988
8.666667008,0.9998852124930646,-17.933776197652097
8.707692544,0.9998948701244319,-18.87333377206178
8.74871808,0.9999062824671731,-19.813028121259627
8.789743616,0.9999190278501284,-20.7528342962258
8.830769152,0.9999328500824641,-21.692804175930217
8.871794688,0.9999479680896894,-22.63289788991764
8.912820224,0.9999637782612588,-23.573161770089623
8.95384576,0.9999800512982767,-24.513595107254886
8.994871296,0.999996880731204,-25.454174477507447
9.035897856,1.0000137521875891,-26.394932966405047
9.076923392,1.0000303993253976,-27.335855342902853
9.117948928,1.000046726383156,-28.276941136277262
9.158974464,1.0000623415956504,-29.21819583370176
9.2,1.000077139007267,-30.159607182893794
9.241025536,1.0000908430629056,-31.10116260670681
9.282051072,1.0001032480315268,-32.04286545451045
9.323076608,1.0001142653530959,-32.98469290230051
9.364102144,1.0001234599111317,-33.926657018751506
9.405128704,1.000130996554267,-34.86872466573239
9.44615424,1.0001364507402168,-35.81089475983837
9.487179776,1.0001400007354517,-36.75316889880576
9.528205312,1.0001413621147497,-37.69547488079005
9.569230848,1.000140816795594,-38.6378704658054
9.610256384,1.0001379783423,-39.58032405479297
9.65128192,1.0001330722426416,-40.52280179320787
9.692307456,1.0001261582685412,-41.46527631068793
9.733332992,1.0001174255777296,-42.407740155027945
9.774358528,1.0001069275998618,-43.35020212105535
9.815385088,1.0000946121542873,-44.292658812215755
9.856410624,1.0000809763996028,-45.2350659618093
9.89743616,1.0000659053919236,-46.17743610737453
9.938461696,1.000049834810107,-47.11974955073065
9.979487232,1.0000329606453657,-48.06201447850626
10.020512768,1.0000154289449186,-49.004216517795
10.061538304,0.9999976068236992,-49.94635136752282
10.10256384,0.9999796260159516,-50.888397292834085
10.143589376,0.9999618943025721,-51.83040977491016
10.184614912,0.9999446669426191,-52.772329267263494
10.225641472,0.9999280282550749,-53.714195788269606
10.266667008,0.999912442013592,-54.65599848598185
10.307692544,0.9998980306417496,-55.59776440576345
10.34871808,0.9998850548222324,-56.539473676156604
10.389743616,0.9998736252819327,-57.481180431592044
10.430769152,0.999864023010592,-58.42285648968516
10.471794688,0.9998563389530725,-59.36452138983635
10.512820224,0.9998506684316207,-60.30620985304698
10.55384576,0.999847354196189,-61.247920249956216
10.594871296,0.9998460728998192,-62.18967047499904
10.635897856,0.9998471737840706,-63.13146626542212
10.676923392,0.9998504708189504,-64.07335225346262
10.717948928,0.9998559810297233,-65.01530636845189
10.758974464,0.9998636309895474,-65.95738167717809
10.8,0.9998733994182957,-66.89956266742395
10.841025536,0.9998851043506164,-67.8418989188169
10.882051072,0.9998984129901485,-68.78434814108893
10.923076608,0.9999134495643304,-69.7269874814764
10.964102144,0.9999296615950422,-70.6697804031472
11.005128704,0.9999471678066698,-71.61275283416992
11.04615424,0.9999655182327228,-72.55590145725057
11.087179776,0.999984484679578,-73.49926396579768
11.128205312,1.0000036789374025,-74.44280455984827
11.169230848,1.0000230511398234,-75.38655264223999
11.210256384,1.0000421354568085,-76.33049695803743
11.25128192,1.0000606832015237,-77.27464468587657
11.292307456,1.0000784958069586,-78.21897266085747
11.333332992,1.0000952202854712,-79.16349315460857
11.374358528,1.000110647681227,-80.10819279852048
11.415385088,1.000124499234134,-81.05305190656499
11.456410624,1.0001365821064208,-81.99807534520374
11.49743616,1.0001466919950137,-82.94326954606532
11.538461696,1.0001547416027723,-83.88857459645308
11.579487232,1.0001605203678063,-84.83399278596883
11.620512768,1.000163933551654,-85.77951892448455
11.661538304,1.0001649392497196,-86.72513144044757
11.70256384,1.0001634987600365,-87.67082808883991
11.743589376,1.0001595694713714,-88.61656660857753
11.784614912,1.0001532742155634,-89.56234863041583
11.825641472,1.0001447117518592,-90.50812865896084
11.866667008,1.0001337609280687,-91.45392849044457
11.907692544,1.0001208644817248,-92.39971636873409
11.94871808,1.000106023370118,-93.34548983025633
11.989743616,1.0000895864151167,-94.29120829691688
12.030769152,1.000071525655371,-95.23689669077851
12.071794688,1.0000523738076903,-96.18252154320882
12.112820224,1.0000322383123266,-97.12807076045125
12.15384576,1.0000113984254513,-98.07356466300676
12.194871296,0.9999903511405821,-99.01898935737931
12.235897856,0.999969134161773,-99.96432760725283
12.276923392,0.9999482676327993,-100.90958915447337
12.317948928,0.9999279381600761,-101.85477452626249
12.358974464,0.9999085426441127,-102.79990874359
12.4,0.9998902953028659,-103.74498296159031
12.441025536,0.9998734504106771,-104.68998748381347
12.482051072,0.9998583623504809,-105.63496193643533
12.523076608,0.9998452778675805,-106.57990499656471
12.564102144,0.9998343634664167,-107.52482446591532
12.605128704,0.99982572430947,-108.46977078862467
12.64615424,0.9998195925673481,-109.41472425393212
12.687179776,0.9998160872039994,-110.35971042332702
12.728205312,0.9998151648170102,-111.30475542425185
12.769230848,0.9998170722206584,-112.24986875924014
12.810256384,0.9998215512126045,-113.19507760667054
12.85128192,0.9998288008925301,-114.14039014756112
12.892307456,0.9998386257331032,-115.08584569165222
12.933332992,0.9998508790170447,-116.03144642249784
12.974358528,0.9998654299154517,-116.97721985850974
13.015385088,0.9998820935668488,-117.92315620230043
13.056410624,0.9999006950573075,-118.86931995667763
13.09743616,0.9999208537871509,-119.81565954534459
13.138461696,0.999942383963556,-120.76224347820559
13.179487232,0.9999649952198552,-121.70905300341649
13.220512768,0.9999882658045417,-122.65608663060904
13.261538304,1.0000118969300382,-123.60339900362037
13.30256384,1.0000356794977205,-124.55092221792792
13.343589376,1.0000591192803758,-125.4987085165599
13.384614912,1.0000818005640706,-126.44674491835536
13.425641472,1.0001036774219263,-127.39498760217438
13.466667008,1.0001240938543652,-128.34348510106972
13.507692544,1.0001428816378273,-129.29221659664907
13.54871808,1.0001598308749973,-130.24115067994643
13.589743616,1.0001745898922905,-131.1902814020975
13.630769152,1.0001867749253575,-132.13959271720137
13.671794688,1.0001964949159636,-133.08907166329396
13.712820224,1.0002032144127637,-134.03871205019678
13.75384576,1.0002070705992938,-134.98847154265087
13.794871296,1.0002078737651299,-135.93835379861994
13.835897856,1.0002057084092844,-136.88831215840756
13.876923392,1.0002003178724999,-137.83835379078735
13.917948928,1.000191951481252,-138.78843894616656
13.958974464,1.000180507422962,-139.7385476788269
14.0,1.0001663381370163,-140.6886647513548
