freq,mag,phase
6.0,1.000550789457725,144.8026737532523
6.002286592,1.000679960188074,144.64512396941157
6.004572672,1.000766296981376,144.4861019524406
6.006859264,1.0008038861986617,144.32623343130223
6.009145344,1.0007904659060507,144.16623700828407
6.011431936,1.0007268265315459,144.00682760130087
6.013718016,1.0006170526449536,143.84872935634857
6.016004608,1.000468021044661,143.69260244449208
6.018290688,1.0002889442050513,143.53886401062036
6.02057728,1.0000913448293594,143.38795414632952
6.022863872,0.9998878034949256,143.23999405322263
6.025149952,0.999690839601177,143.09499115482203
6.027436544,0.9995133222410049,142.95278671011107
6.029722624,0.9993664153269164,142.8129817679168
6.032009216,0.99925933940365,142.6751206581858
6.034295296,0.9991989752051498,142.53849513830346
6.036581888,0.9991892937231671,142.40241308032566
6.03886848,0.999230834432739,142.26621269597373
6.04115456,0.9993209965551051,142.12910492661737
6.043441152,0.9994540206295828,141.9904081084425
6.045727232,0.9996215813142705,141.8495952524847
6.048013824,0.9998129175478669,141.70622542640757
6.050299904,1.000016209293319,141.5600225700309
6.052586496,1.0002183022911388,141.41092442398408
6.054872576,1.0004064756222224,141.2590768328897
6.057159168,1.0005686874923392,141.1047418941115
6.05944576,1.0006949365538516,140.94834076042778
6.06173184,1.0007770370793514,140.7904948731513
6.064018432,1.0008099057069708,140.63182101311907
6.066304512,1.0007911224774828,140.47317881045527
6.068591104,1.0007223024140426,140.31517367394932
6.070877184,1.0006074509266292,140.15855443457625
6.073163776,1.0004538579024058,140.00390811790643
6.075450368,1.0002713412139688,139.8517803598316
6.077736448,1.0000713923516025,139.702514248958
6.08002304,0.9998664944396521,139.5562109666731
6.08230912,0.9996698757848034,139.41288152574805
6.084595712,0.9994938883961643,139.27228912291656
6.086881792,0.9993496192364804,139.13413391719405
6.089168384,0.9992464400218853,138.9978114552867
6.091454464,0.9991906932906551,138.86271454248933
6.093741056,0.9991861423614781,138.7281085160504
6.096027648,0.9992330527490245,138.59323243154014
6.098313728,0.9993285132359168,138.4574363595533
6.10060032,0.9994662744174353,138.31991613563585
6.1028864,0.9996379319183266,138.18024243647096
6.105172992,0.9998323995229929,138.03796371078033
6.107459072,1.0000372597236904,137.89283479618044
6.109745664,1.0002397746488874,137.74476421361135
6.112032256,1.000427087211138,137.59395051658032
6.114318336,1.0005870757282171,137.4406474125697
6.116604928,1.0007099416341485,137.28534630711079
6.118891008,1.0007877188457608,137.12863388735937
6.1211776,1.0008154906035036,136.97122738486968
6.12346368,1.0007914384481535,136.81382257797634
6.125750272,1.0007171451824366,136.6571878634951
6.128036352,1.000597222541373,136.5020351162837
6.130322944,1.000439071894089,136.3489140721971
6.132609536,1.000252935699795,136.19835700636247
6.134895616,1.0000505768428583,136.05067939300923
6.137182208,0.9998446668008956,135.90601506477068
6.139468288,0.9996483610472732,135.7642998156395
6.14175488,0.9994739756580313,135.6253952600045
6.14404096,0.9993326211434161,135.48878836317496
6.146327552,0.9992334385756945,135.35400853559707
6.148614144,0.9991826035137202,135.22039688326086
6.150900224,0.9991835331253089,135.08719128025132
6.153186816,0.9992359769446943,134.95363593271819
6.155472896,0.999336645120461,134.8190301287765
6.157759488,0.9994794544012948,134.682697555504
6.160045568,0.9996550850303607,134.54412449071185
6.16233216,0.9998524411496942,134.4028689681846
6.16461824,1.0000591455404966,134.25874079036078
6.166904832,1.0002619431963529,134.11167006271185
6.169191424,1.0004481046718197,133.96184996084685
6.171477504,1.0006057217913662,133.80956554716957
6.173764096,1.000724858910278,133.65530909074295
6.176050176,1.000798158001587,133.4997268362439
6.178336768,1.0008205705220843,133.3434879368927
6.180622848,1.0007909862843478,133.18737642821418
6.18290944,1.0007111732767813,133.0320464092459
6.18519552,1.0005860088379428,132.8783028049686
6.187482112,1.0004234382643113,132.72669108908337
6.189768704,1.0002337630122324,132.57769347169813
6.192054784,1.0000290551101667,132.43158641213012
6.194341376,0.9998221207772784,132.2885304461558
6.196627456,0.9996262924176674,132.1484534854183
6.198914048,0.9994538185585068,132.01111335037152
6.201200128,0.9993156555315352,131.87608609512003
6.20348672,0.9992206230584512,131.7428006574137
6.205773312,0.9991749806675689,131.61060600993372
6.208059392,0.9991812740361041,131.47875578388087
6.210345984,0.9992395001984687,131.34647568688902
6.212632064,0.9993457292974044,131.21306347757357
6.214918656,0.9994933935779382,131.0778578234065
6.217204736,0.999672973251192,130.94031533208658
6.219491328,0.9998732772415528,130.8000478096321
6.221777408,1.0000815435691635,130.65688186601471
6.224064,1.0002846253970754,130.5107610753022
6.226350592,1.0004693784976233,130.36184154741215
6.228636672,1.0006243893687898,130.210548319443
6.230923264,1.0007397858347327,130.0573503477628
6.233209344,1.0008083467229258,129.9028279139258
6.235495936,1.0008253564486091,129.74774682992856
6.237782016,1.0007900308318367,129.59283597421583
6.240068608,1.0007043873994461,129.43886200452542
6.2423552,1.000573913011176,129.28651212582642
6.24464128,1.00040689951417,129.13635417152352
6.246927872,1.0002138442166482,128.98885925217434
6.249213952,1.0000068007771958,128.84431165023184
6.251500544,0.9997991085856802,128.70286343824156
6.253786624,0.9996038376939397,128.56434960534074
6.256073216,0.9994334451907516,128.42857632641403
6.258359296,0.9992987088777066,128.29507693841578
6.260645888,0.9992082488592104,128.163243085717
6.26293248,0.9991676914992829,128.03244867009616
6.26521856,0.9991798055517762,127.90190774757087
6.267505152,0.9992438470894418,127.77086773680675
6.269791232,0.9993557340913254,127.63856494353892
6.272077824,0.9995082465327496,127.50443371387792
6.274363904,0.9996919414532472,127.36786062582915
6.276650496,0.9998951828984134,127.22855119906659
6.278937088,1.0001048479191652,127.08628045456277
6.281223168,1.0003078188485814,126.9410572593274
6.28350976,1.000491279163963,126.79305339943672
6.28579584,1.0006434075425237,126.64269970137897
6.288082432,1.0007547351642536,126.49046916592971
6.290368512,1.0008181253070316,126.33699334945823
6.292655104,1.0008295341893247,126.18305182650812
6.294941184,1.000788311054852,126.02932878257636
6.297227776,1.000696836102417,125.87665935589773
6.299514368,1.0005610260865014,125.72564865970843
6.301800448,1.000389444110787,125.5769274662839
6.30408704,1.0001929377210674,125.43094273979216
6.30637312,0.999983819302739,125.28794815287822
6.308659712,0.9997755022668523,125.14801287828702
6.310945792,0.9995809267294421,125.0110741774274
6.313232384,0.9994128797449452,124.87682908910755
6.315518464,0.9992817487349681,124.74479594423751
6.317805056,0.9991959483982191,124.61441735691307
6.320091648,0.9991608348572477,124.48496118265734
6.322377728,0.9991788819435121,124.3556579580834
6.32466432,0.9992489405995102,124.22578223544312
6.3269504,0.9993664555741936,124.09459644542457
6.329236992,0.999524056258645,123.96144167156383
6.331523072,0.9997118784675993,123.82582583979398
6.333809664,0.9999176989523321,123.68739910926843
6.336096256,1.0001288404139395,123.54600139810684
6.338382336,1.0003315586054113,123.40160547853552
6.340668928,1.0005132578828282,123.25446811607605
6.342955008,1.0006623998862532,123.10499680525415
6.3452416,1.0007694660207578,122.95371311671998
6.34752768,1.0008276365073518,122.8012604483828
6.349814272,1.0008332604779184,122.64838780937406
6.352100352,1.0007858648993655,122.49585417864704
6.354386944,1.0006883800651443,122.3444392546965
6.356673536,1.0005472149871222,122.19477424217807
6.358959616,1.000371082860937,122.04745255350602
6.361246208,1.0001709663413827,121.90293676594523
6.363532288,0.9999599145965143,121.76142787831331
6.36581888,0.9997510814917504,121.62302986110817
6.36810496,0.9995575818658752,121.48760284012299
6.370391552,0.9993919499024927,121.3548511732777
6.372678144,0.9992645907027213,121.22426558538098
6.374964224,0.9991837442023667,121.0952598256242
6.377250816,0.9991544037945703,120.96711123770116
6.379536896,0.9991786136389005,120.83904506442863
6.381823488,0.9992546357119922,120.71028543687939
6.384109568,0.9993779772131237,120.58010585453287
6.38639616,0.9995405787290742,120.44793799004525
6.38868224,0.9997323830762638,120.31320105398784
6.390968832,0.9999409475520672,120.17562169462853
6.393255424,1.0001531659980427,120.03499918508282
6.395541504,1.0003556780015666,119.89141108571584
6.397828096,1.0005354880289432,119.74510165771909
6.400114176,1.000681212171214,119.5964869031734
6.402400768,1.0007838407179632,119.44608435515286
6.404686848,1.0008365000178527,119.29459787594998
6.40697344,1.0008361426280117,119.14280343713055
6.409260032,1.0007825324274218,118.99141429848297
6.411546112,1.0006790684307805,118.84123141196439
6.413832704,1.0005324838662957,118.69287531697964
6.416118784,1.0003517218699658,118.54695150941936
6.418405376,1.0001485180565182,118.40384024930394
6.420691456,0.9999354321966694,118.26383614640226
6.422978048,0.9997261329827354,118.12691565717503
6.425264128,0.9995340125316006,117.99298071089557
6.42755072,0.9993710755157642,117.86170664317844
6.429837312,0.9992478365367874,117.7325027407032
6.432123392,0.9991720469455931,117.60483800069129
6.434409984,0.9991485913584476,117.47791846830712
6.436696064,0.9991789333444303,117.35100558358778
6.438982656,0.9992614355300679,117.2233392331738
6.441268736,0.9993904750290963,117.09415647171895
6.443555328,0.9995582797877467,116.96285811462302
6.44584192,0.999753841745577,116.8289480159976
6.448128,0.9999649308324909,116.69217098144931
6.450414592,1.000178368126499,116.55230374458034
6.452700672,1.000380285972886,116.40946080140003
6.454987264,1.0005579890511485,116.26392429894197
6.457273344,1.000700241967902,116.11608960239808
6.459559936,1.0007978465723424,115.96657635311585
6.461846016,1.0008450055887481,115.81602951545112
6.464132608,1.0008383728299695,115.6652464632006
6.4664192,1.0007784068702652,115.51495782779271
6.46870528,1.000668946285032,115.36597682124041
6.470991872,1.000516648985337,115.21890373743992
6.473277952,1.000331407203615,115.07432572400074
6.475564544,1.000124910161834,114.93264113974796
6.477850624,0.9999100818986681,114.7940747212629
6.480137216,0.9997007148349838,114.65864355056033
6.482423296,0.9995099457097495,114.52614923849427
6.484709888,0.9993500560623365,114.39626200773033
6.48699648,0.9992309764746069,114.26844281309596
6.48928256,0.9991605544465996,114.14204618456314
6.491569152,0.9991432714052776,114.01634470363021
6.493855232,0.9991802078724572,113.89053770682646
6.496141824,0.9992688056615575,113.76390336626132
6.498427904,0.9994039456950606,113.6356499478321
6.500714496,0.9995766840869147,113.50519976567398
6.503001088,0.9997762574084371,113.37206156591061
6.505287168,0.9999898162691968,113.23598586198167
6.50757376,1.0002039945472787,113.09682325758173
6.50985984,1.00040515027745,112.95469891007434
6.512146432,1.000580595989179,112.80988799670179
6.514432512,1.0007191202615404,112.66283035829788
6.516719104,1.0008118872683673,112.51412746168543
6.519005184,1.0008530075480115,112.36449467964546
6.521291776,1.0008399847845848,112.21467703846801
6.523578368,1.0007735206119395,112.06547122353606
6.525864448,1.0006577783263073,111.91768531380137
6.52815104,1.0005001199652765,111.77183720662846
6.53043712,1.00031043138033,111.62860539303232
6.532723712,1.0001005891265333,111.48830100494091
6.535009792,0.999884149979249,111.3511580698656
6.537296384,0.99967478913657,111.21713855899331
6.539582976,0.9994857217400175,111.08605568907471
6.541869056,0.9993290311561454,110.95754456901945
6.544155648,0.9992145616444293,110.83106216173606
6.546441728,0.9991497028861543,110.7058965009524
6.54872832,0.9991386953650336,110.58135605686442
6.5510144,0.9991821311394273,110.45659437591895
6.553300992,0.9992774267732011,110.33090310881884
6.555587072,0.9994184183720357,110.20351260097642
6.557873664,0.9995961222224272,110.07385619720124
6.560160256,0.9997994589776181,109.9414380458477
6.562446336,1.0000154768933125,109.80602996294148
6.564732928,1.0002303553233616,109.6675446166067
6.567019008,1.000430474702045,109.52607904954706
6.5693056,1.00060333129992,109.38192572334576
6.57159168,1.0007377515805431,109.23559474315263
6.573878272,1.0008253446414581,109.08765654727696
6.576164864,1.0008603499702398,108.93891079103318
6.578450944,1.0008407898494684,108.79005145045137
6.580737536,1.0007675921178594,108.64190171383606
6.583023616,1.0006456323813284,108.49522337971547
6.585310208,1.000482451997048,108.35063691152908
6.587596288,1.000288268759685,108.2087066264601
6.58988288,1.0000754581541524,108.06976042263429
6.59216896,0.9998577474453646,107.93397143822216
6.594455552,0.9996485678568706,107.80133739667824
6.596742144,0.9994613354021008,107.67164487425902
6.599028224,0.9993080533413429,107.5444571526648
6.601314816,0.9991984881009065,107.41922875106796
6.603600896,0.9991394105589544,107.29528732570677
6.605887488,0.9991349243715845,107.17184255581917
6.608173568,0.9991851259979341,107.04810345251786
6.61046016,0.9992869402398693,106.92330455436623
6.612746752,0.9994337983610766,106.79673836397839
6.615032832,0.9996166715468432,106.66779787501487
6.617319424,0.9998236833215015,106.53604720273891
6.619605504,1.0000417458744386,106.40125357044711
6.621892096,1.0002572229822133,106.26336531669169
6.624178176,1.0004562266151362,106.12247872526022
6.626464768,1.0006262065925486,105.9789633320747
6.628750848,1.0007563282637137,105.83327605916361
6.63103744,1.0008384270549624,105.68612377542686
6.633324032,1.000867196047977,105.53818507732775
6.635610112,1.0008408256622823,105.3902707998917
6.637896704,1.00076094974966,105.24312756398177
6.640182784,1.0006325491253687,105.09758741161484
6.642469376,1.0004637833923504,104.9542073445252
6.644755456,1.0002652248048918,104.81351904430231
6.647042048,1.0000495629323096,104.67590980336597
6.649328128,0.9998303818318743,104.54148177286743
6.65161472,0.9996216603378456,104.4102012560151
6.653901312,0.9994366067345779,104.28183735951198
6.656187392,0.9992869835177772,104.15592454185533
6.658473984,0.999182383744371,104.03195194267134
6.660760064,0.9991294939069146,103.90913304728468
6.663046656,0.9991315607124788,103.78674125211192
6.665332736,0.9991886870603842,103.66393493665478
6.667619328,0.9992971661695348,103.54000096868255
6.66990592,0.9994502630010149,103.4141923417911
6.672192,0.9996381210075995,103.28592449849724
6.674478592,0.9998486896218093,103.1547972594216
6.676764672,1.0000690190406312,103.02058855945337
6.679051264,1.0002846515886037,102.88320129293456
6.681337344,1.0004822849229866,102.74289373372986
6.683623936,1.0006490959209506,102.59995413674909
6.685910016,1.0007748141063422,102.45492429833631
6.688196608,1.0008511429030726,102.30848101384909
6.6904832,1.000873350421146,102.16130238024574
6.69276928,1.0008400009126281,102.01427805143808
6.695055872,1.0007532186535892,101.86814922423801
6.697341952,1.0006184340617639,101.72368415020723
6.699628544,1.0004440372944001,101.58144887271722
6.701914624,1.000241190023973,101.44203504864717
6.704201216,1.000022782333705,101.30567594212694
6.706487808,0.9998024567612861,101.1725931830633
6.708773888,0.9995944251198173,101.04262042097167
6.71106048,0.9994117592896834,100.91555584346285
6.71334656,0.9992660814877112,100.7909018044826
6.715633152,0.9991667339674865,100.66811127846326
6.717919232,0.9991202370053621,100.54638016630246
6.720205824,0.9991291930182623,100.42500789779265
6.722491904,0.9991934203580689,100.30309066979622
6.724778496,0.9993085761359926,100.1799384275848
6.727065088,0.9994677035946258,100.0548022249606
6.729351168,0.9996604785047812,99.927156274957
6.73163776,0.9998746049523117,99.79656961989751
6.73392384,1.000096706655634,99.66286715647932
6.736210432,1.0003124658830436,99.5260070177213
6.738496512,1.0005083773013186,99.38617318759857
6.740783104,1.0006719901520953,99.24377184238942
6.743069696,1.0007928569820959,99.099336075039
6.745355776,1.00086327993087,98.95354694511168
6.747642368,1.0008786986532516,98.80716966696731
6.749928448,1.0008383545766417,98.66099677506307
6.75221504,1.0007445296006,98.51581643339843
6.75450112,1.000603201816975,98.37238804456605
6.756787712,1.0004233734777475,98.23134225648249
6.759073792,1.0002162826311685,98.09309501669891
6.761360384,0.9999951148335293,97.95803086986209
6.763646976,0.9997739700595354,97.8261941229032
6.765933056,0.999566739912389,97.69752202846334
6.768219648,0.9993867913797974,97.57172429182076
6.770505728,0.9992453314645608,97.4482843995661
6.77279232,0.9991515718983022,97.32659398681456
6.7750784,0.999111424624187,97.20592582882932
6.777364992,0.999127513173765,97.0854837482767
6.779651584,0.9991989208080843,96.96441833099664
6.781937664,0.9993210251869009,96.84199938501771
6.784224256,0.9994861050751641,96.71750994067213
6.786510336,0.9996837171580208,96.59040106565814
6.788796928,0.9999012930741643,96.46033316257775
6.791083008,1.0001251162391425,96.32707878358785
6.7933696,1.0003408626493986,96.19065951531752
6.79565568,1.0005348263449265,96.05128989015834
6.797942272,1.0006948328038947,95.90937583854169
6.800228864,1.0008106310707776,95.7654913993063
6.802514944,1.0008748753468772,95.62031291505893
6.804801536,1.0008834423737154,95.47468367298626
6.807087616,1.0008357162502417,95.32933816592939
6.809374208,1.0007348791976969,95.18507375908005
6.811660288,1.0005870813735975,95.04268908588553
6.81394688,1.0004016882879625,94.90270995232379
6.81623296,1.0001905952504682,94.76569915945392
6.818519552,0.9999668676762038,94.63184817886089
6.820806144,0.9997450270045849,94.5012577295401
6.823092224,0.999538884382056,94.37382271628846
6.825378816,0.9993618196888248,94.24923053163809
6.827664896,0.9992248460134027,94.12695898205386
6.829951488,0.9991368945264468,94.00638015960946
6.832237568,0.999103551038791,93.88668749666952
6.83452416,0.9991269145549353,93.76710871847673
6.836810752,0.9992055293514928,93.64684955546312
6.839096832,0.9993345657721475,93.5250890364067
6.841383424,0.999505624251674,93.40118450520085
6.843669504,0.999708065712261,93.2745965377735
6.845956096,0.9999288732401059,93.14494633472496
6.848242176,1.0001541663214328,93.01206829531515
6.850528768,1.0003695550726501,92.87605123511727
6.852814848,1.0005613883834652,92.73708040179129
6.85510144,1.0007175321156594,92.5956198856284
6.857388032,1.0008280711899955,92.45224057955815
6.859674112,1.0008858673712366,92.30769077889084
6.861960704,1.0008873568530001,92.16272581363634
6.864246784,1.0008322877594797,92.0181755849563
6.866533376,1.000724178518972,91.87483965960747
6.868819456,1.000569814296813,91.73342398722352
6.871106048,1.0003790456603248,91.5945705170112
6.87339264,1.0001637655526474,91.45866206120296
6.87567872,0.9999378172476313,91.32604064800252
6.877965312,0.9997153888400486,91.1966585616627
6.880251392,0.9995106743673833,91.07044146663542
6.882537984,0.9993367288737455,90.94702039885726
6.884824064,0.9992045396435129,90.82585202531668
6.887110656,0.9991226533466135,90.7062877994331
6.889396736,0.9990961722674897,90.58753615395231
6.891683328,0.9991270383063113,90.46881498367534
6.89396992,0.9992130080131646,90.3492643446052
6.896256,0.9993489324168673,90.22812846418859
6.898542592,0.9995260844617923,90.10473426200448
6.900828672,0.9997332198749406,89.97857900206192
6.903115264,0.9999572642429555,89.84932206860292
6.905401344,1.000183758473376,89.71681638628957
6.907687936,1.0003985503976311,89.58110483174809
6.909974528,1.0005880987097122,89.44250348784233
6.912260608,1.0007400442090815,89.30143565692333
6.9145472,1.0008450005605538,89.15855012465478
6.91683328,1.0008961974895387,89.0145423057074
6.919119872,1.000890275520789,88.87023142646264
6.921405952,1.000827654837279,88.72645895984732
6.923692544,1.0007123413062953,88.583977451743
6.925978624,1.0005514143165997,88.44357291012828
6.928265216,1.0003552487125216,88.30574750215351
