freq,mag,phase
6.0,1.0000021617485768,36.11115100986881
6.042105344,1.0000016147612583,35.09987939918806
6.084210688,1.0000010005367383,34.08856467663651
6.126316032,1.0000003049148896,33.07724967653211
6.168420864,0.9999997345458919,32.065862820755946
6.210526208,0.9999991015760546,31.05444218780279
6.252631552,0.9999985738363177,30.043067377510585
6.294736896,0.9999981539939228,29.031645543258723
6.33684224,0.9999976504042666,28.020177299701253
6.378947584,0.9999973612345575,27.008668051173583
6.421052416,0.99999702460236,25.997140664132736
6.46315776,0.999996866634782,24.98556262408271
6.505263104,0.9999967416357494,23.973928825080183
6.547368448,0.9999965939898552,22.962336465751576
6.589473792,0.9999966392437419,21.950659174456526
6.631579136,0.999996751170043,20.938988611103383
6.673683968,0.9999969840048999,19.927236678165237
6.715789312,0.9999971518166519,18.915462908069532
6.757894656,0.9999975534240523,17.903697422870987
6.8,0.9999980024852382,16.891834632997913
6.842105344,0.999998472967554,15.879980825105296
6.884210688,0.9999989448094972,14.868052671688428
6.926316032,0.9999995143372521,13.856120716935187
6.968420864,1.0000000851844697,12.844099753375712
7.010526208,1.0000007989870712,11.832100158653503
7.052631552,1.0000014279510625,10.820027933800608
7.094736896,1.0000021389994056,9.807912570642715
7.13684224,1.0000027790435044,8.795759616791402
7.178947584,1.0000034696907238,7.783581093991773
7.221052416,1.000004134471329,6.771318892932376
7.26315776,1.0000047364927622,5.759053450796965
7.305263104,1.0000053615637472,4.746754758037537
7.347368448,1.0000059131088475,3.7343908561129955
7.389473792,1.0000063099772534,2.7220174205481245
7.431579136,1.0000067871074716,1.709584839483566
7.473683968,1.0000071972504574,0.6971012346335612
7.515789312,1.0000075201082015,-0.3153811514562659
7.557894656,1.0000076921493355,-1.3279565740330639
7.6,1.0000078439003326,-2.3405473612753367
7.642105344,1.0000079462233114,-3.3531672899536566
7.684210688,1.0000078193833797,-4.365822725331641
7.726316032,1.000007738254663,-5.3785242907057835
7.768420864,1.0000074930298448,-6.391292051270769
7.810526208,1.0000073163199663,-7.404029714657608
7.852631552,1.0000068542043763,-8.416870548704463
7.894736896,1.0000064029344515,-9.429712687122224
7.93684224,1.0000059777853216,-10.442586513449548
7.978947584,1.000005433333118,-11.455494080125446
8.021052416,1.0000047936489205,-12.46847515655587
8.06315776,1.0000042582615805,-13.481462093752487
8.105263104,1.0000035350228125,-14.494468127736344
8.147368448,1.0000028202368338,-15.507536039388977
8.189473792,1.000002162857053,-16.520616249040447
8.231579136,1.000001438272482,-17.53374733578901
8.273683968,1.0000007621985314,-18.546910769966136
8.315789312,1.0000000771680717,-19.560099798001822
8.357894656,0.9999994188077718,-20.57333853542713
8.4,0.9999988138178625,-21.586594754968147
8.442105344,0.9999982679505123,-22.599905786813803
8.484210688,0.999997735709474,-23.613249502388097
8.526316032,0.9999973379500072,-24.626607892552606
8.568420864,0.9999969228669695,-25.64003132379985
8.610526208,0.9999967409031099,-26.65348387752347
8.652632064,0.99999641024854,-27.666978384247408
8.694736896,0.9999963094100374,-28.680510873568277
8.736841728,0.9999962179440677,-29.694102146009275
8.778947584,0.9999963153259842,-30.707692568316478
8.821052416,0.999996501517657,-31.721374499045204
8.863158272,0.9999966734048071,-32.73508120007016
8.905263104,0.9999969955522466,-33.748822038012726
8.947367936,0.999997410130085,-34.762594729377724
8.989473792,0.9999978250509693,-35.776449480577305
9.031578624,0.999998354132031,-36.79030734391083
9.07368448,0.9999989334604354,-37.80423548211278
9.115789312,0.9999996104007818,-38.81821239030559
9.157895168,1.0000003005062859,-39.83224819916872
9.2,1.0000009975553075,-40.846291395580394
9.242104832,1.0000017549726528,-41.86041245292939
9.284210688,1.0000024343975527,-42.874570254073305
9.32631552,1.0000033208251595,-43.88877838696045
9.368421376,1.0000039856737246,-44.9030422382708
9.410526208,1.0000046681616725,-45.91736852823404
9.452632064,1.0000054158756642,-46.93173450915638
9.494736896,1.0000059635691187,-47.94614472047485
9.536841728,1.000006642347396,-48.9605805326602
9.578947584,1.0000072600445087,-49.9750921414284
9.621052416,1.0000076267981888,-50.98963581490143
9.663158272,1.000008072844901,-52.00422505389288
9.705263104,1.0000083213086528,-53.01888382444428
9.747367936,1.0000085956915186,-54.03358095888815
9.789473792,1.0000086796450005,-55.04829761508544
9.831578624,1.0000087091517826,-56.06309200396738
9.87368448,1.0000086850844243,-57.077912186861866
9.915789312,1.0000086376412218,-58.092785858713626
9.957895168,1.0000083889999287,-59.10770803513188
10.0,1.0000080269614995,-60.12266527544132
10.042104832,1.0000076266904132,-61.137668774472445
10.084210688,1.0000070761455575,-62.15271885575201
10.12631552,1.0000065932927258,-63.167798371006995
10.168421376,1.0000059758215911,-64.18291730286721
10.210526208,1.0000052602436589,-65.19809529908875
10.252632064,1.0000046000944227,-66.21331030369676
10.294736896,1.0000037399710087,-67.22856093478066
10.336841728,1.0000030105802138,-68.24383154910763
10.378947584,1.000002302971007,-69.25917332795427
10.421052416,1.0000014829178618,-70.27456573712963
10.463158272,1.0000007372293567,-71.2899671168791
10.505263104,0.9999998559984132,-72.30541331482223
10.547367936,0.9999991604553153,-73.32092453048399
10.589473792,0.9999984918122298,-74.33646375177037
10.631578624,0.9999978530797493,-75.35202247803639
10.67368448,0.999997259245667,-76.36763630523377
10.715789312,0.9999967358733675,-77.3833243192014
10.757895168,0.999996383531529,-78.39902998596239
10.8,0.999996108599189,-79.41477897580738
10.842104832,0.9999957813357191,-80.4305666800947
10.884210688,0.9999956885691954,-81.44642055404357
10.92631552,0.9999956552149435,-82.46230471005727
10.968421376,0.9999957079127549,-83.47825231351996
11.010526208,0.9999958679080941,-84.49423004323644
11.052632064,0.9999961662431901,-85.51027016456605
11.094736896,0.9999964528108839,-86.52635159620948
11.136841728,0.9999969678648847,-87.54248366532865
11.178947584,0.9999974455906199,-88.55867791535749
11.221052416,0.9999980775223294,-89.57491013567314
11.263158272,0.9999988159501119,-90.59120541831787
11.305263104,0.9999995269393548,-91.60755100839343
11.347367936,1.0000003306979277,-92.62394815869989
11.389473792,1.0000011189362648,-93.64038749971742
11.431578624,1.000002001514232,-94.65688109267909
11.47368448,1.000002833440491,-95.6734459810706
11.515789312,1.0000036365101699,-96.69007287573575
11.557895168,1.0000045982974182,-97.70674241462281
11.6,1.0000053853602613,-98.72346637493187
11.642104832,1.000006135512008,-99.74026180063069
11.684210688,1.0000068865877678,-100.75706575439006
11.72631552,1.0000076265788709,-101.77395092487457
11.768421376,1.0000081842528492,-102.79089061875668
11.810526208,1.000008742314068,-103.8078866565419
11.852632064,1.0000091713445005,-104.82493396311621
11.894736896,1.0000095765582482,-105.84202188716777
11.936841728,1.0000097992524397,-106.85916993723228
11.978947584,1.0000099205219655,-107.87637657058835
12.021052416,1.0000099733358507,-108.89361752822329
12.063158272,1.0000099564849327,-109.91093396273092
12.105263104,1.0000097596787085,-110.92826257127277
12.147367936,1.0000094544973448,-111.94566512886269
12.189473792,1.0000090336091676,-112.96310822697716
12.231578624,1.000008579016235,-113.98060531000372
12.27368448,1.0000079963243802,-114.99814211143689
12.315789312,1.0000073642463776,-116.01572354932888
12.357895168,1.0000066262080967,-117.03334229647463
12.4,1.0000057747315951,-118.05101575702102
12.442104832,1.0000049152428685,-119.06873210296219
12.484210688,1.0000039587929144,-120.08649191331422
12.52631552,1.000003065308555,-121.10429636263551
12.568421376,1.0000021320915264,-122.12214410482217
12.610526208,1.0000011235748592,-123.14001801461889
12.652632064,1.0000002568119573,-124.15796943018131
12.694736896,0.999999341499933,-125.17595956450508
12.736841728,0.9999985012121554,-126.19396953223459
12.778947584,0.9999976810492004,-127.21202123270574
12.821052416,0.999996901419741,-128.23014774482792
12.863158272,0.9999962216799978,-129.24830279367956
12.905263104,0.999995621842291,-130.26650360418523
12.947367936,0.9999951437008502,-131.28475614823287
12.989473792,0.9999947889808241,-132.30305456514716
13.031578624,0.9999945754146987,-133.32140074462663
13.07368448,0.9999942996414108,-134.33978463518076
13.115789312,0.9999943245753499,-135.35823087865828
13.157895168,0.9999943807232975,-136.37672743941044
13.2,0.9999946041111313,-137.3952817985534
13.242104832,0.9999948914890229,-138.4138799132596
13.284210688,0.9999952944853796,-139.43252180888308
13.32631552,0.999995889024044,-140.4512311673704
13.368421376,0.99999656768553,-141.4699959129955
13.410526208,0.9999973088057644,-142.48881785352165
13.452632064,0.9999981101594292,-143.50767865788404
13.494736896,0.9999990283988508,-144.52662224852762
13.536841728,1.0000000149664119,-145.54559495357867
13.578947584,1.0000010447553183,-146.56464499531737
13.621052416,1.000002005712527,-147.5837423527092
13.663158272,1.0000030815549013,-148.60290897575393
13.705263104,1.0000041826655874,-149.62213190711333
13.747367936,1.000005275719322,-150.64141620052263
13.789473792,1.0000062419818418,-151.6607520892807
13.831578624,1.0000072469158026,-152.68014619218357
13.87368448,1.0000081909096052,-153.6996093805475
13.915789312,1.0000090316856922,-154.71911180977267
13.957895168,1.0000097657463232,-155.7386848977187
14.0,1.0000104774863583,-156.75832312446494
