freq,mag,phase
6.0,1.0000084050645557,173.38025468950104
6.04166656,1.0000094237613268,170.7948875840636
6.08333312,1.0000106962719506,168.2116073979616
6.125000192,1.0000119499319757,165.63047448397492
6.166666752,1.0000131715281089,163.051460733407
6.208333312,1.0000143813752027,160.47463018791868
6.249999872,1.0000155836507996,157.8999708488929
6.291666432,1.0000166555571695,155.3275084352924
6.333333504,1.0000177795446341,152.75728933300616
6.375000064,1.0000187234175144,150.18929546312097
6.416666624,1.0000196531715153,147.62352297406744
6.458333184,1.0000205484072422,145.0599758467702
6.499999744,1.0000211076986256,142.49870245640224
6.541666816,1.0000218228597773,139.93966522195467
6.583333376,1.000022279781037,137.38288936467805
6.624999936,1.000022550564138,134.82836910664756
6.666666496,1.0000228128172042,132.27608336599204
6.708333568,1.0000229894716473,129.72604133916167
6.750000128,1.0000228104695055,127.17820479115593
6.791666688,1.0000227211708153,124.63260911906467
6.833333248,1.0000223294989463,122.08921352646391
6.874999808,1.0000218525419795,119.5480082532412
6.91666688,1.0000212214317377,117.00898125190766
6.95833344,1.0000204429582622,114.47208376129058
7.0,1.0000195484796999,111.93735812321394
7.04166656,1.0000184811567678,109.4047157287143
7.08333312,1.000017344304921,106.87417848119331
7.125000192,1.0000161361292346,104.3456869998159
7.166666752,1.0000147710988478,101.8192260327923
7.208333312,1.000013338164203,99.29478630522706
7.249999872,1.0000117457659665,96.77229796787259
7.291666432,1.0000101532483672,94.2517339982639
7.333333504,1.0000084460482663,91.73309808517666
7.375000064,1.0000067000604922,89.21630406514522
7.416666624,1.000004968725946,86.70133379307698
7.458333184,1.0000031334657642,84.18815554050363
7.500000256,1.0000014032223399,81.67672523754817
7.541666816,0.9999996850739035,79.16698556643769
7.583333376,0.999997922655451,76.65890829796959
7.624999936,0.9999962330805497,74.15242907960997
7.666666496,0.9999946300316909,71.64752023699307
7.708333568,0.9999930399734197,69.1441274164742
7.750000128,0.9999915778238047,66.64219817814696
7.791666688,0.9999902020474057,64.14168584746709
7.833333248,0.9999889739777167,61.64251950528174
7.874999808,0.9999878335043545,59.14468422414379
7.91666688,0.999986807859273,56.648091441286994
7.95833344,0.9999860100326908,54.15271652283909
8.0,0.9999853864208712,51.65847568711962
8.04166656,0.9999847582778179,49.16531828098471
8.08333312,0.9999844814703527,46.67319973971574
8.125000192,0.9999843716257516,44.18206395926779
8.166666752,0.9999843502035906,41.69184187387304
8.208333312,0.9999845842854961,39.20247822716542
8.249999872,0.9999849664026235,36.713906564746864
8.291666432,0.9999854757743236,34.22607438867851
8.333333504,0.9999862473361745,31.73893116900297
8.375000064,0.9999872400228368,29.252391581809277
8.416666624,0.9999883704828232,26.766410097135328
8.458333184,0.9999897384697934,24.280936371710354
8.499999744,0.9999911038889555,21.795895353973023
8.541666816,0.999992754998501,19.311215181693775
8.583333376,0.9999945110162661,16.82685788246268
8.625000448,0.9999963472303078,14.342741900909148
8.666667008,0.9999983783130446,11.858823184996362
8.708333568,1.0000003902275805,9.375036831861397
8.750000128,1.0000025117809621,6.891301582722479
8.791666688,1.0000046626602865,4.407577951847188
8.833333248,1.000006999428462,1.9238011971700262
8.874999808,1.0000092731916181,-0.5600804119770743
8.916666368,1.0000116464585334,-3.044147428485546
8.958332928,1.000013777814065,-5.528435338893462
8.999999488,1.0000160987598818,-8.013037590802538
9.041667072,1.0000183571151195,-10.497972013370646
9.083333632,1.0000204057449558,-12.983329929710543
9.125000192,1.0000225192487526,-15.469138676662162
9.166666752,1.0000244706141674,-17.95548840551684
9.208333312,1.000026224615948,-20.442396753329543
9.249999872,1.0000279065095032,-22.92994156665175
9.291666432,1.0000293442272996,-25.41819447925512
9.333332992,1.0000307253564,-27.90716906593161
9.374999552,1.0000318703192175,-30.39693813995175
9.416667136,1.0000327480058613,-32.88756916652028
9.458333696,1.0000334097046015,-35.37908430170326
9.500000256,1.000033872706275,-37.87153056037063
9.541666816,1.0000340757450497,-40.364990623174535
9.583333376,1.0000340899493168,-42.85948172524312
9.624999936,1.0000338960691872,-45.355079876111255
9.666666496,1.0000333894545435,-47.851791868124884
9.708333056,1.0000326041153207,-50.349684751532756
9.749999616,1.0000315438377596,-52.84879509611032
9.791666176,1.0000303184053696,-55.34917050403875
9.83333376,1.0000287667286996,-57.8508502199556
9.87500032,1.000027082256348,-60.35386727242197
9.91666688,1.0000250766566883,-62.85827370941889
9.95833344,1.0000229156346132,-65.36409131878551
10.0,1.000020558247524,-67.87135633738475
10.04166656,1.0000180136865453,-70.38011638233709
10.08333312,1.0000153334050412,-72.8903890838879
10.12499968,1.000012406447371,-75.40220575003812
10.16666624,1.000009504334662,-77.91562598177478
10.208333824,1.000006357280333,-80.43062900935978
10.250000384,1.0000031711764936,-82.94726362768671
10.291666944,0.9999999981496281,-85.46555317546017
10.333333504,0.9999968133403275,-87.98553614868695
10.375000064,0.9999935267757741,-90.50721778169464
10.416666624,0.9999902856759202,-93.03062106362384
10.458333184,0.9999870922496941,-95.55578313725752
10.499999744,0.9999840651849563,-98.0826775841722
10.541666304,0.9999811131357863,-100.61135990824934
10.583332864,0.9999782888375818,-103.14182942000454
10.625000448,0.9999756587329994,-105.67410955546774
10.666667008,0.9999731718205253,-108.20818498214699
10.708333568,0.9999709098194782,-110.7440806005205
10.750000128,0.9999689004824132,-113.281810739274
10.791666688,0.9999672546021158,-115.82136574101375
10.833333248,0.9999657620478284,-118.36275272962729
10.874999808,0.999964665297753,-120.90598203629872
10.916666368,0.9999637768927039,-123.45104094584052
10.958332928,0.9999633317929866,-125.99792079971996
11.000000512,0.9999631477158183,-128.54665366322618
11.041667072,0.9999633769900298,-131.0971830051801
11.083333632,0.9999639960464505,-133.6495270240004
11.125000192,0.9999649367165058,-136.20368768738874
11.166666752,0.9999662231105338,-138.75963622680777
11.208333312,0.9999679420958404,-141.3173525112018
11.249999872,0.999969890621136,-143.87684616371212
11.291666432,0.9999723215865198,-146.4380607353961
11.333332992,0.9999750382045683,-149.00102131443964
11.374999552,0.9999780627371,-151.56567977818335
11.416667136,0.9999814032714419,-154.13201586222667
11.458333696,0.9999850105082505,-156.6999883308481
11.500000256,0.9999889278211878,-159.2695989683041
11.541666816,0.9999929998070062,-161.84080964568582
11.583333376,0.9999972902260986,-164.41357324227693
11.624999936,1.0000017642133834,-166.98787736658113
11.666666496,1.0000063773895838,-169.5636596226369
11.708333056,1.000011065669934,-172.1409260439265
11.749999616,1.0000158426432744,-174.71959392630757
11.791666176,1.000020572860951,-177.29964010966302
11.83333376,1.0000252830536047,-179.88101230300086
11.87500032,1.0000299410496043,177.5363039870469
11.91666688,1.000034554147849,174.9523787557109
11.95833344,1.0000389295233716,172.36726189224507
12.0,1.0000431419772355,169.7810096915641
12.04166656,1.0000470825385188,167.19364124786597
12.08333312,1.0000507334770938,164.6052418000403
12.12499968,1.0000541690552978,162.0158545094285
12.16666624,1.0000572647252475,159.42550897764835
12.208333824,1.000059885545911,156.83431151742187
12.250000384,1.000062052471355,154.24227752122644
12.291666944,1.0000638470287257,151.64949120448637
12.333333504,1.0000651495940378,149.05601311139094
12.375000064,1.000065946662513,146.46188105011927
12.416666624,1.0000662630435504,143.8671735163231
12.458333184,1.000066043180617,141.27195060503422
12.499999744,1.0000652075102465,138.67627992445077
12.541666304,1.0000638776528903,136.08022623990013
12.583332864,1.0000620734697427,133.48383448561722
12.625000448,1.0000596529700425,130.8871959545736
12.666667008,1.0000566236717383,128.2903688697795
12.708333568,1.0000531170033966,125.69340674609768
12.750000128,1.0000491930625222,123.0963994662234
12.791666688,1.0000446764504167,120.49939690903534
12.833333248,1.0000397735729232,117.90245639183235
12.874999808,1.0000344149448002,115.30565875290567
12.916666368,1.0000286851066145,112.70906679746898
12.958332928,1.0000226814875366,110.11274027167156
12.999999488,1.0000163164912688,107.51675888216843
13.041667072,1.0000097295178045,104.92115528056604
13.083333632,1.000002931185316,102.32603430640097
13.125000192,0.9999959356488947,99.73142325257824
13.166666752,0.9999889573572677,97.13740777435414
13.208333312,0.9999819594759859,94.54403995364412
13.249999872,0.9999749621652179,91.95135711471148
13.291666432,0.9999681328244379,89.3594669110737
13.333332992,0.9999614285266959,86.76838758978988
13.374999552,0.9999550313986265,84.1781765603842
13.416667136,0.9999488527746607,81.58890903412548
13.458333696,0.9999430924038268,79.00064297535953
13.500000256,0.9999377073135878,76.41341464132469
13.541666816,0.9999328665198517,73.82726013055206
13.583333376,0.9999285555774668,71.24225270940748
13.624999936,0.999924796083901,68.65843926185548
13.666666496,0.9999216837290856,66.0758524800682
13.708333056,0.9999192948092678,63.49454798157007
13.749999616,0.999917541482566,60.91456468575769
13.791666176,0.9999165890919897,58.33594094669081
13.83333376,0.9999163754345648,55.758727053612304
13.87500032,0.9999170621974293,53.182944404650264
13.91666688,0.9999184652604047,50.60864761307343
13.95833344,0.9999206769961712,48.03584757806385
14.0,0.9999237800612857,45.46459709662102
