freq,mag,phase
6.0,0.9999188761160209,-114.45261132821021
6.003892736,0.9999209019544423,-114.64609325737928
6.007785984,0.999928207551568,-114.83962733520688
6.01167872,0.9999401978365328,-115.03330803267048
6.015571968,0.9999560366605709,-115.22719020081604
6.019464704,0.9999747758032201,-115.42130628246261
6.02335744,0.9999952919652756,-115.615722894344
6.027250688,1.0000164858860137,-115.81041436816885
6.031143424,1.0000369100138171,-116.00540917727206
6.035036672,1.0000552725728709,-116.2007156139727
6.038929408,1.0000706219989526,-116.39624379391458
6.042822144,1.000081945725052,-116.59197638766044
6.046715392,1.00008855530569,-116.78782808495038
6.050608128,1.000090119211853,-116.98374910454812
6.054501376,1.0000865594403667,-117.17961493978866
6.058394112,1.0000778328915387,-117.37545688379122
6.06228736,1.0000647249109365,-117.5711160331051
6.066180096,1.0000479939071174,-117.76657337985577
6.070072832,1.0000286178962705,-117.96180440835707
6.07396608,1.0000076686058932,-118.1567149073522
6.077858816,0.999986518805049,-118.35138800756276
6.081752064,0.9999664355511142,-118.5457424786241
6.0856448,0.9999487373755704,-118.73980292296272
6.089537536,0.999934162498598,-118.93363097949793
6.093430784,0.9999239800432523,-119.12733377362278
6.09732352,0.9999187209644843,-119.32091861766008
6.101216768,0.999918397482182,-119.51443676841056
6.105109504,0.9999234028859234,-119.70801785026468
6.10900224,0.9999332924410814,-119.90171145611326
6.112895488,0.9999474771923988,-120.09555889230573
6.116788224,0.9999650270411418,-120.28966904651321
6.120681472,0.999984982652916,-120.48400477656855
6.124574208,1.0000060789746985,-120.67865495653587
6.128466944,1.0000271366270748,-120.87359583515774
6.132360192,1.0000467166540636,-121.06885324089119
6.136252928,1.0000637355826774,-121.26436209286854
6.140146176,1.0000772528485993,-121.46009266453811
6.144038912,1.0000862850783472,-121.65599317339135
6.147931648,1.0000902849829671,-121.85200871806127
6.151824896,1.00008919611415,-122.04800229437409
6.155717632,1.0000828559689923,-122.24396474764656
6.15961088,1.000071753741102,-122.43981871103205
6.163503616,1.0000565361936395,-122.63545156506196
6.167396352,1.000038167022867,-122.83088781437442
6.1712896,1.0000177152458636,-123.02606600792518
6.175182336,0.9999963845280758,-123.22091822621819
6.179075584,0.9999755339686601,-123.41549593005085
6.18296832,0.999956436946396,-123.60979171449073
6.186861568,0.999940134183842,-123.8038142440943
6.190754304,0.999927708738016,-123.99764807606165
6.19464704,0.9999198339181787,-124.19137713104472
6.198540288,0.9999171510709464,-124.38499578641988
6.202433024,0.999919658578266,-124.57863112048169
6.206326272,0.9999272886288993,-124.77231840687487
6.210219008,0.9999395321257617,-124.96616934142382
6.214111744,0.9999556442777221,-125.16022722273807
6.218004992,0.9999747308092108,-125.3545466203068
6.221897728,0.9999955292796924,-125.54912286055186
6.225790976,1.0000168709001054,-125.74402410396604
6.229683712,1.0000374790048256,-125.93921070536561
6.233576448,1.0000560209011065,-126.13469250507093
6.237469696,1.0000714754032838,-126.33041227417868
6.241362432,1.0000828181219616,-126.526325910297
6.24525568,1.0000892777721686,-126.7223532974191
6.249148416,1.000090719853752,-126.91845930624531
6.253041152,1.0000867839345167,-127.11457551268725
6.2569344,1.0000778940896204,-127.3105644478857
6.260827136,1.0000644642209364,-127.50640782054435
6.264720384,1.0000474178123733,-127.7020469563279
6.26861312,1.0000277005285463,-127.89742513597747
6.272505856,1.00000660175833,-128.0925165512059
6.276399104,0.9999851385138807,-128.28734120193477
6.28029184,0.9999649245400106,-128.48181277371384
6.284185088,0.9999469954981394,-128.67604423313787
6.288077824,0.9999325668080932,-128.87006608562552
6.29197056,0.9999223292496835,-129.06389742853145
6.295863808,0.9999170154902395,-129.25760800021084
6.299756544,0.9999170334642823,-129.45131844268454
6.303649792,0.9999222978411657,-129.64505409541627
6.307542528,0.9999324020956374,-129.83891383750833
6.311435776,0.9999468664875697,-130.03292122785248
6.315328512,0.9999647969072852,-130.2271563501603
6.319221248,0.999985041162248,-130.42168659587907
6.323114496,1.0000064824218737,-130.6165343255467
6.327007232,1.0000276771756373,-130.81168507333132
6.33090048,1.0000474719042194,-131.0070928083097
6.334793216,1.0000646071766466,-131.20279434766806
6.338685952,1.0000781304844482,-131.39867132585888
6.3425792,1.000087153029205,-131.59476128144132
6.346471936,1.0000909948067842,-131.79094107496576
6.350365184,1.0000897345649347,-131.987148533377
6.35425792,1.0000830961745075,-132.1832745404249
6.358150656,1.0000717389362388,-132.37932632751867
6.362043904,1.0000561848184109,-132.57515558590688
6.36593664,1.000037477897742,-132.77072357295648
6.369829888,1.0000167385932976,-132.96605612208288
6.373722624,0.9999951526545137,-133.16107197234535
6.37761536,0.9999740473612659,-133.3557882307112
6.381508608,0.999954790717972,-133.5502330812449
6.385401344,0.9999384350321311,-133.74439457302586
6.389294592,0.9999259923436449,-133.9383758234993
6.393187328,0.9999182577909339,-134.13223546726573
6.397080064,0.9999156279849096,-134.32598776213229
6.400973312,0.9999183607620329,-134.5197552651477
6.404866048,0.9999262407231996,-134.7136215380929
6.408759296,0.9999387791260227,-134.90760990227145
6.412652032,0.9999552426522069,-135.10182619375607
6.416544768,0.9999746629829237,-135.29629478217495
6.420438016,0.999995827088932,-135.49105541170272
6.424330752,1.0000174371673103,-135.6861005466877
6.428224,1.0000382546682651,-135.8814936658543
6.432116736,1.0000569196116862,-136.07713997881302
6.436009984,1.000072377070792,-136.2730299127649
6.43990272,1.0000837208754783,-136.46911587537105
6.443795456,1.0000901485527454,-136.665329077483
6.447688704,1.0000913980031232,-136.86161725491607
6.45158144,1.0000872887345784,-137.0578774281627
6.455474688,1.0000780694265525,-137.25405407167992
6.459367424,1.0000643377278253,-137.45006881891632
6.46326016,1.00004692468784,-137.64584215389687
6.467153408,1.0000268939075598,-137.8413898831578
6.471046144,1.0000053605023884,-138.03664217720075
6.474939392,0.9999837973530773,-138.23156579994634
6.478832128,0.9999633981842971,-138.42619017353843
6.482724864,0.9999452613898917,-138.62056591973328
6.486618112,0.9999308225532781,-138.81473186681927
6.490510848,0.9999205543767761,-139.00869088464287
6.494404096,0.9999155132169103,-139.20253745333184
6.498296832,0.9999155754104282,-139.3963511433954
6.502189568,0.9999210263792719,-139.5902485837215
6.506082816,0.9999315065833814,-139.78423307370684
6.509975552,0.999946270702444,-139.97838769681405
6.5138688,0.9999645705234459,-140.1727816802403
6.517761536,0.9999851630277684,-140.3674827354551
6.521654272,1.0000068340299784,-140.5624672796545
6.52554752,1.00002833532747,-140.75776868464814
6.529440256,1.0000483680974754,-140.95336582371098
6.533333504,1.0000655549490887,-141.14922206576617
6.53722624,1.0000791146900745,-141.34530775014647
6.541118976,1.0000880611402854,-141.54155869610486
6.545012224,1.000091778677063,-141.73787243649446
6.54890496,1.0000902752235472,-141.93423248694873
6.552798208,1.0000834600180593,-142.13054030133014
6.556690944,1.0000717736053553,-142.32671766145296
6.560584192,1.0000559542391896,-142.52271282520456
6.564476928,1.0000368512609399,-142.71843594163155
6.568369664,1.000015775907499,-142.91387307428903
6.572262912,0.9999939044339686,-143.10904202002027
6.576155648,0.9999726028419017,-143.30386534455292
6.580048896,0.9999531438719107,-143.49844829781267
6.583941632,0.9999366958743389,-143.6927667737445
6.587834368,0.9999242264866004,-143.88688060009065
6.591727616,0.999916549591565,-144.08080391179175
6.595620352,0.9999140989699132,-144.2747152972188
6.5995136,0.9999170525090914,-144.46861711257148
6.603406336,0.999925207060291,-144.66261329122668
6.607299072,0.999938079342859,-144.85674967266888
6.61119232,0.9999548798835076,-145.0510805986734
6.615085056,0.9999746094646066,-145.24568541939945
6.618978304,0.9999960707902928,-145.44059007926296
6.62287104,1.0000179538890879,-145.6358374913011
6.626763776,1.0000390299761632,-145.83132577550793
6.630657024,1.0000578796723205,-146.0271576348896
6.63454976,1.0000734288611033,-146.22318215018592
6.638443008,1.0000847060232267,-146.41944721399557
6.642335744,1.0000910955022504,-146.61579776457836
6.64622848,1.0000921201609383,-146.81225722350177
6.650121728,1.000087748468617,-147.0086662855101
6.654014464,1.0000783201264458,-147.20497424230135
6.657907712,1.0000642626151677,-147.40113379167573
6.661800448,1.0000465307055706,-147.59708048437506
6.665693184,1.0000261213051478,-147.7927310169462
6.669586432,1.0000043205230447,-147.98808888669316
6.673479168,0.9999824778767529,-148.18315075814166
6.677372416,0.9999617701418304,-148.37790215046013
6.681265152,0.9999436701171356,-148.57237815811348
6.6851584,0.9999290223526297,-148.76664651422436
6.689051136,0.9999188113598778,-148.9607227480329
6.692943872,0.9999138648465487,-149.15470363707124
6.69683712,0.9999141903471506,-149.34863285324784
6.700729856,0.9999199421605585,-149.5426418510709
6.704623104,0.9999306454201984,-149.7367370628262
6.70851584,0.999945794447595,-149.9310307628048
6.712408576,0.9999643731818243,-150.12557263537292
6.716301824,0.9999853252574232,-150.320383934577
6.72019456,1.0000072779391793,-150.51553321541715
6.724087808,1.0000291176717935,-150.71097457370277
6.727980544,1.0000492880294358,-150.90672153005465
6.73187328,1.0000666463337857,-151.10271796619875
6.735766528,1.000080216260975,-151.29893963910968
6.739659264,1.000089090367986,-151.49532656948608
6.743552512,1.0000927764016394,-151.69183859888525
6.747445248,1.0000909977741759,-151.88832480079063
6.751337984,1.0000838619006889,-152.0847786381751
6.755231232,1.000071902943331,-152.28107331109342
6.759123968,1.0000556849764854,-152.47719315029443
6.763017216,1.0000363597045225,-152.67304152872907
6.766909952,1.000014864190776,-152.86862464481325
6.770802688,0.9999927289555116,-153.06389623204691
6.774695936,0.9999711786629698,-153.25883471749577
6.778588672,0.9999514999024047,-153.45350919022894
6.78248192,0.9999349254984695,-153.64793427671054
6.786374656,0.9999225200254336,-153.84213592023337
6.790267392,0.9999148310028432,-154.0361930024475
6.79416064,0.9999125617384288,-154.2301991362561
6.798053376,0.9999157600453142,-154.42420985967948
6.801946624,0.9999242060626675,-154.61831461094457
6.80583936,0.9999373997399011,-154.8125514620898
6.809732608,0.9999545537814613,-155.00703573610255
6.813625344,0.9999746262926628,-155.20175550511192
6.81751808,0.999996444689789,-155.39679772124865
6.821411328,1.000018629181558,-155.59214682034832
6.825304064,1.0000398983594498,-155.78780032714684
6.829197312,1.0000588675504274,-155.98374482426667
6.833090048,1.0000745282998167,-156.1799272113433
6.836982784,1.0000859036531353,-156.37631495743864
6.840876032,1.0000921908573974,-156.57284363280456
6.844768768,1.0000930412829827,-156.7694127088619
6.848662016,1.0000884121579643,-156.96595596931235
6.852554752,1.0000786462277378,-157.16239655231016
6.856447488,1.000064262058245,-157.3586749253592
6.860340736,1.0000461832439904,-157.5547355280295
6.864233472,1.0000254776398871,-157.75049993157998
6.86812672,1.0000032764847409,-157.9459681385974
6.872019456,0.9999811644043788,-158.14114783050087
6.875912192,0.9999601937894224,-158.33598366988318
6.87980544,0.999941917005825,-158.53056866437916
6.883698176,0.9999272655407832,-158.7249197784175
6.887591424,0.999917238672397,-158.919091250337
6.89148416,0.9999122408210834,-159.11317990339768
6.895376896,0.999912730412101,-159.30720988819186
6.899270144,0.999918699011299,-159.50129696230815
6.90316288,0.9999298343139845,-159.69550979401458
6.907056128,0.9999452753104824,-159.8899163431166
6.910948864,0.9999642175565759,-160.0845588283071
6.9148416,0.9999855175136201,-160.27950557539128
6.918734848,1.0000078484834942,-160.47474565881654
6.922627584,1.0000299316748082,-160.6702919350555
6.926520832,1.000050320181958,-160.8661657198499
6.930413568,1.0000678205841491,-161.0623059156651
6.934306816,1.0000814016059993,-161.25867566585458
6.938199552,1.0000902223054202,-161.4551941587867
6.942092288,1.0000937998556478,-161.65181363230516
6.945985536,1.0000918140762984,-161.84843429727434
6.949878272,1.0000843879183552,-162.04499581812516
6.95377152,1.0000720699244179,-162.24142612381092
6.957664256,1.0000556063045163,-162.43764765511344
6.961556992,1.0000358005835583,-162.63361403119913
6.96545024,1.0000140670868978,-162.82927851234732
6.969342976,0.99999155633719,-163.0246405886668
6.973236224,0.9999697382732814,-163.2196972181345
6.97712896,0.9999498510520138,-163.41445272221029
6.981021696,0.9999332094889104,-163.60895621467748
6.984914944,0.9999207394047384,-163.80324910313226
6.98880768,0.9999132042221737,-163.99739410398658
6.992700928,0.9999110976860283,-164.19149840781432
6.996593664,0.9999144537843168,-164.3855652914103
7.0004864,0.9999231669289922,-164.5797428115886
7.004379648,0.9999367349500524,-164.7741139561661
7.008272384,0.9999543059866381,-164.9686697744671
7.012165632,0.9999747107661503,-165.16351025391282
7.016058368,0.9999968496911693,-165.35864520217137
7.019951104,1.0000194452762667,-165.55411173162818
7.023844352,1.000040844771082,-165.74990978647182
7.027737088,1.000060118783118,-165.94594539601573
7.031630336,1.000075863613925,-166.14225877857302
7.035523072,1.0000871479475835,-166.33876769345508
7.039415808,1.0000933360156663,-166.5354178146412
7.043309056,1.0000940043317763,-166.73210049764094
7.047201792,1.0000891805570464,-166.9287707664711
7.05109504,1.0000790188306523,-167.12530311256506
7.054987776,1.0000643649445573,-167.3216835901918
7.058881024,1.0000458821349558,-167.51783322589282
7.06277376,1.0000247705147116,-167.7137187656597
7.066666496,1.0000022811877174,-167.90929013048702
7.070559744,0.9999798187824717,-168.10451743342924
7.07445248,0.9999587140035421,-168.2994386288911
7.078345728,0.9999402064828118,-168.49410164565754
7.082238464,0.9999255443084568,-168.68853685405324
7.0861312,0.9999154459888445,-168.88278848091295
7.090024448,0.9999106693984565,-169.07694572204133
7.093917184,0.9999114324160496,-169.2710467602462
7.097810432,0.9999176842926458,-169.4652152278449
7.101703168,0.9999290260428733,-169.6595031380236
7.105595904,0.9999448655904476,-169.85400927657204
7.109489152,0.9999641777677222,-170.04872513807354
7.113381888,0.9999858783579701,-170.24376288020616
7.117275136,1.000008475089171,-170.43911615671666
7.121167872,1.000030898140099,-170.6347794861576
7.125060608,1.000051485106645,-170.83076526263704
7.128953856,1.0000691296596265,-171.02701788119694
7.132846592,1.0000827324772543,-171.2234750443973
7.13673984,1.0000915938956279,-171.4201238277814
7.140632576,1.0000949002939998,-171.61685429890719
7.144525312,1.0000927339982677,-171.81357341688857
7.14841856,1.0000850395443643,-172.01025957352385
7.152311296,1.0000724252974282,-172.20676203181716
7.156204544,1.0000556145293638,-172.40309695243155
7.16009728,1.000035387301543,-172.59915031037116
7.163990016,1.0000132571601568,-172.79489815352883
7.167883264,0.9999904048992075,-172.99032764099016
7.171776,0.9999682668383097,-173.18544481363224
7.175669248,0.9999482985876892,-173.38027531846
7.179561984,0.9999315371929453,-173.5748460659707
7.183455232,0.9999190123934294,-173.7691903599686
7.187347968,0.9999115569212648,-173.9634193004166
7.191240704,0.999909625239249,-174.1575680002148
7.195133952,0.9999132752261138,-174.35173241082327
7.199026688,0.9999221696820098,-174.5459718341294
7.202919936,0.999936188221664,-174.74040606132527
7.206812672,0.9999540749917829,-174.93505648321295
7.210705408,0.999974840399466,-175.12997116957334
7.214598656,0.9999974180351915,-175.3251771369495
7.218491392,1.000020194150557,-175.52075756522405
7.22238464,1.0000420980841966,-175.7166253568523
7.226277376,1.0000613785192813,-175.91279215652818
7.230170112,1.0000771937104238,-176.1092116469561
7.23406336,1.0000884665946732,-176.305824969561
7.237956096,1.0000946609112513,-176.50255748174303
7.241849344,1.0000950955625127,-176.69934204881312
7.24574208,1.0000900937466952,-176.8961056382059
7.249634816,1.0000796843089175,-177.09275001515763
7.253528064,1.0000645507286248,-177.2892221320937
7.2574208,1.0000456264659159,-177.48543636485496
7.261314048,1.000024239623952,-177.68139359827802
7.265206784,1.0000013449436207,-177.8770251530111
7.26909952,0.9999785036242098,-178.07231766533005
7.272992768,0.9999571858877876,-178.26730954928655
7.276885504,0.9999385805438739,-178.46202169750012
7.280778752,0.9999238138001196,-178.65649350668775
7.284671488,0.9999137724948141,-178.85079298242732
7.288564224,0.9999090572614784,-179.04500251303784
7.292457472,0.9999099364771485,-179.23917935331818
7.296350208,0.999916569334722,-179.43340224789108
7.300243456,0.9999282390959061,-179.62775622843122
7.304136192,0.999944548591461,-179.82230625247715
7.30802944,0.9999642222872731,179.98287241747607
7.311922176,0.9999862374968909,179.78776099169218
7.315814912,1.0000092785748316,179.59233663363304
7.31970816,1.0000319139348404,179.39658805008497
7.323600896,1.0000527736142972,179.20050589172243
7.327494144,1.000070524256126,179.00416282064725
7.33138688,1.0000842426266623,178.80760197470906
7.335279616,1.0000929821682467,178.61089576928876
7.339172864,1.0000962298458473,178.41404578947476
7.3430656,1.000093853354407,178.21722897363995
7.346958848,1.0000858162041257,178.02049097547882
7.350851584,1.0000727802873368,177.82388633865568
7.35474432,1.0000555464082554,177.62750670764956
7.358637568,1.000035064395395,177.431377835764
7.362530304,1.0000124876338377,177.23556016081605
7.366423552,0.9999893066479977,177.04005582036916
7.370316288,0.999966945356935,176.8448745607282
7.374209024,0.9999467201740672,176.65001322504116
7.378102272,0.9999298199881979,176.4554226234542
7.381995008,0.9999172427293131,176.26102272994473
7.385888256,0.9999098647526689,176.06675193920975
7.389780992,0.9999080586615943,175.87258143450595
7.393673728,0.9999119475062399,175.67835999107513
7.397566976,0.999921303102734,175.4840439436738
7.401459712,0.9999355692008868,175.2895754300213
7.40535296,0.9999539231682957,175.09488363821626
7.409245696,0.9999751537902827,174.89988861380291
7.413138432,0.9999981343823207,174.7045801123035
7.41703168,1.0000212261539294,174.50893257905588
7.420924416,1.000043313852134,174.31300061395535
7.424817664,1.000062741462518,174.11676484974936
7.4287104,1.0000787861893123,173.92025319105502
7.432603648,1.0000901327562481,173.7235480859965
7.436496384,1.0000960124500322,173.5267174168086
7.44038912,1.0000963488833008,173.32986327209184
7.444282368,1.0000910577120772,173.1330224347021
7.448175104,1.0000802714802308,172.93632139933402
7.452068352,1.0000648106458405,172.7397797068607
7.455961088,1.0000455024248354,172.54349126477905
7.459853824,1.0000236598947687,172.34751321982986
7.463747072,1.0000004974894086,172.15181390525066
7.467639808,0.9999774102750429,171.95646319302202
7.471533056,0.999955760499029,171.76144307782732
7.475425792,0.9999369496883648,171.5666765150212
7.479318528,0.9999220660107834,171.37219004454138
7.483211776,0.999912012053086,171.17783233578345
7.487104512,0.9999073859238244,170.98359751201602
7.49099776,0.9999086298872408,170.78940777320943
7.494890496,0.9999154396794052,170.59513686600033
7.498783232,0.9999274590875376,170.40074757550966
7.50267648,0.9999441761390365,170.20613666263017
7.506569216,0.9999642710597406,170.01127445417072
7.510462464,0.9999866363787911,169.8161228091417
7.5143552,1.000010137178084,169.62061628871874
7.518247936,1.0000330550323548,169.4247794184587
7.522141184,1.0000542373094297,169.2286276750102
7.52603392,1.0000720951116506,169.03223167252918
7.529927168,1.0000858755864777,168.83558946379503
7.533819904,1.0000945207669085,168.63878553076935
7.53771264,1.0000976601014249,168.4418926204369
7.541605888,1.0000949830242976,168.24501200230395
7.545498624,1.0000867046108293,168.04819464821924
