freq,mag,phase
6.0,1.000452701563818,-103.24301255829627
6.00514816,1.0004829725185214,-103.51670628998448
6.010295808,1.0004860434897107,-103.79073333162829
6.015443968,1.0004611263479801,-104.0646131297992
6.020592128,1.0004096502620985,-104.337986180722
6.025739776,1.0003345187179222,-104.61055826201078
6.030887936,1.000240204614232,-104.88197980832034
6.036036096,1.0001320843503962,-105.15202081326389
6.041184256,1.00001653870632,-105.42056704796329
6.046331904,0.9999002367742003,-105.68751314805178
6.051480064,0.9997899454373435,-105.95293426860795
6.056628224,0.9996919214179767,-106.21695163688527
6.061775872,0.999612218648739,-106.47974094028066
6.066924032,0.9995552821966086,-106.74165187789664
6.072072192,0.9995244154924191,-107.0029693596675
6.07721984,0.9995216577570525,-107.26408133206272
6.082368,0.9995468859777318,-107.52543470788282
6.08751616,0.9995990118089342,-107.78727798047244
6.09266432,0.999674576475811,-108.0501238785157
6.097811968,0.999769594342435,-108.31416168808987
6.102960128,0.9998783005856965,-108.57965636469409
6.108108288,0.9999944852971102,-108.84674680873535
6.113255936,1.0001112271161101,-109.11554670606345
6.118404096,1.0002218978703983,-109.38590980269498
6.123552256,1.0003201986577772,-109.6577676179504
6.128699904,1.0004000194975087,-109.93096188872794
6.133848064,1.0004569007986392,-110.20507273717419
6.138996224,1.0004875622474312,-110.47986868397045
6.144144384,1.0004901361879335,-110.75495284441165
6.149292032,1.0004645138241481,-111.02991809127226
6.154440192,1.0004120964635128,-111.30434621427642
6.159588352,1.0003359919216028,-111.5779461078962
6.164736,1.0002404906150641,-111.85039536771312
6.16988416,1.000131307404305,-112.12143772522899
6.17503232,1.000014581869829,-112.3909441671488
6.180179968,0.9998972326243071,-112.65887380594542
6.185328128,0.999786066156671,-112.92524354457849
6.190476288,0.9996876373948438,-113.190184424212
6.195624448,0.9996075820304005,-113.45390774509514
6.200772096,0.9995505882942501,-113.71671539576671
6.205920256,0.9995200764980544,-113.97899718479147
6.211068416,0.999517646459721,-114.24100788129577
6.216216064,0.9995437564304144,-114.50327477159509
6.221364224,0.999596643134961,-114.76609245836144
6.226512384,0.9996733757804728,-115.02986843385366
6.231660032,0.9997694164616382,-115.29489780389494
6.236808192,0.9998792546827123,-115.56136774148864
6.241956352,0.9999965006998234,-115.82946137795939
6.247104,1.0001143040714582,-116.09921421630806
6.25225216,1.0002258724032171,-116.37062046543787
6.25740032,1.0003246501813154,-116.6435262212439
6.26254848,1.000404794089611,-116.91768256707091
6.267696128,1.0004617841144745,-117.19288470536479
6.272844288,1.0004922973962833,-117.46869540052293
6.277992448,1.000494409670223,-117.74479868328626
6.283140096,1.000468111385073,-118.02075729405554
6.288288256,1.0004147915469546,-118.29619088429605
6.293436416,1.0003375617524302,-118.57076259456899
6.298584064,1.0002409931576632,-118.84415426193789
6.303732224,1.0001305775929956,-119.11614826743748
6.308880384,1.000012831359992,-119.3866184655534
6.314028544,0.9998944498425599,-119.65545359291015
6.319176192,0.9997825312760764,-119.92271552794693
6.324324352,0.9996834302792186,-120.18853925311797
6.329472512,0.9996029063265772,-120.45316568389909
6.33462016,0.9995457854080998,-120.71685224316963
6.33976832,0.9995154154074816,-120.9799409640418
6.34491648,0.9995134764702748,-121.24287223892637
6.350064128,0.9995402222375187,-121.5059835412489
6.355212288,0.999594077632561,-121.76970497091953
6.360360448,0.9996718206709747,-122.03440734050032
6.365508608,0.9997690730071231,-122.30028475209956
6.370656256,0.9998800690631269,-122.56767825150902
6.375804416,0.9999984504592113,-122.83673348032576
6.380952576,1.0001172944581838,-123.107442534826
6.386100224,1.0002296939027822,-123.3798250955709
6.391248384,1.0003291005688442,-123.65367381253859
6.396396544,1.0004097102797989,-123.92881524214346
6.401544192,1.0004668339233922,-124.20497513989721
6.406692352,1.000497135128486,-124.48178238820473
6.411840512,1.000498894210375,-124.75884624421684
6.416988672,1.0004719198666308,-125.03572372482034
6.42213632,1.000417713070489,-125.31212724469964
6.42728448,1.0003395215656123,-125.58764549438733
6.43243264,1.0002417133438162,-125.86194584442555
6.437580288,1.0001301629655668,-126.13480028352159
6.442728448,1.0000112646045758,-126.40613547451483
6.447876608,0.9998919023529307,-126.67583608707662
6.453024256,0.9997790580422323,-126.94394849686547
6.458172416,0.9996791791776127,-127.21059975541927
6.463320576,0.9995983389982112,-127.47603595125844
6.468468224,0.9995409976660034,-127.74053305924711
6.473616384,0.9995107428814003,-128.00443590438732
6.478764544,0.9995092170271604,-128.26817864642993
6.483912704,0.9995366083682675,-128.53207874170837
6.489060352,0.9995911800864682,-128.79665213342744
6.494208512,0.9996700204245283,-129.06215337961393
6.499356672,0.9997684340169506,-129.32889246736735
6.50450432,0.9998806793212177,-129.59716344301467
6.50965248,1.000000195795128,-129.86707012574226
6.51480064,1.000120105553463,-130.13867812434154
6.519948288,1.0002334289469157,-130.4119099273969
6.525096448,1.0003335770426423,-130.68670259169622
6.530244608,1.000414646498606,-130.96277131614607
6.535392768,1.0004719610701622,-131.23982632600183
6.540540416,1.0005022161940504,-131.51754986786054
6.545688576,1.0005035546222028,-131.79550262706923
6.550836736,1.0004758550518986,-132.0733062365823
6.555984384,1.0004208765409277,-132.35059747111393
6.561132544,1.0003415595039449,-132.62695129592998
6.566280704,1.000242745060294,-132.90210044961083
6.571428352,1.000129910497637,-133.17582645534213
6.576576512,1.0000098271686149,-133.4479524790268
6.581724672,0.9998893548807642,-133.71845599666491
6.586872832,0.9997755418295619,-133.9873577341954
6.59202048,0.9996750429052684,-134.25476941357272
6.59716864,0.9995935616420236,-134.5209376253206
6.6023168,0.9995361202864007,-134.78618487088085
6.607464448,0.9995059095832695,-135.0508429478188
6.612612608,0.9995047203800433,-135.3153180782503
6.617760768,0.9995327448278785,-135.57998897785558
6.622908416,0.9995882485183223,-135.84528653617014
6.628056576,0.9996680521354593,-136.11156051601947
6.633204736,0.9997676266971827,-136.3790837683262
6.638352384,0.9998810630410498,-136.6481386964484
6.643500544,1.0000018169488452,-136.91884380894527
6.648648704,1.0001228126045216,-137.19128493402934
6.653796864,1.000237117617931,-137.46536699993564
6.658944512,1.0003379988912005,-137.74097323423882
6.664092672,1.0004196067902984,-138.01789520005167
6.669240832,1.0004772019581805,-138.29580417608935
6.67438848,1.000507377876319,-138.57438646884927
6.67953664,1.000508393689721,-138.85315389312
6.6846848,1.0004801190350414,-139.1318259770504
6.689832448,1.0004242558484675,-139.4098935598091
6.694980608,1.000343972039745,-139.68707748670963
6.700128768,1.0002439365488294,-139.96303354145982
6.705276928,1.0001299300139734,-140.23754613625854
6.710424576,1.0000085847460143,-140.51041451686095
6.715572736,0.999886978135196,-140.7816482387362
6.720720896,0.9997721362804831,-141.05124197819543
6.725868544,0.9996708142902956,-141.3193496383222
6.731016704,0.9995888683760342,-141.58621408951183
6.736164864,0.9995311051857457,-141.85216004854067
6.741312512,0.9995009339422255,-142.11747896941003
6.746460672,0.9995000883769309,-142.38265214962126
6.751608832,0.9995285980273205,-142.64801732537717
6.756756992,0.9995849560634865,-142.91396915544706
6.76190464,0.9996658088988049,-143.18094688834543
6.7670528,0.9997664770002563,-143.44920299649027
6.77220096,0.9998811342550885,-143.7189641461229
6.777348608,1.000003126067267,-143.99041275924688
6.782496768,1.0001252890012793,-144.26359706791484
6.787644928,1.0002406143438776,-144.53841533110455
6.792792576,1.000342328631043,-144.81480550074832
6.797940736,1.000424517922221,-145.09252789207426
6.803088896,1.0004823795157671,-145.37122692873623
6.808237056,1.0005124923407196,-145.65055381465683
6.813384704,1.0005132517095117,-145.93012770598594
6.818532864,1.0004844072175674,-146.20955283640777
6.823681024,1.0004277005447462,-146.48841630459728
6.828828672,1.000346435493868,-146.76633451685026
6.833976832,1.0002452350378463,-147.04298607113228
6.839124992,1.0001298953115119,-147.31818862788202
6.84427264,1.000007374808178,-147.59175719424508
6.8494208,0.9998845259972324,-147.86365047917144
6.85456896,0.999768672873857,-148.13391716254372
6.859716608,0.9996665209414748,-148.40266364465398
6.864864768,0.9995839275285033,-148.6701381294266
6.870012928,0.9995259005983911,-148.93667797877214
6.875161088,0.9994956180488517,-149.2026085404907
6.880308736,0.9994949891951658,-149.46835201004183
6.885456896,0.9995242268148051,-149.7343462012281
6.890605056,0.9995814187177512,-150.0009396531443
6.895752704,0.9996633058851105,-150.26850570044448
6.900900864,0.9997650764787245,-150.53741763667688
6.906049024,0.9998810847577301,-150.80783714125354
6.911196672,1.0000042634870079,-151.07993000091037
6.916344832,1.0001277148815544,-151.3538011818206
6.921492992,1.0002440739791303,-151.62934398186084
6.926641152,1.0003467247580073,-151.90644150192992
6.9317888,1.0004295178600384,-152.18484930003925
6.93693696,1.0004877505479897,-152.46425080649286
6.94208512,1.0005179936622808,-152.7442857095824
6.947232768,1.0005184243517151,-153.02459857305288
6.952380928,1.0004890180209325,-153.3047158374782
6.957529088,1.0004314801605945,-153.58425223453702
6.962676736,1.0003491552325066,-153.86283797782707
6.967824896,1.0002467128017343,-154.14016998544034
6.972973056,1.000130274590833,-154.41602207644144
6.978121216,1.0000063586161836,-154.69021530918775
6.983268864,0.9998822987874515,-154.962697866378
6.988417024,0.9997653547429498,-155.2335228608425
6.993565184,0.9996622734934211,-155.50284348877318
6.998712832,0.99957907482098,-155.7708716629297
7.003860992,0.999520628130089,-156.03795369103037
7.009009152,0.999490258552254,-156.30440947470734
7.0141568,0.9994899752905998,-156.5707006465087
7.01930496,0.9995197048436817,-156.83717793518025
7.02445312,0.9995776780827514,-157.10435029454925
7.02960128,0.9996605696879938,-157.37245951719373
7.034748928,0.9997636940994062,-157.641907026733
7.039897088,0.9998808714655102,-157.91288424027695
7.045045248,1.0000055027098576,-158.1855945977702
7.050192896,1.0001301269777667,-158.46005875566496
7.055341056,1.0002476400693432,-158.73625485160682
7.060489216,1.0003512100541916,-159.0139467286309
7.065636864,1.000434663825298,-159.29302624886378
7.070785024,1.0004931985892669,-159.57307837397485
7.075933184,1.0005236771636021,-159.8537682804583
7.081080832,1.000523784401186,-160.13470640469623
7.086228992,1.0004939692131127,-160.41545639564447
7.091377152,1.000435535933995,-160.69561250435038
7.096525312,1.0003521949094318,-160.97484657766591
7.10167296,1.0002485562230965,-161.2527502134489
7.10682112,1.0001307540292224,-161.52916272449147
7.11196928,1.0000055344871943,-161.80389826691
7.117116928,0.9998802344640707,-162.0769027367341
7.122265088,0.9997620472517598,-162.3482153799722
7.127413248,0.9996579946505741,-162.6180502602387
7.132560896,0.9995740365928657,-162.88653480439407
7.137709056,0.9995151935618296,-163.154094236585
7.142857216,0.999484804238692,-163.42100859864624
7.148005376,0.9994846761815557,-163.6877389462375
7.153153024,0.9995148800758901,-163.95470075702278
7.158301184,0.9995736506763413,-164.22228266884423
7.163449344,0.9996576431093541,-164.4908833001914
7.168596992,0.9997619659982826,-164.76081645150848
7.173745152,0.9998805349975233,-165.03232277407793
7.178893312,1.0000063944275068,-165.30554857978228
7.18404096,1.000132422421265,-165.58054586856818
7.18918912,1.000251096088278,-165.857247086306
7.19433728,1.0003555375898905,-166.13552449764435
7.19948544,1.0004398296574857,-166.4151371037202
7.204633088,1.0004988647297197,-166.6957832769822
7.209781248,1.00052929735953,-166.97706879469484
7.214929408,1.000529345696966,-167.25857483981775
7.220077056,1.0004988836092432,-167.53989187555646
7.225225216,1.0004397288775828,-167.82059005517254
7.230373376,1.000355312219376,-168.1003205303536
7.235521024,1.0002504515478188,-168.3787672551333
7.240669184,1.0001313063142554,-168.65566253342078
7.245817344,1.0000047060605177,-168.93088175226524
7.250965504,0.999878043191052,-169.2043294419975
7.256113152,0.9997586638900624,-169.47609353502392
7.261261312,0.9996536881765279,-169.74633533875812
7.266409472,0.9995688840659774,-170.0152332249884
7.27155712,0.999509551333893,-170.28315694728977
7.27670528,0.9994789504362404,-170.55046643590407
7.28185344,0.9994790155947654,-170.8175601249406
7.287001088,0.9995097888037088,-171.08491297166356
7.292149248,0.9995693461903367,-171.35289139307446
7.297297408,0.9996544988702203,-171.6218882477898
7.302445056,0.9997600156687185,-171.89223010152529
7.307593216,0.9998799015171929,-172.16413779689418
7.312741376,1.0000072050773254,-172.43781783235394
7.317889536,1.000134540470385,-172.7132542549989
7.323037184,1.0002544666970223,-172.99043651681032
7.328185344,1.0003601150449488,-173.26920106136427
7.333333504,1.0004450971630714,-173.54930399579143
7.338481152,1.0005046749249857,-173.83044812327321
7.343629312,1.0005352845530318,-174.11223118027283
7.348777472,1.0005350861360707,-174.39421516512516
7.35392512,1.0005041934238155,-174.67602957619945
7.35907328,1.000444254031082,-174.95723209663052
7.36422144,1.000358641908245,-175.23744087881073
7.3693696,1.0002526371437037,-175.51630780498823
7.374517248,1.0001319526437307,-175.79365196211208
7.379665408,1.0000039592001282,-176.06924581821755
7.384813568,0.9998759042520801,-176.34310938448053
7.389961216,0.999755379860043,-176.61521732797476
7.395109376,0.9996491718101793,-176.88574975612048
7.400257536,0.999563586176439,-177.15502257350275
7.405405184,0.9995037453306314,-177.4232404789218
7.410553344,0.999472947727028,-177.6908359919213
7.415701504,0.9994731997771679,-177.95824608208065
7.420849664,0.9995043940711249,-178.2258933972209
7.425997312,0.9995649099944212,-178.49416807987024
7.431145472,0.9996510375076917,-178.76350148809814
7.436293632,0.999757830798173,-179.0341620369203
7.44144128,0.9998791270720122,-179.3064173677293
7.44658944,1.0000079147562344,-179.58045296040987
7.4517376,1.000136661505673,-179.85626470094113
7.456885248,1.000257956658558,179.86614678393448
7.462033408,1.0003646649924967,179.58697699431198
7.467181568,1.000450593962277,179.30643964957346
7.472329728,1.000510631273147,179.0248712216222
7.477477376,1.000541420809598,178.74269115340283
7.482625536,1.0005410464017082,178.46023487479803
7.487773696,1.000509630375743,178.17802910342417
7.492921344,1.0004488426770044,177.89640815525058
7.498069504,1.0003622340391665,177.61582871299663
7.503217664,1.0002548316475635,177.33657309520822
7.508365312,1.0001328699796863,177.0588704619625
7.513513472,1.0000033445244028,176.78295277270934
7.518661632,0.999873865227392,176.5088022828305
7.52380928,0.999751831733367,176.23639107225665
7.52895744,0.9996445624634478,175.96558051024158
7.5341056,0.999558074747495,175.6960842412106
7.53925376,0.9994976714973216,175.42764693215244
7.544401408,0.9994667602481554,175.1598219700618
7.549549568,0.99946712089417,174.8921928609114
7.554697728,0.9994989474102292,174.62433832599152
7.559845376,0.9995600755252889,174.35582797214113
7.564993536,0.9996472602644205,174.08627737452483
7.570141696,0.9997554802707568,173.815356125721
7.575289344,0.999878268894653,173.5428194242957
7.580437504,1.0000085033786619,173.26851366013057
7.585585664,1.0001387068561902,172.99238457614086
7.590733824,1.000261362193949,172.71447829447158
7.595881472,1.0003692117350316,172.43497422231258
7.601029632,1.000456012346273,172.15409689722733
7.606177792,1.000516769372455,171.87218367692213
7.61132544,1.0005477047120455,171.5896090382629
7.6164736,1.0005473470772874,171.30682289596572
7.62162176,1.0005153196081622,171.0242561500409
7.626769408,1.000453782138701,170.7423064716526
7.631917568,1.0003659916028684,170.46140512510686
7.637065728,1.0002573590602546,170.18184480643143
7.642213888,1.0001338279619278,169.90389562264792
7.647361536,1.000002794620222,169.62771122563595
7.652509696,0.999871717288544,169.35330823511862
7.657657856,0.9997483368031337,169.0807166550559
7.662805504,0.9996398772117209,168.80971775328217
7.667953664,0.9995525353081818,168.54005125846305
7.673101824,0.9994914596784563,168.27144130948568
7.678249472,0.9994602391016548,168.00348823280996
7.683397632,0.9994606767071467,167.73572330392133
7.688545792,0.9994930187226287,167.46771219934095
7.69369344,0.9995550961974221,167.19906558791578
7.6988416,0.9996433848965849,166.92935115366382
7.70398976,0.9997529439208015,166.65824429826026
7.70913792,0.9998771929446061,166.38551043042955
7.714285568,1.0000090932549004,166.11100486204194
7.719433728,1.000140908320827,165.83464792077177
7.724581888,1.0002649394488567,165.5565002675155
7.729729536,1.0003739724632308,165.2767191548249
7.734877696,1.0004616560589508,164.99557425462197
7.740025856,1.0005230632922073,164.71335929515575
7.745173504,1.0005544338424133,164.4305461204619
7.750321664,1.0005537364901058,164.14745713993386
7.755469824,1.000521407802408,163.86461321500397
7.760617984,1.0004589216134816,163.58240687355965
7.765765632,1.0003700523361427,163.30122989532094
7.770913792,1.000259855246648,163.02146957638814
7.776061952,1.0001349386888911,162.7433116106814
7.7812096,1.000002115708158,162.46693466367884
7.78635776,0.9998695765823222,162.19240293330867
7.79150592,0.9997446586687357,161.91967193105046
7.796653568,0.9996349759373344,161.64853031964736
7.801801728,0.9995465727182579,161.37881905597283
7.806949888,0.9994849163479373,161.11012221965908
7.812098048,0.999453374525598,160.84209724921635
7.817245696,0.9994541071518274,160.57426066449364
7.822393856,0.999486756407706,160.3061852543673
7.827542016,0.9995497125754981,160.0374635671705
7.832689664,0.9996392706745776,159.7676485411257
7.837837824,0.9997501815921455,159.49648096160564
7.842985984,0.9998761232069869,159.22362146254252
7.848133632,1.0000095679299261,158.94898749851862
7.853281792,1.0001430058907737,158.67246218447863
7.858429952,1.000268575250821,158.3941535672721
7.863578112,1.0003787782366982,158.114195461181
7.86872576,1.0004675745870424,157.83284555085447
7.87387392,1.0005295652346136,157.55041395252906
7.87902208,1.0005611184478438,157.26738059812843
7.884169728,1.0005605194323413,156.9840881167563
7.889317888,1.0005274876931252,156.70100647693772
7.894466048,1.000464200438007,156.41864489101994
7.899613696,1.0003741909014818,156.1372910197019
7.904761856,1.0002626879962706,155.85732418042062
7.909910016,1.0001361046831685,155.57906301021467
7.915057664,1.0000016959870035,155.30258446511846
7.920205824,0.999867486657368,155.02796500593814
7.925353984,0.999741151879781,154.75517757850128
7.930502144,0.9996299584675167,154.4840161796846
7.935649792,0.9995407076383211,154.21426787185987
7.940797952,0.999478223721349,153.9455706914795
7.945946112,0.9994464242413723,153.67753290745839
7.95109376,0.9994470928805165,153.40969814016384
7.95624192,0.9994804135924577,153.14168174303478
7.96139008,0.9995441392675994,152.87295124206165
7.966537728,0.9996349143319769,152.6031588544135
7.971685888,0.9997472721107232,152.33192494558247
7.976834048,0.9998747863540196,152.0590475535944
7.981982208,1.0000100078718155,151.7843480585262
7.987129856,1.0001450427446983,151.50775783697043
7.992278016,1.0002722129401562,151.22933575403854
7.997426176,1.0003839598663482,150.9492513008312
8.002573824,1.0004737295200208,150.6677520203815
8.007721984,1.000536344595086,150.38521348267443
8.012870144,1.0005682854674702,150.10200476391176
8.018017792,1.000567599868007,149.81856098043536
8.023165952,1.0005341417188554,149.53537298935046
8.028314112,1.0004699512840294,149.25285108504883
8.033462272,1.000378670839198,148.97138068328286
8.03860992,1.000265572627148,148.69136926292032
8.04375808,1.0001372497091197,148.41300966369303
8.04890624,1.0000012132320708,148.13648935921822
8.054053888,0.9998652004667068,147.8618818724952
