freq,mag,phase
6.0,0.9998143874963383,-2.8978594100103776
6.00287232,0.9999419698174717,-2.9907949445137563
6.005745152,1.0000731582267157,-3.085632491015694
6.008617472,1.0001996026285542,-3.182330309697177
6.011490304,1.0003134874229125,-3.280789001482336
6.014362624,1.0004075046135386,-3.380776458783351
6.017234944,1.00047583850331,-3.481919134042815
6.020107776,1.0005141162494016,-3.5838412349056963
6.022980096,1.0005200439422315,-3.686146821674136
6.025852928,1.000492928748225,-3.7882671329551982
6.028725248,1.00043488138269,-3.889790739811724
6.03159808,1.0003493573194493,-3.9903231236508563
6.0344704,1.000241547857373,-4.089413286615451
6.03734272,1.0001185048719403,-4.1868428454532625
6.040215552,0.9999877742048545,-4.282512293907142
6.043087872,0.9998577621785145,-4.3762540069143885
6.045960704,0.9997364679104409,-4.468180214511555
6.048833024,0.9996318363870502,-4.5584790096638175
6.051705344,0.9995500593392275,-4.6474323515954294
6.054578176,0.9994965811778628,-4.735442655676124
6.057450496,0.9994748470600285,-4.82290382175652
6.060323328,0.9994861258325625,-4.9102847739129745
6.063195648,0.9995294843054292,-4.998067871090659
6.066067968,0.9996026151354345,-5.08670349911009
6.0689408,0.9997006508707427,-5.1766197117876676
6.07181312,0.9998174463761507,-5.268091337213308
6.074685952,0.9999458194436177,-5.3613631818185015
6.077558272,1.0000773513155121,-5.456496893265433
6.080431104,1.000204066564953,-5.553529971259865
6.083303424,1.000317793502007,-5.652350251538877
6.086175744,1.0004115300378513,-5.752600302354219
6.089048576,1.0004793050080856,-5.854089810963336
6.091920896,1.0005167681931353,-5.956348930185252
6.094793728,1.0005216882247914,-6.058920211187177
6.097666048,1.0004935612165076,-6.1613400614007
6.100538368,1.000434351379444,-6.263118010241929
6.1034112,1.0003475729357882,-6.3639124499150235
6.10628352,1.0002389354820733,-6.463207069925118
6.109156352,1.0001151025681492,-6.560898954879658
6.112028672,0.9999837473962789,-6.656734982113773
6.114901504,0.999853351695636,-6.7507179929270995
6.117773824,0.9997320339463122,-6.84284451914279
6.120646144,0.9996274211193877,-6.9333279706995015
6.123518976,0.9995463495497934,-7.022529981707152
6.126391296,0.9994935042862625,-7.110740900936468
6.129264128,0.9994726944739977,-7.198409905138907
6.132136448,0.9994849103338075,-7.286019347844636
6.135008768,0.9995294788906955,-7.374063538026927
6.1378816,0.9996037046551011,-7.462996474744603
6.14075392,0.9997027613106411,-7.5531877691562785
6.143626752,0.9998204957925907,-7.644988835829852
6.146499072,0.999949372290969,-7.738558171938011
6.149371392,1.0000815608885434,-7.834000784519423
6.152244224,1.0002085033044346,-7.93139087004687
6.155116544,1.0003222686486877,-8.030469158184223
6.157989376,1.0004155172636464,-8.131155751117232
6.160861696,1.000482655935199,-8.23292397329525
6.163734528,1.0005194707737708,-8.335484325518168
6.166606848,1.0005233644613565,-8.438373033873193
6.169479168,1.0004941103558442,-8.54108849582419
6.172352,1.000433753957821,-8.643145937270651
6.17522432,1.0003461266841103,-8.744118396751619
6.178097152,1.0002362720367037,-8.84373163573693
6.180969472,1.000111664543448,-8.94163935259488
6.183841792,0.999979686725181,-9.037690417397926
6.186714624,0.9998490116781321,-9.131830191440903
6.189586944,0.9997275142862976,-9.22418891796296
6.192459776,0.9996232120626257,-9.314895454349898
6.195332096,0.9995425436758871,-9.40427635157999
6.198204416,0.9994904133620246,-9.492717955996497
6.201077248,0.9994703975138081,-9.580632232944502
6.203949568,0.9994836985928742,-9.668531638919
6.2068224,0.9995294611608372,-9.756828563723225
6.20969472,0.9996045967285427,-9.84602238112395
6.212567552,0.999704831432427,-9.93650436098734
6.215439872,0.9998234412063898,-10.02860382574647
6.218312192,0.9999530416631004,-10.122485948921558
6.221185024,1.0000856795545616,-10.218284676530521
6.224057344,1.0002128551226332,-10.3159779467935
6.226930176,1.0003266147676475,-10.415433744181021
6.229802496,1.0004196291613214,-10.516402074674728
6.232674816,1.000486191788051,-10.618510811903171
6.235547648,1.0005219835564416,-10.721420100793706
6.238419968,1.0005249830333547,-10.824620517050015
6.2412928,1.0004946744361356,-10.927547113186897
6.24416512,1.0004332705371193,-11.029904655436676
6.247037952,1.0003444710814355,-11.131150892705996
6.249910272,1.0002337346796166,-11.23102292742491
6.252782592,1.0001082063035893,-11.329085901494443
6.255655424,0.9999757229432611,-11.425387915464581
6.258527744,0.9998446313689242,-11.519772876877171
6.261400576,0.9997230927935165,-11.612322314905832
6.264272896,0.9996189845536169,-11.703251789097889
6.267145216,0.9995386978055645,-11.792860367559806
6.270018048,0.9994873353223431,-11.881482860297165
6.272890368,0.9994682309127961,-11.969639485199814
6.2757632,0.9994824624124757,-12.057768557781372
6.27863552,0.9995292667853033,-12.146340922833003
6.28150784,0.9996056683234736,-12.235841707912172
6.284380672,0.9997067983637282,-12.326614238569089
6.287252992,0.9998263443648183,-12.418998413925781
6.290125824,0.9999567809047976,-12.513217395246789
6.292998144,1.0000898420018847,-12.609362467238144
6.295870976,1.000217259269835,-12.707399600872355
6.298743296,1.00033089046297,-12.80719140934342
6.301615616,1.0004236074967294,-12.90846352434321
6.304488448,1.0004895470468724,-13.01090221563409
6.307360768,1.0005245814514132,-13.114135991728306
6.3102336,1.0005265549323,-13.217615636682329
6.31310592,1.0004952170204586,-13.320885416949341
6.31597824,1.0004327417304555,-13.423511861256667
6.318851072,1.0003427900366197,-13.525047941804184
6.321723392,1.0002310461318313,-13.625101151847884
6.324596224,1.0001047416099187,-13.723463172709248
6.327468544,0.9999716611260947,-13.81995663133461
6.330340864,0.9998401906410019,-13.914558400703164
6.333213696,0.9997187882497838,-14.007315033887915
6.336086016,0.9996146122637305,-14.09846233312461
6.338958848,0.9995347649268693,-14.188270180123853
6.341831168,0.9994841503366192,-14.277155027657603
6.344704,0.9994659314134094,-14.36554483971975
6.34757632,0.9994811935578888,-14.453900632387203
6.35044864,0.9995290467064231,-14.542766105188084
6.353321472,0.9996065582354826,-14.632494109406503
6.356193792,0.9997087694994323,-14.723619532172137
6.359066624,0.9998293441105335,-14.816326852410889
6.361938944,0.9999603868623472,-14.910860360754581
6.364811264,1.0000940414613486,-15.007297280288894
6.367684096,1.0002215547965156,-15.105655820067113
6.370556416,1.0003352818832338,-15.205825550856268
6.373429248,1.0004275582139806,-15.307451713969012
6.376301568,1.0004930113161787,-15.410231143571679
6.3791744,1.0005272691238336,-15.513758129154173
6.38204672,1.0005282887595306,-15.617571412226562
6.38491904,1.0004958751340518,-15.72110725894871
6.387791872,1.0004321937052942,-15.824005497261915
6.390664192,1.0003412315689921,-15.925819326002694
6.393537024,1.0002285587908781,-16.026129873657133
6.396409344,1.0001015641210145,-16.124701517151767
6.399281664,0.9999676799199899,-16.221443631696165
6.402154496,0.9998357607031092,-16.31623854686789
6.405026816,0.9997142132587563,-16.40923069400906
6.407899648,0.9996104437045535,-16.500580600196194
6.410771968,0.9995310732150664,-16.590638290913773
6.413644288,0.9994810221378162,-16.679763749431125
6.41651712,0.9994636853561891,-16.768372810202695
6.41938944,0.9994800021710476,-16.856984380987317
6.422262272,0.9995289180432696,-16.946106405468463
6.425134592,0.9996076432314157,-17.03618022688192
6.428007424,0.9997109826687284,-17.127539349666623
6.430879744,0.9998322486524948,-17.220581829966722
6.433752064,0.9999639976113492,-17.315410980861333
6.436624896,1.0000981719768047,-17.41224607297818
6.439497216,1.0002260333708775,-17.51095342606899
6.442370048,1.0003395549883427,-17.61140948455943
6.445242368,1.0004316071588595,-17.713387909692162
6.448114688,1.0004964276671002,-17.816523398261772
6.45098752,1.0005299469250242,-17.920372737702255
6.45385984,1.0005300311210175,-18.02447009342796
6.456732672,1.0004965787816318,-18.128354493492303
6.459604992,1.000431920378417,-18.231517951388557
6.462477312,1.000339665668616,-18.333585827115407
6.465350144,1.0002261676689956,-18.434175215337497
6.468222464,1.0000980569767144,-18.53299851033424
6.471095296,0.9999637989329803,-18.629943521108686
6.473967616,0.9998316494574924,-18.72498861451526
6.476840448,0.9997098259264616,-18.81817649983546
6.479712768,0.9996062065455376,-18.909752338784738
6.482585088,0.9995272672267652,-19.000014008103918
6.48545792,0.9994780011061262,-19.08935068489779
6.48833024,0.9994614967098534,-19.178244913508937
6.491203072,0.999478669491682,-19.267134195543942
6.494075392,0.9995287524001005,-19.356503218768477
6.496947712,0.9996085520545069,-19.44683443073011
6.499820544,0.9997127149335224,-19.538529306745573
6.502692864,0.9998350209547914,-19.631864551733013
6.505565696,0.9999676145630627,-19.7270443510221
6.508438016,1.000102206818034,-19.82421257219201
6.511310848,1.0002302439444055,-19.92326065233904
6.514183168,1.000343789066669,-20.02409227281151
6.517055488,1.0004356405145312,-20.126393493013243
6.51992832,1.0004998621467305,-20.229838890767258
6.52280064,1.0005325271053471,-20.33402955412916
6.525673472,1.0005318072150415,-20.43845883258425
6.528545792,1.000497232477019,-20.542634137433552
6.531418112,1.0004314861463457,-20.646077490635093
6.534290944,1.0003383488069058,-20.748426820332416
6.537163264,1.000223755055132,-20.849255608649162
6.540036096,1.0000948562675422,-20.948324289699084
6.542908416,0.9999599905806081,-21.045504277828037
6.545780736,0.9998273844937843,-21.14077195269901
6.548653568,0.9997054697664867,-21.234196733301893
6.551525888,0.999601928518746,-21.325977529101422
6.55439872,0.9995234736929484,-21.416483471109185
6.55727104,0.9994748149905679,-21.506063482319828
6.560143872,0.9994591007144423,-21.59517667998741
6.563016192,0.9994774694977803,-21.684326313571095
6.565888512,0.9995286472570749,-21.773974215061894
6.568761344,0.9996093526182116,-21.864600402888556
6.571633664,0.9997146501213403,-21.95660739270362
6.574506496,0.9998378045434335,-22.050274356563307
6.577378816,0.9999711182681275,-22.145769508071716
6.580251136,1.000106330986632,-22.243271988480725
6.583123968,1.0002345962903403,-22.342681269155257
6.585996288,1.0003480514108376,-22.443823437789096
6.58886912,1.0004394320504677,-22.54651518398825
6.59174144,1.0005033352188277,-22.65032067012274
6.59461376,1.0005353155025039,-22.75482120272093
6.597486592,1.0005334672970185,-22.8595394258726
6.600358912,1.000498001642787,-22.964022013955944
6.603231744,1.0004311037784104,-23.06777518011408
6.606104064,1.0003368363640168,-23.170390113069747
6.608976896,1.0002212112585984,-23.271471767842755
6.611849216,1.0000915288284808,-23.370799379782145
6.614721536,0.999956136014236,-23.468230306388957
6.617594368,0.9998230346793731,-23.5637031161536
6.620466688,0.999701125512578,-23.657339443707823
6.62333952,0.9995977507576235,-23.7493832915798
6.62621184,0.9995196228568116,-23.84008356505386
6.62908416,0.9994717509342123,-23.92990115411815
6.631956992,0.9994568111004274,-24.019274013967
6.634829312,0.9994761392326303,-24.10871232461908
6.637702144,0.9995283968525138,-24.198627533747764
6.640574464,0.9996102930233276,-24.289543074780795
6.643446784,0.9997165288763468,-24.381862554670874
6.646319616,0.9998406032152598,-24.4758173744379
6.649191936,0.999974639275262,-24.571670390760907
6.652064768,1.0001102502245607,-24.66952118038197
6.654937088,1.0002387780549225,-24.769265779270697
6.65780992,1.000352358965062,-24.87079753687237
6.66068224,1.000443559393632,-24.973792470476806
6.66355456,1.0005067529582792,-25.07794648395649
6.666427392,1.000538018454392,-25.18277730636205
6.669299712,1.0005353129367118,-25.28785588349598
6.672172544,1.0004988415065164,-25.392649929168403
6.675044864,1.0004307067776648,-25.496688629166687
6.677917184,1.0003353942001896,-25.59957875603801
6.680790016,1.0002189285050376,-25.700917111239733
6.683662336,1.0000885111011608,-25.800474226736874
6.686535168,0.9999522779837581,-25.898146400452884
6.689407488,0.9998188155269312,-25.993865022637177
6.69228032,0.9996968131785579,-26.087733873129263
6.69515264,0.9995936248944111,-26.18000585340312
6.69802496,0.9995158202658048,-26.27096017792048
6.700897792,0.9994686086334753,-26.360989775132765
6.703770112,0.9994545333730298,-26.450626204636468
6.706642944,0.9994748380589299,-26.54029018066881
6.709515264,0.9995281094893687,-26.630519784034117
6.712387584,0.9996109762307639,-26.721737610090663
6.715260416,0.9997182876945784,-26.81434931945847
6.718132736,0.9998434360162607,-26.908645021455325
6.721005568,0.9999782524081047,-27.00483522986916
6.723877888,1.0001142985630262,-27.10302511161212
6.726750208,1.0002431305830197,-27.20314137583661
6.72962304,1.0003565399912637,-27.304999543631105
6.73249536,1.0004475644022197,-27.40836575736355
6.735368192,1.000510272983156,-27.5128449841868
6.738240512,1.0005406959092422,-27.618036770622172
6.741113344,1.0005370982834827,-27.723410138695435
6.743985664,1.000499624094158,-27.82850728016913
6.746857984,1.000430415682561,-27.9328811691392
6.749730816,1.0003341288840482,-28.0360187767662
6.752603136,1.0002167412794385,-28.13762560436658
6.755475968,1.0000853423298228,-28.23748342200689
6.758348288,0.9999483858795961,-28.335374515714122
6.761220608,0.9998146939816445,-28.43131989851193
6.76409344,0.9996923933183254,-28.525413455761893
6.76696576,0.9995893491633993,-28.617924039280265
6.769838592,0.9995121086971525,-28.709111557767034
6.772710912,0.9994653523822591,-28.799404715561842
6.775583232,0.9994521716326414,-28.889272805485714
6.778456064,0.9994735240810478,-28.979204706612098
6.781328384,0.9995277642169319,-29.0697032326031
6.784201216,0.9996117643321171,-29.161232777018597
6.787073536,0.9997200926858063,-29.25415020963641
6.789946368,0.9998461148588274,-29.348777789102154
6.792818688,0.9999817022872798,-29.44531897966563
6.795691008,1.000118280908961,-29.543856185654516
6.79856384,1.0002473249394375,-29.644312940903284
6.80143616,1.0003607981544007,-29.74654900583141
6.804308992,1.000451538276225,-29.85023513656271
6.807181312,1.000513714232001,-29.955092743024093
6.810053632,1.000543411680904,-30.060609759267354
6.812926464,1.0005389171523136,-30.166309138020353
6.815798784,1.000500370906771,-30.271719762530125
6.818671616,1.0004301854680284,-30.376355341582453
6.821543936,1.0003328056379464,-30.479804276532175
6.824416768,1.0002142528484175,-30.581716642308855
6.827289088,1.0000822294392384,-30.68179228579243
6.830161408,0.9999446058896541,-30.779947302350525
6.83303424,0.9998105425524727,-30.87614560257253
6.83590656,0.9996881053817558,-30.970448886467317
6.838779392,0.9995850631121456,-31.06321769234561
6.841651712,0.9995082662387379,-31.154619695230643
6.844524032,0.9994621313004198,-31.245161453640602
6.847396864,0.9994498281680041,-31.335297674231203
6.850269184,0.9994720541851374,-31.425494334898076
6.853142016,0.9995273931448295,-31.51628923241603
6.856014336,0.9996125248909753,-31.60810923797616
6.858886656,0.999721756058261,-31.70133940124944
6.861759488,0.9998486924187489,-31.796284562905733
6.864631808,0.9999850029856129,-31.89317325389451
6.86750464,1.0001221859313798,-31.992050954686626
6.87037696,1.0002516452014583,-32.09287347085123
6.873249792,1.000365115519809,-32.19545103548704
6.876122112,1.000455411206385,-32.29953751027475
6.878994432,1.0005171860633382,-32.4047210745387
6.881867264,1.0005461208671416,-32.51058144791284
6.884739584,1.000540850526896,-32.61660231993261
6.887612416,1.0005012603341208,-32.72234126609565
6.890484736,1.0004299374677106,-32.82729854564407
6.893357056,1.0003314536716268,-32.93097841112888
6.896229888,1.0002119785660064,-33.03317939000513
6.899102208,1.0000790459094258,-33.13350662257588
6.90197504,0.999940851919238,-33.23193537311732
6.90484736,0.9998063282973454,-33.32836485756363
6.90771968,0.9996837694536385,-33.42290283636621
6.910592512,0.9995809615193983,-33.51587474977831
6.913464832,0.9995043760972571,-33.60754833600658
6.916337664,0.9994589632381529,-33.698351280392316
6.919209984,0.9994472917589703,-33.788716575373535
6.922082816,0.9994705156187216,-33.87921504116257
6.924955136,0.9995270136147065,-33.97027946970348
6.927827456,0.9996131873682076,-34.0624091972607
6.930700288,0.9997235249138603,-34.15596240688784
6.933572608,0.9998513107697989,-34.25126085794881
6.93644544,0.9999883284562153,-34.348444836862775
6.93931776,1.0001260895358686,-34.447681544242066
6.94219008,1.0002558222483091,-34.548850970393474
6.945062912,1.0003693552161643,-34.65177940759815
6.947935232,1.000459499670282,-34.75622373995291
6.950808064,1.0005207827783043,-34.86178305552618
6.953680384,1.0005490245593374,-34.967984455972754
6.956553216,1.0005427332858745,-35.07436744579994
6.959425536,1.000502219415838,-35.18042211031022
6.962297856,1.0004298241611258,-35.28566620512386
6.965170688,1.0003303876080016,-35.389675347027875
6.968043008,1.0002098313342709,-35.49213157798977
6.97091584,1.000076069146164,-35.59273586097531
6.97378816,0.9999373229784773,-35.69139440406367
6.97666048,0.9998023699558699,-35.78803725379059
6.979533312,0.9996795890574788,-35.88286873207025
6.982405632,0.9995768516887343,-35.976082837458236
6.985278464,0.9995006836396807,-36.06796611827771
6.988150784,0.9994556774810862,-36.159025075680056
6.991023104,0.9994449293302489,-36.249660615248345
6.993895936,0.9994691460759438,-36.34043467681512
6.996768256,0.9995266081039177,-36.431801877334685
6.999641088,0.9996137526080083,-36.52420841428326
7.002513408,0.999725318349175,-36.618069621995616
7.00538624,0.9998539524999325,-36.71370646382993
7.00825856,0.9999917736917983,-36.811262028286635
7.01113088,1.0001300264664645,-36.91083111473946
7.014003712,1.0002600124263554,-37.01237332731944
7.016876032,1.0003734726041413,-37.11568726725102
7.019748864,1.0004634871540703,-37.220485996788916
7.022621184,1.0005242818474975,-37.326399941185564
7.025493504,1.000552000819303,-37.43291168096383
7.028366336,1.0005447185277057,-37.53965452243549
7.031238656,1.0005031081926659,-37.64601209911317
7.034111488,1.0004297453488242,-37.75160349742677
7.036983808,1.0003292324444193,-37.85589350860799
7.039856128,1.0002077628715504,-37.95859959019483
7.04272896,1.0000730841944117,-38.05950817802829
7.04560128,0.9999335896075677,-38.158406877737384
7.048474112,0.9997981054521956,-38.25531144685529
7.051346432,0.9996752251485311,-38.35039312344039
7.054219264,0.9995726181294273,-38.44378461174322
7.057091584,0.9994968690167952,-38.53598081376632
7.059963904,0.9994524067229212,-38.62726099153066
7.062836736,0.9994425522538336,-38.71816561767476
7.065709056,0.9994675674004859,-38.809202518878095
7.068581888,0.9995261750986151,-38.900825865471326
7.071454208,0.9996144032227672,-38.99357798856522
7.074326528,0.9997268132905097,-39.08776984630949
7.07719936,0.9998564951974379,-39.18370530509865
7.08007168,0.9999950215617192,-39.28163551931523
7.082944512,1.0001338371963282,-39.381588157996184
7.085816832,1.000264071760623,-39.483459108614475
7.088689152,1.000377648605093,-39.587123289249874
7.091561984,1.0004675447011675,-39.69229762236022
7.094434304,1.0005277868887639,-39.79855286926301
7.097307136,1.0005547207731564,-39.905460243274206
7.100179456,1.0005465698144997,-40.0125176112801
7.103052288,1.0005040996438799,-40.11920492940668
7.105924608,1.000429645314603,-40.225096739740735
7.108796928,1.0003280920321242,-40.329688910584146
7.11166976,1.0002055371921574,-40.432681724890166
7.11454208,1.0000700517961572,-40.53381790163019
7.117414912,0.9999299248691134,-40.63299992068844
7.120287232,0.999793976266077,-40.730199347265625
7.123159552,0.9996710118789525,-40.825461727495636
7.126032384,0.9995683785535862,-40.91916001283182
7.128904704,0.999492946372516,-41.01157299784341
7.131777536,0.9994492661796274,-41.10310847191021
7.134649856,0.9994399229566283,-41.19426923786267
7.137522688,0.9994660507656881,-41.28558313061736
7.140395008,0.9995256206313093,-41.37751255928638
7.143267328,0.9996149475107918,-41.47053863878224
