freq,mag,phase
6.0,1.0011460380034598,13.512579294450333
6.011428352,1.0009973741753189,13.171442133721389
6.022857216,1.0007995388020496,12.83239759611301
6.034285568,1.0005619764344884,12.496023860367687
6.045714432,1.0002963831084228,12.162863386109668
6.057142784,1.0000157476148224,11.833073904424912
6.068571648,0.9997338342138281,11.506826976702
6.08,0.9994644644354556,11.184047935791218
6.091428352,0.9992209014112543,10.864519966196665
6.102857216,0.9990153207210444,10.547790774080093
6.114285568,0.9988576734647412,10.23335000538276
6.125714432,0.9987558032890469,9.920476180459163
6.137142784,0.9987149247910817,9.60847341803316
6.148571648,0.9987371129536361,9.296535249913113
6.16,0.9988212072750344,8.983904880719466
6.171428352,0.9989631991285841,8.669706820330845
6.182857216,0.9991561321601369,8.35332752559495
6.194285568,0.9993905693644252,8.034209874114897
6.205714432,0.999655039457403,7.711742786175129
6.217142784,0.999936495055963,7.385765952620002
6.228571648,1.0002211831317027,7.056126974340839
6.24,1.0004950321733161,6.7228707563534424
6.251428352,1.0007447236912304,6.386164480673706
6.262857216,1.0009578677537443,6.046462729073056
6.274285568,1.001124003050967,5.704279003180353
6.285714432,1.0012349828076887,5.360193136364828
6.297142784,1.0012852449186,5.0150987061537
6.308571648,1.0012723257286116,4.669682834959283
6.32,1.0011967850525092,4.324703766420918
6.331428352,1.001062232240542,3.981000818249022
6.342857216,1.0008750446782462,3.6392833259218653
6.354285568,1.0006447977733248,3.3001347369064957
6.365714432,1.0003822145609633,2.9641132374445944
6.377142784,1.000100434188852,2.631448397780946
6.388571648,0.9998130464557958,2.3023955034039907
6.4,0.9995343785446711,1.976829836698818
6.411428352,0.9992780566878067,1.6546763991529831
6.422857216,0.9990567607945018,1.3355024727597231
6.434285568,0.9988813473283413,1.0187731072099
6.445714432,0.998760615898423,0.703920738522979
6.457142784,0.9987004727118948,0.39019737609508287
6.468571648,0.9987040175214591,0.07672264397421513
6.48,0.9987711099054208,-0.23724164854509605
6.491428352,0.9988985775687973,-0.5525130908280591
6.502857216,0.9990802060643141,-0.869800924252832
6.514285568,0.9993069017601867,-1.1898018557658896
6.525714432,0.9995678869265251,-1.5129563411084603
6.537142784,0.9998500415261777,-1.8396677264664238
6.548571648,1.0001397225390316,-2.170106800116192
6.56,1.00042272069384,-2.5042329589005963
6.571428352,1.0006848675631643,-2.84193624984057
6.582857216,1.000913655475281,-3.182843177957798
6.594285568,1.0010975977704513,-3.5264649875107805
6.605714432,1.001227645491771,-3.8721392724143247
6.617142784,1.0012973486925874,-4.219182545663126
6.628571648,1.00130342192358,-4.566747012138566
6.64,1.0012453959003504,-4.9141218633122925
6.651428352,1.0011258520034703,-5.260420362054511
6.662857216,1.000950855995708,-5.604880167452772
6.674285568,1.0007287247556929,-5.946930938822977
6.685714432,1.0004703414030816,-6.285986715256414
6.697142784,1.0001883510589513,-6.621666277333321
6.708571648,0.9998965575086838,-6.9537357143518275
6.72,0.9996091744292452,-7.282192294812671
6.731428352,0.9993405392461853,-7.60716681755046
6.742857216,0.9991036880038678,-7.928977447497769
6.754285568,0.9989103898480454,-8.248085037270567
6.765714432,0.9987703235525229,-8.565145686645153
6.777142784,0.9986902712399772,-8.880838954301694
6.788571648,0.9986744052100702,-9.195970317093337
6.8,0.9987234475966473,-9.51137367287197
6.811428352,0.9988351965332669,-9.827845497276392
6.822857216,0.999004159864362,-10.146230982856999
6.834285568,0.9992221164821954,-10.46712450012239
6.845714432,0.9994783188128767,-10.791135159468286
6.857142784,0.9997601618288703,-11.11867567343572
6.868571648,1.0000538861677106,-11.449916789449764
6.88,1.000345207916545,-11.784979942783965
6.891428352,1.0006196586300204,-12.123760617094351
6.902857216,1.0008637513381604,-12.465883591407065
6.914285568,1.0010656581687007,-12.810956287991251
6.925714432,1.0012152661522546,-13.158329513907944
6.937142784,1.0013052151667703,-13.507288809872456
6.948571648,1.0013310314015533,-13.857118764221058
6.96,1.0012914760410778,-14.206913638742991
6.971428352,1.0011883224333715,-14.555897777763995
6.982857216,1.0010264422228718,-14.903263941919587
6.994285568,1.0008139042492996,-15.248333426338604
7.005714432,1.000560800231917,-15.59050979821073
7.017142784,1.0002797580531406,-15.929405260225627
7.028571648,0.999984359140662,-16.26462486607089
7.04,0.9996889821698615,-16.596188551357553
7.051428352,0.9994084796231678,-16.924147276938537
7.062857216,0.9991563127817689,-17.248764931541068
7.074285568,0.9989451920282316,-17.570470434171764
7.085714432,0.9987852701391267,-17.889880088528503
7.097142784,0.9986848168308703,-18.20767400510811
7.108571648,0.9986486200275666,-18.52466472349382
7.12,0.9986786264392309,-18.841666641642405
7.131428352,0.9987735853598153,-19.159545403850217
7.142857216,0.9989285981179128,-19.479114499081064
7.154285568,0.9991362681929182,-19.80103499620932
7.165714432,0.9993863983294851,-20.125991994486395
7.177142784,0.9996669402508506,-20.454393104762108
7.188571648,0.9999638702637829,-20.786585745056893
7.2,1.0002627766239638,-21.122589195081257
7.211428352,1.0005488187297094,-21.462451092954165
7.222857216,1.0008082088540788,-21.805898932160872
7.234285568,1.0010280159206115,-22.152444731821667
7.245714432,1.0011974220036999,-22.501521178097732
7.257142784,1.001308129961645,-22.852531627072477
7.268571648,1.0013547335250554,-23.20457782982152
7.28,1.0013346349494083,-23.55692658408045
7.291428352,1.0012488975318692,-23.908648669318573
7.302857216,1.0011016432872615,-24.259013462891172
7.314285568,1.000899861501985,-24.607248669913755
7.325714432,1.0006534091102264,-24.95269045151417
7.337142784,1.0003745722799904,-25.29490885096433
7.348571648,1.0000765149786766,-25.633479259763007
7.36,0.9997742599030416,-25.96829793449948
7.371428352,0.9994822219030852,-26.299404784394525
7.382857216,0.9992150735452419,-26.627037023931862
7.394285568,0.9989858251833262,-26.9515523329675
7.405714432,0.9988059780277116,-27.273487130116244
7.417142784,0.9986842773792574,-27.593597518745167
7.428571648,0.9986269664721854,-27.91263880039149
7.44,0.998636749084491,-28.231403227475624
7.451428352,0.9987135485296127,-28.550803511955472
7.462857216,0.998853220706395,-28.87168719701083
7.474285568,0.9990493621117404,-29.194737148104863
7.485714432,0.9992923140636955,-29.520715224842704
7.497142784,0.9995701775424368,-29.85009093022023
7.508571648,0.9998693039691481,-30.183196635325164
7.52,1.0001748202662517,-30.520302347189826
7.531428352,1.0004720469409303,-30.861318352022465
7.542857216,1.0007463141568467,-31.206027318690186
7.554285568,1.0009840120862825,-31.554085500402525
7.565714432,1.001173633875026,-31.9050016356614
7.577142784,1.0013057112959842,-32.25803987752517
7.588571648,1.0013737973873178,-32.61241791937212
7.6,1.0013745340357236,-32.96736642021813
7.611428352,1.001307523322104,-33.3219562342215
7.622857216,1.0011762131596613,-33.675378935452564
7.634285568,1.00098681505962,-34.02686007728033
7.645714432,1.0007484076879327,-34.37572079691797
7.657142784,1.0004729313879241,-34.7213791073539
7.668571648,1.000173405935621,-35.063485695731885
7.68,0.9998648028313613,-35.4017581935313
7.691428352,0.9995621714601192,-35.73624679541388
7.702857216,0.9992803433630189,-36.067071524911604
7.714285568,0.9990331538017779,-36.394555517297235
7.725714432,0.9988328629651615,-36.719294978432366
7.737142784,0.998689465240209,-37.041872487531776
7.748571648,0.9986100406560439,-37.36311695676199
7.76,0.9985986503860481,-37.68382872640124
7.771428352,0.9986557372164859,-38.00491894607293
7.782857216,0.9987789544316547,-38.327223047366004
7.794285568,0.9989620512843694,-38.651580819129
7.805714432,0.9991961749022623,-38.97866813489705
7.817142784,0.9994699529384956,-39.30910435184305
7.828571648,0.999769951741052,-39.6432653237141
7.84,1.0000814164279874,-39.98141568268777
7.851428352,1.0003888617696546,-40.323613204641866
7.862857216,1.000677758433844,-40.669694698727994
7.874285568,1.0009333798206872,-41.019358284368714
7.885714432,1.0011436165664047,-41.37202745215056
7.897142784,1.0012976397465008,-41.727181277806466
7.908571648,1.0013881502146256,-42.08393346347951
7.92,1.0014106545937982,-42.44152416977065
7.931428352,1.0013638057787615,-42.79902518633107
7.942857216,1.0012497565963732,-43.15566002006707
7.954285568,1.001074153510108,-43.51052880617871
7.965714432,1.0008453771031975,-43.86290933563927
7.977142784,1.000574652170403,-44.2122228018531
7.988571648,1.0002749191103544,-44.5579678110844
8.0,0.9999611735838274,-44.899927652313195
8.011428352,0.9996484572366738,-45.237928821018905
8.022857216,0.9993523658664157,-45.57216505293774
8.034285568,0.9990872609145179,-45.90289223587875
8.045714432,0.9988663972874022,-46.23056882677042
8.057142784,0.9987007136354193,-46.55584824377417
8.068571648,0.9985983185527231,-46.879475274025516
8.08,0.9985644357408446,-47.202332065574836
8.091428352,0.9986008282888644,-47.52526510424329
8.102857216,0.9987058132013602,-47.84917516919017
8.114285568,0.9988743607829695,-48.17492064634564
8.125714432,0.9990981925046216,-48.50323279032881
8.137142784,0.999366552207478,-48.8347809556924
8.148571648,0.9996660299097151,-49.170092830700895
8.16,0.9999821807209152,-49.509372669753795
8.171428352,1.0002995125842744,-49.852779683403874
8.182857216,1.0006023833941304,-50.200265847514494
8.194285568,1.0008758332717642,-50.55151134818508
8.205714432,1.0011066509045787,-50.9060601973274
8.217142784,1.0012834390670131,-51.26328508587566
8.228571648,1.0013972830862503,-51.62249323117578
8.24,1.0014427565284503,-51.98277817289224
8.251428352,1.0014173875105072,-52.34332224809621
8.262857216,1.0013223458134453,-52.70321258153719
8.274285568,1.001162148300716,-53.06157682253129
8.285714432,1.0009444633673874,-53.4176390904655
8.297142784,1.0006800772577822,-53.77072675852459
8.308571648,1.0003814464257215,-54.120349449704825
8.32,1.00006353255018,-54.46613789771142
8.331428352,0.9997417141380818,-54.80790309960055
8.342857216,0.9994317289875804,-55.14576314917096
8.354285568,0.9991489459865642,-55.47988027973223
8.365714432,0.9989073743194785,-55.81073665366733
8.377142784,0.9987185646980133,-56.13892004956707
8.388571648,0.9985923093344743,-56.465189855611996
8.4,0.9985348681295085,-56.79032447661907
8.411428352,0.9985489520636196,-57.115293004035756
8.422857216,0.9986342516980388,-57.44093571130857
8.434285568,0.9987865111240429,-57.768220420016235
8.445714432,0.9989983487782468,-58.09790096356762
8.457142784,0.9992595664729274,-58.430673379069326
8.468571648,0.9995573843713179,-58.76712988256574
8.48,0.9998771653625208,-59.10760319165161
8.491428352,1.0002032214740917,-59.45232142872695
8.502857216,1.000519577911257,-59.80120121592833
8.514285568,1.0008107428377468,-60.15405737584059
8.525714432,1.0010625149703332,-60.51048012923744
8.537142784,1.0012623339322104,-60.869882087045276
8.548571648,1.0014005781412834,-61.23152614036237
8.56,1.0014701728893474,-61.594623179035125
8.571428352,1.0014677366183513,-61.95824318719239
8.582857216,1.0013933061982427,-62.32147527283616
8.594285568,1.0012500872135293,-62.68344159951334
8.605714432,1.0010453900342928,-63.04332309039431
8.617143296,1.000788748416088,-63.400357323208425
8.628571136,1.0004929104304074,-63.75401694622452
8.64,1.000172212429259,-64.10378993109558
8.651428864,0.9998420630676897,-64.44955790637201
8.662856704,0.9995189899313384,-64.79121491037148
8.674285568,0.9992186324094388,-65.12901360433567
8.685714432,0.9989558776385145,-65.46328650591336
8.697143296,0.998743882194881,-65.79458655917188
8.708571136,0.9985927791140538,-66.12366989870202
8.72,0.9985103346790684,-66.45135085579967
8.731428864,0.9985006965932586,-66.77849474914538
8.742856704,0.9985645456193496,-67.10607673423227
8.754285568,0.9986987499288027,-67.43501085458227
8.765714432,0.9988970272694477,-67.76613156860944
8.777143296,0.9991493431737866,-68.10025212675316
8.788571136,0.9994437161211637,-68.43795472358808
8.8,0.9997656194744095,-68.77967530939198
8.811428864,1.0000993749383305,-69.12568962155132
8.822856704,1.0004287753393115,-69.4760274764638
8.834285568,1.000737354213534,-69.83053069190764
8.845714432,1.0010102166339714,-70.18883835822702
8.857143296,1.0012336802743744,-70.5504234336922
8.868571136,1.001397191380029,-70.91458040249427
8.88,1.001492179408951,-71.28049854179626
8.891428864,1.0015142028638873,-71.64726571070683
8.902856704,1.0014619476699902,-72.0139698424251
8.914285568,1.001337816990207,-72.37965287150598
8.925714432,1.0011478162267204,-72.74344593126706
8.937143296,1.0009009325904907,-73.10463041949608
8.948571136,1.0006092512019693,-73.46244740551732
8.96,1.0002870241843758,-73.81646922828779
8.971428864,0.9999499134374793,-74.166412087001
8.982856704,0.9996143600230182,-74.51215466529585
8.994285568,0.9992968428089642,-74.85383615477183
9.005714432,0.9990130441249297,-75.19173458773484
9.017143296,0.9987768575872974,-75.52641036413533
9.028571136,0.9986000175330558,-75.85854739570964
9.04,0.9984914674282022,-76.18891821308578
9.051428864,0.9984566245452167,-76.51844298755712
9.062856704,0.9984971616869924,-76.8481315075791
9.074285568,0.9986115244121676,-77.1788776511389
9.085714432,0.9987938585913294,-77.51158547901942
9.097143296,0.9990356805771401,-77.84713980595171
9.108571136,0.9993250011937505,-78.1861487349569
9.12,0.9996477641087919,-78.52917513821785
9.131428864,0.9999881685604662,-78.87655233249126
9.142856704,1.0003295976371034,-79.22834668034037
9.154285568,1.0006552241128486,-79.58452267134818
9.165714432,1.0009491812279816,-79.94474193664483
9.177143296,1.0011970307917974,-80.3085116822412
9.188571136,1.0013865535506556,-80.67520995735478
9.2,1.0015083062961503,-81.04400203954147
9.211428864,1.001556352122721,-81.41398818624793
9.222856704,1.0015281908118288,-81.7842056391992
9.234285568,1.0014248931542555,-82.15372330407563
9.245714432,1.001251528685491,-82.52161219771386
9.257143296,1.0010164222713418,-82.88703229272772
9.268571136,1.0007308691882166,-83.24924628233379
9.28,1.00040870156842,-83.60771667453791
9.291428864,1.000065697750473,-83.96206490645267
9.302856704,0.999718432912141,-84.31209647176811
9.314285568,0.9993842314424055,-84.65789603383917
9.325714432,0.9990791593175636,-84.9997147394899
9.337143296,0.9988185993860557,-85.33796914854486
9.348571136,0.9986151722272164,-85.6733898183208
9.36,0.9984791231526304,-86.00674160606525
9.371428864,0.9984172653318875,-86.3388790723637
9.382856704,0.9984328449700566,-86.67081120127996
9.394285568,0.9985250714527347,-87.00352270535114
9.405714432,0.9986897241935354,-87.33795546252625
9.417143296,0.998918775843682,-87.67501547419278
9.428571136,0.9992011939394526,-88.01541578047069
9.44,0.9995230810726219,-88.35980939554089
9.451428864,0.9998688079696706,-88.70857483375947
9.462856704,1.0002213337573744,-89.06186708953514
9.474285568,1.000563676104485,-89.41972013550838
9.485714432,1.0008786734241857,-89.78186693160431
9.497143296,1.0011511996257079,-90.14785298857745
9.508571136,1.0013678182819674,-90.51709269934582
9.52,1.0015175133498213,-90.88880331869251
9.531428864,1.0015933704907374,-91.26204524145578
9.542856704,1.0015911429316686,-91.63590903729649
9.554285568,1.0015109432700249,-92.00933398832109
9.565714432,1.0013565548089933,-92.38142275959014
9.577143296,1.0011350963810313,-92.75127646862896
9.588571136,1.0008574552810459,-93.11806006060603
9.6,1.0005372052745494,-93.48116950722842
9.611428864,1.0001896377411812,-93.8401469849957
9.622856704,0.9998319362571841,-94.19474225839357
9.634285568,0.9994813276701112,-94.54491076396644
9.645714432,0.9991552249744459,-94.89087082277909
9.657143296,0.9988696872720539,-95.23302447006915
9.668571136,0.9986387018507572,-95.57197385187185
9.68,0.9984739483276492,-95.90847025782729
9.691428864,0.9983833525904846,-96.24343818060235
9.702856704,0.9983717581317507,-96.57782446924467
9.714285568,0.9984398181026322,-96.91267039379906
9.725714432,0.9985844472655417,-97.24897433391837
9.737143296,0.9987987349124928,-97.58766803882006
9.748571136,0.9990719312831304,-97.929579678892
9.76,0.9993912584565448,-98.2753659600128
9.771428864,0.9997407548806653,-98.62554457330968
9.782856704,1.0001035288712428,-98.9803586255071
9.794285568,1.0004617111704026,-99.3398989543574
9.805714432,1.0007979248844074,-99.70396030996051
9.817143296,1.0010955601512945,-100.07220535649041
9.828571136,1.0013400277501185,-100.44399649858921
9.84,1.001519333241897,-100.8186197087262
9.851428864,1.001624510826418,-101.19517577650643
9.862856704,1.001650436524262,-101.57271547383121
9.874285568,1.0015953689073838,-101.95019984589227
9.885714432,1.0014621484246864,-102.32662964669237
9.897143296,1.001256892241561,-102.70103950927653
9.908571136,1.0009895426736986,-103.07260462561989
9.92,1.0006729724051904,-103.44055873919687
9.931428864,1.000322461252033,-103.80441351247818
9.942856704,0.9999551928772668,-104.16380224735042
9.954285568,0.9995891092384583,-104.51862848316158
9.965714432,0.999242058240357,-104.86902100991418
9.977143296,0.998931164180726,-105.21533193734689
9.988571136,0.9986717534179086,-105.55807115632975
10.0,0.9984767770403423,-105.89801435298608
10.011428864,0.998355693426955,-106.23600941269554
10.022856704,0.9983148994726949,-106.57308268680231
10.034285568,0.998356461040615,-106.91024594792337
10.045714432,0.998478665065125,-107.24854883068487
10.057143296,0.9986754449628082,-107.58898797391686
10.068571136,0.9989374776753804,-107.93246822534459
10.08,0.9992519862709551,-108.27971584428033
10.091428864,0.9996036832840879,-108.6313534437993
10.102856704,0.9999753461798461,-108.98770501273022
10.114285568,1.0003488270041114,-109.34894010516878
10.125714432,1.000705915971858,-109.71490502698532
10.137143296,1.0010290176671095,-110.08537889754095
10.148571136,1.0013024409004287,-110.45975176873571
10.16,1.0015125141979326,-110.83733370194274
10.171428864,1.0016490222129069,-111.21727017254263
10.182856704,1.0017051517388398,-111.59853391449676
10.194285568,1.0016778809067097,-111.98017073484407
10.205714432,1.0015682966798691,-112.36106137867827
10.217143296,1.001381763458077,-112.74022214799486
10.228571136,1.0011270295395105,-113.11670819229963
10.24,1.0008163461794866,-113.48975471737971
10.251428864,1.000464839726464,-113.85871612240967
10.262856704,1.0000894471211739,-114.2231895071953
10.274285568,0.9997085673597852,-114.58297438578305
10.285714432,0.9993408481305086,-114.93807650866972
10.297143296,0.9990042968892453,-115.28880211428766
10.308571136,0.9987155352727077,-115.63563561877854
10.32,0.9984888203093558,-115.9792882269456
10.331428864,0.9983354504211049,-116.3205969274758
10.342856704,0.9982631228203761,-116.660540524196
10.354285568,0.9982756421524611,-117.00021975082309
10.365714432,0.9983726345175196,-117.34068316664771
10.377143296,0.9985494269302311,-117.68300427976085
10.388571136,0.998797558117287,-118.02813781854697
10.4,0.9991050940583256,-118.37692249102673
10.411428864,0.9994569428138009,-118.730040671357
10.422856704,0.9998360812808073,-119.08793430318161
10.434285568,1.0002239335640941,-119.45085405762282
10.445714432,1.00060160761312,-119.81875063987566
10.457143296,1.0009505317218568,-120.19141781583347
10.468571136,1.0012536807068055,-120.56835314572756
10.48,1.0014961376058804,-120.94891349633292
10.491428864,1.0016658972625556,-121.33223209298853
10.502856704,1.0017545328725475,-121.71734640709909
10.514285568,1.001757511470281,-122.10318069455194
10.525714432,1.001674530408014,-122.48867589699803
10.537143296,1.0015094326000253,-122.87274692868702
10.548571136,1.0012698815487022,-123.25438293997543
10.56,1.0009675764290846,-123.63272692416014
10.571428864,1.000616948664763,-124.00707645232588
10.582856704,1.0002350214648612,-124.37690043338908
10.594285568,0.9998404558360438,-124.74191452603282
10.605714432,0.9994523782141942,-125.10207817119824
10.617143296,0.999089944275927,-125.45753059676916
10.628571136,0.9987708577996512,-125.80877566685291
