freq,mag,phase
6.0,1.000919454783215,89.77464418791381
6.002286592,1.0005653410979813,89.62017768561584
6.004572672,1.0001763635995127,89.47111578715932
6.006859264,0.9997766167855195,89.32783031730591
6.009145344,0.9993911607520921,89.19027121836766
6.011431936,0.9990444842679704,89.05803570373514
6.013718016,0.9987586967795716,88.93045369537572
6.016004608,0.9985518118803623,88.80651025545808
6.018290688,0.9984370536254654,88.68492631026152
6.02057728,0.9984219325958608,88.56431316422932
6.022863872,0.9985073267960215,88.44325126457055
6.025149952,0.9986876908453198,88.32023770793697
6.027436544,0.9989518366811193,88.19403777414898
6.029722624,0.9992828585209461,88.06353760692478
6.032009216,0.9996598901492827,87.92786889762205
6.034295296,1.0000590009656452,87.78661415510031
6.036581888,1.000454816618277,87.63958489293687
6.03886848,1.0008224424416698,87.4870499429506
6.04115456,1.0011386813482395,87.32957040517591
6.043441152,1.0013833902553253,87.16806517375304
6.045727232,1.0015411255593696,87.00366575421053
6.048013824,1.0016020432503279,86.83770852656075
6.050299904,1.0015620895651016,86.67160915653139
6.052586496,1.0014239141241357,86.50682915614784
6.054872576,1.0011961334606867,86.3446782148738
6.057159168,1.000892903638251,86.18641901547203
6.05944576,1.0005335950849314,86.03296962644737
6.06173184,1.0001408642715939,85.88499662021022
6.064018432,0.9997392143863081,85.74283668781776
6.066304512,0.9993544410761415,85.60639091839504
6.068591104,0.999010687163764,85.47528965627758
6.070877184,0.9987298909960916,85.34876673675201
6.073163776,0.9985299839932891,85.22575065972347
6.075450368,0.9984235991901276,85.10499666001705
6.077736448,0.9984174998021604,84.98511998176619
6.08002304,0.9985123133990149,84.8645846283257
6.08230912,0.9987018584615893,84.74202621679434
6.084595712,0.9989741023213411,84.61612376576174
6.086881792,0.9993119575375813,84.48580119923453
6.089168384,0.9996940425518538,84.35024899139235
6.091454464,1.0000958124993977,84.20900259408077
6.093741056,1.0004921364753891,84.0620017625124
6.096027648,1.0008578403282402,83.90950723760228
6.098313728,1.0011697902272647,83.75209724858952
6.10060032,1.0014083915341074,83.59071633401234
6.1028864,1.0015584037216638,83.42654950492272
6.105172992,1.0016104436232263,83.26093104024613
6.107459072,1.0015610928388339,83.09533374588607
6.109745664,1.001413560950999,82.93116213003204
6.112032256,1.0011769535386408,82.76977320726061
6.114318336,1.0008662383660543,82.61234743184325
6.116604928,1.00050104493404,82.45986529647041
6.118891008,1.0001043817201285,82.31291577838233
6.1211776,0.9997012730613707,82.17180648904736
6.12346368,0.9993172354925737,82.03642714289076
6.125750272,0.9989766953576928,81.90636349762737
6.128036352,0.998701310736642,81.78077074547
6.130322944,0.9985085540696597,81.65862399707552
6.132609536,0.9984105959144175,81.53864343646858
6.134895616,0.9984139253273185,81.41938134522363
6.137182208,0.9985181918112609,81.2993694762189
6.139468288,0.9987169979412355,81.1771147130639
6.14175488,0.9989975633252811,81.0514430905353
6.14404096,0.999342067689627,80.92121302432585
6.146327552,0.9997289644754043,80.78564005931655
6.148614144,1.0001333210911705,80.6443851483554
6.150900224,1.0005299194822548,80.49730736038707
6.153186816,1.000893445188352,80.34475046425158
6.155472896,1.0012010359287205,80.18731942389196
6.157759488,1.0014331015122586,80.0260041379902
6.160045568,1.001575150860791,79.86200793348264
6.16233216,1.0016181306552516,79.69668169520232
6.16461824,1.0015592290901354,79.53147247322913
6.166904832,1.001402209797399,79.36785679603916
6.169191424,1.0011568118960872,79.20712581593841
6.171477504,1.0008386280268544,79.0505333979665
6.173764096,1.0004676454803136,78.8989185232604
6.176050176,1.0000672314249375,78.75292736811431
6.178336768,0.9996626224030086,78.61280309454786
6.180622848,0.9992797752330542,78.47842720443964
6.18290944,0.998942666934948,78.34929461824417
6.18519552,0.9986727873945113,78.22461968823829
6.187482112,0.9984874896616001,78.10328068193593
6.189768704,0.9983983289125244,77.98396644850358
6.192054784,0.998411151397727,77.86522153409962
6.194341376,0.9985251542188712,77.74558511793389
6.196627456,0.9987331559980467,77.6235979413373
6.198914048,0.9990219419081899,77.49801231986545
6.201200128,0.9993732084307585,77.36778996329271
6.20348672,0.9997646973732753,77.23217564163295
6.205773312,1.0001716606422661,77.09077446089657
6.208059392,1.0005681843889807,76.94355177614965
6.210345984,1.0009293840008886,76.79084314674465
6.212632064,1.0012321985091053,76.63333176822239
6.214918656,1.0014577250150338,76.4719958859803
6.217204736,1.0015915530531307,76.30808489385547
6.219491328,1.0016251943683587,76.14298657521043
6.221777408,1.001556576664096,75.97809579538806
6.224064,1.0013899123644134,75.81497508683479
6.226350592,1.0011358292007175,75.65488330526985
6.228636672,1.0008100752438782,75.49900527364386
6.230923264,1.0004333591037413,75.34822841792858
6.233209344,1.0000293377053486,75.20313262860407
6.235495936,0.9996236769901763,75.06393200637935
6.237782016,0.9992420341937315,74.93047533309118
6.240068608,0.9989085840462835,74.80223213348745
6.2423552,0.9986446024701436,74.67835512869958
6.24464128,0.9984668209799938,74.55772138490973
6.246927872,0.9983865966167477,74.43898110101969
6.249213952,0.9984091112171658,74.3206872812881
6.251500544,0.9985328946615928,74.2013297930484
6.253786624,0.9987502407523707,74.07953857200282
6.256073216,0.9990472575581053,73.95398066440761
6.258359296,0.999405110715784,73.8236889430305
6.260645888,0.999801263002378,73.68787716808582
6.26293248,1.0002104038057025,73.54628187556814
6.26521856,1.0006067685269588,73.39878811759363
6.267505152,1.0009652759875358,73.24586789217051
6.269791232,1.0012632856496626,73.08822088496538
6.272077824,1.0014818332724789,72.92677661074704
6.274363904,1.001607240148713,72.76290513225578
6.276650496,1.0016314171209637,72.5979219178637
6.278937088,1.00155299944972,72.43337521076901
6.281223168,1.0013768300102353,72.27064202119068
6.28350976,1.0011138577081748,72.11111643586482
6.28579584,1.000780617050677,71.95590077545876
6.288082432,1.000398207519437,71.80590419551534
6.290368512,0.9999908579388902,71.66160483239788
6.292655104,0.9995842036830761,71.52325655731055
6.294941184,0.9992041216201154,71.39062472099624
6.297227776,0.998874574628184,71.26322703371726
6.299514368,0.9986165974696365,71.14005338308453
6.301800448,0.9984466637027161,71.02006043365468
6.30408704,0.9983756835459937,70.90183235978091
6.30637312,0.9984079695528301,70.78389319436428
6.308659712,0.9985416447782215,70.66475219637812
6.310945792,0.9987683098963289,70.54301805880876
6.313232384,0.9990734824800527,70.41740520466199
6.315518464,0.9994379599087129,70.28691653052965
6.317805056,0.999838446002184,70.1508844831968
6.320091648,1.0002497107146464,70.0089675955197
6.322377728,1.0006456869138787,69.86118420068428
6.32466432,1.0010012753668036,69.7079621786156
6.3269504,1.0012941026940694,69.55002800571434
6.329236992,1.001505581413591,69.38847588633946
6.331523072,1.0016223836563287,69.22454194002825
6.333809664,1.0016371107423623,69.0596448215043
6.336096256,1.0015486642786813,68.89530981032821
6.338382336,1.0013626231089192,68.73294676945888
6.340668928,1.0010909051026606,68.57389261783315
6.342955008,1.0007503055177094,68.41929921838866
6.3452416,1.0003623980475451,68.26996649557854
6.34752768,0.9999517915681162,68.12644257673908
6.349814272,0.9995444036807576,67.98887784480827
6.352100352,0.9991659771159236,67.85705513346134
6.354386944,0.9988406312987147,67.73035718463166
6.356673536,0.9985890239610754,67.60785918058907
6.358959616,0.9984270853471674,67.48840919057068
6.361246208,0.9983653587465202,67.370595810679
6.363532288,0.9984075713648336,67.25292000781377
6.36581888,0.9985512581041504,67.13392046882572
6.36810496,0.9987872587368934,67.01214246992288
6.370391552,0.9991005777477592,66.88638626637987
6.372678144,0.9994715197863446,66.7556599683592
6.374964224,0.9998762916035518,66.61927341118127
6.377250816,1.000289444669165,66.47695935763764
6.379536896,1.000684758014982,66.32878629151752
6.381823488,1.0010373729973376,66.17518165591484
6.384109568,1.0013247925309037,66.01694182607524
6.38639616,1.0015289449959253,65.85516479021399
6.38868224,1.001636881075087,65.6910959106427
6.390968832,1.0016417715659511,65.52624799856142
6.393255424,1.0015433248904348,65.3620435519685
6.395541504,1.0013476322812342,65.19998984941356
6.397828096,1.0010669748253467,65.04137617507155
6.400114176,1.0007191155239399,64.88730967447017
6.402400768,1.000325916533778,64.73861463713642
6.404686848,0.9999122324394465,64.5957947590884
6.40697344,0.9995042113931477,64.4589620494446
6.409260032,0.9991278153569392,64.3278017057932
6.411546112,0.9988068062066248,64.20177164412205
6.413832704,0.9985616517386775,64.07983414867341
6.416118784,0.9984080600733437,63.96086046399054
6.418405376,0.9983556452697697,63.84335785867946
6.420691456,0.9984080616901516,63.7258905753648
6.422978048,0.9985617441564224,63.606944832344304
6.425264128,0.9988071004013022,63.48505134585978
6.42755072,0.9991285734591145,63.35905031665593
6.429837312,0.9995057373994668,63.22795810494837
6.432123392,0.9999147476513942,63.09117480695394
6.434409984,1.0003296334522946,62.94838775737032
6.436696064,1.0007241455126143,62.79972184075512
6.438982656,1.001073298567931,62.64567405513296
6.441268736,1.001355217475879,62.487039587025755
6.443555328,1.0015518812880806,62.32494754199112
6.44584192,1.0016508232959136,62.16073483131299
6.448128,1.0016459261377701,61.99581535009876
6.450414592,1.0015373274624089,61.83171541919596
6.452700672,1.0013319159829615,61.66987398077336
6.454987264,1.0010425652397505,61.5116403417256
6.457273344,1.0006874191618687,61.358052257164864
6.459559936,1.0002889336581502,61.20994899063185
6.461846016,0.9998723738215128,61.06771923977457
6.464132608,0.9994639981370311,60.931534882559724
6.4664192,0.9990897323778793,60.801021652534686
6.46870528,0.9987733863718946,60.67555431134649
6.470991872,0.9985349971317501,60.55412024816514
6.473277952,0.9983897623786883,60.43551353051657
6.475564544,0.9983470056960597,60.31825226039384
6.477850624,0.998409495495556,60.20088933612247
6.480137216,0.9985732000448412,60.08186211211123
6.482423296,0.9988279059401171,59.95979987910873
6.484709888,0.9991574277487596,59.833477430724955
6.48699648,0.9995408197058271,59.701955488118564
6.48928256,0.9999537608775004,59.564646597522284
6.491569152,1.000370077609932,59.42130523057449
6.493855232,1.0007636127495796,59.272098154439455
6.496141824,1.0011092225865033,59.11750426544878
6.498427904,1.0013852489051154,58.95842132004681
6.500714496,1.0015741131483564,58.79598862527853
6.503001088,1.0016639921685329,58.63149149804545
6.505287168,1.0016490374218059,58.4664721260132
6.50757376,1.0015302143649243,58.302411408483486
6.50985984,1.0013150471068173,58.1407546642432
6.512146432,1.0010169401993652,57.98282109411931
6.514432512,1.0006547003811779,57.8296452870262
6.516719104,1.0002511682359079,57.6820295257209
6.519005184,0.9998319146982371,57.540370271674455
6.521291776,0.9994234861981874,57.404748275280255
6.523578368,0.9990515846562409,57.274792346266324
6.525864448,0.9987400044887592,57.14982920622916
6.52815104,0.9985085527712979,57.0288177592334
6.53043712,0.9983718915825653,56.91048414171552
6.532723712,0.9983389558881157,56.793422607547114
6.535009792,0.9984116246575244,56.676042434555534
6.537296384,0.9985855044651509,56.55689710183554
6.539582976,0.9988495711976849,56.43451314210745
6.541869056,0.9991869796553695,56.307787268784594
6.544155648,0.9995764049045118,56.17575243442586
6.546441728,0.9999931969906283,56.037854006667004
6.54872832,1.000410834758922,55.893889409563705
6.5510144,1.0008030799824343,55.74404175875183
6.553300992,1.0011449005183097,55.588859528803106
6.555587072,1.001414911892281,55.429231312367506
6.557873664,1.0015959529963812,55.26635613650317
6.560160256,1.0016765028967702,55.101557527529174
6.562446336,1.001651525096523,54.93634128824339
6.564732928,1.0015224615538494,54.77223303077641
6.567019008,1.0012975085447755,54.6106919762224
6.5693056,1.000990761927474,54.453006382695634
6.57159168,1.0006214950360925,54.30019125216011
6.573878272,1.0002131090104796,54.15299996458081
6.576164864,0.9997912915678144,54.011850665429215
6.578450944,0.9993828601221109,53.876714782686555
6.580737536,0.9990135679744265,53.74723093108287
6.583023616,0.9987070819289919,53.62269445189791
6.585310208,0.9984826748830932,53.5020136800884
6.587596288,0.9983548601003851,53.383905716652706
6.58988288,0.9983316506134743,53.2669037640159
6.59216896,0.9984146568280652,53.14945153666602
6.594455552,0.9985986787739636,53.03007539804076
6.596742144,0.9988720573483646,52.907337307595526
6.599028224,0.9992172596802974,52.78009320641447
6.601314816,0.9996125720525045,52.64744899734547
6.603600896,1.0000330084745763,52.50887151475277
6.605887488,1.0004518306316499,52.36418970322153
6.608173568,1.0008425498848545,52.21362707171542
6.61046016,1.0011804768004673,52.057773288287784
6.612746752,1.0014442851490228,51.89754549604886
6.615032832,1.0016172210717673,51.7341835939825
6.617319424,1.0016883022878609,51.56899058158188
6.619605504,1.0016531417624281,51.40355597420059
6.621892096,1.0015138915793227,51.23935274398197
6.624178176,1.0012792275542228,51.07785617546704
6.626464768,1.0009637902448698,50.92033081946199
6.628750848,1.00058770879017,50.7677928256807
6.63103744,1.0001745421429808,50.620979713383136
6.633324032,0.9997503851288241,50.480225959020565
6.635610112,0.9993421683515361,50.34552811662781
6.637896704,0.9989757245811474,50.216451667444325
6.640182784,0.9986743938481368,50.09226669298505
6.642469376,0.9984573549171537,49.97181748616138
6.644755456,0.9983383817816948,49.85386314379302
6.647042048,0.9983252094450483,49.736837575551554
6.649328128,0.9984186090291842,49.61923503912169
6.65161472,0.9986126840714404,49.49952368066682
6.653901312,0.998895216634546,49.37633066307709
6.656187392,0.9992481965547545,49.24850217875858
6.658473984,0.9996494166338321,49.115180170721835
6.660760064,1.0000732547683682,48.97585325347304
6.663046656,1.0004929276622507,48.83038224293929
6.665332736,1.0008820386054402,48.6790151316346
6.667619328,1.0012157703105182,48.522440909022386
6.66990592,1.0014731263451326,48.361534556110136
6.672192,1.0016378360748053,48.19756873370901
6.674478592,1.0016995109571034,48.03194818680602
6.676764672,1.0016541004677717,47.86620937384366
6.679051264,1.0015045445596489,47.701841987197845
6.681337344,1.0012601729397967,47.540319648358526
6.683623936,1.000936238428515,47.38290962993023
6.685910016,1.0005534111343932,47.23058271502319
6.688196608,1.000135527415693,47.08405549573792
6.6904832,0.9997092862747463,46.94365438135682
6.69276928,0.9993015559045366,46.809305982066356
6.695055872,0.9989381312568654,46.68057572652194
6.697341952,0.998642230281195,46.556640894624806
6.699628544,0.9984326539685091,46.43636765711131
6.701914624,0.9983227433229824,46.31843273753214
6.704201216,0.9983195169009852,46.20131932162922
6.706487808,0.9984232855977406,46.083467423711866
6.708773888,0.9986273860256631,45.96334190587335
6.71106048,0.9989191108725308,45.83959576617215
6.71334656,0.9992797385080097,45.711112986175095
6.715633152,0.9996865306032147,45.57702746542511
6.717919232,1.0001136840580236,45.43685645564008
6.720205824,1.0005340725851413,45.29049341169756
6.722491904,1.0009212363748905,45.13829840384794
6.724778496,1.001250619929859,44.980879088552804
6.727065088,1.0015014751727631,44.819238058400245
6.729351168,1.0016577744919113,44.65465473513006
6.73163776,1.0017097984334935,44.488509456872855
6.73392384,1.0016541613283703,44.32239591691478
6.736210432,1.0014942973735521,44.15781263724615
6.738496512,1.0012401816201175,43.9962061219219
6.740783104,1.0009079883963974,43.83881779240788
6.743069696,1.0005183983409656,43.686658035898546
6.745355776,1.0000962266414208,43.54036842459212
6.747642368,0.9996679453162151,43.400231107815216
6.749928448,0.9992607976093295,43.26617336350096
6.75221504,0.9989007247057321,43.13768919076957
6.75450112,0.9986103694630125,43.013924056315545
6.756787712,0.998408330998446,42.89373753763772
6.759073792,0.998307599452426,42.77576710479759
6.761360384,0.9983144525995191,42.658475957516266
6.763646976,0.9984286029078016,42.5402693047265
6.765933056,0.9986429037729713,42.41966560119294
6.768219648,0.9989436372799294,42.29528728199717
6.770505728,0.9993118251050791,42.16604263801909
6.77279232,0.999724007745333,42.03110272300613
6.7750784,1.0001542490764121,41.890012309401534
6.777364992,1.0005752464794608,41.7427309653771
6.779651584,1.0009603259308941,41.589573790382246
6.781937664,1.0012851190055923,41.431256979445926
6.784224256,1.0015292418547668,41.268812692275496
6.786510336,1.0016771185901097,41.1034960077341
6.788796928,1.0017194690858948,40.936793080678235
6.791083008,1.0016535333102452,40.770232952857455
6.7933696,1.0014833148856703,40.6053595205024
6.79565568,1.0012197873943394,40.44362122717801
6.797942272,1.0008790963744236,40.286211962267764
6.800228864,1.0004831603045534,40.134121582474236
6.802514944,1.0000566979922265,39.98799604950967
6.804801536,0.999626641024221,39.84805914614343
6.807087616,0.9992203538830685,39.71420120995568
6.809374208,0.9988636138855735,39.58585887222037
6.811660288,0.998579011281998,39.462206530425426
6.81394688,0.9983847917369768,39.34203696904714
6.81623296,0.9982932670700037,39.22392381104244
6.818519552,0.9983102287541137,39.106348784472125
6.820806144,0.9984348044174921,38.98773722172617
6.823092224,0.9986591127221348,38.86655567014219
6.825378816,0.998968752667951,38.741475036270934
6.827664896,0.9993443238659445,38.61137941518327
6.829951488,0.9997619425807601,38.475494933633136
6.832237568,1.0001951019997204,38.33340295644444
6.83452416,1.0006163468208995,38.18509659440565
6.836810752,1.0009992036838733,38.03092595275045
6.839096832,1.001319362638025,37.87165673891791
6.841383424,1.0015565171940295,37.708319222883155
6.843669504,1.0016958386617512,37.54223708817404
6.845956096,1.0017284011859204,37.37488542886856
6.848242176,1.001652175295426,37.207834524420754
6.850528768,1.0014717893053917,37.04259982574243
6.852814848,1.0011986193118716,36.880637539673195
6.85510144,1.000849848454565,36.723128753128165
6.857388032,1.0004475291082917,36.57106581619353
6.859674112,1.0000168915392045,36.42499855990306
6.861960704,0.9995853315094558,36.28520078552095
6.864246784,0.9991800784454427,36.15146968420801
6.866533376,0.998827006428575,36.023219118687436
6.868819456,0.9985482410692426,35.89957896352612
6.871106048,0.9983619274958823,35.77932287078722
6.87339264,0.9982796211740247,35.66100468192379
6.87567872,0.9983068717040992,35.54305866458861
6.877965312,0.9984418006938715,35.42392328753464
6.880251392,0.9986760495036362,35.3020795672415
6.882537984,0.9989946327195873,35.17619664749483
6.884824064,0.9993774264783364,35.04518014204715
6.887110656,0.9998001068812838,34.908283704654934
6.889396736,1.0002359663878888,34.76512153933352
6.891683328,1.0006574610088512,34.61570840944039
6.89396992,1.0010378250595544,34.46045986396625
6.896256,1.0013531260293893,34.30013525945767
6.898542592,1.0015833960633886,34.135869091549594
6.900828672,1.001714039350664,33.96893014021297
6.903115264,1.0017367474899084,33.800882366531944
6.905401344,1.0016501969277827,33.63324637490966
6.907687936,1.0014596215300642,33.46759297487892
6.909974528,1.0011769623502342,33.305340410280316
6.912260608,1.0008202399909758,33.14766402381723
6.9145472,1.0004116032843282,32.99554808292594
6.91683328,0.9999771173995987,32.849505745827635
6.919119872,0.9995441071928575,32.7097430023408
6.921405952,0.9991400662604273,32.57603370460222
6.923692544,0.9987905789234229,32.447808347681836
6.925978624,0.9985179804213115,32.32410055506644
6.928265216,0.9983394952789254,32.20367000570777
6.930551808,0.9982666503129801,32.085025740749096
6.932837888,0.9983040119263813,31.966659624943357
6.93512448,0.9984493359621002,31.846921508589375
