freq,mag,phase
6.0,1.001062889196302,57.15174946481945
6.002287616,1.0009650884594543,56.97465308309364
6.004575232,1.0008062258410553,56.79939619614976
6.006862848,1.0005966168532672,56.62679164857617
6.009150464,1.0003494578291574,56.45747774552772
6.011438592,1.0000802837512728,56.291885468332
6.013726208,0.9998060683697383,56.13024820032326
6.016013824,0.9995441829961942,55.97248136002491
6.01830144,0.9993113171710849,55.818297668112415
6.020589056,0.9991219407506529,55.66719338623769
6.022876672,0.9989882738776997,55.518422268663464
6.025164288,0.9989187644204297,55.371118286938206
6.027451904,0.9989178878481951,55.2243174501763
6.029740032,0.9989856457949123,55.0770220536866
6.032027648,0.9991178604296866,54.928263819468576
6.034315264,0.9993061277970806,54.77715814739616
6.03660288,0.9995385216758902,54.622984894500576
6.038890496,0.9998004274363669,54.4652041851054
6.041178112,1.000075318557602,54.303529337191776
6.043465728,1.000345804531549,54.13787755883695
6.045753344,1.0005945883157539,53.96843978868902
6.04804096,1.0008063447921483,53.795660029888914
6.050329088,1.000967446902899,53.6201599749633
6.052616704,1.001067759919562,53.442746421756894
6.05490432,1.0011009163199496,53.26436049869836
6.057191936,1.0010648836432425,53.08596690422117
6.059479552,1.0009618247318988,52.90855708843577
6.061767168,1.0007982082050155,52.73307734120129
6.064054784,1.0005843001104695,52.56029839141887
6.0663424,1.0003336674838168,52.39087650558366
6.068630016,1.0000620613690006,52.22521850048647
6.070918144,0.9997865293884057,52.063531082909414
6.07320576,0.9995245409290908,51.905722867144235
6.075493376,0.9992927226232172,51.75149548079739
6.077780992,0.9991057576194791,51.60029859888382
6.080068608,0.9989754652122439,51.45139256800168
6.082356224,0.9989100568785322,51.30390211488094
6.08464384,0.9989138909006895,51.1568496096386
6.086931456,0.99898669456252,51.009225607553056
6.089219584,0.9991237643654106,50.86006995586577
6.0915072,0.9993165871595384,50.70848968489869
6.093794816,0.9995529041788282,50.55377493061225
6.096082432,0.9998178350694465,50.395406558438474
6.098370048,1.0000945630409839,50.233083677285514
6.100657664,1.0003656718767682,50.06676989574127
6.10294528,1.0006140036419244,49.89668722887719
6.105232896,1.0008239409656783,49.72325567174425
6.107520512,1.0009821206191014,49.547131482318825
6.10980864,1.0010786052178018,49.36915741373253
6.112096256,1.0011073505770212,49.19024758356675
6.114383872,1.0010664002682104,49.011397843083486
6.116671488,1.0009583598179983,48.83361087465943
6.118959104,1.0007900471129625,48.657815250087275
6.12124672,1.0005718256085743,48.48477539584781
6.123534336,1.0003177874367093,48.31514275181222
6.125821952,1.0000436851832761,48.14933240855146
6.128109568,0.999766892797839,47.98749996267585
6.130397696,0.9995048431155639,47.829558613719314
6.132685312,0.9992743184186865,47.67516576828785
6.134972928,0.9990896282428929,47.52379898854594
6.137260544,0.9989627566691148,47.37467106036673
6.13954816,0.9989016326345165,47.22689412286629
6.141835776,0.9989101609057747,47.07949624067891
6.144123392,0.9989878783242644,46.93145108863562
6.146411008,0.9991298967605251,46.781779461208274
6.148699136,0.9993272352241415,46.629635376098385
6.150986752,0.9995673736248876,46.47427813381837
6.153274368,0.9998352214093503,46.315217941827484
6.155561984,1.00011388679535,46.152159133056315
6.1578496,1.0003856341356157,45.98510549799389
6.160137216,1.0006333014827147,45.81426069817395
6.162424832,1.0008413954885187,45.64008742569904
6.164712448,1.0009966828443926,45.46324508559348
6.167000064,1.0010893960734981,45.284605612542755
6.169288192,1.001113542704736,45.10508539574663
6.171575808,1.001067771745763,44.925714407989474
6.173863424,1.000954765563419,44.74744797591931
6.17615104,1.0007816357544475,44.57121228230467
6.178438656,1.000559399886947,44.3978433574135
6.180726272,1.000301832072031,44.22791354851153
6.183013888,1.00002534030803,44.06183958942064
6.185301504,0.9997472866535466,43.8997518484222
6.18758912,0.9994853533888814,43.741585051644115
6.189877248,0.9992559154104125,43.58695677361918
6.192164864,0.9990737462883031,43.43531723813372
6.19445248,0.9989502425564629,43.28586226125417
6.196740096,0.9988932888636937,43.13771402332749
6.199027712,0.9989065509845906,42.98985439581088
6.201315328,0.99898932294838,42.84127194585124
6.203602944,0.9991361926275801,42.69101417814515
6.20589056,0.999337991385854,42.53819895124541
6.208178688,0.9995819591402417,42.38210904639588
6.210466304,0.9998527452028237,42.22226457379394
6.21275392,1.0001330870006238,42.05840546121877
6.215041536,1.0004054466545982,41.89048938718988
6.217329152,1.0006525374576025,41.71878428776513
6.219616768,1.0008587668260174,41.543780941492784
6.221904384,1.0010110657217395,41.36614868409354
6.224192,1.0010999771792293,41.186770769036265
6.226479616,1.001119687051696,41.00653052992643
6.228767744,1.0010689691542922,40.826498170494496
6.23105536,1.0009510510783746,40.647678855776306
6.233342976,1.0007733069597726,40.47094819923458
6.235630592,1.0005468192074052,40.297124389407244
6.237918208,1.000285996734321,40.1268170356092
6.240205824,1.0000071542659195,39.960376140493494
6.24249344,0.9997279361805536,39.79798172567469
6.244781056,0.9994659381299911,39.63945438493633
6.247068672,0.9992378408017039,39.48449403652641
6.2493568,0.9990580794816637,39.33245943354288
6.251644416,0.9989380062759253,39.18259375431684
6.253932032,0.998885227449643,39.03397922221109
6.256219648,0.9989032664905768,38.88557364829165
6.258507264,0.9989908593975108,38.73639062058616
6.26079488,0.9991426058380871,38.5854181174668
6.263082496,0.9993488608519455,38.43184381304394
6.265370112,0.9995965736912588,38.27493379138567
6.26765824,0.9998702076437629,38.11419188434979
6.269945856,1.000152347697773,37.94940544855471
6.272233472,1.0004251979020369,37.78056898309378
6.274521088,1.0006715753102755,37.60792706791646
6.276808704,1.0008758830852345,37.43200130591509
6.27909632,1.001025339451242,37.25346972161117
6.281383936,1.0011103485585242,37.07322355902897
6.283671552,1.0011255665529994,36.89220657179449
6.285959168,1.001070070945256,36.71146247485523
6.288247296,1.0009472888624782,36.531975947429984
6.290534912,1.0007648287207085,36.35465125111496
6.292822528,1.000534190621296,36.180291662235106
6.295110144,1.0002700696248505,36.00948154078205
6.29739776,0.9999888827259661,35.842589173304994
6.299685376,0.9997085464518137,35.67976237931102
6.301972992,0.9994466660414367,35.52080800803916
6.304260608,0.9992198448533951,35.365423251135034
6.306548224,0.9990424889068603,35.21291717275821
6.308836352,0.9989257919989346,35.06254091047889
6.311123968,0.99887725950734,34.91333787428398
6.313411584,0.9988999558327039,34.76428534178905
6.3156992,0.9989924813573018,34.614397021447644
6.317986816,0.9991490154932302,34.46265201779256
6.320274432,0.9993596660654706,34.30820225758141
6.322562048,0.9996111607794135,34.15035774827334
6.324849664,0.9998875007587784,33.988660179366015
6.327137792,1.0001713630138425,33.822857075932255
6.329425408,1.000444745136683,33.65298404729368
6.331713024,1.0006904312008915,33.47931701033412
6.33400064,1.0008928184935735,33.3023627910845
6.336288256,1.001039238480983,33.122856891963174
6.338575872,1.0011204568150442,32.94165939119028
6.340863488,1.0011312767745035,32.75975890817899
6.343151104,1.0010709398073798,32.5781959806711
6.34543872,1.0009432221897354,32.39795068045836
6.347726848,1.0007561942695078,32.21993664580972
6.350014464,1.0005216243066462,32.04495515720041
6.35230208,1.0002541184827431,31.87355762130917
6.354589696,0.9999706694120518,31.706122364956453
6.356877312,0.9996891667032645,31.542757831210544
6.359164928,0.9994274459246267,31.383298028205555
6.361452544,0.9992019509440493,31.22736627908811
6.36374016,0.9990269620270003,31.07430189098677
6.366027776,0.998913756501602,30.923324434285096
6.368315904,0.9988693997313028,30.773446183283216
6.37060352,0.9988967472863728,30.623673312805884
6.372891136,0.9989940549405122,30.472945095500936
6.375178752,0.999155389603378,30.32031192364555
6.377466368,0.9993704031083418,30.164891949371942
6.379753984,0.9996254986047881,30.00605971350168
6.3820416,0.9999047165447309,29.843276357060272
6.384329216,1.0001901713044008,29.67638089799266
6.386617344,1.0004640953307449,29.50538087920803
6.38890496,1.0007091020675105,29.33059426121132
6.391192576,1.0009096362608976,29.152533228842564
6.393480192,1.001053098094211,28.971935962148525
6.395767808,1.0011305416657579,28.78972157563328
6.398055424,1.0011368463728658,28.606846706292608
6.40034304,1.0010717836845564,28.424359539090986
6.402630656,1.0009392823791645,28.243271944638693
6.404918272,1.0007477185085485,28.064470470929965
6.4072064,1.0005090318762104,27.88874490668319
6.409494016,1.000238439305285,27.716675851677454
6.411781632,0.9999528206950196,27.548600604107452
6.414069248,0.999670190490736,27.38462189211445
6.416356864,0.9994084822361546,27.22454752511319
6.41864448,0.9991843151314654,27.067975501455095
6.420932096,0.9990118376578685,26.914246730676503
6.423219712,0.9989019109121263,26.76255594428068
6.425507328,0.9988616306974086,26.611906388892365
6.427795456,0.9988936421044761,26.461299917460906
6.430083072,0.9989957441119662,26.309665336623112
6.432370688,0.9991617902389291,26.156051444688313
6.434658304,0.9993809765746088,25.99959805836205
6.43694592,0.9996397387942163,25.8396255787444
6.439233536,0.9999216020304741,25.67570567032751
6.441521152,1.000208768191286,25.507601779328468
6.443808768,1.0004831453159884,25.335421065398336
6.446096896,1.0007273064174487,25.159403707860516
6.448384512,1.0009260498995474,24.980143477601548
6.450672128,1.0010666699269084,24.7983912004973
6.452959744,1.0011403219665171,24.615029137334307
6.45524736,1.0011423713044667,24.43110771592901
6.457534976,1.0010725751627725,24.247613940324392
6.459822592,1.0009353081897432,24.06556990897977
6.462110208,1.0007392017301329,23.88589935628302
6.464397824,1.0004966443649146,23.70935402394921
6.466685952,1.0002228451060626,23.536506361871297
6.468973568,0.9999350212997036,23.367696790260077
6.471261184,0.9996513969323828,23.20299579613801
6.4735488,0.9993898894114318,23.04220034556298
6.475836416,0.9991669667102765,22.88488784532545
6.478124032,0.9989968333956122,22.730410876934826
6.480411648,0.9988902664872877,22.57791465469292
6.482699264,0.9988540520624226,22.42640238272151
6.48498688,0.9988905891512433,22.27485345411405
6.487275008,0.9989974955593267,22.122218969619688
6.489562624,0.9991680759065207,21.96752975324993
6.49185024,0.9993914960184258,21.809948035212283
6.494137856,0.9996538419182646,21.648781882398037
6.496425472,0.9999383459738564,21.483594105860508
6.498713088,1.0002271054283305,21.314234490262407
6.501000704,1.0005019333628542,21.140709317432826
6.50328832,1.0007454115905565,20.96340095890214
6.505576448,1.0009422563914228,20.78285664644781
6.507864064,1.0010800204282957,20.599846529662972
6.51015168,1.0011500101993343,20.415283203253843
6.512439296,1.0011477807046334,20.230181360697678
6.514726912,1.0010733353805696,20.045599438921514
6.517014528,1.0009314383019348,19.862525392816035
6.519302144,1.0007309411341945,19.681861610140118
6.52158976,1.000484481679641,19.504395960432262
6.523877376,1.000207541551447,19.330696513330285
6.526165504,0.9999175735122382,19.161041866761234
6.52845312,0.9996329396135067,18.995514923640844
6.530740736,0.9993714351661677,18.8339043973462
6.533028352,0.9991498497432989,18.675787153858522
6.535315968,0.998982072294973,18.520441386301165
6.537603584,0.9988787671276222,18.367036825076557
6.5398912,0.9988466076347916,18.214560780487975
6.542178816,0.9988875232636016,18.06198494925592
6.544466432,0.9989991342232388,17.908272385704823
6.54675456,0.9991742289728547,17.75241502309372
6.549042176,0.9994018068049114,17.593585280819283
6.551329792,0.9996675975717442,17.43113200183937
6.553617408,0.999954706484089,17.26462249524981
6.555905024,1.0002451461882116,17.093867041709323
6.55819264,1.0005204394045208,16.91897133203164
6.560480256,1.000763094130294,16.740263522863263
6.562767872,1.000958275037428,16.558341158583215
6.565056,1.0010931925980184,16.3739698588269
6.567343616,1.0011595473275812,16.18811285460173
6.569631232,1.0011530546372323,16.001766608638754
6.571918848,1.0010741107614987,15.815964891300439
6.574206464,1.000927595739144,15.63175860341325
6.57649408,1.000722767529638,15.450045339422303
6.578781696,1.000472542652772,15.271568105188019
6.581069312,1.0001924660225392,15.096885773118963
6.583356928,0.9999004767704177,14.92631223464922
6.585645056,0.9996146971506752,14.759863702276139
6.587932672,0.9993534058017874,14.597356427226352
6.590220288,0.9991330056266707,14.438284816959687
6.592507904,0.998967544299144,14.281985014833483
6.59479552,0.9988674233518217,14.127583057224598
6.597083136,0.9988391383469423,13.97404927110661
6.599370752,0.9988844513507725,13.820367175383943
6.601658368,0.9990006318684803,13.665443511022675
6.603945984,0.9991801897514198,13.508344075630715
6.606234112,0.9994118023006445,13.348211433625906
6.608521728,0.9996810992939018,13.184367036102815
6.610809344,0.9999707337577546,13.016426066877031
6.61309696,1.0002627735803011,12.844205817666486
6.615384576,1.0005384680132714,12.66783319674776
6.617672192,1.0007806149633054,12.487634804879574
6.619959808,1.0009738899430471,12.304271384090695
6.622247424,1.0011061236338217,12.11847246573331
6.624535552,1.0011689182894665,11.931213682381816
6.626823168,1.001158279891624,11.74351360570206
6.629110784,1.001074969987933,11.556439533071876
6.6313984,1.0009239489296584,11.371010298371942
6.633686016,1.000714919184191,11.188124529843966
6.635973632,1.0004609247771867,11.008534515378
6.638261248,1.0001779083903548,10.832792881811079
6.640548864,0.9998837115272944,10.661171407967396
6.64283648,0.9995969125458309,10.493708775051704
6.645124608,0.9993356821539111,10.330192351851805
6.647412224,0.9991164645149765,10.170121539656709
6.64969984,0.9989532991033978,10.012758220601171
6.651987456,0.9988562513489373,9.85724820286947
6.654275072,0.9988318788427671,9.702584383712082
6.656562688,0.9988814776945782,9.547675451863139
6.658850304,0.9990020319431737,9.391497396523988
6.66113792,0.9991859079699995,9.233030293445779
6.663426048,0.9994216111804844,9.071481832659838
6.665713664,0.9996942524375925,8.906163642685998
6.66800128,0.9999864642459343,8.7367243696299
6.670288896,1.0002799538618568,8.562965844955906
6.672576512,1.0005562444274734,8.385027055839648
6.674864128,1.00079775376736,8.203273919228815
6.677151744,1.0009893289248053,8.018338789903508
6.67943936,1.0011189320297078,7.831016205155069
6.681726976,1.0011782496445105,7.642266691396367
6.684015104,1.0011636559450492,7.453139957318716
6.68630272,1.0010758631195125,7.264690426753019
6.688590336,1.0009206378401283,7.077925528121351
6.690877952,1.0007073813942973,6.893784589072515
6.693165568,1.0004496241935252,6.7129908457828185
6.695453184,1.0001637152686136,6.536085609427287
6.6977408,0.9998674080240741,6.363321101004376
6.700028416,0.9995796114703405,6.194770573442063
6.702316032,0.9993183912749704,6.0301272058554805
6.70460416,0.9991003942001772,5.868929505590809
6.706891776,0.9989392091295012,5.710423900204787
6.709179392,0.9988453213737948,5.553743277142569
6.711467008,0.9988244917023438,5.397815689605209
6.713754624,0.9988782334371901,5.241630966488474
6.71604224,0.9990031684172993,5.084064074266849
6.718329856,0.9991913302619075,4.92417298190385
6.720617472,0.9994309659249668,4.761115005822714
6.7229056,0.9997068779189177,4.5942723330505375
6.725193216,1.0000016358067512,4.423208768731868
6.727480832,1.0002967150453146,4.2478399882517195
6.729768448,1.000573552661644,4.068248667693389
6.732056064,1.0008143957475824,3.88483426106825
6.73434368,1.0010044289337898,3.698269435244771
6.736631296,1.0011313922817717,3.5093368827354685
6.738918912,1.0011875223957258,3.319001209892388
6.741206528,1.0011690800783202,3.128356411890285
6.743494656,1.0010770318112694,2.9384383721225955
6.745782272,1.0009175269642565,2.750281029000379
6.748069888,1.000700244701686,2.564786011008339
6.750357504,1.0004389445259436,2.382683461541976
6.75264512,1.0001500101547833,2.2045039938928004
6.754932736,0.9998516936876487,2.0305103823832966
6.757220352,0.9995628496296087,1.8607475088124577
6.759507968,0.999301609691013,1.6948994889765696
6.761795584,0.9990845614716112,1.5325048174185527
6.764083712,0.9989255030623824,1.3727486430549276
6.766371328,0.9988344434852828,1.2147618128690927
6.768658944,0.9988172817173696,1.0575212499746387
6.77094656,0.9988750235208357,0.899911089452872
6.773234176,0.9990041437821972,0.7409065243445772
6.775521792,0.9991964975546554,0.5795121095075284
6.777809408,0.9994399285469877,0.41486757477040936
6.780097024,0.9997191482355764,0.2463938749269825
6.782385152,1.0000163234795632,0.07365387713071817
6.784672768,1.0003130048945508,-0.10344135591711782
6.786960384,1.0005902847813584,-0.28476498729438304
6.789248,1.0008308092425733,-0.4698880828705873
6.791535616,1.0010192515412737,-0.6582162022627517
6.793823232,1.0011438824750354,-0.848819443908231
6.796110848,1.001196701537576,-1.0408000413154295
6.798398464,1.0011745515733175,-1.2330750779191755
6.80068608,1.0010785446149952,-1.4245552616180026
6.802974208,1.0009146929030814,-1.614213669863287
6.805261824,1.0006935095655953,-1.8011811857768152
6.80754944,1.000428646640657,-1.98467163945099
6.809837056,1.0001367804230326,-2.164208060183399
6.812124672,0.9998364884004227,-2.3395041841782156
6.814412288,0.9995465550908694,-2.510591521659042
6.816699904,0.9992851996008068,-2.6777185643681043
6.81898752,0.9990692221474424,-2.8414746472887606
6.821275136,0.9989119455834562,-3.0025401607489886
6.823563264,0.9988237781029109,-3.1618837130091055
6.82585088,0.9988098680222522,-3.320565187784778
6.828138496,0.9988715679691793,-3.479638007200265
6.830426112,0.9990047361003901,-3.640182915461729
6.832713728,0.9992011111272893,-3.8032009516366077
6.835001344,0.9994482611400265,-3.969486612045552
6.83728896,0.9997306277683455,-4.139689225909787
6.839576576,1.0000303927986876,-4.314180149233577
6.841864704,1.0003285632297103,-4.4930685548547515
6.84415232,1.0006064940584647,-4.676188105439828
6.846439936,1.0008464195721123,-4.8631462429675585
6.848727552,1.0010336051264295,-5.053251823127741
6.851015168,1.0011559391823286,-5.245653192596092
6.853302784,1.0012058612854988,-5.4393762053691495
6.8555904,1.0011799938401507,-5.633339154400662
6.857878016,1.0010800032383647,-5.82648110557787
6.860165632,1.0009122405101047,-6.017752756762137
6.86245376,1.000687220592187,-6.206243190367275
6.864741376,1.0004188192090087,-6.391231270164079
6.867028992,1.0001241627232065,-6.572216025777691
6.869316608,0.9998217784049964,-6.748944108743898
6.871604224,0.9995307462201918,-6.921428005325761
6.87389184,0.9992692250487583,-7.08995344778771
6.876179456,0.9990540102889754,-7.255094067105118
6.878467072,0.9988986060447145,-7.417601539655688
6.880754688,0.9988129551315662,-7.578404885485068
6.883042816,0.9988024485972766,-7.738584980403353
6.885330432,0.9988677735201653,-7.899225971769523
6.887618048,0.9990048596239453,-8.061396342167985
6.889905664,0.9992051951891352,-8.226086456384543
6.89219328,0.9994559239652298,-8.39411418722728
6.894480896,0.9997414613501404,-8.566115273400726
6.896768512,1.000043739722803,-8.742450412548937
6.899056128,1.0003435808251089,-8.923205910744278
6.901344256,1.0006221238655308,-9.108214987149895
6.903631872,1.0008619282384266,-9.29704764786827
6.905919488,1.001047727499855,-9.48902738468316
6.908207104,1.001167966202418,-9.683305511217599
6.91049472,1.0012149012960503,-9.87887062832777
6.912782336,1.0011857033712643,-10.074624434281585
6.915069952,1.0010819754608176,-10.269482149825349
6.917357568,1.000910295232843,-10.462458738216606
6.919645184,1.0006814800200168,-10.652577046847718
6.921933312,1.0004098021094194,-10.839170039322251
6.924220928,1.0001122884917457,-11.021678906488553
6.926508544,0.9998078943768165,-11.199928101602575
6.92879616,0.999515555136379,-11.373901987387304
