freq,mag,phase
6.0,1.0006272019597904,86.98051966069443
6.002286592,1.0004884016190896,86.82679707058288
6.004572672,1.0003195033664338,86.67531410385648
6.006859264,1.000130161968095,86.52645608312967
6.009145344,0.9999322599751127,86.38043105418573
6.011431936,0.9997383985902338,86.2372698739048
6.013718016,0.9995608591515431,86.09682928092877
6.016004608,0.9994108751167605,85.95878208315743
6.018290688,0.999297879194905,85.82267355208197
6.02057728,0.9992290455886824,85.68792306242595
6.022863872,0.9992089282792547,85.55384227843687
6.025149952,0.9992387362459485,85.4196961630821
6.027436544,0.9993165795966042,85.2847857419979
6.029722624,0.999437704673491,85.14848519888479
6.032009216,0.999594213128774,85.01014102066341
6.034295296,0.999776395582364,84.86937041994473
6.036581888,0.9999727160505545,84.72588674252968
6.03886848,1.0001705731851482,84.57953293840198
6.04115456,1.0003576899874336,84.43039756308714
6.043441152,1.000522099980059,84.27875592201562
6.045727232,1.0006534380088028,84.12495980115627
6.048013824,1.0007434828440713,83.96958773863776
6.050299904,1.000786310693323,83.81327200258418
6.052586496,1.000779345614618,83.65670737560578
6.054872576,1.0007229188000042,83.50062601536223
6.057159168,1.0006207235555675,83.3456902699262
6.05944576,1.0004789492917547,83.19254542975658
6.06173184,1.0003067379533945,83.0416956109985
6.064018432,1.0001148988949415,82.89347844622093
6.066304512,0.9999153821073479,82.74815960761367
6.068591104,0.9997210670122317,82.60569003830786
6.070877184,0.9995440416529237,82.46593494348843
6.073163776,0.9993956482445576,82.32855881425397
6.075450368,0.9992853231541303,82.19312416658902
6.077736448,0.9992199575979954,82.05896489319457
6.08002304,0.9992038449664612,81.9254185012646
6.08230912,0.9992380583556237,81.79175989986004
6.084595712,0.9993203749844622,81.65725753156833
6.086881792,0.9994455042556458,81.52127012798157
6.089168384,0.9996057331089799,81.38324535254826
6.091454464,0.9997908718802134,81.2427100186172
6.093741056,0.9999892064591425,81.0994004349037
6.096027648,1.0001881488428288,80.95320667816334
6.098313728,1.0003750653204186,80.80425119768258
6.10060032,1.0005383231717235,80.65275760806216
6.1028864,1.00066748639384,80.49918209410859
6.105172992,1.0007543492099145,80.3440299501032
6.107459072,1.0007933926647554,80.18798147359402
6.109745664,1.0007820792027067,80.03174433601606
6.112032256,1.000721366244687,79.8760442758877
6.114318336,1.0006147312742362,79.72157132157882
6.116604928,1.0004690462925971,79.56890182146803
6.118891008,1.0002935048678394,79.41861616311836
6.1211776,1.000099102461211,79.27103685395029
6.12346368,0.9998981805767216,79.12631161442287
6.125750272,0.9997034383129595,78.98446680207459
6.128036352,0.999527136948181,78.84536393867812
6.130322944,0.9993805911092439,78.70861080232808
6.132609536,0.9992729701163965,78.57370799691834
6.134895616,0.9992112012723409,78.44008000658604
6.137182208,0.9991992376298532,78.30697676624688
6.139468288,0.9992378236069349,78.17372882278686
6.14175488,0.9993245928242337,78.03956609915515
6.14404096,0.9994539847434141,77.90387258975471
6.146327552,0.9996178861873531,77.76602310245656
6.148614144,0.9998059108220629,77.62564467946432
6.150900224,1.0000061948518264,77.48245925633086
6.153186816,1.0002060600515017,77.33637325691095
6.155472896,1.0003928342258568,77.18750604392942
6.157759488,1.000554725107933,77.0361270976846
6.160045568,1.0006815131149442,76.88264236164896
6.16233216,1.00076519829738,76.72763774357725
6.16461824,1.000800293354554,76.57179949319301
6.166904832,1.0007847432680843,76.41580836595493
6.169191424,1.000719369080947,76.26042973559257
6.171477504,1.0006084176174812,76.10631337524043
6.173764096,1.00045877350404,75.95412720060833
6.176050176,1.000279807115775,75.80432929765597
6.178336768,1.0000829924622583,75.65725318121
6.180622848,0.9998805817841777,75.51309604089623
6.18290944,0.9996855448074168,75.37181774110753
6.18519552,0.9995100148338005,75.23326223006745
6.187482112,0.9993653851593047,75.09704799283882
6.189768704,0.999260646897075,74.96265497156158
6.192054784,0.9992025808530961,74.82946610281596
6.194341376,0.9991947710623242,74.6967820503848
6.196627456,0.9992378378541298,74.56385112925004
6.198914048,0.999329104400771,74.42993844464797
6.201200128,0.9994627338490893,74.29443449048287
6.20348672,0.9996303650632363,74.15672002130361
6.205773312,0.9998212869372435,74.01642830407073
6.208059392,1.0000235514635045,73.8732739727399
6.210345984,1.0002242139394073,73.72719655398421
6.212632064,1.0004106529538102,73.57834666456687
6.214918656,1.000571158871485,73.42696301206404
6.217204736,1.0006955235456088,73.27351690593697
6.219491328,1.0007757488295619,73.1186390776464
6.221777408,1.000806851197435,72.9629167673084
6.224064,1.0007868891861966,72.80712350472346
6.226350592,1.0007169618041685,72.6519848861255
6.228636672,1.0006015854302344,72.49820583379501
6.230923264,1.0004479084235827,72.34639106413645
6.233209344,1.0002656981942102,72.19698733555545
6.235495936,1.0000664072969137,72.05039106016085
6.237782016,0.9998627038159364,71.90672645814308
6.240068608,0.9996672878479378,71.76596441416964
6.2423552,0.9994927743143677,71.62789390512057
6.24464128,0.9993501939603666,71.4921586170528
6.246927872,0.9992483747989578,71.35820514105774
6.249213952,0.9991940360179832,71.22537809128784
6.251500544,0.9991905792390363,71.09299765933866
6.253786624,0.9992382594277057,70.9603193949511
6.256073216,0.9993341197753088,70.8265869732464
6.258359296,0.9994720372213171,70.69115792129743
6.260645888,0.9996432672186113,70.55350217316958
6.26293248,0.9998370797812275,70.4132371514339
6.26521856,1.000041141948621,70.27004020793682
6.267505152,1.0002426360944399,70.12391011976351
6.269791232,1.0004287313138496,69.97498114719733
6.272077824,1.000587649666506,69.82354928033347
6.274363904,1.0007093134856677,69.67007447342458
6.276650496,1.0007862318227168,69.51520523560134
6.278937088,1.0008131680370487,69.35957216010202
6.281223168,1.0007886943087472,69.20387300337177
6.28350976,1.0007141216209723,69.04895708581857
6.28579584,1.0005942666009082,68.89543404909116
6.288082432,1.0004366300554277,68.74390990868609
6.290368512,1.0002510247018581,68.59489463436218
6.292655104,1.0000494157717963,68.44869129970401
6.294941184,0.999844378756699,68.30544185472151
6.297227776,0.9996489271580503,68.16512041987735
6.299514368,0.999475412660422,68.02747544550115
6.301800448,0.9993348766404752,67.89212687840757
6.30408704,0.9992362047173132,67.75853348241279
6.30637312,0.9991857552896455,67.62601134643606
6.308659712,0.9991866784149144,67.49388382764059
6.310945792,0.9992390421517833,67.36136428029843
6.313232384,0.9993394362365718,67.22773516982103
6.315518464,0.9994816712485364,67.09233729370717
6.317805056,0.9996565981851762,66.95466968334142
6.320091648,0.9998532444656775,66.81430087457508
6.322377728,1.0000591061449067,66.67099949614692
6.32466432,1.0002613424588114,66.5247410705904
6.3269504,1.0004468854422919,66.37568684374006
6.329236992,1.0006040815335526,66.22412488600614
6.331523072,1.0007231505139547,66.07055047118364
6.333809664,1.0007964022106992,65.91559941652353
6.336096256,1.0008192842456678,65.75996171836643
6.338382336,1.0007901318711405,65.60437257163578
6.340668928,1.0007108605838837,65.44956778776057
6.342955008,1.0005865070257398,65.29620537484239
6.3452416,1.0004248356948875,65.14494377166888
6.34752768,1.0002361384822847,64.9962107247924
6.349814272,1.0000320881714433,64.85035180110106
6.352100352,0.9998258797554381,64.70745678987764
6.354386944,0.9996303476468401,64.567490775609
6.356673536,0.9994579012719444,64.43020941780851
6.358959616,0.9993196157193323,64.29518495348799
6.361246208,0.9992241534108047,64.16188984455579
6.363532288,0.9991776959949378,64.0295881288613
6.36581888,0.9991831435129199,63.89761095004444
6.36810496,0.9992402711337263,63.76520329135693
6.370391552,0.9993452995556672,63.631620157307495
6.372678144,0.9994917491841341,63.496194741416105
6.374964224,0.9996703993729384,63.3583856189
6.377250816,0.9998698192072462,63.21787111205754
6.379536896,1.0000774612625238,63.07438128272083
6.381823488,1.0002801795086134,62.92790773685373
6.384109568,1.0004651863282759,62.778626854809715
6.38639616,1.0006207475101694,62.62687721712489
6.38868224,1.0007369506039878,62.47317453644801
6.390968832,1.0008065863727664,62.31807501688721
6.393255424,1.0008250506049448,62.162362137197505
6.395541504,1.0007912378385333,62.00676484928058
6.397828096,1.000707299469088,61.85201681433748
6.400114176,1.0005783852315426,61.69879322973559
6.402400768,1.0004127589639753,61.54770292475487
6.404686848,1.000220671292683,61.39922586394935
6.40697344,1.0000144930939805,61.253604669316175
6.409260032,0.999807096370064,61.111026813050294
6.411546112,0.9996115396502141,60.971334728116425
6.413832704,0.9994404248216113,60.83435837518081
6.416118784,0.9993044190747757,60.6995769627969
6.418405376,0.9992123589976014,60.56647542858851
6.420691456,0.9991699656509156,60.43436792045064
6.422978048,0.9991799224287232,60.30247406822903
6.425264128,0.999241763238864,60.17007455112061
6.42755072,0.9993515107690291,60.03643465946808
6.429837312,0.99950232963998,59.90089487426536
6.432123392,0.999684561504074,59.76289831407061
6.434409984,0.9998867428818561,59.62217787846408
6.436696064,1.0000961380893747,59.478407812922995
6.438982656,1.0002993366359663,59.33165495652329
6.441268736,1.000483614732435,59.18208510738954
6.443555328,1.0006373706241636,59.03005848837885
6.44584192,1.0007506811248306,58.87609927969922
6.448128,1.000816451410661,58.72083041863959
6.450414592,1.0008305913445228,58.56498302409805
6.452700672,1.0007921351461992,58.40932013234569
6.454987264,1.000703295314723,58.2545494732001
6.457273344,1.0005699657641542,58.101404064668316
6.459559936,1.0004002748660528,57.95043652900549
6.461846016,1.0002050439645946,57.80209218684664
6.464132608,0.9999965855869037,57.65669457059057
6.4664192,0.9997881087928868,57.51431804672759
6.46870528,0.9995927013566155,57.37489040580727
6.470991872,0.9994228862672542,57.238089373721415
6.473277952,0.9992894105749608,57.10352280566449
6.475564544,0.9992006607884564,56.970554160397
6.477850624,0.9991624289460519,56.83850669252921
6.480137216,0.9991771072767975,56.70665180853204
6.482423296,0.9992438131260751,56.57420330385631
6.484709888,0.9993582398979991,56.44041605281011
6.48699648,0.9995133947310402,56.30468635035584
6.48928256,0.9996991970596679,56.16644112668478
6.491569152,0.999904090050835,56.02539577791355
6.493855232,1.0001150154290182,55.881294071956
6.496141824,1.0003186823710142,55.73418771034657
6.498427904,1.0005022124523055,55.58427309867469
6.500714496,1.0006539303192432,55.43189472318793
6.503001088,1.000764252660661,55.27764889890661
6.505287168,1.000826201612164,55.122117053341704
6.50757376,1.0008357586144119,54.966052997356876
6.50985984,1.0007924929647227,54.810254007027424
6.512146432,1.0006989587035868,54.65539360277413
6.514432512,1.0005609701787546,54.50223966990263
6.516719104,1.0003873035193325,54.35132237837114
6.519005184,1.000188909648577,54.20312034047185
6.521291776,0.9999782850411919,54.05784547916701
6.523578368,0.9997687687732627,53.91563145231217
6.525864448,0.9995736309363362,53.77634648449677
6.52815104,0.9994052643473154,53.63970041932496
6.53043712,0.9992742495753388,53.50523240813676
6.532723712,0.9991891058301311,53.37236552754472
6.535009792,0.999155152681554,53.24031731083065
6.537296384,0.9991744520836214,53.108384230272364
6.539582976,0.9992459884400718,52.97581138560578
6.541869056,0.9993652231966733,52.841831016856126
6.544155648,0.9995245790315579,52.70582739926168
6.546441728,0.9997139833571008,52.567269537696234
6.54872832,0.9999215953889788,52.42581094163563
6.5510144,1.0001340223147908,52.281325052765865
6.553300992,1.000338054719368,52.13376666880553
6.555587072,1.0005206894533532,51.983429038653945
6.557873664,1.0006703668708639,51.830659664709565
6.560160256,1.000777630259575,51.676004812899436
6.562446336,1.000835667324483,51.52014640278654
6.564732928,1.0008407857390242,51.363840254928355
6.567019008,1.0007925650741434,51.20780859843539
6.5693056,1.0006941918153593,51.05282842698993
6.57159168,1.000551713826231,50.89958622685583
6.573878272,1.0003740980680609,50.74865113429029
6.576164864,1.000172515180628,50.600486226398864
6.578450944,0.999959911842534,50.45527781349662
6.580737536,0.999749396945321,50.31315375638214
6.583023616,0.9995546547065,50.17397973530324
6.585310208,0.9993877239537862,50.037419026732955
6.587596288,0.9992594086169899,49.90298001482088
6.58988288,0.9991777321800839,49.770095401607755
6.59216896,0.9991481025815007,49.63798869943646
6.594455552,0.9991721841031211,49.50593010143354
6.596742144,0.9992486508746619,49.37314131045031
6.599028224,0.9993726108022867,49.238895763041704
6.601314816,0.9995362580935437,49.10250409097548
6.603600896,0.9997292563829425,48.96356252776777
6.605887488,0.9999393597058566,48.82166261169879
6.608173568,1.0001533528075788,48.676659540537194
6.61046016,1.0003576503242115,48.52861286179278
6.612746752,1.0005392402202062,48.3777628773997
6.615032832,1.0006867785181535,48.22452929164174
6.617319424,1.0007908390754272,48.069421831588905
6.619605504,1.0008449214330244,47.91315945541512
6.621892096,1.0008454197867558,47.75649879041986
6.624178176,1.0007923541554407,47.60021553366913
6.626464768,1.0006890005510714,47.44501444026549
6.628750848,1.0005419565609577,47.29166014974387
6.63103744,1.0003604145964993,47.14065792879226
6.633324032,1.0001558349989508,46.992444759042876
6.635610112,0.9999410826697046,46.8472450930163
6.637896704,0.9997298873366492,46.7051521359323
6.640182784,0.9995354160464409,46.56598762572942
6.642469376,0.9993702173304362,46.4294266402774
6.644755456,0.9992446396221063,46.29497466035672
6.647042048,0.9991666211307574,46.16199512514039
6.649328128,0.9991413143220294,46.02977108977287
6.65161472,0.999170213225147,45.89749714466621
6.653901312,0.9992516225226387,45.76440752225032
6.656187392,0.9993803588969181,45.62979142551628
6.658473984,0.9995482503346501,45.49300516962471
6.660760064,0.9997447257674312,45.35356178214016
6.663046656,0.9999574177019281,45.21112655247916
6.665332736,1.000172765680756,45.06557564550925
6.667619328,1.0003772785024534,44.91695850889183
6.66990592,1.0005577876465004,44.765523933523966
6.672192,1.0007031267169069,44.61172283490313
6.674478592,1.0008039269085476,44.45611766656214
6.676764672,1.0008538902399693,44.29939675269727
6.679051264,1.000849720636037,44.142350304094194
6.681337344,1.0007917380053077,43.9857097168858
6.683623936,1.0006835582951426,43.83025907657221
6.685910016,1.000532062862823,43.67667880905797
6.688196608,1.000346588131941,43.52553753140073
6.6904832,1.000138866654345,43.377218893735
6.69276928,0.9999222483674609,43.23196751147313
6.695055872,0.9997102144327684,43.08982153383974
6.697341952,0.9995163429735499,42.9506071253023
6.699628544,0.9993527621806225,42.81398523010685
6.701914624,0.9992300285026982,42.67943043363178
6.704201216,0.9991557644122981,42.54629395967882
6.706487808,0.9991348552049651,42.41384816074923
6.708773888,0.9991686491724728,42.2812996611145
6.71106048,0.9992550443179968,42.14784808021441
6.71334656,0.9993885053881639,42.01280755052831
6.715633152,0.9995606752189704,41.87551705121619
6.717919232,0.9997606261340403,41.73550874064164
6.720205824,0.9999757883956659,41.592470457862085
6.722491904,1.0001924425682058,41.446267728819166
6.724778496,1.0003969510695812,41.29701475905532
6.727065088,1.0005763698604788,41.14493608768747
6.729351168,1.0007194207856644,40.99051581510703
6.73163776,1.0008167824415726,40.834318547997945
6.73392384,1.000862652477667,40.677070369989934
6.736210432,1.0008537774110053,40.5195366372468
6.738496512,1.0007908444136768,40.36251881313197
6.740783104,1.0006777843180275,40.20672155170723
6.743069696,1.0005216148701963,40.0528758275382
6.745355776,1.0003322942260342,39.90150821848441
6.747642368,1.0001217716350472,39.75303961462522
6.749928448,0.9999031389677349,39.60765071835721
6.75221504,0.9996904247994938,39.46538764108195
6.75450112,0.999497093499613,39.326044036208074
6.756787712,0.9993353397731717,39.189301370136896
6.759073792,0.9992154388878584,39.05456085365848
6.761360384,0.9991450324476407,38.92121912302262
6.763646976,0.9991286261249124,38.78848352911415
6.765933056,0.9991673094754772,38.65555552802269
6.768219648,0.9992586522444488,38.52168161467982
6.770505728,0.9993968483332696,38.38611826251187
6.77279232,0.9995732664493566,38.248274726688216
6.7750784,0.9997766242084848,38.10761513884272
6.777364992,0.9999941740274337,37.96391066780757
6.779651584,1.0002121081897097,37.81700517292508
6.781937664,1.00041666543177,37.66701445883471
6.784224256,1.0005949091117978,37.5142369809519
6.786510336,1.0007354149184349,37.359113336225974
6.788796928,1.0008295484135847,37.202264255098925
6.791083008,1.000871092694302,37.044434113767025
6.7933696,1.0008575256530832,36.886359994519246
6.79565568,1.000789563281212,36.72885412762026
6.797942272,1.0006716065681007,36.57267670608006
6.800228864,1.0005109902757618,36.41847397219199
6.802514944,1.000317847254314,36.26684270982884
6.804801536,1.0001043610481761,36.11812760315282
6.807087616,0.99988394937456,35.97253907794357
6.809374208,0.9996706264167837,35.83008879399126
6.811660288,0.9994778970021523,35.690573733419235
6.81394688,0.9993179708453473,35.553596703368875
6.81623296,0.9992010576065797,35.41862888947475
6.818519552,0.9991345365822166,35.28495088993151
6.820806144,0.9991226708357822,35.15185618129419
6.823092224,0.999166206364477,35.018527523850906
6.825378816,0.9992625621548274,34.88413246216637
6.827664896,0.9994055398380616,34.74798294031146
6.829951488,0.9995861206086971,34.6094630594175
6.832237568,0.999792907055533,34.46812531502672
6.83452416,1.0000128267838502,34.323647409989306
6.836810752,1.0002319046947943,34.17596467252425
6.839096832,1.0004363052725502,34.02518498340468
6.841383424,1.0006132362247306,33.87162595271775
6.843669504,1.0007513422351535,33.715736623049175
6.845956096,1.0008419232224521,33.55816947708257
6.848242176,1.0008792890214562,33.39965675031672
6.850528768,1.0008608739153475,33.24097530088923
6.852814848,1.0007880358873515,33.08293960860816
6.85510144,1.0006651993236988,32.9262864012289
6.857388032,1.0005000517887817,32.771699380176734
6.859674112,1.0003030807030293,32.61971201832834
6.861960704,1.0000867765517214,32.470691532176765
6.864246784,0.9998647018169076,32.3248349103096
6.866533376,0.9996507722118052,32.18213200523131
6.868819456,0.9994587979331925,32.04235103847249
6.871106048,0.9993008292913155,31.90509461729949
6.87339264,0.9991869433255626,31.769794797929748
6.87567872,0.9991243591945349,31.635776085834667
6.877965312,0.9991171067457241,31.502233863060006
6.880251392,0.9991655879981642,31.368372841920472
6.882537984,0.999266932024592,31.23339261900707
6.884824064,0.99941465433454,31.096585512238025
6.887110656,0.9995993155657102,30.957338964999657
6.889396736,0.9998093810202848,30.8152109150755
6.891683328,1.0000316299905478,30.66989706127162
6.89396992,1.0002519374479044,30.521368283107215
6.896256,1.0004561599709707,30.369718732888057
6.898542592,1.0006316403626359,30.215295757636646
6.900828672,1.0007672458315764,30.058594630418348
6.903115264,1.0008542513369494,29.90023502729296
6.905401344,1.0008873180114597,29.74098877859262
6.907687936,1.0008641639270925,29.581643130488008
6.909974528,1.0007862787858561,29.422972553597187
6.912260608,1.000658519990116,29.26579832396534
6.9145472,1.0004889292976866,29.110749119819197
6.91683328,1.0002882946006115,28.9583259007909
6.919119872,1.0000691215494732,28.808949080412283
6.921405952,0.9998452966770557,28.662750884883703
6.923692544,0.9996309806424039,28.519730868937934
6.925978624,0.9994398074744312,28.379602622032483
6.928265216,0.9992838514724359,28.24200098805541
6.930551808,0.9991730649088211,28.106302641704865
6.932837888,0.9991144424386659,27.97182752798029
6.93512448,0.9991117588517521,27.837756306629615
6.93741056,0.9991652321019,27.703309328628634
