freq,mag,phase
6.0,0.9993793489164446,-170.60200295185405
6.002285568,0.999447683464047,-170.74518864943107
6.004571648,0.9995511068894591,-170.88962948667537
6.006857216,0.9996831635633496,-171.03580940662965
6.009142784,0.9998353419929469,-171.184005583997
6.011428352,0.999998148916915,-171.33454954854705
6.013714432,1.0001611733591778,-171.487416760777
6.016,1.0003143198553512,-171.64258398846428
6.018285568,1.0004475866148363,-171.799830027956
6.020571648,1.0005526751836669,-171.95882004936408
6.022857216,1.0006229933528967,-172.1190658978705
6.025142784,1.000653947531486,-172.28003839464984
6.027428352,1.000643592494845,-172.44119125551478
6.029714432,1.000592690020933,-172.60187745314826
6.032,1.0005042562195943,-172.7615397473303
6.034285568,1.0003838970494217,-172.91970313564406
6.036571648,1.0002393803635694,-173.07595837934858
6.038857216,1.0000795980703172,-173.22997763380468
6.041142784,0.9999147930946619,-173.38164960245123
6.043428352,0.9997554861761021,-173.53095036132328
6.045714432,0.9996114848018015,-173.6780637821122
6.048,0.9994921712434867,-173.82325461228243
6.050285568,0.9994051315763021,-173.96693918895025
6.052571648,0.9993557587978728,-174.1096254926145
6.054857216,0.9993473083836935,-174.25185951379416
6.057142784,0.999380198206078,-174.3942900386461
6.059428352,0.9994526658301476,-174.53746926257892
6.061714432,0.9995598290220005,-174.6819779624337
6.064,0.9996950002586312,-174.8282067034172
6.066285568,0.9998497580108239,-174.97655755224935
6.068571648,1.0000140112569589,-175.12724436537104
6.070857216,1.0001777186095995,-175.28027616711302
6.073142784,1.0003302304655737,-175.43563796496593
6.075428352,1.0004620210016533,-175.59302141571928
6.077714432,1.0005647403432811,-175.75214315884102
6.08,1.0006317925873738,-175.91247512948377
6.082285568,1.0006590448834864,-176.07349680870877
6.084571648,1.0006446943818534,-176.23460063689754
6.086857216,1.00058958724532,-176.39521379657805
6.089142784,1.0004972204106297,-176.55474555767086
6.091428352,1.0003734191883318,-176.71272490580773
6.093714432,1.0002260125249465,-176.86873380744444
6.096,1.0000643001215102,-177.02248373191335
6.098285568,0.9998984639201669,-177.17384372387625
6.100571648,0.999739125634082,-177.3228445308651
6.102857216,0.9995962222376332,-177.46963850503175
6.105142784,0.9994790011440775,-177.61454458585095
6.107428352,0.9993947524394589,-177.75794908977036
6.109714432,0.9993488970195367,-177.9004702187099
6.112,0.9993443786808166,-178.04256058094586
6.114285568,0.9993815944993459,-178.18489209502633
6.116571648,0.9994580040661356,-178.32804746041532
6.118857216,0.9995690345151335,-178.47258790907983
6.121142784,0.9997073098331573,-178.61889556050934
6.123428352,0.9998643840574197,-178.7673810408912
6.125714432,1.0000301922931274,-178.91818605432024
6.128,1.0001943021191584,-179.0713947649677
6.130285568,1.0003462921818778,-179.22688925529974
6.132571648,1.0004764032113616,-179.3844329216089
6.134857216,1.0005766395935092,-179.54367366309415
6.137142784,1.0006405089423074,-179.70404796926158
6.139428352,1.000663790369257,-179.8650682743699
6.141714432,1.0006453840697342,179.97385425874046
6.144,1.0005860976825145,179.81333674923633
6.146285568,1.000489838313297,179.65396493113357
6.148571648,1.0003624390559995,179.4962344357192
6.150857216,1.0002122953507182,179.34047287380304
6.153142784,1.0000486914086786,179.18703185663006
6.155428352,0.9998820052805851,179.03598614285886
6.157714432,0.9997227044311744,178.8873019612268
6.16,0.9995809525295811,178.740840278854
6.162285568,0.9994659082464563,178.59623856756363
6.164571648,0.9993845097083889,178.45306124716754
6.166857216,0.9993423311471865,178.31078374608998
6.169142784,0.9993418304274952,178.16886516309242
6.171428352,0.99938319818637,178.02662809932468
6.173714432,0.9994637506406062,177.88350512122764
6.176,0.9995784261923316,177.73897563103586
6.178285568,0.9997198872929236,177.59257646937527
6.180571648,0.9998793783940968,177.44401077794745
6.182857216,1.0000465226869315,177.2930605670646
6.185142784,1.0002110274716727,177.13973180712767
6.187428352,1.0003623176749965,176.9840766148679
6.189714432,1.0004907382029493,176.82641839387878
6.192,1.0005883777877076,176.66712183400404
6.194285568,1.0006488679753904,176.50665875248473
6.196571648,1.0006683861845131,176.3456481899446
6.198857216,1.0006457172737804,176.18461916420563
6.201142784,1.000582329248092,176.02426343922588
6.203428352,1.0004820145868063,175.86507563220408
6.205714432,1.0003513016669943,175.7075808084501
6.208,1.0001982884636567,175.5521355448852
6.210285568,1.0000328275418222,175.39899821917402
6.212571648,0.9998651674264167,175.2482948595493
6.214857216,0.9997061917372903,175.09996100003053
6.217142784,0.9995657119911019,174.9538297887692
6.219428352,0.9994527377712107,174.80955027962443
6.221714432,0.9993745027301648,174.66665754961465
6.224,0.9993360064713401,174.5246086198593
6.226285568,0.9993396270745856,174.38284133540526
6.228571648,0.9993851377991902,174.24073110679785
6.230857216,0.9994698200851527,174.09766716240676
6.233142784,0.9995882589136417,173.9531283152365
6.235428352,0.9997328600287654,173.80668354278885
6.237714432,0.9998945783113369,173.65800753174562
6.24,1.00006310795442,173.5069538101944
6.242285568,1.0002277894678446,173.3535008812328
6.244571648,1.0003783188749646,173.19774287953405
6.246857216,1.000504917144213,173.03996568829598
6.249142784,1.0005998881088922,172.88059920839984
6.251428352,1.0006569166279964,172.720112552123
6.253714432,1.0006725076967409,172.5591168600597
6.256,1.0006455866491522,172.3982139207096
6.258285568,1.0005779734610212,172.23797669537478
6.260571648,1.0004737578599527,172.0790140782386
6.262857216,1.0003395925507892,171.9217547159993
6.265142784,1.0001840165833504,171.76663970718525
6.267428352,1.0000166398567212,171.61385569437954
6.269714432,0.9998481790457397,171.46352941418402
6.272,0.999689484745584,171.3155787819361
6.274285568,0.9995503914743122,171.16977624804133
6.276571648,0.9994397410676465,171.02583847079524
6.278857216,0.999364675113934,170.88322932557702
6.281142784,0.9993298011846014,170.74142815832974
6.283428352,0.9993377377263406,170.59984237894784
6.285714432,0.9993875601698307,170.4578465565212
6.288,0.9994762530167115,170.3148635869985
6.290285568,0.9995984245346488,170.17033461626824
6.292571648,0.9997460660259126,170.02383467581672
6.294857216,0.9999100667262104,169.87510031433314
6.297142784,1.0000797702901292,169.72392795612313
6.299428352,1.0002447990925505,169.5703740842283
6.301714432,1.0003943086435487,169.41450020244315
6.304,1.000519168773667,169.2566287229685
6.306285568,1.0006113040072846,169.09721403010042
6.308571648,1.0006647367228303,168.936723165341
6.310857216,1.0006763890698103,168.77579030883834
6.313142784,1.0006452272809625,168.61498365497627
6.315428352,1.0005734573078862,168.45493697844972
6.317714432,1.0004651536137021,168.29620572503558
6.32,1.0003275785155403,168.13924681482086
6.322285568,1.0001692678153706,167.98443506326478
6.324571648,1.0000002860209207,167.83203464577045
6.326857216,0.9998311467925008,167.68205855965675
6.329142784,0.99967273101479,167.53449503500678
6.331428352,0.9995350246550175,167.38910044596727
6.333714432,0.9994268629157872,167.24549152303405
6.336,0.9993551175100904,167.1031867373806
6.338285568,0.9993240813603648,166.9616560642677
6.340571648,0.9993359749877001,166.82025748639035
6.342857216,0.999390183828137,166.67842609993107
6.345142784,0.999483145208532,166.5354900260075
6.347428352,0.9996089680858395,166.39096328596742
6.349714432,0.9997596553570884,166.24446863319446
6.352,0.9999257403665326,166.0956687121687
6.354285568,1.0000968572519775,165.94439979731047
6.356571648,1.0002617680052386,165.79072539201277
6.358857216,1.0004103570836311,165.63476603679823
6.361142784,1.0005331488109541,165.47683047803287
6.363428352,1.0006224354897226,165.31737443987492
6.365714432,1.000672294307072,165.15692335173136
6.368,1.0006798048818033,164.99603369030396
6.370285568,1.0006443702076555,164.83537185771428
6.372571648,1.0005682580077164,164.67552002649316
6.374857216,1.000456107696859,164.51704669743057
6.377142784,1.0003151549746139,164.36040063413205
6.379428352,1.000154256953832,164.20592855613745
6.381714432,0.9999835589679268,164.05391122799273
6.384,0.999813892496832,163.9043424489671
6.386285568,0.9996559675108173,163.7571867020748
6.388571648,0.9995198026460992,163.6121642693173
6.390857216,0.9994141106854616,163.4689154290561
6.393142784,0.9993455748907075,163.32693849647296
6.395428352,0.9993186097186797,163.1856747228668
6.397714432,0.9993348462297825,163.0445119064779
6.4,0.9993933140408207,162.90278564290082
6.402285568,0.9994904944863308,162.7599430310906
6.404571648,0.9996200051339679,162.6154802377798
6.406857216,0.9997737308534008,162.46893782666314
6.409142784,0.9999418585723882,162.3200830068695
6.411428352,1.0001138943452685,162.16876266799383
6.413714432,1.0002790055342874,162.014982827002
6.416,1.0004266186422932,161.85895041306756
6.418285568,1.0005472607351529,161.70096232418223
6.420571648,1.0006333923425013,161.5414854440539
6.422857216,1.0006796797460056,161.3810615656541
6.425142784,1.000683092606088,161.22025751966285
6.427428352,1.0006432421325182,161.05974622776733
6.429714432,1.0005628057187528,160.90013026415593
6.432,1.0004466770008131,160.74191094276964
6.434285568,1.0003024495399868,160.58560081078014
6.436571648,1.0001389479255725,160.43150387184787
6.438857216,0.9999666511043283,160.27989991591477
6.441142784,0.999796386920215,160.13075142376758
6.443428352,0.9996391228784267,159.98399738349104
6.445714432,0.9995046821439867,159.83938765433038
6.448,0.9994015305062282,159.69653106046508
6.450285568,0.9993364810622012,159.5548854776519
6.452571648,0.9993134158350616,159.41389819110447
6.454857216,0.9993339423018758,159.27294327349446
6.457142784,0.9993969231607487,159.13136443783057
6.459428352,0.9994981018880574,158.98863513088074
6.461714432,0.9996312467070358,158.84417356904333
6.464,0.9997880040646474,158.69766596827495
6.466285568,0.9999582139727063,158.54872085674324
6.468571648,1.000131331381086,158.3973511588438
6.470857216,1.0002961945100588,158.24350510318578
6.473142784,1.0004426102593533,158.08741814786288
6.475428352,1.00056111443392,157.92939203114196
6.477714432,1.0006441764037424,157.76992150676756
6.48,1.00068665233099,157.6095452641936
6.482285568,1.0006858362200215,157.44885690806973
6.484571648,1.0006415612749746,157.2885266045838
6.486857216,1.000556700800904,157.1291011479924
6.489142784,1.0004367478616,156.97120706503787
6.491428352,1.0002891828103648,156.81522770841218
6.493714432,1.000123230143038,156.66155196089764
6.496,0.9999494390365031,156.51033973325056
6.498285568,0.9997788732933129,156.361644446931
6.500571648,0.9996222376009298,156.21534368126254
6.502857216,0.9994894331891583,156.0711505004889
6.505142784,0.9993891619944753,155.92865953200982
6.507428352,0.9993275227585902,155.78734472893467
6.509714432,0.9993085193099701,155.6466619865306
6.512,0.9993334829742002,155.50593124945576
6.514285568,0.9994008771842601,155.36454325409557
6.516571648,0.9995062747684321,155.2218935141368
6.518857216,0.9996430155145746,155.07749398338328
6.521142784,0.9998026892963702,154.93094163641283
6.523428352,0.9999748778689959,154.7820105752249
6.525714432,1.0001488719697558,154.6305656172682
6.528,1.0003137901857604,154.47666389978448
6.530285568,1.0004588113935164,154.32049757088103
6.532571648,1.0005749276328886,154.16245631628348
6.534857216,1.0006548974899212,154.00299575684875
6.537142784,1.0006935528726988,153.84268603926122
6.539428352,1.0006883516753378,153.6821692277095
6.541714432,1.0006397007273244,153.5219922392288
6.544,1.0005504804055136,153.36284910437925
6.546285568,1.0004265003204589,153.2052475366474
6.548571648,1.000275677689744,153.04964690935861
6.550857216,1.000107319118623,152.89637706081038
6.553142784,0.9999320682030963,152.74560399557194
6.555428352,0.9997610423107078,152.59737105933112
6.557714432,0.9996051334419033,152.4515386127308
6.56,0.9994743579212692,152.30777809846433
6.562285568,0.9993768203314238,152.1656660293866
6.564571648,0.9993188213934643,152.02472390393606
6.566857216,0.999304063205328,151.88431479502242
6.569142784,0.9993334905266772,151.74380647402495
6.571428352,0.9994052867008695,151.60259874601198
6.573714432,0.9995148616438367,151.4600651276943
6.576,0.9996553316165744,151.3157080008915
6.578285568,0.9998178848041884,151.16920826226436
6.580571648,0.9999919586250955,151.02020407832978
6.582857216,1.000166937453922,150.86872633536635
6.585142784,1.0003312998157858,150.7147663951323
6.587428352,1.0004749817562943,150.5585570566065
6.589714432,1.0005887387479468,150.40052107953724
6.592,1.0006654138623858,150.24108475041558
6.594285568,1.0006999987721352,150.08085102739497
6.596571648,1.0006904819077358,149.92046538817738
6.598857216,1.000637136712839,149.7605043037762
6.601142784,1.0005437867268498,149.60163208228144
6.603428352,1.0004158517017774,149.4443820339464
6.605714432,1.0002617070470592,149.2891771362435
6.608,1.0000908729654352,149.13632897184036
6.610285568,0.9999142786051456,148.98604253478027
6.612571648,0.999743021235555,148.83825329607515
6.614857216,0.9995880935458382,148.6928950839944
6.617142784,0.9994592392526817,148.54955518104015
6.619428352,0.9993646977726212,148.40786257216206
6.621714432,0.9993104270962202,148.2673109738061
6.624,0.9992998523096416,148.12723118838292
6.626285568,0.9993337851687562,147.98695467804362
6.628571648,0.9994100345450151,147.8458988511566
6.630857216,0.9995238243804008,147.70350006829543
6.633142784,0.9996679376260865,147.55920512587386
6.635428352,0.9998332989224655,147.4126773501059
6.637714432,1.0000093119736801,147.2636913441217
6.64,1.000184981016696,147.1121495694722
6.642285568,1.0003490264852097,146.95814405284756
6.644571648,1.0004911409271922,146.80192289376967
6.646857216,1.00060241111756,146.64387539131894
6.649142784,1.0006756096939173,146.48449221163486
6.651428352,1.0007061760498035,146.32437240657734
6.653714432,1.0006922582324258,146.164121613622
6.656,1.0006345055069814,146.00442071465895
6.658285568,1.0005366417826573,145.84582018127244
6.660571648,1.0004048370086,145.68891939113684
6.662857216,1.0002473083954733,145.53412980532633
6.665142784,1.0000741884294715,145.3817274509032
6.667428352,0.9998963559254351,145.23189360242
6.669714432,0.9997250035819406,145.08460929048985
6.672,0.9995710389167822,144.93969591592818
6.674285568,0.9994442288031178,144.79684554533117
6.676571648,0.9993527952673954,144.65558971951026
6.678857216,0.9993023412469223,144.51538727466536
6.681142784,0.9992961422776294,144.37560033245302
6.683428352,0.9993346530178732,144.23559801133666
6.685714432,0.9994154175139356,144.09473836758343
6.688,0.9995333658555511,143.95244219481455
6.690285568,0.9996810725244963,143.80822799687786
6.692571648,0.9998492275243424,143.66171818705766
6.694857216,1.0000270758495522,143.5126994961029
6.697142784,1.0002032526150446,143.3611288363965
6.699428352,1.0003668282988913,143.20710636959134
6.701714432,1.0005073816135082,143.0508672576981
6.704,1.0006159879693206,142.89281748716587
6.706285568,1.0006857282316404,142.73349890715363
6.708571648,1.000712146318605,142.57349215215115
6.710857216,1.0006936152430372,142.41343547056
6.713142784,1.0006311729124298,142.25396025802038
6.715428352,1.0005289893883964,142.09569262346398
6.717714432,1.0003932152834063,141.93915233883394
6.72,1.0002324713578987,141.78479268789914
6.722285568,1.0000571568455179,141.6328612317498
6.724571648,0.9998779974145238,141.48352003468727
6.726857216,0.999706681491073,141.33672503265743
6.729142784,0.9995538550261504,141.19232896928767
6.731428352,0.9994293057153941,141.0499383903942
6.733714432,0.9993409919282714,140.9091204199944
6.736,0.9992944013277575,140.76927399740862
6.738285568,0.9992925851092896,140.62980060472896
6.740571648,0.9993356805303054,140.4900713936308
6.742857216,0.9994211299486723,140.34939998047386
6.745142784,0.9995433898868602,140.20722192383195
6.747428352,0.9996946636510778,140.0630621600321
6.749714432,0.9998654748561228,139.91658859394624
6.752,1.0000449422578512,139.76755828604178
6.754285568,1.0002217276267997,139.61596179714536
6.756571648,1.0003847426324743,139.46189787546749
6.758857216,1.0005236113169436,139.30565588372164
6.761142784,1.0006293510895252,139.14765733661744
6.763428352,1.0006954623930517,138.98840882774485
6.765714432,1.000717664036726,138.82851465328426
6.768,1.0006945185567184,138.66865705165378
6.770285568,1.000627499496665,138.50944375373058
6.772571648,1.000520781767494,138.35151775703983
6.774857216,1.0003810775328887,138.19535475431164
6.777142784,1.0002173658169597,138.04142810901388
6.779428352,1.0000396823004511,137.8899820097071
6.781714432,0.9998595167789006,137.74113740422624
6.784,0.9996882759001455,137.5948847119654
6.786285568,0.9995366338550934,137.45096412090638
6.788571648,0.9994144399212218,137.30907534722505
6.790857216,0.9993294063344252,137.16866691499348
6.793142784,0.9992867963234096,137.02923268244686
6.795428352,0.9992895377350404,136.89008755420676
6.797714432,0.9993373344346254,136.75060702336793
6.8,0.9994274032078989,136.6101200104529
6.802285568,0.9995538844172116,136.4680725865116
6.804571648,0.9997087323378692,136.3239908169244
6.806857216,0.9998821406310417,136.17753175305066
6.809142784,1.0000632417153503,136.02851254419312
6.811428352,1.0002405737111615,135.8768943291012
6.813714432,1.0004028987682272,135.72281936652504
6.816,1.0005396984942363,135.56655978086633
6.818285568,1.0006426269226099,135.40860651804158
6.820571648,1.0007049733083997,135.2494369358364
6.822857216,1.00072288980026,135.08970191075565
6.825142784,1.0006950982941198,134.93003525918394
6.827428352,1.0006233537501255,134.77110690057083
6.829714432,1.0005121125921488,134.61350963383822
6.832,1.0003685517516756,134.45777115917207
6.834285568,1.00020162559899,134.3043194141422
6.836571648,1.0000218699402927,134.15336774852528
6.838857216,0.9998407406490183,134.00504551741508
6.841142784,0.9996695314355495,133.85929811253052
6.843428352,0.9995194531994683,133.71589853215113
6.845714432,0.9993995889628998,133.5744850551107
6.848,0.9993179032999838,133.43453444194037
6.850285568,0.999279519613061,133.2954934620173
6.852571648,0.9992868172463786,133.15668772790428
6.854857216,0.9993394182716768,133.0174529178928
6.857142784,0.999434035938686,132.87716906322177
6.859428352,0.999564682260102,132.73525194366667
6.861714432,0.9997230235420486,132.5912343475259
6.864,0.9998991582410675,132.4448195160164
6.866285568,1.000081789003017,132.29578114686853
6.868571648,1.0002595281545945,132.1441422611533
6.870857216,1.0004209863298898,131.99006143422076
6.873142784,1.0005558590893973,131.83385287344524
6.875428352,1.000655683283288,131.67590984556682
6.877714432,1.0007142554869162,131.51684779083848
6.88,1.0007277194938948,131.35726247606596
6.882285568,1.0006951692656207,131.19783357284012
6.884571648,1.0006186559701182,131.03919924544869
6.886857216,1.0005030367396157,130.88195331426655
6.889142784,1.0003555094841232,130.72665775764082
6.891428352,1.0001854833331658,130.573635770825
6.893714432,1.000003765348732,130.42320423350463
6.896,0.9998216413867183,130.27540604751115
6.898285568,0.9996508315583639,130.13022523819018
6.900571648,0.9995021399138083,129.98734480320022
6.902857216,0.9993849199795226,129.84641906980283
6.905142784,0.9993066940055749,129.706944262088
6.907428352,0.9992725575735343,129.56827800102528
6.909714432,0.999284547511258,129.4298015765744
6.912,0.9993420052329461,129.29085216794036
6.914285568,0.9994412834057014,129.15074860250593
6.916571648,0.9995761694397882,129.00895476708033
6.918857216,0.9997380666128233,128.86501108172632
6.921142784,0.9999166145582243,128.71862173771433
6.923428352,1.0001008294795888,128.56959507007255
6.925714432,1.000278774243398,128.41797435770937
6.928,1.0004391525762921,128.26387515887725
6.930285568,1.000571967453205,128.1076676101119
6.932571648,1.0006686837916432,127.94979388316179
