freq,mag,phase
6.0,0.9989176281249906,-30.517947104428103
6.01754368,0.9987140659897995,-31.14982249737894
6.035087872,0.9985646719277581,-31.779863147539768
6.052631552,0.9984721365337428,-32.408795536418566
6.070175232,0.9984401543832278,-33.037294198172326
6.087719424,0.9984703171750106,-33.665993245967165
6.105263104,0.9985614358352027,-34.295675979709046
6.122806784,0.9987098650682266,-34.9269640006725
6.140350976,0.9989098579157598,-35.56051928333099
6.157894656,0.9991534644502971,-36.19686665244487
6.175438848,0.9994313623909161,-36.83652685435414
6.192982528,0.9997325384250434,-37.47969532263002
6.210526208,1.000044932930379,-38.12669608661512
6.2280704,1.0003560066449364,-38.77757075622358
6.24561408,1.000654086606655,-39.432163436634006
6.26315776,1.00092678523133,-40.09029613366569
6.280701952,1.0011636114238045,-40.751649631420435
6.298245632,1.001354920985827,-41.415756791673914
6.315789312,1.0014932623236408,-42.082004083827684
6.333333504,1.0015731729644068,-42.74979740606221
6.350877184,1.0015912003724539,-43.41843139087939
6.368420864,1.0015464559453207,-44.08721480649232
6.385965056,1.0014408760112952,-44.755441328063675
6.403508736,1.00127837251999,-45.422465851147436
6.421052416,1.0010650437834325,-46.08762399988455
6.438596608,1.0008095010334412,-46.75038236686835
6.456140288,1.0005216288929317,-47.41033982066968
6.473683968,1.0002126768039123,-48.06720600567369
6.49122816,0.9998948780588149,-48.720757397660634
6.50877184,0.9995806024602595,-49.370990833151104
6.526316032,0.9992827148264527,-50.01798212814324
6.543859712,0.999012587190509,-50.66200369554679
6.561403392,0.998781397440303,-51.30343553103697
6.578947584,0.9985979727285494,-51.9427555852747
6.596491264,0.9984699463970715,-52.5805423240701
6.614034944,0.9984024811923916,-53.217488092723386
6.631579136,0.9983983463930497,-53.854329493139474
6.649122816,0.9984576678044729,-54.49173818702504
6.666666496,0.9985785382765737,-55.13044830426497
6.684210688,0.9987561594997638,-55.77114048912096
6.701754368,0.998983355586051,-56.41447737446838
6.719298048,0.9992516556716357,-57.06093290513061
6.73684224,0.999550028261889,-57.71090821701515
6.75438592,0.9998670223042011,-58.36474300480616
6.7719296,1.0001901456919564,-59.022452063204994
6.789473792,1.0005064497382814,-59.68420798053588
6.807017472,1.0008036299360663,-60.34970860845472
6.824561152,1.0010697561017283,-61.01878637699251
6.842105344,1.0012944411303724,-61.6909569800181
6.859649024,1.0014685771364806,-62.36569240248245
6.877193216,1.0015852947046564,-63.04242102618196
6.894736896,1.001640104896526,-63.72044142664609
6.912280576,1.001630310570083,-64.39905247936986
6.929824768,1.001556416382612,-65.07753283945794
6.947368448,1.0014211096261567,-65.75512173797
6.964912128,1.0012297709131777,-66.43115961769062
6.98245632,1.0009895172835526,-67.10509068745024
7.0,1.0007099287815082,-67.77637067348523
7.01754368,1.0004017901298379,-68.44459747517394
7.035087872,1.0000773517685977,-69.10953985017875
7.052631552,0.9997492693715733,-69.77106051583038
7.070175232,0.9994306159239554,-70.42919270040501
7.087719424,0.9991337514931997,-71.08407536681712
7.105263104,0.9988706511482934,-71.7360950299931
7.122806784,0.9986517844068438,-72.3856060741315
7.140350976,0.9984860036486212,-73.03323506368376
7.157894656,0.9983799793511453,-73.67960152645551
7.175438848,0.9983378316065834,-74.32540137518447
7.192982528,0.998361662653228,-74.97138536362495
7.210526208,0.9984503824017087,-75.61831170107799
7.2280704,0.9986008858819984,-76.26692833531578
7.24561408,0.9988073031581077,-76.91786135030094
7.26315776,0.9990612214082046,-77.5717744078545
7.280701952,0.9993532895787833,-78.22909713740506
7.298245632,0.9996716273386821,-78.89022937474606
7.315789312,1.0000036791911808,-79.55541503529227
7.333333504,1.0003366010800094,-80.22472173188582
7.350877184,1.0006571172334033,-80.89806766995738
7.368420864,1.0009526413383096,-81.57528332775256
7.385965056,1.0012113735693593,-82.25597106772528
7.403508736,1.0014232369294678,-82.93969961158105
7.421052416,1.001579654350781,-83.62586685797153
7.438596608,1.0016744760204965,-84.3138035245754
7.456140288,1.0017036637560344,-85.00279386873721
7.473683968,1.0016660289238821,-85.69209403166647
7.49122816,1.0015628263101934,-86.38092832070248
7.50877184,1.0013982179618584,-87.06858690167059
7.526316032,1.001178091990107,-87.75441458648937
7.543859712,1.0009114240852799,-88.43783851667278
7.561403392,1.0006081788869032,-89.1183244117638
7.578947584,1.0002805490692284,-89.79555883027368
7.596491264,0.9999410978154031,-90.46931352461677
7.614034944,0.9996033876975063,-91.13956847369575
7.631579136,0.9992805074907783,-91.80633546923488
7.649122816,0.9989855419356503,-92.46989820126835
7.666666496,0.9987300143361187,-93.1306268143139
7.684210688,0.9985241802336854,-93.78904618536446
7.701754368,0.9983763561361446,-94.44570731846161
7.719298048,0.9982924513844024,-95.10140838779957
7.73684224,0.9982759856593713,-95.75679489779417
7.75438592,0.9983277525786953,-96.41276058022527
7.7719296,0.9984459446232696,-97.06998012931625
7.789473792,0.9986259574884467,-97.729206253928
7.807017472,0.9988608800729822,-98.39113376338778
7.824561152,0.9991414572647311,-99.05639360666142
7.842105344,0.9994568076709753,-99.72535855491031
7.859649024,0.9997946003342981,-100.3983838551197
7.877193216,1.0001414482877125,-101.07568744952451
7.894736896,1.0004837646060585,-101.75726440452038
7.912280576,1.000808095644335,-102.44299259687828
7.929824768,1.00110163363859,-103.13259895260627
7.947368448,1.001352832976596,-103.82565802517182
7.964912128,1.0015516100018786,-104.52163230693799
7.98245632,1.0016899622250952,-105.2198973376795
8.0,1.0017625608448506,-105.91975134509678
8.01754368,1.0017662508930765,-106.62039994827394
8.035087872,1.0017007374164988,-107.32109349834509
8.052631552,1.001568243435265,-108.02100406822116
8.070175232,1.0013741435440053,-108.71945303539651
8.087719424,1.0011256543983105,-109.41576176095678
8.105263104,1.0008323094279932,-110.10935584474908
8.122806784,1.000505654881125,-110.79978729247354
8.140350976,1.0001584195547253,-111.48670506845544
8.157894656,0.9998041583799423,-112.17000952377168
8.175438848,0.9994568327968856,-112.8496573291711
8.192982528,0.999130197360459,-113.52577475127715
8.210526208,0.9988370049713282,-114.19869951318167
8.2280704,0.998589050324421,-114.86886378206421
8.24561408,0.9983963207609529,-115.53684156130757
8.26315776,0.9982664121083948,-116.20330777250037
8.280701952,0.9982047954793094,-116.86898104729741
8.298245632,0.9982138975248431,-117.53472414472922
8.315789312,0.9982938242289361,-118.20125361481847
8.333333504,0.998441395914165,-118.86945944387811
8.350877184,0.9986509212748267,-119.54003938996992
8.368420864,0.9989144648961797,-120.21368302704482
8.385965056,0.9992218274394642,-120.89089930950337
8.403508736,0.9995607373219262,-121.57220469689895
8.421052416,0.9999181558218994,-122.25783367772797
8.438596608,1.000279965904461,-122.9479122913155
8.456140288,1.000631933843728,-123.64242148448618
8.473683968,1.0009602987259414,-124.34121431211462
8.49122816,1.0012520839279049,-125.04387544690265
8.50877184,1.0014957773818367,-125.7499849909608
8.526316032,1.0016815955428982,-126.45893515171035
8.543859712,1.0018021921668623,-127.17001147380712
8.561403392,1.0018526026011318,-127.88246148218465
8.578947584,1.0018308265495526,-128.59545972505285
8.596491264,1.0017373211728415,-129.30821183268392
8.614035456,1.0015755917532916,-130.0199079141952
8.631578624,1.0013517328662116,-130.72979018100915
8.649122816,1.001074417515173,-131.4372505107206
8.666667008,1.0007542875427302,-132.1417041952892
8.684210176,1.000403731261664,-132.8427312004928
8.701754368,1.0000364681477267,-133.5400275526007
8.71929856,0.9996668690456109,-134.23351349001436
8.736841728,0.9993094615448042,-134.92320102431265
8.75438592,0.9989782739524701,-135.60933223189
8.771930112,0.9986864531803835,-136.29224718747963
8.78947328,0.9984456813509468,-136.97248117778548
8.807017472,0.9982655417390162,-137.65065656918927
8.824561664,0.9981533890055664,-138.32746967748767
8.842104832,0.9981138358518379,-139.00379597706743
8.859649024,0.9981486244031857,-139.6804149652958
8.877193216,0.9982565742735873,-140.35820019321935
8.894736384,0.9984338207547427,-141.03797315846427
8.912280576,0.9986734451226926,-141.72048130644498
8.929824768,0.9989661743289976,-142.40641339842736
8.947367936,0.9993006541115069,-143.09626925476064
8.964912128,0.9996639493948388,-143.790486921922
8.98245632,1.0000418498108556,-144.48930137142756
8.999999488,1.0004194637109012,-145.19280842605593
9.01754368,1.0007820608765612,-145.90095006478236
9.035087872,1.0011153524353724,-146.61340616757604
9.052632064,1.0014061717074492,-147.32980874955027
9.070175232,1.0016431106271482,-148.0496270501999
9.087719424,1.0018166250918574,-148.7722039206954
9.105263616,1.0019198290411884,-149.49674912659424
9.122806784,1.0019483803390201,-150.22248745816694
9.140350976,1.0019010924630476,-150.94850733350046
9.157895168,1.0017794101453785,-151.67402289199237
9.175438336,1.0015879245195383,-152.39817357351583
9.192982528,1.0013337682507386,-153.12021346909287
9.21052672,1.0010268322214015,-153.8394911604303
9.228069888,1.0006787280970548,-154.55544279122998
9.24561408,1.0003031163144909,-155.2676976214746
9.263158272,0.999914549873943,-155.9759974519191
9.28070144,0.9995282246704998,-156.68026366745073
9.298245632,0.9991592467215383,-157.3806374932928
9.315789824,0.9988222658766657,-158.07731373983162
9.333332992,0.9985305698742482,-158.7708019688443
9.350877184,0.9982957569928814,-159.46163635703323
9.368421376,0.9981274613005063,-160.1505032227331
9.385964544,0.9980323181452861,-160.83820819323645
9.403508736,0.9980144206803926,-161.52567531205904
9.421052928,0.9980748511093862,-162.2137278928352
9.438596096,0.9982111801021945,-162.90322141413776
9.456140288,0.9984186299188773,-163.59510372817073
9.47368448,0.9986891830705694,-164.29005787471112
9.491227648,0.9990122694466875,-164.98879694368605
9.50877184,0.9993755862326132,-165.69178574632448
9.526316032,0.9997648786233689,-166.39948324098262
9.5438592,1.0001649964271995,-167.11208193071673
9.561403392,1.0005602538490521,-167.82959555592566
9.578947584,1.0009352499542041,-168.55191292476277
9.596490752,1.0012751846970236,-169.27870778363368
9.614034944,1.0015667525596141,-170.00949261832955
9.631579136,1.001798356538778,-170.74369687482587
9.649122304,1.0019607086086668,-171.4805673651256
9.666666496,1.0020474080609145,-172.21929687238847
9.684210688,1.0020546087725013,-172.958986961757
9.70175488,1.0019817012801926,-173.69877968134978
9.719298048,1.0018315287505586,-174.43773688230618
9.73684224,1.001609376571074,-175.17504191342888
9.754386432,1.0013236893262845,-175.9099125599587
9.7719296,1.0009854396635516,-176.64167204404515
9.789473792,1.0006075510039651,-177.36981293767295
9.807017984,1.0002046036726857,-178.09393917887087
9.824561152,0.9997924802814381,-178.81383933551334
9.842105344,0.9993869271743179,-179.52949010236608
9.859649536,0.9990040860542505,179.7589436634507
9.877192704,0.9986589824293421,179.05114930116483
9.894736896,0.9983653161606362,178.3466105608333
9.912281088,0.9981349547368912,177.644724560405
9.929824256,0.997976911355261,176.94466214388535
9.947368448,0.9978978024852891,176.24559753072964
9.96491264,0.9979012760207602,175.54659689499746
9.982455808,0.997987208008974,174.84670266825384
10.0,0.9981527227850056,174.14500478809302
10.017544192,0.9983915647468833,173.4406218349204
10.03508736,0.9986947199452894,172.73277524000795
10.052631552,0.9990503592706781,172.02078123916107
10.070175744,0.9994448264451765,171.30410426441574
10.087718912,0.9998629419603882,170.58239376688073
10.105263104,1.0002882107158384,169.85545723926003
10.122807296,1.0007042094704615,169.12332484883896
10.140350464,1.0010946165780867,168.38618004360373
10.157894656,1.0014441034914678,167.6443916044993
10.175438848,1.0017389257722171,166.89849170776102
10.192982016,1.0019672984040455,166.14919972952458
10.210526208,1.0021202124096948,165.397263695623
10.2280704,1.0021913085633387,164.6435877692191
10.245613568,1.0021776199567365,163.88911768931692
10.26315776,1.0020789928052747,163.13479981721989
10.280701952,1.001899202159828,162.38157179676665
10.29824512,1.0016448577296047,161.6303319489072
10.315789312,1.0013255216851376,160.88187949465333
10.333333504,1.0009532367002314,160.13686246725143
10.350877696,1.0005423277592083,159.39582902144485
10.368420864,1.000108648209847,158.6591616411034
10.385965056,0.99966899499541,157.92702375086805
10.403509248,0.9992406163273881,157.19937944168464
10.421052416,0.9988401360177351,156.47607486906978
10.438596608,0.9984833224037987,155.75664300722372
10.4561408,0.9981846478106449,155.04058529373287
10.473683968,0.9979558576327188,154.3271483027921
10.49122816,0.9978063001977029,153.61547827484466
10.508772352,0.9977421341912899,152.90466169337446
10.52631552,0.9977664247121796,152.19369634760045
10.543859712,0.9978784281494418,151.48155925116444
10.561403904,0.9980743126409132,150.7672968287358
10.578947072,0.9983465444844116,150.0499712226206
10.596491264,0.9986850145711746,149.32875034700658
10.614035456,0.9990766805934689,148.60295269946704
10.631578624,0.9995064606991894,147.87207918757863
10.649122816,0.9999575722166195,147.1357609565859
10.666667008,1.0004127444020134,146.39385467161293
10.684210176,1.000854110978126,145.64641205317866
10.701754368,1.00126443894302,144.8936561140475
10.71929856,1.0016275884401953,144.1360612600835
10.736841728,1.0019293417187507,143.37422731510938
10.75438592,1.002157667548243,142.6088980945697
10.771930112,1.0023033745942753,141.8409354949139
10.78947328,1.0023602733657853,141.07132984835948
10.807017472,1.0023258704547182,140.3010734694863
10.824561664,1.0022010440017586,139.53120313041535
10.842104832,1.0019901588569196,138.76271134777707
10.859649024,1.001701138909923,137.9965360099057
10.877193216,1.0013444904704398,137.23351614939125
10.894736384,1.0009338679063484,136.47432359165575
10.912280576,1.0004850420637872,135.71952544901225
10.929824768,1.0000152136288196,134.9694479514625
10.947367936,0.9995425862695995,134.22427542845867
10.964912128,0.9990854873097929,133.4839189129745
10.98245632,0.9986619801181755,132.7481566339309
11.000000512,0.9982887081448671,132.01652124121108
11.01754368,0.9979804780345756,131.2883293391374
11.035087872,0.9977498135636764,130.56282080535075
11.052632064,0.9976061028954155,129.8390568966489
11.070175232,0.9975554233428051,129.11600546291734
11.087719424,0.9976001679433201,128.39258097186288
11.105263616,0.9977392557304254,127.6677193353112
11.122806784,0.9979676042157725,126.94034808197006
11.140350976,0.9982766798996067,126.20950536835804
11.157895168,0.9986549413101451,125.47432399735767
11.175438336,0.9990878743022318,124.73409633187626
11.192982528,0.9995588506198958,123.98827033811465
11.21052672,1.0000496897540148,123.23651739311454
11.228069888,1.0005414130152508,122.47871465597014
11.24561408,1.001014893227607,121.71495941685154
11.263158272,1.0014516373746376,120.94552956661114
11.28070144,1.0018344721689862,120.17093615579377
11.298245632,1.0021482638249037,119.39188036458626
11.315789824,1.0023805873401685,118.60921079747432
11.333332992,1.0025219151207037,117.82385537146062
11.350877184,1.0025663064007835,117.03690429853917
11.368421376,1.0025114261648342,116.24943934751151
11.385964544,1.0023590377997593,115.46252432977876
11.403508736,1.0021143148496936,114.67730850496545
11.421052928,1.0017862824257548,113.894776015218
11.438596096,1.0013869274478002,113.11577226437225
11.456140288,1.0009316709888205,112.34103867624667
11.47368448,1.0004375928716758,111.57116108975364
11.491227648,0.9999236464119623,110.80646012977009
11.50877184,0.9994097725497337,110.04707311517947
11.526316032,0.9989159764798501,109.2929299058084
11.5438592,0.9984615003303297,108.54372442283552
11.561403392,0.9980644438899625,107.7988778770933
11.578947584,0.9977407095882376,107.05770414279957
11.596490752,0.9975032285925045,106.31931746953322
11.614034944,0.9973618569771461,105.58265069766469
11.631579136,0.9973227382266994,104.84657816700405
11.649122304,0.9973881806763251,104.10993937869218
11.666666496,0.9975559678174707,103.37152275923287
11.684210688,0.9978203361412612,102.63018729785922
11.70175488,0.9981714618093336,101.88492695629478
11.719298048,0.9985961621193465,101.13478244065774
11.73684224,0.9990783000749452,100.37898889328787
11.754386432,0.9995994852050025,99.61696957547093
11.7719296,1.000139521636989,98.84844110067321
11.789473792,1.0006777715611344,98.07322633580907
11.807017984,1.001193135547038,97.29152697931714
11.824561152,1.0016656031506652,96.50364890290385
11.842105344,1.0020765221453696,95.71019010473971
11.859649536,1.002409621555332,94.9119207652474
11.877192704,1.0026516640128196,94.10976148505144
11.894736896,1.0027926535157659,93.30482168516541
11.912281088,1.0028264741641626,92.49820695489333
11.929824256,1.0027512388427942,91.69119379940473
11.947368448,1.0025688521082041,90.88493336052103
11.96491264,1.0022859965874038,90.0806492108015
11.982455808,1.0019125656518388,89.2793668723744
12.0,1.0014625651780882,88.48209930652617
12.017544192,1.0009527870803536,87.68961494407297
12.03508736,1.0004025689534657,86.90249412314463
12.052631552,0.999832919075988,86.12109956592903
12.070175744,0.99926584453209,85.3455565030281
12.087718912,0.9987233831364511,84.575742371535
12.105263104,0.9982267178886477,83.81132759897626
12.122807296,0.9977956296937986,83.05162205051666
12.140350464,0.997447414552459,82.29585979342393
12.157894656,0.9971961678121088,81.5430190539189
12.175438848,0.9970524531841145,80.79193025631342
12.192982016,0.9970227300871731,80.0413513546811
12.210526208,0.9971088492247373,79.28995020092667
12.2280704,0.9973082857938154,78.53642585989896
12.245613568,0.9976141981377947,77.7795017696963
12.26315776,0.998015201268277,77.01802132054037
12.280701952,0.9984964901942731,76.25096566621683
12.29824512,0.9990398495609695,75.4775237265908
12.315789312,0.9996244946577264,74.69708064013767
12.333333504,1.000228171889239,73.90926932410113
12.350877696,1.0008274258600693,73.11400247902631
12.368420864,1.0013991234430348,72.31142639122558
12.385965056,1.0019209188574372,71.50198672415063
12.403509248,1.002372419691585,70.68632406608711
12.421052416,1.0027355513775305,69.86531498583047
12.438596608,1.0029957725261214,69.04000856502212
12.4561408,1.0031420723112374,68.21162134021453
12.473683968,1.0031681636492384,67.38143445058533
12.49122816,1.0030720625534566,66.55081340040138
12.508772352,1.002856488373492,65.72111325175406
12.52631552,1.0025286988824933,64.8936192427425
12.543859712,1.0021003961525548,64.06953809228801
12.561403904,1.0015873367728934,63.24994226501792
12.578947072,1.0010085440834613,62.43569238098718
12.596491264,1.0003858901265719,61.62745091427182
12.614035456,0.9997430231886621,60.8255760116228
12.631578624,0.9991046001112429,60.03024021225754
12.649122816,0.9984954882568793,59.24126293475255
12.666667008,0.9979396062443457,58.45821612723568
12.684210176,0.9974589812561777,57.680399966350066
12.701754368,0.9970730559567905,56.906875535430856
12.71929856,0.9967975922213202,56.13646863258123
12.736841728,0.9966443167986271,55.3678987113616
12.75438592,0.9966203003693823,54.599705648514266
12.771930112,0.9967276160349857,53.83041509548436
12.78947328,0.9969630872524926,53.058506011813904
12.807017472,0.9973186924823461,52.28257748889755
12.824561664,0.9977817353823776,51.50130689197505
12.842104832,0.9983349315091187,50.71352589610796
12.859649024,0.9989575337465727,49.91830711687734
12.877193216,0.9996261250417618,49.115004958690484
12.894736384,1.0003150315051925,48.30317017037036
12.912280576,1.0009978737442669,47.48271542472977
12.929824768,1.0016482514130813,46.65382599472649
12.947367936,1.002240652655589,45.81698131151896
12.964912128,1.0027519889480223,44.97293413608208
12.98245632,1.003161638241803,44.122678767723485
12.999999488,1.0034531011847532,43.26741225536458
