freq,mag,phase
6.0,0.9998169122746707,118.84202878169776
6.002287616,0.9994573967549917,118.68772126447011
6.004575232,0.9991316495574629,118.53839683178818
6.006862848,0.9988610750785899,118.39349232226355
6.009150464,0.9986627821554501,118.25203435341771
6.011438592,0.9985495657464334,118.1128789976002
6.013726208,0.9985285840196527,117.9747308062556
6.016013824,0.9986010878907919,117.83626860663885
6.01830144,0.9987625593668715,117.69610566271416
6.020589056,0.9990029620457247,117.5530709730599
6.022876672,0.9993068598615928,117.40608957258526
6.025164288,0.9996551620848235,117.25441125316111
6.027451904,1.0000255312016075,117.09755471558462
6.029740032,1.000394795350282,116.93532563412043
6.032027648,1.0007393847618962,116.76797743851193
6.034315264,1.0010377190820583,116.59599224250002
6.03660288,1.0012708415584788,116.42018507168007
6.038890496,1.0014241011050955,116.24161132839698
6.041178112,1.0014876080306645,116.06148548990878
6.043465728,1.0014576094320478,115.88117489122675
6.045753344,1.0013356085287781,115.70198153558691
6.04804096,1.0011297171175464,115.52518917748006
6.050329088,1.000852351123746,115.35191791307267
6.052616704,1.0005216183577197,115.18309820242204
6.05490432,1.0001578181686186,115.01931263681715
6.057191936,0.9997842902922907,114.86094612732377
6.059479552,0.999424567209133,114.70794761956911
6.061767168,0.9991013278649671,114.55994675346365
6.064054784,0.9988352889159827,114.41625973993206
6.0663424,0.9986432866215585,114.27593423931415
6.068630016,0.9985375086550194,114.13785897059856
6.070918144,0.99852474340808,114.00064393693346
6.07320576,0.9986058100649018,113.86300174640245
6.075493376,0.9987756230859166,113.72355193517582
6.077780992,0.9990233901756859,113.58109715746485
6.080068608,0.9993334378911564,113.43460399266507
6.082356224,0.9996861327716235,113.28330803950284
6.08464384,1.0000590697583283,113.12678929161149
6.086931456,1.0004287646917787,112.96489216560978
6.089219584,1.0007715939175101,112.79788574114016
6.0915072,1.0010661637412017,112.6262879351028
6.093794816,1.0012937344570374,112.45091709168962
6.096082432,1.0014398816461068,112.2728414203473
6.098370048,1.0014954020827211,112.09338574632486
6.100657664,1.0014567764681623,111.91381206657718
6.10294528,1.001326433290716,111.735500072825
6.105232896,1.0011125713658537,111.55970043260301
6.107520512,1.0008285288885599,111.38752667360295
6.10980864,1.0004922226455746,111.21989857359009
6.112096256,1.0001250639901766,111.0573844595628
6.114383872,0.9997500891495339,110.90028069047365
6.116671488,0.9993909708369788,110.74857599412574
6.118959104,0.9990707805845799,110.60184699396389
6.12124672,0.9988094392906105,110.45934894809298
6.123534336,0.9986240076438332,110.32019531803624
6.125821952,0.9985259069413781,110.18310660083424
6.128109568,0.998521591821818,110.04682013151321
6.130397696,0.9986113991579878,109.90993677746792
6.132685312,0.9987895522347243,109.77113646925335
6.134972928,0.9990447726638632,109.62920397782024
6.137260544,0.999360940376951,109.4831551452192
6.13954816,0.9997180300479476,109.33221715678884
6.141835776,1.000093439742832,109.17598737396497
6.144123392,1.0004632907563749,109.01439701459749
6.146411008,1.0008042548394565,108.84765836034276
6.148699136,1.001094762617589,108.67640612087307
6.150986752,1.0013164439537634,108.50142660187808
6.153274368,1.0014553590295971,108.32390328676289
6.155561984,1.0015026397299005,108.14502794346531
6.1578496,1.0014552535125025,107.96618705351761
6.160137216,1.0013162974453742,107.78871831268518
6.162424832,1.0010944186821766,107.61392285985188
6.164712448,1.000803513083834,107.44281944703387
6.167000064,1.0004619268470123,107.2763311399129
6.169288192,1.0000913107974314,107.11506855944823
6.171575808,0.9997151048002488,106.95927551064526
6.173863424,0.9993570177531987,106.80881733234952
6.17615104,0.9990398254882009,106.6633012510508
6.178438656,0.9987837127362096,106.52201949195077
6.180726272,0.9986049082899539,106.3839347215239
6.183013888,0.9985148162767172,106.2478117755065
6.185301504,0.9985192141014165,106.11238171068757
6.18758912,0.9986178445173955,105.97624429190581
6.189877248,0.9988045030567283,105.8380400688232
6.192164864,0.9990673020553827,105.69660282261717
6.19445248,0.9993895499830742,105.5509396880255
6.196740096,0.9997509232130795,105.4003095545453
6.199027712,1.0001285381895553,105.24435056597893
6.201315328,1.0004984825679981,105.08301260589941
6.203602944,1.0008371920588737,104.91652188534509
6.20589056,1.0011234067834138,104.74553942538724
6.208178688,1.0013390555849395,104.5709492126132
6.210466304,1.0014704808435853,104.39384758764453
6.21275392,1.0015093183871284,104.21558108726781
6.215041536,1.0014530929852596,104.03745596760999
6.217329152,1.001305350675004,103.86084487042687
6.219616768,1.0010753239934829,103.6869741573734
6.221904384,1.0007774326938732,103.51696013440453
6.224192,1.000430704889968,103.35163461725307
6.226479616,1.0000569310709748,103.19156976187962
6.228767744,0.9996794436858829,103.03701566531613
6.23105536,0.9993226186020191,102.8877996953978
6.233342976,0.9990088710485987,102.7434837767167
6.235630592,0.9987581514626328,102.60335897877285
6.237918208,0.9985862664039478,102.46631059107136
6.240205824,0.9985044378854545,102.33117583181149
6.24249344,0.998517694600531,102.19655654317901
6.244781056,0.9986253900349059,102.06107424828343
6.247068672,0.9988204970183507,101.92342494507443
6.2493568,0.9990908526145585,101.78241918681576
6.251644416,0.9994193385720201,101.63708394506583
6.253932032,0.9997848693137968,101.48672436284632
6.256219648,1.0001645053524195,101.33096535401359
6.258507264,1.0005342887276156,101.16979915559862
6.26079488,1.0008706563286096,101.00352410478335
6.263082496,1.0011521970022699,100.83283943399566
6.265370112,1.0013615302721222,100.6585847961243
6.26765824,1.0014851062528092,100.48195911936892
6.269945856,1.001515307477618,100.30420918550135
6.272233472,1.0014499513717041,100.1268130908902
6.274521088,1.0012933781307067,99.9509546397112
6.276808704,1.0010551452715595,99.77805364221423
6.27909632,1.0007505297299801,99.60908021627874
6.281383936,1.0003985658631542,99.44490042881445
6.283671552,1.000021617433129,99.28600919651899
6.285959168,0.9996433674362849,99.13266083899862
6.288247296,0.9992879211745043,98.98467305008484
6.290534912,0.9989777396742989,98.84153790491047
6.292822528,0.9987325999832442,98.70250145530314
6.295110144,0.9985681357039682,98.5664701661724
6.29739776,0.998494570905822,98.43221704697021
6.299685376,0.9985169518214402,98.29836729071233
6.301972992,0.9986337183643228,98.16353653248379
6.304260608,0.9988375004064732,98.02638076627659
6.306548224,0.9991155842953812,97.88576220417202
6.308836352,0.9994499234462019,97.74071360954612
6.311123968,0.9998196022917523,97.5905477987408
6.313411584,1.0002011506100728,97.43496265452337
6.3156992,1.000570442492443,97.27395657045993
6.317986816,1.0009040956177442,97.10786754821058
6.320274432,1.0011809881793925,96.9373655633927
6.322562048,1.00138360249905,96.76342370754817
6.324849664,1.00149921704736,96.58721408498192
6.327137792,1.00152035906859,96.41004003278957
6.329425408,1.0014459289445627,96.23326246050331
6.331713024,1.0012802934902787,96.05821535533448
6.33400064,1.0010339238695085,95.8862270586405
6.336288256,1.0007223442339035,95.71825840570459
6.338575872,1.0003654710420031,95.55519500472919
6.340863488,0.9999854153310151,95.39747792092976
6.343151104,0.9996065372136523,95.24532499766427
6.34543872,0.9992527193003685,95.09851744798443
6.347726848,0.998946529714663,94.95652992266939
6.350014464,0.9987072778645699,94.81858750612686
6.35230208,0.9985501934275736,94.68351694063118
6.354589696,0.9984854624359514,94.55011720911683
6.356877312,0.9985171082713369,94.41699325336226
6.359164928,0.9986431547184738,94.28274189259453
6.361452544,0.9988556941488285,94.14604732610611
6.36374016,0.9991412496150219,94.00573863455999
6.366027776,0.9994816239974255,93.86091515615225
6.368315904,0.999855326434513,93.71092508962252
6.37060352,1.000238538348517,93.55546902332249
6.372891136,1.000607202043792,93.39455390073547
6.375178752,1.000937919550106,93.22856958285466
6.377466368,1.0012096996111666,93.05828596141727
6.379753984,1.001405366813757,92.88461248253746
6.3820416,1.0015126690292615,92.70877323545066
6.384329216,1.001524792639182,92.53209825520781
6.386617344,1.0014408662576593,92.35595051486503
6.38890496,1.001266043587124,92.18169352220234
6.391192576,1.0010115576828762,92.01058410135343
6.393480192,1.0006932465998943,91.843633161821
6.395767808,1.0003312384082947,91.6816599752435
6.398055424,0.9999484823322651,91.52508044263107
6.40034304,0.9995690756728802,91.37406830744827
6.402630656,0.9992173294886181,91.22843932357277
6.404918272,0.9989151935920523,91.08754988998848
6.4072064,0.9986820888164012,90.9506265251614
6.409494016,0.9985328393643207,90.81652374568044
6.411781632,0.9984770055984071,90.6839165983874
6.414069248,0.9985181026380097,90.55144330411326
6.416356864,0.9986536675440535,90.41772691549687
6.41864448,0.9988749729223303,90.28144218366555
6.420932096,0.9991681020464782,90.14142767401023
6.423219712,0.9995143429351567,89.99677759790617
6.425507328,0.9998918708507591,89.84689385711154
6.427795456,1.0002766426670653,89.69147977016948
6.430083072,1.0006445264868418,89.53061195709961
6.432370688,1.0009719203788392,89.36476610565708
6.434658304,1.001238321973454,89.19459631088897
6.43694592,1.0014269103303446,89.0211940073321
6.439233536,1.0015257556789159,88.84567829283691
6.441521152,1.0015285230463442,88.6694775732453
6.443808768,1.0014349136930163,88.49395769539443
6.446096896,1.0012510321062054,88.32044141278357
6.448384512,1.0009882232885035,88.15019191853503
6.450672128,1.0006630947291952,87.9842318582722
6.452959744,1.0002962001150733,87.82328764807109
6.45524736,0.9999108290406156,87.66785434600291
6.457534976,0.9995312032677736,87.51798732525903
6.459822592,0.9991813873205482,87.37345384672805
6.462110208,0.9988837908534886,87.23367183618808
6.464397824,0.9986572605128273,87.09771641536605
6.466685952,0.9985160182095573,86.9644994411057
6.468973568,0.9984693708085406,86.83265886320142
6.471261184,0.9985201085828704,86.70083123818662
6.4735488,0.9986651536896515,86.56759731019298
6.475836416,0.9988952853283576,86.43163570266105
6.478124032,0.9991958963344193,86.29183272879217
6.480411648,0.9995481164183578,86.14731234632943
6.482699264,0.9999291904691023,85.99748165155086
6.48498688,1.0003153939829563,85.84208840294374
6.487275008,1.0006820830311967,85.68125976905523
6.489562624,1.0010060348269012,85.51542490985311
6.49185024,1.0012668418575952,85.3453692897909
6.494137856,1.0014478913445541,85.1721509081601
6.496425472,1.0015379619001246,84.99698213569864
6.498713088,1.0015312555428648,84.82121964525228
6.501000704,1.0014278993374768,84.64629237409137
6.50328832,1.0012347434605418,84.47350796570107
6.505576448,1.00096363140931,84.30411184734982
6.507864064,1.0006317998277101,84.13908476429225
6.51015168,1.000260261543009,83.97919048755506
6.512439296,0.9998724101423135,83.82483197911723
6.514726912,0.9994927992034216,83.67608145355926
6.517014528,0.9991454274694631,83.53264700777768
6.519302144,0.9988525422738597,83.39387816713506
6.52158976,0.9986327171480538,83.25891452557299
6.523877376,0.9984998318872937,83.12652717226952
6.526165504,0.9984624577104513,82.99537701345498
6.52845312,0.9985230245808264,82.86409782094641
6.530740736,0.9986777448222565,82.73130228606114
6.533028352,0.9989166971760748,82.5956516618015
6.535315968,0.9992249203335727,82.4560034663454
6.537603584,0.9995827118395612,82.31154982617458
6.5398912,0.9999673524174414,82.16172126676986
6.542178816,1.0003546716974554,82.00628742410068
6.544466432,1.0007199992390907,81.84542532113154
6.54675456,1.0010401649807614,81.67960169957952
6.549042176,1.001295026813889,81.50964933530283
6.551329792,1.0014685064710382,81.33658877495083
6.553617408,1.0015495771158194,81.16168940805566
6.555905024,1.0015329888115503,80.98635922289837
6.55819264,1.0014199181941232,80.81197014746456
6.560480256,1.0012173617994957,80.63989038680045
6.562767872,1.000938012984348,80.47130871217765
6.565056,1.0005995951438802,80.3072397337616
6.567343616,1.000223410660407,80.14836740050158
6.569631232,0.9998332968685254,79.99504306738083
6.571918848,0.999453922620934,79.84739408037223
6.574206464,0.9991092842710134,79.70499284106374
6.57649408,0.9988214378172953,79.5672296950599
6.578781696,0.9986084208659537,79.43315735656475
6.581069312,0.9984841979809754,79.3015776135209
6.583356928,0.9984564563453349,79.17109338767013
6.585645056,0.9985269583363575,79.04033464894668
6.587932672,0.9986914285572981,78.90789794174268
6.590220288,0.9989393113900162,78.77248713945559
6.592507904,0.9992549410096208,78.63297154923863
6.59479552,0.9996182650647454,78.48851492853143
6.597083136,1.000006360591655,78.33864317891113
6.599370752,1.0003945153724012,78.18310791167151
6.601658368,1.0007581669960435,78.02216907897284
6.603945984,1.0010743792871077,77.85631242932067
6.606234112,1.0013230825324058,77.68638702313865
6.608521728,1.001488630645523,77.51344523059774
6.610809344,1.0015604884048777,77.3388191063863
6.61309696,1.0015340252775267,77.16388958468872
6.615384576,1.0014109337045338,76.99004536702793
6.617672192,1.0011989812332929,76.81863051695883
6.619959808,1.0009114458927595,76.65085530898382
6.622247424,1.0005664625149897,76.48769093118528
6.624535552,1.000185866368911,76.32978753610675
6.626823168,0.9997936801133822,76.17753518920162
6.629110784,0.9994146996059702,76.0308966340218
6.6313984,0.9990730448337802,75.88952083410241
6.633686016,0.9987903523846643,75.75270544840312
6.635973632,0.9985847843162962,75.61952028473021
6.638261248,0.9984692888668067,75.48866588289496
6.640548864,0.998451285408435,75.35878365683432
6.64283648,0.998531861762703,75.22849499603231
6.645124608,0.9987060690237869,75.09638868159183
6.647412224,0.9989629107211767,74.96111515218705
6.64969984,0.9992860003651597,74.821648471049
6.651987456,0.9996548485515196,74.67719538622339
6.654275072,1.0000460286526383,74.5271982317765
6.656562688,1.0004347675490373,74.37155419345851
6.658850304,1.0007965390089584,74.21048168723159
6.66113792,1.0011085049392379,74.04454884305858
6.663426048,1.0013507335390963,73.87458499261172
6.665713664,1.0015080331600235,73.70178182305155
6.66800128,1.0015704526079368,73.52737524727151
6.670288896,1.0015338468124422,73.35281216086855
6.672576512,1.001400751170147,73.17947377408247
6.674864128,1.0011794330851764,73.0087122999398
6.677151744,1.0008836430063766,72.84170955857972
6.67943936,1.0005322064454938,72.67941837672103
6.681726976,1.0001473057451655,72.52247146295913
6.684015104,0.9997532981926949,72.37122058667914
6.68630272,0.9993751211159485,72.22558742588049
6.688590336,0.9990366498484786,72.08519298343364
6.690877952,0.9987595843619594,71.94929712443509
6.693165568,0.9985615194859473,71.81692549050307
6.695453184,0.9984550642110503,71.68675338936654
6.6977408,0.9984469585982629,71.55747059041579
6.700028416,0.9985378946760899,71.42757139961489
6.702316032,0.9987220167127124,71.29570989188977
6.70460416,0.9989876826603457,71.16057483887985
6.706891776,0.9993181646649373,71.02111716652614
6.709179392,0.9996923435145681,70.87653915891764
6.711467008,1.0000865106633048,70.72641231227242
6.713754624,1.0004757143839147,70.57058649589159
6.71604224,1.0008353140254354,70.40933408717002
6.718329856,1.0011426243382353,70.24326083295765
6.720617472,1.001378115163751,70.07328197001871
6.7229056,1.0015269313057371,69.90053079350002
6.725193216,1.0015796086515751,69.7263394518945
6.727480832,1.001532905976622,69.55207801047446
6.729768448,1.001389562231982,69.37923467424265
6.732056064,1.0011586916044637,69.20910882836827
6.73434368,1.0008548431921855,69.04285226716499
6.736631296,1.0004970326889517,68.88141687789773
6.738918912,1.00010807533033,68.72541150358946
6.741206528,0.999712382446842,68.5751307732196
6.743494656,0.9993351181472084,68.43046555087534
6.745782272,0.99900025868902,68.2910278499537
6.748069888,0.9987290239190904,68.15600406136473
6.750357504,0.9985387493515812,68.02438744874566
6.75264512,0.9984415290158452,67.89488018876992
6.754932736,0.998443606575017,67.76609110854733
6.757220352,0.9985449441396647,67.63654099685084
6.759507968,0.9987390282300521,67.50487693573368
6.761795584,0.9990136189614349,67.36980786462063
6.764083712,0.9993512377537656,67.23028182406264
6.766371328,0.9997306257143197,67.0855776327225
6.768658944,1.0001274747628697,66.93522936715006
6.77094656,1.0005170068886344,66.77916503613758
6.773234176,1.0008741529620249,66.6177199859293
6.775521792,1.001176559377863,66.4514907611086
6.777809408,1.0014050577388363,66.28142604138996
6.780097024,1.0015451496150702,66.10868236309895
6.782385152,1.0015880761250238,65.93464994701091
6.784672768,1.0015309292927357,65.76072778114693
6.786960384,1.0013773661498757,65.58833012627224
6.789248,1.0011370150681445,65.41879561926115
6.791535616,1.0008249835915644,65.25327074404497
6.793823232,1.0004609780087117,65.09266895281796
6.796110848,1.000068016655048,64.93755829651568
6.798398464,0.9996710087433922,64.78820283895847
6.80068608,0.9992949956925214,64.64449719224642
6.802974208,0.9989639207910569,64.50593992299912
6.805261824,0.9986988161997163,64.3717703380283
6.80754944,0.9985166000850043,64.24087770971693
6.809837056,0.9984288481842959,64.11195050365232
6.812124672,0.9984412853568694,63.98359920082471
6.814412288,0.9985530649231594,63.854369261946815
6.816699904,0.9987570715704832,63.72284367337127
6.81898752,0.9990405532721693,63.58776678822611
6.821275136,0.9993854336053676,63.44814038284687
6.823563264,0.999769749905078,63.303225887241695
6.82585088,1.0001692692296065,63.15260200553695
6.828138496,1.0005585565046287,62.99626703142837
6.830426112,1.0009130913279005,62.8345530487149
6.832713728,1.0012102882831786,62.66812099238029
6.835001344,1.0014315286736404,62.49794145520101
6.83728896,1.0015626650600227,62.3252248761246
6.839576576,1.0015954589042815,62.15130561225688
6.841864704,1.0015278508748449,61.97766535516388
6.84415232,1.0013639274054944,61.805708098305445
6.846439936,1.0011140949886486,61.63673662025832
6.848727552,1.0007940309553491,61.47192314452531
6.851015168,1.0004239888012358,61.31212153881921
6.853302784,1.0000273064154828,61.15788652528485
6.8555904,0.9996290676435075,61.00943143995121
6.857878016,0.9992545468333919,60.86662794354368
6.860165632,0.9989276281378484,60.72894296421746
6.86245376,0.9986689464367231,60.59554978045017
6.864741376,0.9984951025874113,60.465319227866686
6.867028992,0.9984170749633604,60.33694040085949
6.869316608,0.9984399274245571,60.20898402736402
6.871604224,0.9985623508953166,60.079974863202914
6.87389184,0.9987764156243574,59.94854433085409
6.876179456,0.9990686815509697,59.81342518581794
6.878467072,0.9994206235224757,59.673629161917184
6.880754688,0.9998097918787276,59.52844001528557
6.883042816,1.0002116097963873,59.37750574265191
6.885330432,1.000600535386447,59.2208494242731
6.887618048,1.00095199742235,59.05883229056375
6.889905664,1.001243850033644,58.8921580522366
6.89219328,1.0014575074850858,58.72181659472429
6.894480896,1.0015795070521485,58.54905628472795
6.896768512,1.0016020966822388,58.375268145182666
6.899056128,1.0015237304805733,58.20187075916654
6.901344256,1.001349438014538,58.0303146053193
6.903631872,1.001090152313938,57.861900008790386
6.905919488,1.0007620727255628,57.697762254353414
6.908207104,1.000386016884971,57.538716989729366
6.91049472,0.9999858010906559,57.38533409461829
6.912782336,0.9995866902867581,57.23776099087478
6.915069952,0.9992140353749398,57.09581371596205
6.917357568,0.9988913898904003,56.958946807232095
6.919645184,0.9986393950985454,56.82627937459354
6.921933312,0.9984741140704188,56.69668669664642
6.924220928,0.998406060636161,56.5687916785646
6.926508544,0.9984395874854832,56.44117930061286
6.92879616,0.9985726251451805,56.31236735239747
6.931083776,0.9987968234150187,56.18096493595501
6.933371392,0.9990978523389352,56.04571025578118
