freq,mag,phase
6.0,1.0000889358957543,-32.028248671038206
6.012012032,1.0001099462245744,-32.46119384889728
6.024024064,1.0001260558728977,-32.894445522202965
6.036036096,1.000136471974511,-33.32786108697
6.048048128,1.0001403414660424,-33.76145476724247
6.06006016,1.000137723902871,-34.19503351455082
6.072072192,1.000128657994636,-34.628591725922874
6.084084224,1.0001135342980751,-35.062075868578
6.096096256,1.0000929668702663,-35.495358303208505
6.108108288,1.0000681831693619,-35.92837037527931
6.12012032,1.0000403232739734,-36.36110677793064
6.132132352,1.0000102942529836,-36.793514354982186
6.144144384,0.9999800072737217,-37.225531766895955
6.156155904,0.9999507051638584,-37.657242991014336
6.168167936,0.9999238668113776,-38.08867756328721
6.180179968,0.999900540054818,-38.51978656049709
6.192192,0.9998819455316486,-38.950685532627965
6.204204032,0.9998692675730633,-39.381395062742186
6.216216064,0.9998627305486893,-39.81201103840956
6.228228096,0.9998626780589525,-40.242697085695184
6.240240128,0.999869430431585,-40.67340984573035
6.25225216,0.9998823268804091,-41.104271151182516
6.264264192,0.9999007455368853,-41.53538693977493
6.276276224,0.9999241551622284,-41.9667797122642
6.288288256,0.9999513404883004,-42.39855092991621
6.300300288,0.9999807660384471,-42.8306656647123
6.31231232,1.0000113537427278,-43.263225483176626
6.324324352,1.0000414114281653,-43.696205029895744
6.336336384,1.0000696538111562,-44.12957758148372
6.348348416,1.0000947352916012,-44.563326026650785
6.360360448,1.0001153820082063,-44.99737296095719
6.37237248,1.000130745345193,-45.43169385303902
6.384384512,1.0001399916703997,-45.86622951730517
6.396396544,1.000142653284976,-46.300873508657475
6.408408576,1.0001385761030022,-46.73551239499639
6.420420608,1.000127984885717,-47.17013116854257
6.43243264,1.000111456236404,-47.60459021096681
6.444444672,1.0000897360136156,-48.038835193321226
6.456456704,1.0000638584847144,-48.47283592282502
6.468468224,1.0000349256017502,-48.90652852116314
6.480480256,1.0000043358574497,-49.33990861879578
6.492492288,0.9999736488612386,-49.77291035038219
6.50450432,0.9999443171813851,-50.20555512130373
6.516516352,0.9999177375990235,-50.63789845711447
6.528528384,0.9998948785211799,-51.06997669030827
6.540540416,0.999877256273558,-51.50183549667067
6.552552448,0.9998654784918053,-51.93351946524161
6.56456448,0.9998601440728699,-52.36515265530312
6.576576512,0.9998615641244143,-52.79679984169159
6.588588544,0.9998694867076722,-53.228525296637635
6.600600576,0.9998839610094932,-53.66043046859001
6.612612608,0.9999038250780229,-54.092576952032594
6.62462464,0.9999284758403827,-54.52506250561575
6.636636672,0.9999564878255104,-54.957896691265134
6.648648704,0.9999869181242922,-55.391093983358985
6.660660736,1.0000178781364641,-55.82473265798952
6.672672768,1.0000481973921003,-56.258830005023505
6.6846848,1.0000764000180684,-56.69328344097748
6.696696832,1.0001009571585977,-57.12814373544301
6.708708864,1.0001210336155366,-57.563314877858915
6.720720896,1.0001353282830512,-57.99870791638578
6.732732928,1.0001433399613442,-58.43427429485982
6.74474496,1.0001446278883255,-58.8699775685959
6.756756992,1.0001391892316045,-59.305690656937315
6.768769024,1.0001272440641067,-59.741284584753146
6.780780544,1.0001093055499637,-60.17673062735789
6.792792576,1.0000863384435443,-60.61199281425458
6.804804608,1.0000592629921512,-61.04695085477039
6.81681664,1.0000293758615737,-61.48158604357194
6.828828672,0.9999982009413562,-61.91587309500883
6.840840704,0.99996725821037,-62.349782448807225
6.852852736,0.9999378270876205,-62.78338856447706
6.864864768,0.9999113639562643,-63.21664902829145
6.8768768,0.9998893206926474,-63.64963183033838
6.888888832,0.9998723951132041,-64.08246394471702
6.900900864,0.9998617844422196,-64.51509182417475
6.912912896,0.9998576487834185,-64.94770428852112
6.924924928,0.9998603333400754,-65.38029858024687
6.93693696,0.9998699262241474,-65.81305387301511
6.948948992,0.9998856218929569,-66.24594700426631
6.960961024,0.9999069598125572,-66.67911573581212
6.972973056,0.9999327219153453,-67.11266190221886
6.984985088,0.9999618973005692,-67.54652503391519
6.99699712,0.9999929097450408,-67.98082210685907
7.009009152,1.0000244259091424,-68.41559075280695
7.021021184,1.0000550075663914,-68.85069991870907
7.033033216,1.000082992928807,-69.28626623201123
7.045045248,1.000107249461589,-69.72215899443702
7.05705728,1.0001264145996178,-70.15839528004227
7.069069312,1.0001398728079978,-70.59484311279923
7.081080832,1.0001467097471792,-71.03147205289156
7.093092864,1.0001465851556757,-71.46819455715462
7.105104896,1.0001397693710055,-71.90486252544935
7.117116928,1.0001263767480375,-72.34146409986197
7.12912896,1.0001070342044163,-72.77790178386026
7.141140992,1.0000826502904314,-73.21409531155577
7.153153024,1.0000543866042502,-73.6499767318614
7.165165056,1.0000237733552082,-74.0855306142972
7.177177088,0.9999919415844204,-74.52072907801436
7.18918912,0.9999605471257386,-74.95558412688356
7.201201152,0.9999311955767438,-75.39007573765022
7.213213184,0.9999051587531074,-75.82422566744638
7.225225216,0.9998835534877991,-76.2581204921164
7.237237248,0.9998675607406053,-76.6918397492498
7.24924928,0.9998579832535485,-77.12538178478403
7.261261312,0.9998552154468402,-77.5589123771893
7.273273344,0.9998594502751201,-77.99249351538393
7.285285376,0.9998703389194777,-78.4261600632584
7.297297408,0.9998875746435522,-78.8600817976805
7.30930944,0.9999101437979192,-79.29426572277262
7.321321472,0.9999373187438986,-79.72878436564993
7.333333504,0.999967420781708,-80.16369830369949
7.345345536,0.9999992939083362,-80.59904724120895
7.357357568,1.000031222419177,-81.0348202537211
7.3693696,1.000061985015535,-81.47100179630738
7.381381632,1.0000897617043079,-81.90762125369027
7.393393152,1.0001134783787922,-82.34455246688356
7.405405184,1.0001319801169242,-82.7818115364713
7.417417216,1.0001443368431546,-83.21931032038967
7.429429248,1.000149871766966,-83.65692874818137
7.44144128,1.000148541431012,-84.09462344154745
7.453453312,1.0001402428364252,-84.53229781752897
7.465465344,1.0001253051260748,-84.96980956267177
7.477477376,1.000104598671594,-85.40716853102084
7.489489408,1.000078946681919,-85.84427837361781
7.50150144,1.0000496030081047,-86.2810327945921
7.513513472,1.000018031252657,-86.71746948399327
7.525525504,0.9999856339879946,-87.15357386421182
7.537537536,0.9999539356506116,-87.58922785419585
7.549549568,0.9999245823556343,-88.02459269209885
7.5615616,0.9998986876922688,-88.45961210661333
7.573573632,0.9998778787324893,-88.89437710738352
7.585585664,0.9998628836314069,-89.32893237375086
7.597597696,0.9998543883195982,-89.76338598399582
7.609609728,0.9998528945315185,-90.19781805769229
7.62162176,0.9998585856202619,-90.63229735407012
7.633633792,0.9998709723153433,-91.06691467002247
7.645645824,0.9998896054316332,-91.50174583390618
7.657657856,0.9999136275446393,-91.93691763556335
7.669669888,0.9999419587727065,-92.37240659830226
7.68168192,0.9999730631357484,-92.80830179864459
7.69369344,1.0000056995179363,-93.24464509762396
7.705705472,1.0000381326781052,-93.68144811547414
7.717717504,1.000068875509526,-94.11863478175886
7.729729536,1.0000966374810305,-94.55621849823483
7.741741568,1.0001198210869244,-94.99416842107357
7.7537536,1.0001374080855459,-95.43242124128352
7.765765632,1.0001487580810482,-95.87088052887925
7.777777664,1.0001530709970223,-96.30945992460609
7.789789696,1.0001503334297535,-96.74807361379527
7.801801728,1.0001405408018966,-97.18666339033268
7.81381376,1.000124108827886,-97.62510943305773
7.825825792,1.0001018941043363,-98.06335170886973
7.837837824,1.0000749621435312,-98.5013308331399
7.849849856,1.0000445324414264,-98.93892325914595
7.861861888,1.0000120135092834,-99.37617727261534
7.87387392,0.9999789609413849,-99.81308012017958
7.885885952,0.99994707175983,-100.2495877325149
7.897897984,0.9999177462758461,-100.68571843213732
7.909910016,0.9998923836631984,-101.12157420426729
7.921922048,0.9998720674982176,-101.55715156944544
7.93393408,0.9998580369531161,-101.99253740888199
7.945946112,0.9998506667047973,-102.42783394931412
7.957958144,0.9998505789007935,-102.8630840935912
7.969970176,0.9998577568531483,-103.2984219294357
7.981982208,0.9998716852012368,-103.73392006380561
7.99399424,0.9998918437493857,-104.16967024553534
8.00600576,0.9999172500469372,-104.60572071931198
8.018017792,0.9999467633598115,-105.04216146421163
8.030029824,0.9999789197066411,-105.47900800610586
8.042041856,1.0000122615796743,-105.91630342033078
8.054053888,1.0000450723478613,-106.35401453628559
8.06606592,1.000076021999796,-106.79216496334082
8.078077952,1.0001035378660341,-107.23072270409637
8.090089984,1.0001261205063878,-107.66961935015802
8.102102016,1.0001430134698786,-108.108772817266
8.114114048,1.0001531591598378,-108.54816677574837
8.12612608,1.0001561908043386,-108.98766283312393
8.138138112,1.0001520086976188,-109.42717970931007
8.150150144,1.0001406534956137,-109.86659611423775
8.162162176,1.000122715438814,-110.30588677837122
8.174174208,1.0000989907068594,-110.74494378467374
8.18618624,1.0000707788286243,-111.18370378148971
8.198198272,1.0000391501820372,-111.62212923398334
8.210210304,1.000005734574777,-112.06015415006443
8.222222336,0.9999722495877252,-112.49778970020175
8.234234368,0.9999400451862748,-112.93506398935091
8.2462464,0.9999106722785257,-113.371958868185
8.258258432,0.999885677190813,-113.80853901373104
8.270270464,0.999866123121421,-114.24485896504379
8.282282496,0.9998530659964552,-114.68100791646472
8.294294528,0.9998469919832735,-115.11707835086494
8.30630656,0.9998482961758732,-115.55313725475541
8.31831808,0.9998567887910655,-115.98928719698444
8.330330112,0.9998723881319077,-116.42560662484942
8.342342144,0.9998940396376756,-116.86216527821652
8.354354176,0.9999208959848556,-117.2990835332306
8.366366208,0.9999516406218883,-117.73637392790857
8.37837824,0.9999847822029946,-118.17411893818232
8.390390272,1.0000188811663706,-118.61226925554038
8.402402304,1.0000522377436907,-119.05089502057663
8.414414336,1.0000831672916106,-119.48994262627501
8.426426368,1.0001103687980655,-119.92938928092903
8.4384384,1.0001324995634429,-120.36915811876769
8.450450432,1.000148440593104,-120.80920735094953
8.462462464,1.0001574823126989,-121.24946613473536
8.474474496,1.0001591783838946,-121.68979596735191
8.486486528,1.0001534778104029,-122.13010260841732
8.49849856,1.0001406175111343,-122.57034821908901
8.510510592,1.0001211030999624,-123.01042654725855
8.522522624,1.0000960067818616,-123.45021069376166
8.534534656,1.0000664200412517,-123.88974511466209
8.546546688,1.0000336604223448,-124.32886561408903
8.55855872,0.9999994918438541,-124.76758784157383
8.570570752,0.9999652666271138,-125.20592009313887
8.582582784,0.9999328082402879,-125.6438530154034
8.594594816,0.999903542929657,-126.08145354762193
8.606606336,0.9998789601187866,-126.51872521066085
8.61861888,0.9998601567934207,-126.95572417692617
8.6306304,0.9998480405640228,-127.39256140765728
8.642642944,0.9998433412557648,-127.82935665653162
8.654654464,0.9998460714511709,-128.2661330774459
8.666667008,0.9998561350659326,-128.7029762024153
8.678678528,0.9998732538026447,-129.14007477292887
8.690691072,0.9998965148192945,-129.5774223557979
8.702702592,0.9999247943237187,-130.01512225347022
8.714715136,0.9999568120487103,-130.45321826931334
8.726726656,0.9999909553629017,-130.89176962583244
8.7387392,1.0000257209050538,-131.33072990003586
8.75075072,1.0000594896767439,-131.7701882165532
8.762763264,1.0000905704396663,-132.21007679396
8.774774784,1.0001175022131163,-132.65030749959297
8.786786304,1.000138990306577,-133.09092824700883
8.798798848,1.0001540700565699,-133.53177002602524
8.810810368,1.0001619281855547,-133.97281810110047
8.822822912,1.0001623163624398,-134.4138881714421
8.834834432,1.0001550418631655,-134.8549751732963
8.846846976,1.000140563939816,-135.29592450064902
8.858858496,1.0001194908393196,-135.73670373011856
8.87087104,1.0000928439424743,-136.17720393229027
8.88288256,1.0000618568135575,-136.61736217878024
8.894895104,1.000027985529479,-137.05712722198453
8.906906624,0.9999928587783977,-137.4964929549309
8.918919168,0.9999580887986718,-137.93544061799662
8.930930688,0.9999254323190344,-138.37397939304591
8.942943232,0.9998962214119388,-138.81218463569542
8.954954752,0.9998721647419075,-139.25006481712643
8.966967296,0.9998540834834841,-139.687653719639
8.978978816,0.9998430636795532,-140.12514234904936
8.99099136,0.9998395914690946,-140.56253190341687
9.00300288,0.999843794907729,-140.99995113687993
9.015015424,0.9998555429939877,-141.43749175437011
9.027026944,0.9998742674164384,-141.87523687416177
9.039039488,0.9998989740819438,-142.31328869266986
9.051051008,0.9999287419269238,-142.75168767133965
9.063063552,0.9999620155944212,-143.1905204155812
9.075075072,0.9999972137237428,-143.62980125667843
9.087086592,1.000032790932173,-144.06952761459158
9.099099136,1.000066886665271,-144.50972481357724
9.111110656,1.0000980720537078,-144.95036345024272
9.1231232,1.0001246300446618,-145.3913730095136
9.13513472,1.000145557160164,-145.8327197018684
9.147147264,1.0001596624715254,-146.27428737464436
9.159158784,1.000166387891699,-146.7160129911578
9.171171328,1.0001652616815728,-147.15781081760065
9.183182848,1.0001565041106282,-147.59955433777637
9.195195392,1.000140324542975,-148.0411431065246
9.207206912,1.0001176782929744,-148.48254467470687
9.219219456,1.0000894689183926,-148.9236481275937
9.231230976,1.0000570607781212,-149.36439049206288
9.24324352,1.0000220280018015,-149.8047224840105
9.25525504,0.9999860017994441,-150.2446380838387
9.267267584,0.999950712432131,-150.6840964346283
9.279279104,0.999917697427453,-151.12317692361108
9.291291648,0.9998887572446341,-151.56186786035258
9.303303168,0.9998650337338691,-152.00026793334854
9.315315712,0.9998478298375625,-152.4384172811718
9.327327232,0.999837924739345,-152.87641446344446
9.339339776,0.999835695635735,-153.31436264159098
9.351351296,0.9998414654684957,-153.75234595941646
9.36336384,0.9998548017041446,-154.19044857057082
9.37537536,0.9998751940344286,-154.62878608394146
9.38738688,0.9999015937195312,-155.0674759951707
9.399399424,0.9999328360828658,-155.5065035597765
9.411410944,0.9999673933740533,-155.9459686913644
9.423423488,1.0000036753946784,-156.38592089129008
9.435435008,1.0000399280095664,-156.82630767779622
9.447447552,1.0000744938345612,-157.2671773185554
9.459459072,1.0001057760815792,-157.70847686060446
9.471471616,1.0001320684511816,-158.15014907233947
9.483483136,1.000152261724204,-158.59215045018112
9.49549568,1.0001653534678183,-159.03436213492813
9.5075072,1.0001708269105836,-159.476728321471
9.519519744,1.0001683350616926,-159.919122180701
9.531531264,1.0001578814468133,-160.3614407674937
9.543543808,1.0001400439914134,-160.80360107389257
9.555555328,1.0001156955576918,-161.2455456118806
9.567567872,1.0000858859537216,-161.68714561351214
9.579579392,1.0000520712879581,-162.1283851142103
9.591591936,1.0000158532523058,-162.56918210225683
9.603603456,0.9999788446869322,-163.0095455051577
9.615616,0.9999429784733959,-163.44947956570903
9.62762752,0.9999097697990762,-163.8889567546536
9.639640064,0.9998808845251498,-164.32810197752517
9.651651584,0.9998577514371197,-164.76693146839753
9.663664128,0.9998413863266721,-165.20552314827205
9.675675648,0.9998325956895473,-165.64395379852095
9.687688192,0.999831833707448,-166.08234679875977
9.699699712,0.9998391361755217,-166.52080836548353
9.711711232,0.9998541396542627,-166.95942104907473
9.723723776,0.9998762265887474,-167.39828172849627
9.735735296,0.9999043627385887,-167.83746689266152
9.74774784,0.9999371023234629,-168.27704517778812
9.75975936,0.9999729913228987,-168.71706558398688
9.771771904,1.000010377589072,-169.15757386883723
9.783783424,1.0000473246114276,-169.59854444070297
9.795795968,1.0000824146121696,-170.03999796206998
9.807807488,1.0001135604592515,-170.4818794191167
9.819820032,1.0001395975478589,-170.92414124799856
9.831831552,1.0001590527366035,-171.36668390083148
9.843844096,1.0001712383063825,-171.8094581055565
9.855855616,1.0001752493895655,-172.2523671117939
9.86786816,1.0001713102110814,-172.6952686612483
9.87987968,1.0001592444103935,-173.13808547590008
9.891892224,1.0001396216879055,-173.58073325741378
9.903903744,1.0001135250714392,-174.02311246430935
9.915916288,1.000082066764553,-174.46513965138917
9.927927808,1.0000468687305595,-174.9067535922336
9.939940352,1.000009347912869,-175.34792311822295
9.951951872,0.9999715020821203,-175.78865718406496
9.963964416,0.9999349390490744,-176.22893691182358
9.975975936,0.9999015726574846,-176.66877828252146
9.98798848,0.9998728557226493,-177.10824904607514
10.0,0.9998501628654272,-177.54740457480173
10.01201152,0.9998346960075024,-177.98633275908549
10.024024064,0.9998271071846229,-178.42511758661004
10.036035584,0.999827782548148,-178.86387573867603
10.048048128,0.9998368144998142,-179.30271255534345
10.060059648,0.9998535172217491,-179.7417271283062
10.072072192,0.999877375531977,179.81900169031513
10.084083712,0.9999072019206596,179.37938677690573
10.096096256,0.999941492255917,178.9393541116285
10.108107776,0.99997888378516,178.49886314422375
10.12012032,1.0000173120582307,178.05788142732072
10.13213184,1.0000551783507454,177.6164099988859
10.144144384,1.0000904401218242,177.17447342550068
10.156155904,1.0001217425064957,176.73210482025752
10.168168448,1.0001474580299172,176.28934511152033
10.180179968,1.0001662410399457,175.84631881997734
10.192192512,1.000177296776844,175.4030871839449
10.204204032,1.0001800451827036,174.9597394707135
10.216216576,1.0001743759802222,174.51640829455363
10.228228096,1.000160583405437,174.07319112141312
10.24024064,1.000139174077958,173.63016963690774
10.25225216,1.000111264692625,173.18745506139587
10.264264704,1.000078248391704,172.74511454663124
10.276276224,1.0000413127389254,172.30318511957938
10.288288768,1.0000026082827198,171.86172018543004
10.300300288,0.9999637324701243,171.42074541335353
10.312311808,0.9999265909313584,170.98023709583998
10.324324352,0.999892926907513,170.540130135419
10.336335872,0.9998643335193065,170.100442319952
10.348348416,0.9998422576569042,169.66104627426884
10.360359936,0.9998276941578316,169.2218820614186
10.37237248,0.9998213430044399,168.78284523033648
10.384384,0.9998235523815577,168.3438103964101
10.396396544,0.9998342436198169,167.90468695868657
10.408408064,0.9998527977934379,167.46537844941156
10.420420608,0.9998785210483272,167.0257882683768
10.432432128,0.9999101287349896,166.5858255860292
10.444444672,0.9999461229954226,166.14544367762787
10.456456192,0.999984941373324,165.7045715084824
10.468468736,1.0000245675275505,165.2632151667644
10.480480256,1.0000631583412272,164.8213523553931
10.4924928,1.0000989984790425,164.37899647354251
10.50450432,1.000130232814532,163.93622040622574
10.516516864,1.0001555195019864,163.4930940882161
10.528528384,1.0001735310737125,163.04968588590916
10.540540928,1.000183553516287,162.6060787892632
10.552552448,1.0001848936783335,162.1623862009201
10.564564992,1.0001776106296192,161.7187195294631
10.576576512,1.0001620256175885,161.27519843498004
10.588589056,1.0001387065803675,160.8319115269603
10.600600576,1.000108980780226,160.38893971438364
10.61261312,1.000073977817991,159.94635963016492
10.62462464,1.0000356311033114,159.50424638355622
10.63663616,0.9999954640483727,159.06259937251042
10.648648704,0.999955588021623,158.62146532113223
10.660660224,0.9999177867382782,158.18079971108617
10.672672768,0.9998839069900352,157.7405734168791
10.684684288,0.9998554899580413,157.30075123996048
10.696696832,0.9998340883853255,156.8612319943232
10.708708352,0.9998203689254219,156.42191251735468
10.720720896,0.9998153424137863,155.98272076410714
10.732732416,0.9998191326411193,155.5435380438358
10.74474496,0.9998315982175079,155.10422967950257
10.75675648,0.9998521622591557,154.66473015180628
10.768769024,0.9998797644991323,154.22492442833172
10.780780544,0.9999132758971161,153.7847261729618
