freq,mag,phase
6.0,1.0001735602535682,-152.73785231093538
6.002287104,1.000156156904594,-152.88574873408572
6.004574208,1.0001292145147729,-153.03329005316485
6.006861312,1.000094105580857,-153.18038102003266
6.009147904,1.0000531328452262,-153.3268859265208
6.011435008,1.0000087490589396,-153.47276233935116
6.013722112,0.9999638920204231,-153.61795556695506
6.016009216,0.9999213651606972,-153.76249322126606
6.01829632,0.9998838383900905,-153.9064563321747
6.020583424,0.9998538398642358,-154.04987255053254
6.022870016,0.9998329959129395,-154.19293833830974
6.02515712,0.9998229081628294,-154.33573013096503
6.027444224,0.999824085207199,-154.47844836282715
6.029731328,0.9998364308725495,-154.62121906791816
6.032018432,0.9998592675851666,-154.7642577449678
6.034305536,0.9998910762542073,-154.90766236337168
6.036592128,0.9999298789897038,-155.05156612773843
6.038879232,0.9999730977261135,-155.19605861034358
6.041166336,1.0000181921269602,-155.34112996338163
6.04345344,1.0000621869534714,-155.48686746413475
6.045740544,1.0001022153356884,-155.63319946180252
6.048027648,1.0001358965813758,-155.78002582428655
6.05031424,1.000161073617206,-155.9272671411905
6.052601344,1.0001760277987384,-156.07474476463466
6.054888448,1.0001799410589094,-156.22240539607103
6.057175552,1.0001724000472958,-156.36998860833805
6.059462656,1.0001541400577185,-156.51734216803274
6.06174976,1.0001260541967893,-156.6643663176389
6.064036352,1.0000901363290788,-156.81090647252816
6.066323456,1.0000484015614373,-156.95685255410444
6.06861056,1.0000037494411687,-157.1021373725329
6.070897664,0.9999588619493573,-157.24679075579036
6.073184768,0.9999166234189358,-157.39076055989253
6.075471872,0.9998797808147177,-157.5341359001657
6.077758464,0.9998505811082755,-157.67697740946105
6.080045568,0.9998307776388173,-157.81949679808272
6.082332672,0.9998219281328392,-157.96175567877947
6.084619776,0.9998243245747106,-158.10395103358752
6.08690688,0.9998379388085008,-158.24624765920527
6.089193984,0.9998618860622586,-158.3888086175002
6.091481088,0.9998946518621813,-158.53174407353413
6.09376768,0.9999341901617127,-158.67518020078975
6.096054784,0.9999779738044312,-158.8192148233599
6.098341888,1.0000231745062884,-158.96386151360247
6.100628992,1.0000669350040983,-159.10914027737908
6.102916096,1.0001065620235692,-159.25501967710363
6.1052032,1.0001395536003868,-159.4013719821259
6.107489792,1.0001637153828418,-159.54814728303072
6.109776896,1.0001774849232108,-159.69514857656813
6.112064,1.0001801460018513,-159.84226020223682
6.114351104,1.000171409629513,-159.98933632397345
6.116638208,1.000151894011096,-160.13614350230154
6.118925312,1.0001227433307194,-160.28261010749281
6.121211904,1.0000859134685518,-160.42854107233478
6.123499008,1.0000436764758203,-160.57388844193997
6.125786112,0.9999987149245503,-160.71858596491154
6.128073216,0.9999539037125372,-160.86262587765978
6.13036032,0.9999120075594332,-161.00597490757008
6.132647424,0.9998757624566625,-161.1487817836246
6.134934016,0.9998474073893028,-161.29102665897324
6.13722112,0.9998288267117581,-161.4329951260249
6.139508224,0.9998211149629432,-161.57469467554662
6.141795328,0.999824850739401,-161.71635261164454
6.144082432,0.9998396381160439,-161.8581319314063
6.146369536,0.999864803568116,-162.0001614080641
6.148656128,0.9998985124794072,-162.14259138021774
6.150943232,0.9999387478324154,-162.285565789845
6.153230336,0.9999829182502067,-162.42913463199054
6.15551744,1.0000281975988639,-162.57329130586095
6.157804544,1.0000718336736631,-162.71810907709903
6.160091648,1.0001109708651283,-162.86351067402617
6.162378752,1.000143075844358,-163.00936928557078
6.164665344,1.0001662862591403,-163.15562874617768
6.166952448,1.000178875164475,-163.30213492841432
6.169239552,1.0001803030275551,-163.44871626541146
6.171526656,1.0001703205371222,-163.59518737027355
6.17381376,1.0001494805178972,-163.7414427602592
6.176100864,1.0001193523346352,-163.88729422692074
6.178387456,1.000081765585728,-164.03265509427035
6.18067456,1.0000388760440848,-164.17738100639184
6.182961664,0.9999936325379845,-164.32142459086128
6.185248768,0.9999487695263107,-164.46485574096985
6.187535872,0.9999073314697318,-164.6075650209837
6.189822976,0.99987171990685,-164.74974124165684
6.192109568,0.9998443406568678,-164.891394520745
6.194396672,0.9998268391105772,-165.03274998299813
6.196683776,0.9998203947677491,-165.17384750864858
6.19897088,0.9998254400450118,-165.3149586321002
6.201257984,0.9998415231350581,-165.45620669444793
6.203545088,0.9998677254911591,-165.59768693203202
6.20583168,0.9999023847987989,-165.7396249658483
6.208118784,0.9999433651564464,-165.88209817376662
6.210405888,0.9999878896147002,-166.02513796045017
6.212692992,1.0000333465601503,-166.16884023360674
6.214980096,1.000076723332801,-166.31314103878162
6.2172672,1.0001153343988514,-166.45801447560643
6.219553792,1.0001466079835821,-166.60339309786116
6.221840896,1.0001686808912542,-166.74911022588225
6.224128,1.000180110171736,-166.89507030384766
6.226415104,1.000180263221957,-167.0410791968313
6.228702208,1.000168968330331,-167.18700302056328
6.230989312,1.0001470599866933,-167.33264775898323
6.233275904,1.0001158195407687,-167.47786785744054
6.235563008,1.0000773131091112,-167.6225761081057
6.237850112,1.0000339708884214,-167.76666431174894
6.240137216,0.9999885329890525,-167.91006526755373
6.24242432,0.9999438119446238,-168.05281939262787
6.244711424,0.9999026354582579,-168.19491323362206
6.246998528,0.9998677867459812,-168.3364279905932
6.24928512,0.9998413525339205,-168.47745503197302
6.251572224,0.99982502805833,-168.61814867077874
6.253859328,0.9998199046740771,-168.75868643667147
6.256146432,0.9998260792681813,-168.8992076152264
6.258433536,0.9998435332469572,-169.03985683879668
6.26072064,0.9998709038780869,-169.18080720376344
6.263007232,0.9999064590471259,-169.322206504262
6.265294336,0.9999481014372037,-169.46415589009723
6.26758144,0.9999929911644576,-169.60669239706414
6.269868544,1.0000385402165943,-169.74983465900445
6.272155648,1.0000816451705976,-169.89361397927874
6.274442752,1.0001196263372654,-170.0380061343815
6.276729344,1.0001500554637226,-170.18282382226366
6.279016448,1.0001710346891362,-170.3279966898737
6.281303552,1.00018128451205,-170.4733845606181
6.283590656,1.0001801091850038,-170.6188044861353
6.28587776,1.0001674985227007,-170.76411868397776
6.288164864,1.0001443874232625,-170.90912304854106
6.290451456,1.0001120981327973,-171.05372215024806
6.29273856,1.0000728139859074,-171.1977402891227
6.295025664,1.0000289272049327,-171.34115970962117
6.297312768,0.9999832584565957,-171.483911417139
6.299599872,0.9999386498561971,-171.62595870067634
6.301886976,0.9998980559538219,-171.76738324567035
6.304173568,0.9998638574447906,-171.90823525886125
6.306460672,0.9998385015880261,-172.04861407665453
6.308747776,0.9998233340457416,-172.188683001373
6.31103488,0.9998193510509295,-172.32858616811743
6.313321984,0.9998269872666072,-172.46848683168417
6.315609088,0.9998456300774463,-172.60854516589967
6.317896192,0.9998741998317294,-172.74895507248345
6.320182784,0.9999106786405082,-172.8897780185243
6.322469888,0.9999529547004475,-173.03118208648124
6.324756992,0.9999982398435004,-173.1731859279393
6.327044096,1.000043754877791,-173.31580723810728
6.3293312,1.0000865314189629,-173.4590417044916
6.331618304,1.0001238439804903,-173.60285437687952
6.333904896,1.0001534448923743,-173.7471471122902
6.336192,1.0001732894674833,-173.89173733305324
6.338479104,1.0001823500758082,-174.03652550497858
6.340766208,1.0001798372454642,-174.18133613277982
6.343053312,1.0001658732119902,-174.3260029911149
6.345340416,1.0001415334117725,-174.47034506870818
6.347627008,1.0001082384461863,-174.61427877068775
6.349914112,1.0000681693808837,-174.75764655961248
6.352201216,1.0000236678365455,-174.9003608343013
6.35448832,0.9999779163470691,-175.04239941758738
6.356775424,0.9999335635854706,-175.18377342847833
6.359062528,0.999893403551784,-175.32447600315803
6.36134912,0.9998600173758133,-175.464651912228
6.363636224,0.9998356438037795,-175.60436194008184
6.365923328,0.9998216951853197,-175.743757963674
6.368210432,0.9998191854246026,-175.88304369687071
6.370497536,0.9998281054070818,-176.02230936318253
6.37278464,0.99984798679205,-176.1617956969827
6.375071232,0.9998775826585197,-176.30157034884508
6.377358336,0.999915031381724,-176.44183886235987
6.37964544,0.9999579653075329,-176.58263999422937
6.381932544,1.000003640849443,-176.7240985138159
6.384219648,1.0000489653953544,-176.86616684876404
6.386506752,1.0000914227679178,-177.0088785420899
6.388793344,1.0001281527793018,-177.15212208329433
6.391080448,1.0001566911676159,-177.29579070445772
6.393367552,1.0001755401063976,-177.4398164505945
6.395654656,1.0001831140118775,-177.58399197187111
6.39794176,1.00017935503416,-177.72817742860678
6.400228864,1.0001641039034985,-177.8721668725275
6.402515968,1.0001385388276887,-178.01584919253423
6.40480256,1.0001042450894178,-178.15909562898517
6.407089664,1.0000634004098365,-178.30173992960275
6.409376768,1.0000184501424858,-178.44374342768697
6.411663872,0.9999726043230182,-178.58507479826213
6.413950976,0.9999283995315466,-178.72573289376334
6.41623808,0.9998887745127845,-178.8657593431242
6.418524672,0.9998562546722467,-179.0052057687852
6.420811776,0.9998329331059757,-179.144215366067
6.42309888,0.9998202043498022,-179.28296643785947
6.425385984,0.999819030143226,-179.42155961137124
6.427673088,0.9998293044549413,-179.56018611821455
6.429960192,0.999850476392611,-179.69904480334634
6.432246784,0.9998811994214031,-179.83823775276895
6.434533888,0.9999194888583828,-179.97790668419043
6.436820992,0.9999630260960255,179.8818310866261
6.439108096,1.0000089671086712,179.74097830885333
6.4413952,1.000054356457869,179.59947260385246
6.443682304,1.0000963517585877,179.4573550662963
6.445968896,1.0001322144741904,179.3147063492838
6.448256,1.0001599667566248,179.17160709305364
6.450543104,1.000177595515633,179.02820820878992
6.452830208,1.0001838900542206,178.8846760702356
6.455117312,1.0001786318993444,178.74115503940354
6.457404416,1.000162105927618,178.59780700606635
6.459691008,1.0001353893775866,178.45482306326844
6.461978112,1.0001001192855696,178.3122845104431
6.464265216,1.000058533108694,178.1703474626227
6.46655232,1.0000132602492684,178.02906746909105
6.468839424,0.9999671590236429,177.88850190403667
6.471126528,0.9999232241460222,177.74858397353333
6.473413632,0.9998841919741879,177.60929172344626
6.475700224,0.9998525210306196,177.4705835022519
6.477987328,0.9998303937038657,177.33225412947527
6.480274432,0.9998189938593323,177.19419161132797
6.482561536,0.9998190544896386,177.05627637310346
6.48484864,0.9998306806740561,176.91825341084248
6.487135744,0.9998531658774324,176.7800696625553
6.489422336,0.9998849295358265,176.64148481820692
6.49170944,0.9999241551902224,176.5024053990135
6.493996544,0.999968241317374,176.36275947234407
6.496283648,1.0000143548929339,176.22247830423157
6.498570752,1.0000597146745818,176.0815584764191
6.500857856,1.0001012031001275,175.94002613126804
6.503144448,1.0001364575090683,175.7979661521434
6.505431552,1.0001630940926796,175.65551207933498
6.507718656,1.00017949698476,175.51274222773517
6.51000576,1.0001844105754025,175.36985001555485
6.512292864,1.000177806324259,175.22698360645273
6.514579968,1.0001599755410107,175.08433954379043
6.51686656,1.0001320295354543,174.9420649024956
6.519153664,1.0000956723855792,174.80025708173648
6.521440768,1.0000534289618523,174.65908800970612
6.523727872,1.0000077737212252,174.51852900738493
6.526014976,0.9999616923262677,174.37871139095034
6.52830208,0.999918056778308,174.2395479742058
6.530588672,0.9998797101351644,174.10101085899558
6.532875776,0.9998489143696642,173.96303410936397
6.53516288,0.9998278879005905,173.8254234227537
6.537449984,0.9998177384432824,173.688081118128
6.539737088,0.9998191446118316,173.55083203180087
6.542024192,0.9998322561311034,173.41351057304357
6.544310784,0.9998559242147598,173.27592508980987
6.546597888,0.9998888710397372,173.13798885784328
6.548884992,0.9999289487130423,172.99952307779262
6.551172096,0.9999734546032978,172.86045072741697
6.5534592,1.0000198728426464,172.72080430093473
6.555746304,1.0000649374885522,172.5804930856736
6.558033408,1.0001060449585857,172.43956077513562
6.56032,1.000140495785927,172.29811260999955
6.562607104,1.000166055126935,172.1562767360692
6.564894208,1.000181134851484,172.01415259778423
6.567181312,1.0001848817352381,171.87192331919104
6.569468416,1.0001768726251714,171.72975552129247
6.57175552,1.0001576355272381,171.58780922098447
6.574042112,1.0001285300643166,171.4462616630059
6.576329216,1.0000911919902173,171.30522105523158
6.57861632,1.000048345398911,171.16474423514848
6.580903424,1.0000023225664003,171.02500630770754
6.583190528,0.9999561578317396,170.88592240775495
6.585477632,0.9999127880846118,170.74753376899957
6.587764224,0.9998751209821175,170.6097445824358
6.590051328,0.9998452914255687,170.47248248347924
6.592338432,0.9998254381735219,170.33561814859658
6.594625536,0.9998165827653482,170.19900000125412
6.59691264,0.9998195259609689,170.0624190569333
6.599199744,0.9998339797595648,169.9257949656535
6.601486336,0.9998589526022691,169.7888515470092
6.60377344,0.9998930002891546,169.6515638214892
6.606060544,0.9999338911976862,169.51371962019653
6.608347648,0.9999788867717843,169.37528999485792
6.610634752,1.0000255131606208,169.23623948679418
6.612921856,1.0000703891056042,169.0965142153389
6.615208448,1.0001109418998795,168.9562160622666
6.617495552,1.0001445623700453,168.81539820291016
6.619782656,1.0001690381788837,168.67418746901936
6.62206976,1.0001828957748593,168.53275219732353
6.624356864,1.0001850803448955,168.39118581965224
6.626643968,1.0001757327206533,168.24971678663508
6.628931072,1.0001552333233046,168.10848104186235
6.631217664,1.0001248957998803,167.96770152045556
6.633504768,1.0000867081953608,167.8273802034898
6.635791872,1.0000430516286503,167.6877051605351
6.638078976,0.9999966949517851,167.54870941731576
6.64036608,0.9999505306255442,167.4104414815998
6.642653184,0.9999076215696976,167.2727822338691
6.644939776,0.9998707329300445,167.13581678177832
6.64722688,0.9998418415790796,166.99930777183238
6.649513984,0.9998231948814102,166.86318771925332
6.651801088,0.9998158107264754,166.72726039492915
6.654088192,0.9998201182457246,166.59140589830005
6.656375296,0.9998358685726971,166.45545188701317
6.658661888,0.9998620717357982,166.3191905535782
6.660948992,0.9998971933399262,166.1825056629523
6.663236096,0.9999388737570678,166.04530508879824
6.6655232,0.9999844108108945,165.90753517080466
6.667810304,1.000031131509942,165.76905297586526
6.670097408,1.000075899837091,165.62996075726016
6.672384,1.0001158109947836,165.49031768270004
6.674671104,1.0001484798906943,165.35013271330436
6.676958208,1.0001718611991561,165.20958015873697
6.679245312,1.0001842597531043,165.0687912198008
6.681532416,1.0001852071613604,164.927945437678
6.68381952,1.0001743127893004,164.78716007515428
6.686106112,1.0001524129069999,164.64670458556495
6.688393216,1.0001210114290238,164.50662463274188
6.69068032,1.0000819029754928,164.3670956620406
6.692967424,1.0000375919425948,164.22819437457824
6.695254528,0.9999908642568404,164.0899770931164
6.697541632,0.999944955556365,163.95248441522114
6.699828224,0.9999024227290094,163.81565866071142
6.702115328,0.9998661857025322,163.6794352421695
6.704402432,0.9998384589818655,163.54367314044924
6.706689536,0.9998210212594153,163.40832090661058
6.70897664,0.9998149967355942,163.27312223639902
6.711263744,0.9998207136548856,163.13797996791965
6.713550848,0.9998379919078458,163.00269685051845
6.71583744,0.9998655052496335,162.86709762169988
6.718124544,0.9999016005949024,162.7311180163871
6.720411648,0.9999439663015594,162.59454127308234
6.722698752,0.9999900958407569,162.45737266024761
6.724985856,1.0000368608778667,162.31953661488518
6.72727296,1.000081245596696,162.18108321973332
6.729559552,1.0001206214777596,162.04205742157419
6.731846656,1.000152372256982,161.90251021386462
6.73413376,1.0001745229131747,161.7626399602225
6.736420864,1.0001856280519377,161.6225358532249
6.738707968,1.0001851572749696,161.4823851163286
6.740995072,1.0001727751543683,161.34235743227418
6.743281664,1.0001494938651967,161.20261308606766
6.745568768,1.000116911660924,161.06330517005327
6.747855872,1.0000769295512901,160.9245436512813
6.750142976,1.0000320907332099,160.78643472257312
6.75243008,0.999985124097328,160.64903222095984
6.754717184,0.9999392762217895,160.51233699242619
6.757003776,0.9998973442644001,160.37629173220282
6.75929088,0.9998617785581391,160.2408369477728
6.761577984,0.9998351661745211,160.1058843999907
6.763865088,0.9998190920213658,159.97124782006782
6.766152192,0.9998144104704962,159.8367912508891
6.768439296,0.9998216320894047,159.70237688561886
6.770725888,0.9998402542989624,159.56777218021574
6.773012992,0.9998690347294072,159.4328826569158
6.775300096,0.9999061902271511,159.2975043768996
6.7775872,0.9999493599491548,159.1616109881859
6.779874304,0.9999958582287554,159.02505241243216
6.782161408,1.0000425650403768,158.8878591427794
6.784448512,1.0000867971021468,158.7500514492433
6.786735104,1.0001254493137695,158.6116625316045
6.789022208,1.0001561468133477,158.47278449766077
6.791309312,1.0001771658225067,158.33356917775484
6.793596416,1.000186800929278,158.19417024311096
6.79588352,1.000184826588657,158.05471808726008
6.798170624,1.0001711436082403,157.91541275360447
6.800457216,1.000146573594014,157.77642864795
6.80274432,1.000112661623584,157.63787165604322
6.805031424,1.0000717374696384,157.49992491146116
6.807318528,1.0000263622158692,157.36261266329976
6.809605632,0.9999792353919932,157.2260029302563
6.811892736,0.9999336192922892,157.09010499157944
6.814179328,0.9998921377444664,156.95485871440326
6.816466432,0.9998574600946278,156.8202006776597
6.818753536,0.9998319946616234,156.6860101058675
6.82104064,0.9998172502033925,156.55216884040587
6.823327744,0.9998138951974604,156.41845042201905
6.825614848,0.9998226776634808,156.28470815715474
6.82790144,0.9998427436235685,156.15084605936397
6.830188544,0.9998726993992629,156.01660400037196
6.832475648,0.9999108526347578,155.8819069735606
6.834762752,0.9999547483232013,155.74661973272907
6.837049856,1.0000015466929548,155.61071513625825
6.83933696,1.000048334043843,155.47416618761713
6.841623552,1.0000921455661977,155.3370085686996
6.843910656,1.0001300442565002,155.19926401763922
6.84619776,1.0001599130904457,155.06105362587292
6.848484864,1.0001794826573147,154.9225295306354
6.850771968,1.000187834800289,154.78378724440006
6.853059072,1.0001843620011952,154.64504963889516
6.855345664,1.000169044327284,154.5064958023503
6.857632768,1.0001432260894783,154.36828825524157
6.859919872,1.0001082886299495,154.23052763219025
6.862206976,1.0000664715944714,154.09336061943455
6.86449408,1.0000205359302636,153.95684785334478
6.866781184,0.9999733527059642,153.82105300880934
6.869068288,0.9999277354832983,153.68594667595684
6.87135488,0.9998868500369104,153.55151468899376
6.873641984,0.9998531988846096,153.41766820421833
6.875929088,0.999828862961412,153.28424784576168
6.878216192,0.9998154380396775,153.15115323241326
6.880503296,0.9998138306198961,153.01817606629564
6.8827904,0.9998239961258126,152.88518131445724
6.885076992,0.9998452585730897,152.7519723777719
6.887364096,0.9998766651284013,152.61841623270556
6.8896512,0.9999157960412096,152.48436574016998
6.891938304,0.9999602874001047,152.34977946594734
6.894225408,1.0000074086967035,152.21450885231974
6.896512512,1.000054295019457,152.07859615303275
6.898799104,1.0000975664554586,151.94205683448854
6.901086208,1.0001347404447187,151.8049456697484
6.903373312,1.0001633669347259,151.66741234358216
6.905660416,1.0001818534451286,151.529554868446
6.90794752,1.0001887336085686,151.39156230473193
6.910234624,1.0001836057329978,151.25355802856262
6.912521216,1.0001669720072377,151.1157529165434
6.91480832,1.0001397150307005,150.97830108332454
