freq,mag,phase
6.0,1.0001724868643111,-28.67136095256416
6.006509568,1.0001528815900544,-28.9326603188257
6.013018624,1.0001234903709544,-29.19375450221337
6.019528192,1.0000867606541688,-29.454430711241248
6.026037248,1.0000451346640575,-29.71474864984431
6.032546816,1.0000004055505989,-29.974535139542947
6.039056384,0.9999555447219811,-30.233858464277308
6.04556544,0.9999130873731623,-30.492692172276413
6.052075008,0.9998752044023758,-30.751053036745507
6.058584064,0.9998441853210065,-31.00901938353568
6.065093632,0.9998216057894659,-31.266748788336926
6.071602688,0.999809194326679,-31.52434146367373
6.078112256,0.9998072927851822,-31.781946194674358
6.084621824,0.9998161011383955,-32.03972624557889
6.09113088,0.9998350277959859,-32.29780652337188
6.097640448,0.9998632060807022,-32.556315968853426
6.104149504,0.9998988353155402,-32.81532292791761
6.110659072,0.9999401038374287,-33.07498854853585
6.11716864,0.9999846322151746,-33.335397028298225
6.123677696,1.0000297259849005,-33.59647593634446
6.130187264,1.0000730736524366,-33.85832522309621
6.13669632,1.0001119464449668,-34.12077191579944
6.143205888,1.0001444199858744,-34.38388128521511
6.149715456,1.0001685906348807,-34.647438463793215
6.156224512,1.000182943559729,-34.91144139848568
6.16273408,1.0001866333546747,-35.17558273745924
6.169243136,1.000179715053459,-35.43991344358764
6.175752704,1.00016230393678,-35.70415459064831
6.18226176,1.000135666030313,-35.96814847840711
6.188771328,1.0001008568811658,-36.23187390142762
6.195280896,1.000060462791032,-36.49519227897128
6.201789952,1.0000160920612564,-36.75802770656578
6.20829952,0.9999706188448841,-37.02038360206404
6.214808576,0.9999267893320505,-37.28218862868926
6.221318144,0.9998867108672421,-37.54356361605839
6.227827712,0.9998528864789785,-37.80454209087646
6.234336768,0.9998271362161925,-38.06518172251316
6.240846336,0.9998109385667319,-38.3256939010456
6.247355392,0.9998052656615183,-38.586148641286634
6.25386496,0.9998104922618788,-38.846674261257974
6.260374528,0.9998261099907426,-39.107512177815394
6.266883584,0.999851323135925,-39.36872265339235
6.273393152,0.9998848813458225,-39.63039819450054
6.279902208,0.9999247355115638,-39.892730212423075
6.286411776,0.999968699452982,-40.15576103546565
6.292920832,1.0000143075013006,-40.419473433510355
6.2994304,1.0000588321815453,-40.68391955293816
6.305939968,1.0000998359426974,-40.94910477513186
6.312449024,1.0001349714166647,-41.214887480758215
6.318958592,1.000162393893374,-41.48124673312618
6.325467648,1.0001805518362354,-41.74798811053374
6.331977216,1.0001881093643101,-42.01502859944247
6.338486784,1.000184720324613,-42.282229030899494
6.34499584,1.0001707998661913,-42.549384979545636
6.351505408,1.0001468947397565,-42.816434592225626
6.358014464,1.0001144777284259,-43.08320851963882
6.364524032,1.0000754918199843,-43.349577737471414
6.3710336,1.000031937532716,-43.61547161191172
6.377542656,0.9999862623830545,-43.880919276570495
6.384052224,0.9999411663621227,-44.14581940052117
6.39056128,0.9998992406095208,-44.41025364532772
6.397070848,0.9998628547132535,-44.67424766195861
6.403579904,0.9998336261778527,-44.93791628550166
6.410089472,0.9998138408747576,-45.2013555763563
6.41659904,0.9998045543070565,-45.464679069871394
6.423108096,0.9998059075028208,-45.72807957269055
6.429617664,0.9998179639618103,-45.99170395959063
6.43612672,0.9998401838409876,-46.255649109691866
6.442636288,0.9998713734103982,-46.52007874503428
6.449145856,0.9999095385349459,-46.78506030028882
6.455654912,0.9999528058313536,-47.05075255843899
6.46216448,0.9999983727732337,-47.317180825518015
6.468673536,1.0000439055316759,-47.58431426582155
6.475183104,1.0000867426537483,-47.8521956562754
6.481692672,1.0001245858115413,-48.12070519505499
6.488201728,1.0001550136400936,-48.38980820705469
6.494711296,1.0001766914540882,-48.65935984101325
6.501220352,1.000188109350555,-48.92928748762866
6.50772992,1.0001886317321382,-49.19939785108545
6.514238976,1.0001783218794826,-49.469562785430234
6.520748544,1.000157643564944,-49.7396398828649
6.527258112,1.0001277689843053,-50.009455770382544
6.533767168,1.0000907290450034,-50.27890608897317
6.540276736,1.0000478887123403,-50.54798720535966
6.546785792,1.000002483205457,-50.81650825539546
6.55329536,0.9999564527903773,-51.08454705461667
6.559804928,0.9999126743078377,-51.352059245734374
6.566313984,0.9998736956430367,-51.61913557073403
6.572823552,0.9998416085925228,-51.88585519665863
6.579332608,0.9998181492668188,-52.15229533144601
6.585842176,0.999804831997241,-52.41857211989834
6.592351744,0.9998024416847394,-52.68483525227546
6.5988608,0.9998108798388995,-52.9512873618681
6.605370368,0.9998298385065864,-53.21805535745212
6.611879424,0.9998582836877123,-53.48521687277351
6.618388992,0.9998944773590074,-53.7529597268155
6.624898048,0.9999366056850759,-54.021315907529214
6.631407616,0.9999818346436214,-54.290436732570754
6.637917184,1.0000281441667578,-54.56028557578348
6.64442624,1.000072600185631,-54.830812547688524
6.650935808,1.000112744900991,-55.102115627669214
6.657444864,1.0001464402685387,-55.373983254479725
6.663954432,1.0001714869706477,-55.6464052493256
6.670464,1.000186641306324,-55.91922562760246
6.676973056,1.0001911705368665,-56.19222933867514
6.683482624,1.0001845904790543,-56.46536599868422
6.68999168,1.0001674068552995,-56.73846034728313
6.696501248,1.000140437782659,-57.01137894648824
6.703010816,1.0001054075164104,-57.28396567742765
6.709519872,1.0000639916504857,-57.55611932276343
6.71602944,1.0000189072614525,-57.827811879736274
6.722538496,0.9999723367560802,-58.09902178457201
6.729048064,0.9999270951610733,-58.36969148623675
6.73555712,0.999885853000054,-58.63986394431428
6.742066688,0.9998506694200244,-58.909625370118405
6.748576256,0.9998238071132636,-59.17908955784281
6.755085312,0.9998066172193587,-59.44837935054516
6.76159488,0.9998002475719311,-59.71757233826402
6.768103936,0.9998048024119544,-59.98689878864527
6.774613504,0.9998203367526118,-60.25647062275647
6.781123072,0.9998457544284435,-60.526416115813696
6.787632128,0.9998795602312405,-60.796917070330885
6.794141696,0.9999202646780811,-61.06799319582027
6.800650752,0.9999649369578145,-61.339846227478795
6.80716032,1.0000117324922748,-61.61233609316857
6.813669888,1.000057424387907,-61.88564208613287
6.820178944,1.0000998973263444,-62.159642914674876
6.826688512,1.0001363472686753,-62.43429088948306
6.833197568,1.0001650420810129,-62.709502610828665
6.839707136,1.0001841291180933,-62.985184457401886
6.846216192,1.0001925417635456,-63.2611366942187
6.85272576,1.00018990699283,-63.53724935411547
6.859235328,1.0001762906777723,-63.813395959203184
6.865744384,1.0001525620511338,-64.08935780259509
6.872253952,1.0001198266607265,-64.36507528190293
6.878763008,1.0000800799494787,-64.64039325617865
6.885272576,1.0000355713374443,-64.91524552823323
6.891782144,0.999988955400582,-65.18956718047677
6.8982912,0.9999425846338584,-65.46339937713383
6.904800768,0.999899144543703,-65.7367233381534
6.911309824,0.9998612770921028,-66.00958924248856
6.917819392,0.9998309298816255,-66.28208612450248
6.92432896,0.9998099980690377,-66.55435465620351
6.930838016,0.9997995162992467,-66.82655945040365
6.937347584,0.9998000794756431,-67.09875557337284
6.94385664,0.999811810642015,-67.37114483111107
6.950366208,0.999833923471413,-67.64394830522632
6.956875264,0.9998653161523706,-67.91716136978664
6.963384832,0.9999041554837327,-68.1909772415404
6.9698944,0.9999480549914563,-68.46546699774069
6.976403456,0.9999947764254955,-68.74071446116015
6.982913024,1.0000415676160692,-69.01671541335682
6.98942208,1.0000859464426302,-69.29341805892932
6.995931648,1.000125182988399,-69.57085783097553
7.002441216,1.0001571447859123,-69.84887283896009
7.008950272,1.0001800942160757,-70.12737295492524
7.01545984,1.0001925664108866,-70.40626182072633
7.021968896,1.0001939800728685,-70.68532575894292
7.028478464,1.0001841025465559,-70.96445951986436
7.034988032,1.0001636695240104,-71.24348396545032
7.041497088,1.000133786387612,-71.52227422672566
7.048006656,1.0000961097211998,-71.80073156277055
7.054515712,1.0000527001701982,-72.07873296505669
7.06102528,1.0000060361065566,-72.35622775339145
7.067534336,0.9999587854072278,-72.6331929757969
7.074043904,0.9999136250256251,-72.90964583433674
7.080553472,0.9998729970797934,-73.1856106152947
7.087062528,0.9998393127940209,-73.46118835628215
7.093572096,0.9998145585086282,-73.7364821721527
7.100081152,0.9998000432059925,-74.01159902513136
7.10659072,0.9997965689997773,-74.28671726193511
7.113100288,0.9998044440502443,-74.56197542147662
7.119609344,0.9998229962277626,-74.8374939562346
7.126118912,0.9998513926025989,-75.1134775558814
7.132627968,0.9998881100255297,-75.39001456638688
7.139137536,0.9999307764391934,-75.66721300185029
7.145647104,0.9999771805869919,-75.9451272139301
7.15215616,1.0000248150921587,-76.22380173300105
7.158665728,1.0000708638056008,-76.50320048761225
7.165174784,1.0001125060588987,-76.78337846461606
7.171684352,1.0001476687745627,-77.0641206036496
7.178193408,1.0001742851632145,-77.3454743471227
7.184702976,1.000190870129119,-77.62716634817895
7.191212544,1.0001965095640226,-77.90917070389797
7.1977216,1.0001906691181797,-78.19123881092811
7.204231168,1.0001738566203031,-78.47331801004417
7.210740224,1.0001469540044583,-78.75520639065894
7.217249792,1.0001116135472408,-79.03670341762961
7.22375936,1.0000694859858488,-79.31786193056094
7.230268416,1.0000234349049475,-79.598472872317
7.236777984,0.9999755994631977,-79.8785912811303
7.24328704,0.9999288609922583,-80.158170329142
7.249796608,0.9998859282166821,-80.4372129348366
7.256306176,0.9998491368410286,-80.71582876929487
7.262815232,0.9998205917403361,-80.9941345170672
7.2693248,0.9998020340770176,-81.27219254891233
7.275833856,0.9997942757106505,-81.5502209314804
7.282343424,0.999798028031595,-81.82829041927306
7.28885248,0.9998129505066264,-82.10661758746089
7.295362048,0.999838141748421,-82.38530508065075
7.301871616,0.999872404936546,-82.66452383918687
7.308380672,0.9999135241803826,-82.94436148283862
7.31489024,0.9999593158235368,-83.2249365247286
7.321399296,1.0000072786719605,-83.50621854174958
7.327908864,1.0000546523300378,-83.7882798051796
7.334418432,1.0000986700472203,-84.0711140607665
7.340927488,1.0001370193881163,-84.3545926524679
7.347437056,1.000167272149977,-84.63866949086403
7.353946112,1.0001879383531675,-84.92318711720208
7.36045568,1.0001977378159042,-85.2080125971544
7.366965248,1.0001960665532166,-85.49300969054588
7.373474304,1.000183194582148,-85.77802199592718
7.379983872,1.000159671088883,-86.06291169990139
7.386492928,1.0001268305839937,-86.34748738167002
7.393002496,1.0000866227503855,-86.6317041670009
7.399511552,1.0000412184495524,-86.91545151101737
7.40602112,0.9999932535527332,-87.19865406639403
7.412530688,0.9999452926581388,-87.4812907727505
7.419039744,0.9999001284689544,-87.76342869010529
7.425549312,0.9998604868748548,-88.04508150050093
7.432058368,0.9998282326079782,-88.32632045527258
7.438567936,0.9998057006740024,-88.60728874080363
7.445077504,0.9997936451830635,-88.88818816453163
7.45158656,0.9997931046725356,-89.16907848923445
7.458096128,0.9998039887627697,-89.45012404025333
7.464605184,0.9998257859315092,-89.73150955996927
7.471114752,0.999857095330963,-90.01338148592025
7.47762432,0.9998963838351392,-90.29583225241349
7.484133376,0.9999413187472167,-90.57896713904874
7.490642944,0.9999893567723205,-90.86285765435895
7.497152,1.0000377222077503,-91.1475222864789
7.503661568,1.000083728048211,-91.43289679201708
7.510170624,1.000124829759264,-91.71900685526042
7.516680192,1.0001587136052343,-92.00575678590373
7.52318976,1.0001834240886065,-92.2930177757837
7.529698816,1.0001974501034518,-92.58060467807877
7.536208384,1.0002002045165164,-92.86844332469593
7.54271744,1.0001913197957089,-93.15634559802494
7.549227008,1.0001713559240346,-93.44416232461907
7.555736576,1.0001415974177044,-93.73174612521045
7.562245632,1.000103428179189,-94.0189757332301
7.5687552,1.0000592167345592,-94.30573812925702
7.575264256,1.0000113499253973,-94.59196004312165
7.581773824,0.9999624388215698,-94.87765369606826
7.588283392,0.9999155981578863,-95.16276606426187
7.594792448,0.999873007811075,-95.4474097524792
7.601302016,0.9998374841618295,-95.731591401648
7.607811072,0.9998108073657799,-96.0154666423295
7.61432064,0.9997944465567808,-96.29912390915116
7.620829696,0.999789569649925,-96.58278280016215
7.627339264,0.999796331334365,-96.86651425407067
7.633848832,0.9998144548940037,-97.1505644353834
7.640357888,0.999842562245528,-97.43500136983191
7.646867456,0.9998795603724925,-97.72000466245922
7.653376512,0.9999231289717875,-98.00564614076605
7.65988608,0.9999706845226645,-98.2920286266781
7.666395648,1.000019800597725,-98.57916625483962
7.672904704,1.0000676464299154,-98.86708057307884
7.679414272,1.0001114049767943,-99.15573418892482
7.685923328,1.0001485450220045,-99.44505044620428
7.692432896,1.000177276276602,-99.73488932269245
7.698942464,1.0001956374298007,-100.02521132916094
7.70545152,1.0002027864950307,-100.31578359958824
7.711961088,1.0001981572251555,-100.60646602617905
7.718470144,1.000182088234653,-100.89713300281268
7.724979712,1.0001556049707585,-101.18757191786344
7.731488768,1.0001198769698534,-101.4777344860648
7.737998336,1.0000772008304224,-101.76745094015789
7.744507904,1.000029888412704,-102.05661853929324
7.75101696,0.9999804865632164,-102.34528304647512
7.757526528,0.9999319596151884,-102.63334027311205
7.764035584,0.9998869747353534,-102.92086202383524
7.770545152,0.9998481454513888,-103.2079127526172
7.77705472,0.9998175177990957,-103.49460324063352
7.783563776,0.9997969037993653,-103.7810210946241
7.790073344,0.9997875907362946,-104.06732141710165
7.7965824,0.9997899308255178,-104.35369788386835
7.803091968,0.9998038894294491,-104.64028436034583
7.809601536,0.9998287579417411,-104.92724520712906
7.816110592,0.9998629968486734,-105.21471431833697
7.82262016,0.9999047968399725,-105.50278722631865
7.829129216,0.999951744322863,-105.79157015765566
7.835638784,1.000001297524639,-106.08110206256602
7.84214784,1.00005045169976,-106.37140448306765
7.848657408,1.0000965870069136,-106.66250322631059
7.855166976,1.0001370132425702,-106.95424838985284
7.861676032,1.0001694489408328,-107.24664783627681
7.8681856,1.0001922266528334,-107.539471962047
7.874694656,1.0002038343411184,-107.83268076729667
7.881204224,1.0002036322868963,-108.12600749151301
7.887713792,1.0001917678694183,-108.41941405381638
7.894222848,1.0001687100512837,-108.71262134253757
7.900732416,1.0001359801606633,-109.00559415975479
7.907241472,1.0000951699235359,-109.29815446829828
7.91375104,1.0000487081277973,-109.59019631916178
7.920260608,0.999999195615006,-109.88168452262927
7.926769664,0.9999494191513281,-110.17260201981804
7.933279232,0.9999023014215107,-110.46293082708387
7.939788288,0.999860246583055,-110.75272633572031
7.946297856,0.9998258303406843,-111.04214934752224
7.952806912,0.9998009710878426,-111.33124343417443
7.95931648,0.9997870763401465,-111.62016843021685
7.965826048,0.9997848794374636,-111.90906070157094
7.972335104,0.9997946941001632,-112.19811650218425
7.978844672,0.9998157855483796,-112.48747505380356
7.985353728,0.9998471396337771,-112.77728435118262
7.991863296,0.9998866975044534,-113.0676591076448
7.998372864,0.9999325958109196,-113.3587368260029
8.00488192,0.9999820391606931,-113.65054576386099
8.011391488,1.0000322914764173,-113.94314058444547
8.017900544,1.0000804681183024,-114.23651618879205
8.024410112,1.0001239033831881,-114.53061643287302
8.03091968,1.0001601727808782,-114.82534766898154
8.037428736,1.0001870525630505,-115.12059974991897
8.043938304,1.0002032235186629,-115.41626791622615
8.05044736,1.0002076101315043,-115.71213327306073
8.056956928,1.0002000711237995,-116.0081208807175
8.063465984,1.0001808350011725,-116.30399425241662
8.069975552,1.00015122943722,-116.59959906321622
8.07648512,1.0001128250951883,-116.89485868849646
8.082994176,1.0000676126459547,-117.18967749978654
8.089503744,1.0000183245580925,-117.48388034827707
8.0960128,0.9999676661783868,-117.77749800287633
8.102522368,0.9999185105016524,-118.07055313162502
8.109031936,0.9998736870389117,-118.36304517070364
8.115540992,0.999835654689982,-118.65503819712181
8.12205056,0.9998065733244018,-118.94670114077017
8.128559616,0.9997881393762268,-119.23809777340868
8.135069184,0.9997813558233594,-119.52939752872048
8.141578752,0.9997866961407765,-119.82080575211806
8.148087808,0.9998037905990476,-120.11245699744666
8.154597376,0.9998317105850206,-120.40451460078874
8.161106432,0.9998688830939167,-120.69706165449651
8.167616,0.9999132557274762,-120.99028035737699
8.174125056,0.9999622814106189,-121.28426295941976
8.180634624,1.000013186781203,-121.57896962687968
8.187144192,1.0000631483024343,-121.87448987830895
8.193653248,1.00010936692456,-122.17075559255389
8.200162816,1.0001490783574094,-122.46767567548159
8.206671872,1.0001802618080018,-122.76516225076229
8.21318144,1.0002009608886049,-123.0631385819252
8.219691008,1.000210077335947,-123.36141515665823
8.226200064,1.0002070373393919,-123.65975656446903
8.232709632,1.0001920032005769,-123.95810217820978
8.239218688,1.0001659015428814,-124.25626951910594
8.245728256,1.0001300753034392,-124.55409730055402
8.252237824,1.0000865959049998,-124.85145765617915
8.25874688,1.000037874584746,-125.14827549756784
8.265256448,0.9999867643462084,-125.4444871043961
8.271765504,0.9999360761784049,-125.74007648629784
8.278275072,0.999888566449802,-126.03511914669348
8.284784128,0.9998471127719843,-126.32961967165444
8.291293696,0.9998138742207737,-126.62364390767992
8.297803264,0.9997908694001186,-126.91742453365663
8.30431232,0.9997794235288961,-127.21105406893615
8.310821888,0.9997801139589381,-127.5046492230665
8.317330944,0.9997929775942247,-127.79845567745562
8.323840512,0.9998171957767934,-128.09258352489562
8.33035008,0.9998515586501382,-128.38718957590063
8.336859136,0.9998940016671078,-128.6824214138917
8.343368704,0.9999422172561615,-128.9783374263428
8.34987776,0.9999934543314755,-129.27504708353223
8.356387328,1.0000448299040734,-129.5725118598791
8.362896896,1.0000935099535448,-129.87076499594517
8.369405952,1.0001366193604413,-130.16970728496477
8.37591552,1.0001718067002239,-130.46929653533934
8.382424576,1.0001970479265105,-130.76939087989413
8.388934144,1.0002108278450703,-131.06980485411657
8.3954432,1.0002125854674666,-131.3704215646036
8.401952768,1.0002019214235278,-131.67104575278827
8.408462336,1.0001796554761477,-131.9715446295601
8.414971392,1.000146912767997,-132.27176121475773
8.42148096,1.0001055234349787,-132.57152932244807
8.427990016,1.0000578782503493,-132.87075913864732
8.434499584,1.0000066513401515,-133.16939228787172
8.441009152,0.9999546399783152,-133.46741562738262
8.447518208,0.9999048471411293,-133.76481041889926
8.454027776,0.9998601191661015,-134.06163382447747
8.460536832,0.9998229781697179,-134.3579779700039
8.4670464,0.9997954729703251,-134.65394141287717
8.473555968,0.9997792237905148,-134.94969025606176
8.480065024,0.999775109107757,-135.24536710050182
8.486574592,0.9997833493278464,-135.5411500922918
8.493083648,0.9998037697851119,-135.83722954911792
8.499593216,0.9998348063967822,-136.13372032189196
8.506102272,0.9998750001595459,-136.4307849321847
8.51261184,0.9999220281408417,-136.72851433546182
8.519121408,0.9999732002456521,-137.0269668643426
8.525630464,1.0000256904357698,-137.32621900444394
8.532140032,1.000076394573219,-137.6262838375167
8.538649088,1.0001226596476431,-137.9270633655585
8.545158656,1.0001617851851143,-138.22849443099346
8.551668224,1.0001914704413715,-138.53047950814334
8.55817728,1.000210072281666,-138.83286810618281
8.564686848,1.0002166589087371,-139.13551836195592
8.571195904,1.0002105664713956,-139.4382470407295
8.577705472,1.0001924257810697,-139.74087982418934
8.58421504,1.0001630671504,-140.04324998632444
8.590724096,1.0001241521226594,-140.34524558470298
8.597233664,1.000077957518725,-140.64671731791915
