freq,mag,phase
6.0,0.99988670113523,-157.79512047738382
6.007194112,0.9998602085946481,-158.21146558951844
6.014388736,0.9998416159770557,-158.62744948288952
6.021582848,0.9998317955217942,-159.0431814441399
6.02877696,0.9998311059042331,-159.45875881555605
6.035971072,0.999839723906412,-159.8743243375601
6.043165696,0.9998571725319872,-160.29004539417585
6.050359808,0.9998824650305911,-160.70594972899582
6.05755392,0.9999143568680351,-161.1221967923286
6.064748032,0.9999508842115127,-161.53882659730877
6.071942656,0.9999904168489904,-161.95590453738438
6.079136768,1.0000305753531213,-162.37342547560414
6.08633088,1.0000693869799462,-162.79142785453377
6.093524992,1.000104624878251,-163.20986325688187
6.100719616,1.0001344718730625,-163.6286624978665
6.107913728,1.0001572192597548,-164.04775491854122
6.11510784,1.000171834351548,-164.46703997990534
6.122301952,1.0001773835473344,-164.886386037954
6.129496576,1.000173552482187,-165.30567349776373
6.136690688,1.0001606441373758,-165.72476775448143
6.1438848,1.0001392157466633,-166.1435998746188
6.151078912,1.0001105945381805,-166.56200833038102
6.158273536,1.0000760579973114,-166.9799410615477
6.165467648,1.0000376966816764,-167.39729942555786
6.17266176,0.9999975310070581,-167.81408225112048
6.179855872,0.9999576370346974,-168.2302515117097
6.187050496,0.9999201375125988,-168.64583252149282
6.194244608,0.9998870522976341,-169.06088041137406
6.20143872,0.9998603796252119,-169.4754801504716
6.208633344,0.9998412794431839,-169.88966521820305
6.215827456,0.9998309627034985,-170.30359733198654
6.223021568,0.9998298392685192,-170.71738541740112
6.23021568,0.9998381489926378,-171.13115377860288
6.237410304,0.9998552621639216,-171.5450140057991
6.244604416,0.9998804730082668,-171.95908366720494
6.251798528,0.9999122569564434,-172.37347131380596
6.25899264,0.9999489889433087,-172.78822238171205
6.266187264,0.9999885703175866,-173.20345048126578
6.273381376,1.0000291321574315,-173.61912269996023
6.280575488,1.0000682257138203,-174.0352545271054
6.2877696,1.000103991048991,-174.45183975316513
6.294964224,1.0001342492689167,-174.8687696808328
6.302158336,1.0001575467064587,-175.28597653923043
6.309352448,1.000172649921235,-175.70337997362793
6.31654656,1.0001785751129169,-176.1208541850332
6.323741184,1.0001751733255515,-176.5382671229734
6.330935296,1.0001625213054537,-176.95548686553138
6.338129408,1.0001412875838163,-177.37244547597476
6.34532352,1.0001126585048956,-177.7889537552978
6.352518144,1.000078214608863,-178.2050043146875
6.359712256,1.0000396337420794,-178.620476211088
6.366906368,0.9999992124405251,-179.03535070375324
6.37410048,0.9999588182752805,-179.44959457282042
6.381295104,0.9999210110877043,-179.86324441193423
6.388489216,0.9998874740080282,179.723648793807
6.395683328,0.9998603320688488,179.31103329953734
6.402877952,0.9998408002111014,178.89880405071008
6.410072064,0.999830029589407,178.48685080593762
6.417266176,0.9998285182953646,178.07505232826574
6.424460288,0.9998364559686076,177.66330425059044
6.431654912,0.9998533433252493,177.2514616384755
6.438849024,0.9998783643747553,176.83941153697359
6.446043136,0.9999102602357912,176.4270598876745
6.453237248,0.9999470944324836,176.01431704277957
6.460431872,0.999986999095684,175.60111695878118
6.467625984,1.0000278747492577,175.18748873138185
6.474820096,1.0000673221004384,174.77341069415013
6.482014208,1.0001034341725104,174.35888940211888
6.489208832,1.0001342353761178,173.94399424270998
6.496402944,1.0001580993629242,173.52880741824347
6.503597056,1.0001735371778677,173.1134353399781
6.510791168,1.0001799036709444,172.6980082376496
6.517985792,1.0001768237857032,172.2826380202326
6.525179904,1.0001644892887547,171.8674251391859
6.532374016,1.0001432483885735,171.45252702944003
6.539568128,1.0001147296060813,171.03804409621918
6.546762752,1.0000801328804343,170.62408296034516
6.553956864,1.0000414346210922,170.2106558082485
6.561150976,1.000000728144405,169.79785332594818
6.568345088,0.9999600223462679,169.3856878078677
6.575539712,0.9999216503838578,168.97411267164804
6.582733824,0.9998878657274444,168.56311382269723
6.589927936,0.9998601523442078,168.1525932066798
6.597122048,0.9998401250832173,167.74248174264156
6.604316672,0.9998289209491777,167.33265665406918
6.611510784,0.9998271236495182,166.92299773564326
6.618704896,0.9998347788378901,166.5133969260881
6.62589952,0.9998516546901338,166.10368090116444
6.633093632,0.9998765550184923,165.69380163816345
6.640287744,0.9999083662573036,165.28360230706772
6.647481856,0.9999452794942769,164.87302281862455
6.65467648,0.9999854094844358,164.46203467894404
6.661870592,1.000026610337041,164.0505741740694
6.669064704,1.0000665302716452,163.63863225131473
6.676258816,1.0001030804871296,163.22630018836875
6.68345344,1.0001343978609012,162.8135686262188
6.690647552,1.000158558005052,162.4005492342014
6.697841664,1.0001744698982507,161.98733646314685
6.705035776,1.000181197660824,161.5740627879982
6.7122304,1.0001784157991858,161.1608290902319
6.719424512,1.0001662381707057,160.74778899975848
6.726618624,1.0001451809058657,160.33505913806204
6.733812736,1.0001166282428233,159.9227402151657
6.74100736,1.0000819881168908,159.5109133496616
6.748201472,1.0000430495116386,159.0996842569042
6.755395584,1.0000020583757554,158.6890486308257
6.762589696,0.9999610167223942,158.27905934092223
6.76978432,0.9999222478376462,157.8696961036755
6.776978432,0.9998879277896142,157.46089272735193
6.784172544,0.9998598098580691,157.0525868712328
6.791366656,0.9998393177448923,156.6447065989362
6.79856128,0.9998278145478134,156.23710164448227
6.805755392,0.9998256869493177,155.8296831737183
6.812949504,0.9998330717522631,155.42231779471317
6.820144128,0.999849684430083,155.01488387460995
6.82733824,0.9998747061546579,154.6072356072284
6.834532352,0.9999065424087721,154.1993028929509
6.841726464,0.9999436304412528,153.79098244344576
6.848921088,0.9999840442777929,153.38224623651783
6.8561152,1.0000255413493842,152.97303993427963
6.863309312,1.0000657947598177,152.56336946876772
6.870503424,1.0001028666561602,152.15325258710567
6.877698048,1.0001344878545313,151.74278107164977
6.88489216,1.0001591926466968,151.33198194769918
6.892086272,1.0001754387925024,150.9210262847225
6.899280384,1.00018249556196,150.5099841981117
6.906475008,1.0001799432648186,150.0989991270031
6.91366912,1.0001679372474435,149.68820398142316
6.920863232,1.0001470493836988,149.2777048855234
6.928057344,1.000118333914958,148.86762370153568
6.935251968,1.0000836177176793,148.4580515245653
6.94244608,1.0000445124212671,148.04905255607397
6.949640192,1.0000031187223883,147.64068458322146
6.956834304,0.9999617633787025,147.23292919974136
6.964028928,0.9999226218583019,146.82582322414711
6.97122304,0.9998878778289444,146.41928120964542
6.978417152,0.999859222396374,146.0132667564645
6.985611264,0.9998383301736439,145.60767054989157
6.992805888,0.9998264097965213,145.2023571345169
7.0,0.999824035024316,144.79724419256425
7.007194112,0.9998312191998693,144.39217532930138
7.014388736,0.9998477290865393,143.98703141704107
7.021582848,0.9998727489964362,143.58170830297172
7.02877696,0.9999047159580883,143.176070497137
7.035971072,0.9999420185795418,142.77005642246573
7.043165696,0.9999827158330428,142.36361178524814
7.050359808,1.000024546163259,141.9567155257845
7.05755392,1.0000652944768305,141.54934010540117
7.064748032,1.0001026608351318,141.14151555053778
7.071942656,1.000134810663883,140.7333258606682
7.079136768,1.0001597950491112,140.3248352638317
7.08633088,1.000176435692871,139.9161346148585
7.093524992,1.0001838493214814,139.50737897411005
7.100719616,1.0001815866550439,139.0986616494693
7.107913728,1.0001696214270763,138.69012181933203
7.11510784,1.0001486447923862,138.28188876926342
7.122301952,1.0001200757012003,137.87408826474984
7.129496576,1.0000850351641553,137.46676689154182
7.136690688,1.000045631986564,137.06004602449943
7.1438848,1.00000398202164,136.6539418065871
7.151078912,0.9999622791868773,136.24848839250015
7.158273536,0.9999226850681416,135.84367539206622
7.165467648,0.999887482370672,135.4394356750889
7.17266176,0.9998585214552939,135.0357035821639
7.179855872,0.9998372216262654,134.63240435033939
7.187050496,0.9998249676749786,134.22940761496
7.194244608,0.9998223533375333,133.8266181802717
7.20143872,0.9998294735008837,133.42384921809224
7.208633344,0.9998459717420446,133.02104597351072
7.215827456,0.9998708959462456,132.61802353407643
7.223021568,0.999903002509539,132.21469838936582
7.23021568,0.999940626114574,131.81102704548724
7.237410304,0.9999815448801659,131.40687406307822
7.244604416,1.000023857100653,131.002273233892
7.251798528,1.0000648870352156,130.59718881662462
7.25899264,1.0001026948958687,130.19166645905992
7.266187264,1.0001351631675288,129.78576466728873
7.273381376,1.0001607543151958,129.37952724170003
7.280575488,1.0001776663394075,128.97312499989198
7.2877696,1.0001852867393437,128.5666148878094
7.294964224,1.0001831004104076,128.16017283756145
7.302158336,1.0001712506886682,127.75388443975397
7.309352448,1.0001503716602085,127.34793225738191
7.31654656,1.0001216183155135,126.94235374516893
7.323741184,1.0000863581729993,126.5373270707259
7.330935296,1.0000467410499965,126.13285239402428
7.338129408,1.0000046967264653,125.72903917741995
7.34532352,0.9999625427530582,125.3258648970317
7.352518144,0.9999225659597578,124.92329585500467
7.359712256,0.9998869078026804,124.52132509015864
7.366906368,0.9998575553775458,124.11989342679279
7.37410048,0.9998360436180276,123.71887305555497
7.381295104,0.9998235012522542,123.31818501857546
7.388489216,0.9998206535632916,122.9176628748951
7.395683328,0.9998276815078704,122.51718050847269
7.402877952,0.9998441094438189,122.11666219684648
7.410072064,0.999869179598151,121.71593037471834
7.417266176,0.9999014639254961,121.31489266496948
7.424460288,0.9999392828679077,120.91349242507661
7.431654912,0.9999806241945282,120.51161502942394
7.438849024,1.0000231311681018,120.10926638209426
7.446043136,1.000064738969628,119.70645058234838
7.453237248,1.0001029423701178,119.30317251114904
7.460431872,1.000135786150595,118.89951867652053
7.467625984,1.0001616466367862,118.49553333013853
7.474820096,1.0001789067381013,118.09135567445821
7.482014208,1.0001867295983946,117.68708301972593
7.489208832,1.0001847089351719,117.28282769233148
7.496402944,1.0001728254323798,116.87878211007398
7.503597056,1.0001519223078799,116.4750272717059
7.510791168,1.000122940411546,116.07167011539103
7.517985792,1.0000875691340019,115.66884436142466
7.525179904,1.000047530278142,115.26659507260486
7.532374016,1.0000051359861593,114.86498964357021
7.539568128,0.9999626144343469,114.4640274380135
7.546762752,0.99992226937337,114.06369649486798
7.553956864,0.9998861740777701,113.66396663551733
7.561150976,0.9998564368824477,113.26473626995137
7.568345088,0.9998346192758589,112.86594951851478
7.575539712,0.9998218387356523,112.4674700202081
7.582733824,0.9998188272906103,112.06919039209095
7.589927936,0.9998258509805805,111.67095749909798
7.597122048,0.9998422709745844,111.27265338674184
7.604316672,0.9998675539865367,110.8741471084529
7.611510784,0.9999000410238911,110.47531957582925
7.618704896,0.9999381433772546,110.0761105993425
7.62589952,0.9999798303888268,109.67643258435086
7.633093632,1.0000228010872638,109.2762985560607
7.640287744,1.0000646176159071,108.87566431963033
7.647481856,1.0001033721700276,108.47456909265773
7.65467648,1.0001365584273167,108.07306863137619
7.661870592,1.0001626727639394,107.67123148845705
7.669064704,1.0001802485554347,107.26920635205568
7.676258816,1.000188258754856,106.86708405368296
7.68345344,1.0001863928720727,106.46498167236726
7.690647552,1.000174426707558,106.0630577025689
7.697841664,1.000153383330794,105.66142586507073
7.705035776,1.000124310985692,105.26021970482847
7.7122304,1.0000885961102592,104.85950298472596
7.719424512,1.0000482202795138,104.45938629589277
7.726618624,1.0000054388292674,104.05990487465175
7.733812736,0.9999624738700028,103.66108035192319
7.74100736,0.9999217248399587,103.2628802532075
7.748201472,0.9998852875865569,102.86527325414858
7.755395584,0.9998552850218244,102.46820337715151
7.762589696,0.9998331131437775,102.07154706137513
7.76978432,0.9998200469710787,101.67521749644533
7.776978432,0.999816956804079,101.27907153870848
7.784172544,0.999823881260806,100.88295222726994
7.791366656,0.999840504836178,100.48677590055094
7.79856128,0.99986581726822,100.09037745727352
7.805755392,0.999898593216767,99.69367366897133
7.812949504,0.9999370872936841,99.29657334027377
7.820144128,0.9999790717734128,98.89901050704985
7.82733824,1.0000224277609406,98.500945126254
7.834532352,1.0000648015019398,98.10240126411021
7.841726464,1.0001038383989347,97.70335332519066
7.848921088,1.000137438169993,97.3039077217216
7.8561152,1.0001638951064622,96.90412422157381
7.863309312,1.000181614233649,96.50413180844602
7.870503424,1.000189791598507,96.10403477960138
7.877698048,1.0001879307720711,95.70397258425352
7.88489216,1.0001760827001582,95.30406038290099
7.892086272,1.000154890637707,94.90445047996127
7.899280384,1.0001254563916187,94.50525272962683
7.906475008,1.0000894628127563,94.10656466772696
7.91366912,1.0000487539921277,93.70846404923276
7.920863232,1.0000055170684752,93.31099903197058
7.928057344,0.9999621790691171,92.91418582158765
7.935251968,0.9999209460640085,92.51800395767854
7.94244608,0.9998841490301239,92.1224334192029
7.949640192,0.999853774856298,91.72735538893988
7.956834304,0.9998313511839645,91.33270628165236
7.964028928,0.999818248560887,90.93839554439165
7.97122304,0.9998150325721176,90.54425070630572
7.978417152,0.9998218773504506,90.1501480045382
7.985611264,0.9998386002048822,89.75595808927545
7.992805888,0.9998642444461024,89.36156285861763
8.0,0.9998973139834874,88.96684491982923
8.007194112,0.9999361225270831,88.57170446908617
8.014388736,0.9999785735728123,88.17611278338444
8.021582848,1.0000223199074334,87.77998762856136
8.02877696,1.000065083345257,87.38335487221359
8.035971072,1.0001045469391614,86.98626366957133
8.043165696,1.0001385327511516,86.58871563350007
8.050359808,1.0001652309262268,86.19085155591259
8.05755392,1.0001831801370462,85.79276108247447
8.064748032,1.0001913830431852,85.39455025439068
8.071942656,1.0001895709402953,84.9963580013414
8.079136768,1.0001775553567014,84.59833903311954
8.08633088,1.0001561742940044,84.20059799937252
8.093524992,1.000126505739435,83.80327455553069
8.100719616,1.0000900636287322,83.40646627263295
8.107913728,1.0000490014287517,83.01023081906858
8.11510784,1.0000053862638438,82.61462689007932
8.122301952,0.9999615936114704,82.21967491637542
8.129496576,0.9999199720964699,81.82535688433185
8.136690688,0.999882852317784,81.43164506975062
8.1438848,0.9998521689554644,81.03844447436319
8.151078912,0.999829455736701,80.64567120513078
8.158273536,0.9998161243529288,80.25321718571645
8.165467648,0.9998129583985944,79.86092285331728
8.17266176,0.9998199010757979,79.46866970426841
8.179855872,0.9998368140178289,79.07632635902479
8.187050496,0.9998626520949693,78.68376058009567
8.194244608,0.9998961220829212,78.29085746390913
8.20143872,0.9999352046309596,77.89752974187348
8.208633344,0.9999781330354717,77.50372718401786
8.215827456,1.0000223808073145,77.10940917525316
8.223021568,1.0000655390512165,76.71455162783225
8.23021568,1.0001054237504867,76.31920593592038
8.237410304,1.000139730012914,75.92342731053488
8.244604416,1.0001667435084138,75.52730716650748
8.251798528,1.00018476749941,75.13093326621517
8.25899264,1.0001932008089751,74.7344491079402
8.266187264,1.0001912482780697,74.33798368139061
8.273381376,1.0001791567993727,73.94166608193478
8.280575488,1.000157547979908,73.54562438177005
8.2877696,1.0001275261557654,73.15001328370556
8.294964224,1.000090756140426,72.7548827289196
8.302158336,1.0000492395946923,72.36035480382347
8.309352448,1.0000051763507187,71.96645383531599
8.31654656,0.9999609207295805,71.57320024117186
8.323741184,0.9999188759481162,71.18057622838755
8.330935296,0.9998813782651691,70.78855925812036
8.338129408,0.9998503171073369,70.39706148544339
8.34532352,0.9998275008356121,70.0059774548488
8.352518144,0.9998141068460765,69.61519199083425
8.359712256,0.9998107890554009,69.22458294006796
8.366906368,0.9998179426279844,68.83399107764438
8.37410048,0.999835092606665,68.44333008293358
8.381295104,0.9998612241604488,68.05240373663025
8.388489216,0.9998949757020038,67.66113865705456
8.395683328,0.9999345788052191,67.269457924683
8.402877952,0.999977890627508,66.87725872293286
8.410072064,1.0000225768286155,66.4845349393834
8.417266176,1.0000662508820157,66.09127526935572
8.424460288,1.0001064480698243,65.69749984160178
8.431654912,1.0001411638027458,65.30328038304499
8.438849024,1.000168337847624,64.9087036360155
8.446043136,1.0001866590877304,64.51387650635438
8.453237248,1.000194950886545,64.1189203585303
8.460431872,1.0001930015671434,63.723974151177394
8.467625984,1.0001807407830459,63.32917494878788
8.474820096,1.000158758931927,62.934667705603786
8.482014208,1.0001284756286115,62.540557932259915
8.489208832,1.000091260773997,62.1469382123989
8.496402944,1.000049283258959,61.75391401638186
8.503597056,1.0000047816356907,61.3615243460782
8.510791168,0.9999600299839314,60.96977076676335
8.517985792,0.999917602394553,60.57866251744482
8.525179904,0.9998797055486871,60.188146080052114
8.532374016,0.999848359530182,59.79814476199697
8.539568128,0.9998253799616005,59.408541322547315
8.546762752,0.9998118913789651,59.0192595398475
8.553956864,0.9998086176361147,58.63012175917684
8.561150976,0.999815961841341,58.24102152417398
8.568345088,0.9998331929829489,57.8517942315636
8.575539712,0.9998597126567464,57.46233286393006
8.582733824,0.9998939114147657,57.072510383557436
8.589927936,0.9999339646581663,56.68223995032318
8.597122048,0.9999777752274659,56.2914526432664
8.604316672,1.0000229749040175,55.90012624267012
8.611511296,1.0000670858505452,55.50825069325111
8.618704896,1.0001076589465554,55.115833719855644
8.62589952,1.0001426701458724,54.72298014208021
8.63309312,1.000170106942975,54.32973941435475
8.640287744,1.0001885246964564,53.93625007372318
8.647482368,1.0001968561478203,53.54260775521834
8.654675968,1.0001948065047825,53.14898005194085
8.661870592,1.0001822841296752,52.755512283445384
8.669065216,1.0001601121268895,52.362298480176385
8.676258816,1.0001293329420489,51.96948078392605
8.68345344,1.000091751854566,51.57717567031951
8.69064704,1.0000491906414173,51.185453531847614
8.697841664,1.0000041833771078,50.79435672396652
8.705036288,0.9999590471241071,50.40389155702692
8.712229888,0.9999161079753506,50.01407776369746
8.719424512,0.9998778239392629,49.62486067665015
8.726619136,0.9998462276470291,49.23613582898849
8.733812736,0.9998230979559969,48.84783227418549
8.74100736,0.9998095371272785,48.4598093947291
8.74820096,0.9998064398312719,48.07195100178954
8.755395584,0.999813790428157,47.68409660567057
8.762590208,0.9998314646513288,47.296122437300106
8.769783808,0.9998582503705493,46.90788983467357
8.776978432,0.9998929698693054,46.51928005100917
8.784173056,0.999933464623518,46.130219546613844
8.791366656,0.9999777362446344,45.74062401316987
8.79856128,1.0000234953281244,45.35046400783824
8.805755904,1.0000680018755295,44.95974257948175
8.812949504,1.0001090146179101,44.56849235277246
8.820144128,1.0001443126667946,44.17675920073578
8.827337728,1.0001719697990132,43.78463402556089
8.834532352,1.0001904948739666,43.392253613335384
8.841726976,1.0001988503715211,42.99972431328599
8.848920576,1.0001966731067025,42.607191155645936
8.8561152,1.0001839146128169,42.21478753701517
8.863309824,1.0001613248473402,41.82266645853092
8.870503424,1.0001302325827988,41.430921593035215
8.877698048,1.0000920718204729,41.03969539608693
8.884891648,1.0000490821072687,40.64904450388541
8.892086272,1.000003531374453,40.259017386722334
8.899280896,0.9999579124894422,39.86964085242226
8.906474496,0.9999145186810303,39.48087924239982
8.91366912,0.9998759124925735,39.09272399892746
8.920863744,0.999844034140885,38.70507684478101
