freq,mag,phase
6.0,1.0001395596384042,-21.609644087498488
6.010944,1.0002149569451908,-21.991837199911192
6.021888,1.0002796117967125,-22.37499604491381
6.032831488,1.0003305973951064,-22.759028578350375
6.043775488,1.0003654561067343,-23.14364749276697
6.054719488,1.0003823587688074,-23.52861935838351
6.065663488,1.0003804487081494,-23.913803807988764
6.076607488,1.0003596326577207,-24.2989522919609
6.087551488,1.0003210078445222,-24.68371048594676
6.098494976,1.0002664604408205,-25.068009381935383
6.109438976,1.0001982225235773,-25.451584911035475
6.120382976,1.0001202967041642,-25.83431582815524
6.131326976,1.0000358172885535,-26.216011587180926
6.142270976,0.9999491212105508,-26.59672392767766
6.153214976,0.9998645026450036,-26.97641523606242
6.164158464,0.9997862210982252,-27.35514347693728
6.175102464,0.9997178813166112,-27.73303254099294
6.186046464,0.9996630006021026,-28.110119901017125
6.196990464,0.9996243108657626,-28.48668217383231
6.207934464,0.9996038612890833,-28.862956889062144
6.218878464,0.9996026994981877,-29.239106418947717
6.229821952,0.999620768874711,-29.61544197921902
6.240765952,0.9996572976568492,-29.992230286304945
6.251709952,0.9997106188466893,-30.36961903776553
6.262653952,0.9997782328042119,-30.747825052861444
6.273597952,0.9998568265044998,-31.12703482887942
6.284541952,0.9999424637928502,-31.507366839711164
6.29548544,1.0000310984488467,-31.88885917615488
6.30642944,1.0001183004581693,-32.271570944320686
6.31737344,1.0001999694826662,-32.6553990935084
6.32831744,1.0002718243795954,-33.04032957322842
6.33926144,1.0003305216787435,-33.42610272613581
6.35020544,1.0003729450352392,-33.81261122425295
6.361148928,1.0003971596289116,-34.19962633116383
6.372092928,1.0004017885519993,-34.58690023521611
6.383036928,1.0003866739145528,-34.9741961616342
6.393980928,1.0003524057537299,-35.3612591762085
6.404924928,1.0003005355899153,-35.74785580616102
6.415868928,1.0002337025982195,-36.133746156287856
6.426812416,1.0001548962772433,-36.518751073739224
6.437756416,1.0000681263356697,-36.90282238056546
6.448700416,0.9999776148881591,-37.28582200138801
6.459644416,0.9998876329035269,-37.66774229070546
6.470588416,0.9998028761857544,-38.048605851477795
6.481531904,0.9997273545176122,-38.42852053500906
6.492475904,0.9996647277938617,-38.80759754363854
6.503419904,0.9996183902757978,-39.18604976728603
6.514363904,0.9995901777530112,-39.56411459675071
6.525307904,0.999581960103149,-39.94199460953449
6.536251904,0.9995941194736744,-40.31996202611953
6.547195392,0.999626137127317,-40.698235511743526
6.558139392,0.9996765478859605,-41.07710055114695
6.569083392,0.999742628224003,-41.456805964798626
6.580027392,0.9998214595971051,-41.837492439531815
6.590971392,0.9999090893829238,-42.219311800739106
6.601915392,1.0000015634057355,-42.60235177127966
6.61285888,1.0000940507419256,-42.986624771573865
6.62380288,1.000182026127582,-43.37214420261911
6.63474688,1.0002613194451875,-43.75878876023025
6.64569088,1.0003277925510952,-44.14641996842232
6.65663488,1.0003784217872715,-44.534887438583375
6.66757888,1.000410361928724,-44.9239927952068
6.678522368,1.0004222147348345,-45.31340919904856
6.689466368,1.000413169945204,-45.70296865060223
6.700410368,1.0003838733957884,-46.09232901979602
6.711354368,1.0003355379033305,-46.48128616515051
6.722298368,1.000270181992611,-46.86960325972358
6.733242368,1.0001913317307125,-47.25707511959604
6.744185856,1.000102781563444,-47.64353333196558
6.755129856,1.0000087117038876,-48.0289469441567
6.766073856,0.9999136436968594,-48.413177804368544
6.777017856,0.9998222770930514,-48.79632885261236
6.787961856,0.9997393704926995,-49.17840587982318
6.798905856,0.9996687043924872,-49.55958368874396
6.809849344,0.9996140759784722,-49.93998779747578
6.820793344,0.9995778922731675,-50.31993963109834
6.831737344,0.9995622633349923,-50.69957243751667
6.842681344,0.9995679035250087,-51.07923402972582
6.853625344,0.9995945520336393,-51.45916657744977
6.864568832,0.9996411365161767,-51.83963598797988
6.875512832,0.9997053137997036,-52.22083467631672
6.886456832,0.9997840572361275,-52.603044991239244
6.897400832,0.9998735530372777,-52.98638573004942
6.908344832,0.9999693804927253,-53.37100438205399
6.919288832,1.0000668859374329,-53.756894419731275
6.93023232,1.0001612906357782,-54.14411910839907
6.94117632,1.0002479803030526,-54.532532733754664
6.95212032,1.00032270764819,-54.92209823549005
6.96306432,1.0003816911182013,-55.31254744453155
6.97400832,1.0004220199921252,-55.70374039712455
6.98495232,1.0004416121509283,-56.095416329272794
6.995895808,1.0004394905896923,-56.48725441370275
7.006839808,1.000415704412464,-56.87901252232113
7.017783808,1.00037134629689,-57.27042654668304
7.028727808,1.0003083934333528,-57.66121501178774
7.039671808,1.0002301929518895,-58.05119947105713
7.050615808,1.000139930416456,-58.44024160946755
7.061559296,1.0000426478289604,-58.82810100397613
7.072503296,0.9999427196399154,-59.21476867522239
7.083447296,0.999845064136373,-59.6002826844428
7.094391296,0.9997544665071623,-59.98468798079886
7.105335296,0.9996756221027835,-60.3680399039254
7.116279296,0.9996123997815536,-60.75056455739221
7.127222784,0.9995676270124362,-61.13244565880212
7.138166784,0.9995438199243583,-61.51399776661467
7.149110784,0.9995423406319636,-61.89541024203407
7.160054784,0.9995631454322729,-62.27703360335746
7.170998784,0.9996052327334303,-62.65912729702522
7.181942784,0.999666793880427,-63.04194423419012
7.192886272,0.9997449563923182,-63.425692692467884
7.203830272,0.9998355149223169,-63.810628692108395
7.214774272,0.9999344011955689,-64.19684063149187
7.225718272,1.000036847698559,-64.58435399492048
7.236662272,1.0001374924599353,-64.97332510381098
7.247606272,1.0002317999907377,-65.36356301358194
7.25854976,1.0003149215779787,-65.75500409950115
7.26949376,1.0003827372439007,-66.1475448678158
7.28043776,1.000431827070626,-66.54086933046712
7.29138176,1.0004598590309528,-66.93477008121695
7.30232576,1.0004652712001065,-67.32899441775676
7.313269248,1.0004478815588869,-67.72318942726595
7.324213248,1.0004082891965678,-68.11714974795642
7.335157248,1.0003482902640186,-68.51053518074289
7.346101248,1.000270978831956,-68.90314478914925
7.357045248,1.0001800395507747,-69.29476380804853
7.367989248,1.0000796297807493,-69.68520917152833
7.378932736,0.9999749073171912,-70.07445891411409
7.389876736,0.9998711262092127,-70.46243416658304
7.400820736,0.9997730178976333,-70.84923137803749
7.411764736,0.999685571541714,-71.23488219063424
7.422708736,0.9996132856615695,-71.61959505935347
7.433652736,0.9995594307795993,-72.00358432592054
7.444596224,0.9995269814874053,-72.38708595706414
7.455540224,0.9995175837907802,-72.77033243042008
7.466484224,0.9995316499367354,-73.15371408303207
7.477428224,0.9995685997504216,-73.53746336170646
7.488372224,0.9996269204429384,-73.92195981870017
7.499316224,0.9997035016956555,-74.30732947268798
7.510259712,0.9997948402102982,-74.69383768602806
7.521203712,0.9998964367058706,-75.08166561942838
7.532147712,1.0000034197957623,-75.47089944166046
7.543091712,1.000110425056094,-75.86158756698457
7.554035712,1.0002123856164973,-76.25368024191367
7.564979712,1.0003041415883465,-76.64707903487128
7.5759232,1.0003810725166715,-77.04162395321292
7.5868672,1.0004395252621996,-77.43716046066257
7.5978112,1.000476629814475,-77.83335976077086
7.6087552,1.0004901585444201,-78.22999400511523
7.6196992,1.0004798048470114,-78.62672600711547
7.6306432,1.0004456276974898,-79.02327563808241
7.641586688,1.000389475963969,-79.41930871539935
7.652530688,1.000313983336482,-79.81458886640385
7.663474688,1.0002225537753615,-80.20894040502158
7.674418688,1.0001198202930461,-80.60208023168876
7.685362688,1.0000108055488792,-80.99396178997267
7.696306176,0.9999006020522483,-81.38456215531413
7.707250176,0.9997949154541679,-81.77381642295911
7.718194176,0.999698697697711,-82.16190078355118
7.729138176,0.9996170136562849,-82.54889152010881
7.740082176,0.9995535460597605,-82.93501330646401
7.751026176,0.9995117226927356,-83.3205745372527
7.761969664,0.9994936445435566,-83.70580311212264
7.772913664,0.9995002010349192,-84.09099217072287
7.783857664,0.9995313865100897,-84.47651558627238
7.794801664,0.9995854151951834,-84.86266154751897
7.805745664,0.9996599444207719,-85.24966575942047
7.816689664,0.999751374340562,-85.6378561702888
7.827633152,0.9998551169262314,-86.02733061397836
7.838577152,0.9999663299870806,-86.4182549640924
7.849521152,1.0000795440549133,-86.81067362501857
7.860465152,1.000189032692083,-87.20461949764574
7.871409152,1.0002896131269845,-87.59998605805875
7.882353152,1.0003762134953629,-87.99660433985633
7.89329664,1.0004446793906037,-88.39433866480657
7.90424064,1.0004913248252927,-88.79289278612184
7.91518464,1.0005139890456682,-89.19195122306284
7.92612864,1.0005114793608223,-89.59122620866071
7.93707264,1.0004837652570406,-89.99042858832867
7.94801664,1.000432086924727,-90.38918955062749
7.958960128,1.0003588399115069,-90.78727536041092
7.969904128,1.000267824592236,-91.1843855674568
7.980848128,1.0001631617202027,-91.58033082575571
7.991792128,1.000049996112522,-91.97499546506504
8.002736128,0.9999338843091113,-92.36824867089224
8.013680128,0.9998205707970195,-92.76011045299416
8.024623616,0.9997154881116503,-93.15069346594973
8.035567616,0.9996237918660945,-93.54007214198259
8.046511616,0.9995503058681803,-93.92845405503083
8.057455616,0.9994984794286168,-94.31614462349371
8.068399616,0.9994709759222921,-94.70337681160139
8.079343616,0.9994692217801106,-95.09047285512612
8.090287104,0.9994934647812901,-95.47781363106336
8.101231104,0.9995426326613407,-95.8656754490339
8.112175104,0.9996142322959941,-96.25436875233784
8.123119104,0.9997050502610708,-96.6441916893937
8.134063104,0.9998105324488186,-97.03534218837876
8.145006592,0.999925621841914,-97.42794551513444
8.155950592,1.0000445957168682,-97.82215677923968
8.166894592,1.0001617925591137,-98.21794258630098
8.177838592,1.0002714488718836,-98.61526852688304
8.188782592,1.000367976120026,-99.01398284287457
8.199726592,1.0004468525276935,-99.41389959287845
8.21067008,1.0005038810682798,-99.81479928486335
8.22161408,1.0005364557783767,-100.2163376753326
8.23255808,1.0005426739413323,-100.6182586389186
8.24350208,1.0005221701173785,-101.02014036306701
8.25444608,1.0004759508009198,-101.42170183569817
8.26539008,1.0004060722472643,-101.82263815773635
8.276333568,1.000316017244294,-102.22262473273435
8.287277568,1.0002099968932645,-102.62145074151859
8.298221568,1.0000931579517207,-103.01892989922032
8.309165568,0.9999713395986326,-103.41499777409703
8.320109568,0.9998503322533159,-103.80961996626728
8.331053568,0.9997361723362564,-104.20277068228732
8.341997056,0.9996343289007242,-104.59461756924227
8.352941056,0.9995500999522254,-104.98539755525081
8.363885056,0.9994874608865327,-105.37527136991062
8.374829056,0.9994497363841376,-105.76457206958446
8.385773056,0.9994387942174079,-106.15366316228182
8.396717056,0.9994553236668332,-106.54283551989744
8.407660544,0.9994985829412038,-106.93248131153763
8.418604544,0.9995664711439055,-107.32286934804962
8.429548544,0.9996557802358946,-107.71438582523395
8.440492544,0.9997622997082497,-108.10719084699146
8.451436544,0.9998808000388242,-108.50151017086819
8.462380544,1.000005565517461,-108.89746696668163
8.473324032,1.000130343540557,-109.29509544671853
8.484268032,1.0002491810793743,-109.69438369407519
8.495212032,1.0003560645298641,-110.09518196728015
8.506156032,1.0004458971246528,-110.49733690230673
8.517100032,1.000514085177156,-110.90056155887545
8.52804352,1.000557276441048,-111.30462116761372
8.53898752,1.0005731173404002,-111.70914376065387
8.54993152,1.0005609020825053,-112.1137942898619
8.56087552,1.0005210913718792,-112.51820164262047
8.57181952,1.0004555259278636,-112.92203182639189
8.58276352,1.0003672780996737,-113.32499658744904
8.593707008,1.0002606197484685,-113.72678327457687
8.60465152,1.0001406561204678,-114.12724091301233
8.615595008,1.0000133015313224,-114.52617343652794
8.626538496,0.999884666832758,-114.9235815619622
8.637483008,0.9997611779344548,-115.31946231703989
8.648426496,0.9996488974602774,-115.71390878014684
8.659371008,0.9995533167376053,-116.10712608483917
8.670314496,0.9994792543702852,-116.49931348519414
8.681259008,0.9994303876027938,-116.89079431289906
8.692202496,0.9994091936617089,-117.28189154865983
8.703145984,0.9994169160898043,-117.67298531998345
8.714090496,0.9994532776015956,-118.06439355813872
8.725033984,0.9995163977388806,-118.45654945180719
8.735978496,0.9996035080379779,-118.8497248262954
8.746921984,0.9997103624392166,-119.24421237956986
8.757865472,0.99983173343551,-119.64023236559187
8.768809984,0.9999617003034261,-120.03793360287563
8.779753472,1.0000939699439886,-120.43741050782879
8.790697984,1.0002220952163974,-120.83862182016361
8.801641472,1.0003398143778466,-121.2414642474752
8.812585984,1.0004410957832506,-121.64581929465834
8.823529472,1.0005212158504238,-122.05142109454988
8.83447296,1.0005758998005854,-122.45799490199765
8.845417472,1.0006024232710922,-122.86517837901559
8.85636096,1.0005996106456558,-123.27259780626517
8.867305472,1.0005672801630967,-123.67988546814887
8.87824896,1.0005068450826768,-124.08670359814177
8.889192448,1.0004213907415453,-124.4927095560873
8.90013696,1.0003148429153446,-124.89754371255037
8.911080448,1.0001923485271278,-125.30101257567047
8.92202496,1.0000597789808654,-125.70296803067016
8.932968448,0.999923870704798,-126.10329706902944
8.94391296,0.9997909565124282,-126.50197495312966
8.954856448,0.9996677983087348,-126.89911392471689
8.965799936,0.9995603861831542,-127.29487695669854
8.976744448,0.9994740682748056,-127.68943629809574
8.987687936,0.9994132033044234,-128.08314277482688
8.998632448,0.999380776727425,-128.47634950575573
9.009575936,0.999378605793784,-128.86937463657856
9.020519424,0.9994068193919227,-129.26266840129597
9.031463936,0.9994642559093699,-129.65654393718967
9.042407424,0.9995480618410982,-130.0513917981281
9.053351936,0.9996543010436459,-130.44755261031773
9.064295424,0.9997779774293878,-130.845244536932
9.075238912,0.9999128113309927,-131.244695786284
9.086183424,1.0000524664347687,-131.64594342355343
9.097126912,1.000189965520354,-132.04906940943698
9.108071424,1.0003186491746658,-132.45397723613604
9.119014912,1.0004321518953894,-132.86051255759944
9.129959424,1.0005247909781534,-133.2684489404915
9.140902912,1.0005919623118649,-133.67753295292403
9.1518464,1.0006303201155071,-134.0873661985833
9.162790912,1.0006379873636373,-134.4976151364193
9.1737344,1.0006142191640932,-134.90783154957475
9.184678912,1.0005601945153024,-135.3176765274082
9.1956224,1.0004784609619939,-135.72676697636422
9.206565888,1.0003728455922098,-136.13473538121622
9.2175104,1.00024843495344,-136.54133807815515
9.228453888,1.000111367810407,-136.94639512939375
9.2393984,0.9999682100929925,-137.34973896380163
9.250341888,0.9998259434650726,-137.75133690195221
9.2612864,0.9996915143045342,-138.15125825673857
9.272229888,0.9995718076293215,-138.54962889912886
9.283173376,0.9994723635415588,-138.94669247092338
9.294117888,0.9993984677321892,-139.34271913538268
9.305061376,0.9993537443625934,-139.73804450561067
9.316005888,0.9993404260774824,-140.13308398063327
9.326949376,0.9993594222134786,-140.5282213517137
9.337892864,0.9994098646528936,-140.92387482840255
9.348837376,0.9994892696233926,-141.3204413759909
9.359780864,0.9995941410234706,-141.7182277611126
9.370725376,0.9997192517638509,-142.1175962639987
9.381668864,0.9998585105479784,-142.51872076040578
9.392612352,1.0000053011092653,-142.9217412486239
9.403556864,1.0001521827677025,-143.3267235262472
9.414500352,1.0002922553450628,-143.73363159960672
9.425444864,1.0004183514209943,-144.14232145339324
9.436388352,1.0005244142613674,-144.55258411287576
9.447332864,1.000605149353477,-144.96415627141036
9.458276352,1.000656485613093,-145.37664719404714
9.46921984,1.000675710152617,-145.7897179284998
9.480164352,1.0006619161271724,-146.2029135438858
9.49110784,1.000615564652654,-146.61584569850834
9.502052352,1.0005386518133461,-147.02808426403007
9.51299584,1.0004350547045968,-147.43927271705294
9.523939328,1.0003095947351872,-147.84910466188938
9.53488384,1.000168439068078,-148.25732667335555
9.545827328,1.0000183137651337,-148.66378668174286
9.55677184,0.9998666421105594,-149.06839946066526
9.567715328,0.9997208027483787,-149.47122180727445
9.57865984,0.999587984106507,-149.8723264349454
9.589603328,0.9994747398731653,-150.2719449255368
9.600546816,0.9993869041255667,-150.67035546247894
9.611491328,0.9993285166108011,-151.06790015984132
9.622434816,0.9993028385581062,-151.46498608429508
9.633379328,0.9993113181055242,-151.8620209736072
9.644322816,0.999353439564749,-152.25943354497917
9.655266304,0.9994273863312972,-152.65769476900888
9.666210816,0.999529703004926,-153.0571278450125
9.677154304,0.9996554742217472,-153.45811795750254
9.688098816,0.9997984783372583,-153.86087693075496
9.699042304,0.9999519744070721,-154.26560740673344
9.709986816,1.0001082634031686,-154.67242063501482
9.720930304,1.0002599473757021,-155.0812815902155
9.731873792,1.0003993544841532,-155.4920937155843
9.742818304,1.0005196358063453,-155.90465407560058
9.753761792,1.0006149078570719,-156.31868327962633
9.764706304,1.0006804335567878,-156.7338441085317
9.775649792,1.0007127138743084,-157.14973850909382
9.78659328,1.0007101081753544,-157.56591122315308
9.797537792,1.0006726312654801,-157.98197800203664
9.80848128,1.0006020396723063,-158.39741166729968
9.819425792,1.0005015504193722,-158.81187798262908
9.83036928,1.0003759197518838,-159.22501772498896
9.841312768,1.0002313196621089,-159.6365192111794
9.85225728,1.0000747870503153,-160.04621750352217
9.863200768,0.999913649839494,-160.45395578949137
9.87414528,0.9997561483482132,-160.85976513105692
9.885088768,0.9996098090577387,-161.26368995957708
9.89603328,0.999481896465033,-161.66598522094412
9.906976768,0.9993787773947812,-162.0668425009112
9.917920256,0.9993057257127614,-162.46667044741534
9.928864768,0.9992663182904206,-162.86585158642728
9.939808256,0.9992626341788763,-163.2648119589823
9.950752768,0.9992950102030372,-163.6640409645805
9.961696256,0.9993621458570362,-164.06395733813412
9.972639744,0.9994606957749007,-164.46500070048978
9.983584256,0.9995861016201187,-164.8675670199834
9.994527744,0.9997321618836554,-165.27193804930604
10.005472256,0.9998920304737718,-165.67833496772172
10.016415744,1.0000576243692767,-166.08690596761775
10.027360256,1.000221043886287,-166.49764220201408
10.038303744,1.0003743365066058,-166.9105013253795
10.049247232,1.000509718064166,-167.32531389676004
10.060191744,1.0006205851422507,-167.74176723403824
10.071135232,1.000701604927231,-168.15956830228296
10.082079744,1.0007483446190828,-168.57828943540497
10.093023232,1.000758564932351,-168.99747729174135
10.10396672,1.0007317431409086,-169.4166577710512
10.114911232,1.0006686951607848,-169.835389823643
10.12585472,1.0005726163475221,-170.2532246407331
10.136799232,1.0004478659492861,-170.6697226269466
10.14774272,1.0003007174398129,-171.08462058838458
10.158687232,1.000138056260381,-171.49765493169832
10.16963072,0.9999677286266868,-171.90861573102984
10.180574208,0.9997982601865301,-172.31753186611078
10.19151872,0.9996378138444543,-172.72442433074164
10.202462208,0.999494372988403,-173.1294482347277
10.21340672,0.9993750932051758,-173.5328705766589
10.224350208,0.9992857786631768,-173.93503758079112
10.235293696,0.999231137338107,-174.33636329812526
10.246238208,0.9992137880063234,-174.73726896482688
10.257181696,0.9992348912691735,-175.1382902252591
10.268126208,0.9992935952251113,-175.53988059500426
10.279069696,0.9993871042748932,-175.94251373351878
10.290013184,0.9995110173932039,-176.3466102973784
10.300957696,0.9996592519385721,-176.75252582536385
10.311901184,0.9998248822555551,-177.1605045385939
10.322845696,0.9999996509813859,-177.5707632924572
10.333789184,1.0001751256647022,-177.98332892276343
10.344733696,1.0003426198770207,-178.39819360881663
10.355677184,1.0004940543321517,-178.81516958036292
