freq,mag,phase
6.0,1.0000386522199811,-22.704185658591733
6.041025536,1.0000333535360801,-24.121943931251973
6.082051072,1.0000281729478628,-25.540202861096642
6.12307712,1.0000222345545544,-26.958954626472817
6.164102656,1.0000160850239879,-28.37826169680431
6.205128192,1.000009496334111,-29.798025716023812
6.246153728,1.0000025789780727,-31.218341786302354
6.287179264,0.9999956275254054,-32.639101845900086
6.328205312,0.9999884419625134,-34.06037600266408
6.369230848,0.9999814628747433,-35.48215121010518
6.410256384,0.9999744203848864,-36.904419673095994
6.45128192,0.9999676054030597,-38.32716982444433
6.492307456,0.999961008978912,-39.75043550302343
6.533333504,0.9999548363675099,-41.174194926717476
6.57435904,0.9999489116996885,-42.59849589719036
6.615384576,0.9999436962680234,-44.02323396083526
6.656410112,0.9999389550966776,-45.44854679788536
6.697435648,0.9999347881248729,-46.87429718277082
6.738461696,0.9999315193190038,-48.30059948588757
6.779487232,0.9999285444223355,-49.727402697085644
6.820512768,0.9999267425801212,-51.15475241305611
6.861538304,0.9999256123738467,-52.582576064289164
6.902564352,0.9999252281055702,-54.010966053767724
6.943589888,0.9999257010047828,-55.43985721893594
6.984615424,0.9999269790723732,-56.86928916731022
7.02564096,0.9999290692731171,-58.29928976291606
7.066666496,0.9999319242351681,-59.72980829931978
7.107692544,0.9999354714336754,-61.16088577873973
7.14871808,0.9999398203055091,-62.59251203950059
7.189743616,0.9999448478855764,-64.02465955707994
7.230769152,0.999950386582302,-65.45737118282307
7.271794688,0.9999563252496914,-66.89066188164693
7.312820736,0.9999628648937557,-68.32448127296637
7.353846272,0.9999699583200103,-69.75886426925076
7.394871808,0.9999770866195078,-71.19379940045509
7.435897344,0.9999845123937856,-72.62931529221044
7.47692288,0.9999921895060612,-74.06533623716348
7.517948928,0.9999997485345425,-75.50196426690056
7.558974464,1.0000072560166888,-76.93911612920323
7.6,1.0000147162257664,-78.37679930087062
7.641025536,1.0000217831498068,-79.81505330288178
7.682051072,1.0000285769650112,-81.25385286132415
7.72307712,1.0000349485895412,-82.69315252933329
7.764102656,1.0000408808854242,-84.13300642067036
7.805128192,1.0000461343844953,-85.57336806131872
7.846153728,1.0000507756294554,-87.01425082659664
7.887179264,1.000054792727172,-88.4556712522579
7.928205312,1.0000579848630817,-89.89754537804058
7.969230848,1.0000603761818552,-91.33993439335552
8.010256384,1.0000619608359533,-92.78279210811368
8.05128192,1.0000626986662497,-94.22614593762158
8.092307456,1.0000626356982558,-95.66996990720355
8.133333504,1.0000616419764776,-97.1142285911812
8.17435904,1.0000598783327161,-98.55897206946496
8.215384576,1.0000571559967086,-100.00412384822732
8.256410112,1.000053748594889,-101.4497058465444
8.297435648,1.000049473520409,-102.89574969916781
8.338461696,1.0000446230857576,-104.34214484030574
8.379487232,1.0000389884679417,-105.78897829197527
8.420512768,1.0000327386375414,-107.23622667155684
8.461538304,1.0000261190448145,-108.6838402784698
8.502564352,1.0000189950972378,-110.13184839444443
8.543589888,1.000011567566299,-111.58021653246067
8.584615424,1.0000038395834128,-113.02895709304273
8.625641472,0.9999958993435099,-114.47807832265704
8.666667008,0.9999880223550255,-115.92754966329792
8.707692544,0.99998007208534,-117.37738434357178
8.74871808,0.999972257475345,-118.82755441770384
8.789743616,0.9999647627409011,-120.27806231594424
8.830769152,0.9999575366188963,-121.72893397354134
8.871794688,0.9999507193714912,-123.18014670495583
8.912820224,0.9999444224086349,-124.63170241461943
8.95384576,0.9999387063532277,-126.08356890634285
8.994871296,0.9999336236006882,-127.53579509461086
9.035897856,0.9999293237361323,-128.98834214469386
9.076923392,0.9999258319946471,-130.44122302614514
9.117948928,0.9999230940797234,-131.89444181467388
9.158974464,0.9999212392311898,-133.34801599275502
9.2,0.9999202737165319,-134.80192133526344
9.241025536,0.9999202967719021,-136.25612823805812
9.282051072,0.9999211976217142,-137.71070988838204
9.323076608,0.999922969956487,-139.1656124445659
9.364102144,0.999925750308392,-140.62084183070826
9.405128704,0.9999293004492404,-142.07643706817154
9.44615424,0.9999337808750272,-143.53234915753686
9.487179776,0.9999389991302059,-144.9886201174338
9.528205312,0.9999449672032331,-146.44519310435496
9.569230848,0.9999515847096548,-147.90212507206277
9.610256384,0.9999588397836738,-149.35939024026337
9.65128192,0.9999664860558214,-150.8169844951297
9.692307456,0.999974694282975,-152.27491172410834
9.733332992,0.9999830784071666,-153.7331636332104
9.774358528,0.9999917634756088,-155.19175035730407
9.815385088,1.0000005987826313,-156.65063292404955
9.856410624,1.0000094219638451,-158.1098272564221
9.89743616,1.0000180007735269,-159.5693229933013
9.938461696,1.0000265499825163,-161.02912380969195
9.979487232,1.0000347654939366,-162.48923087410614
10.020512768,1.000042516651953,-163.9496060167504
10.061538304,1.0000497631745426,-165.41024944837838
10.10256384,1.0000564728192998,-166.87116353522003
10.143589376,1.0000624270957141,-168.33233932659402
10.184614912,1.0000675762827445,-169.79377081047278
10.225641472,1.0000719792775672,-171.25538679684257
10.266667008,1.0000756113412623,-172.717258379404
10.307692544,1.0000780551815651,-174.17934314644413
10.34871808,1.000079758316999,-175.6416106858453
10.389743616,1.0000803556655844,-177.10406632746611
10.430769152,1.0000799800799784,-178.5666745867269
10.471794688,1.000078572065354,179.97052273474864
10.512820224,1.0000761994294844,178.50760593437028
10.55384576,1.0000727573953423,177.04454266137012
10.594871296,1.0000683911080759,175.58137052600193
10.635897856,1.0000632202305475,174.11809794685442
10.676923392,1.000057100188292,172.65470625378495
10.717948928,1.000050284145017,171.19126062481106
10.758974464,1.000042719323439,169.72773124482197
10.8,1.0000345447616876,168.26414870013167
10.841025536,1.000025907651987,166.8004827487001
10.882051072,1.0000168962394542,165.33679558898123
10.923076608,1.000007465109297,163.87309279850749
10.964102144,0.9999979328489426,162.40935799630353
11.005128704,0.9999883459230059,160.94560681063038
11.04615424,0.9999787470263437,159.48184337619432
11.087179776,0.9999692544617164,158.0180807197655
11.128205312,0.9999600773127099,156.55433724953156
11.169230848,0.9999513180411117,155.09058800251165
11.210256384,0.9999429689797565,153.62686092033042
11.25128192,0.9999353244059058,152.16314236981452
11.292307456,0.9999283490115024,150.69944705099056
11.333332992,0.9999222068824815,149.23577261012687
11.374358528,0.9999168159847334,147.77213286468884
11.415385088,0.9999124577353268,146.30851347892434
11.456410624,0.9999091083335511,144.84491694401027
11.49743616,0.9999067941434694,143.38133068744642
11.538461696,0.9999055788776046,141.91778679597857
11.579487232,0.999905463170342,140.4542608551925
11.620512768,0.9999064261785925,138.99077683820693
11.661538304,0.9999086237690806,137.52731226767395
11.70256384,0.9999118338910798,136.0638541918765
11.743589376,0.9999161485508861,134.60043338155765
11.784614912,0.9999215046438793,133.13703457127016
11.825641472,0.9999278815730908,131.6736691028913
11.866667008,0.9999350907630956,130.21033378373104
11.907692544,0.9999430870238213,128.74701941020498
11.94871808,0.9999519685711198,127.28371720236484
11.989743616,0.9999613681036588,125.82045392651878
12.030769152,0.9999714051947926,124.35723619998996
12.071794688,0.9999818236300143,122.89403141619843
12.112820224,0.9999925147611416,121.43087856075275
12.15384576,1.00000339881509,119.96776396597339
12.194871296,1.0000142482622516,118.5046918145054
12.235897856,1.0000250877157906,117.04168792929528
12.276923392,1.0000356565489772,115.57873606535297
12.317948928,1.000045821531756,114.11586765348437
12.358974464,1.0000556117887487,112.65307647398467
12.4,1.00006469520806,111.19036348698049
12.441025536,1.00007309910039,109.72776135519813
12.482051072,1.0000806786536522,108.26525819878911
12.523076608,1.0000872753353223,106.80286756729495
12.564102144,1.0000928393034678,105.340627781876
12.605128704,1.0000973909294402,103.87852224282204
12.64615424,1.0001006828667205,102.41658373408914
12.687179776,1.0001027945336831,100.95481379857421
12.728205312,1.0001035796808067,99.49322224576854
12.769230848,1.0001031499582456,98.0318341493033
12.810256384,1.0001013430021897,96.5706544266748
12.85128192,1.0000982614307918,95.10971427962235
12.892307456,1.0000939636607789,93.64901092867973
12.933332992,1.0000884499771743,92.18855194749352
12.974358528,1.0000816417456921,90.7283633304304
13.015385088,1.000073822979759,89.26846473198388
13.056410624,1.0000648925475009,87.80885096156042
13.09743616,1.0000550103078187,86.34955157634523
13.138461696,1.000044401291492,84.89055536161909
13.179487232,1.0000330135875828,83.43190808635282
13.220512768,1.0000210586107017,81.97358763394722
13.261538304,1.0000085787467503,80.51560307720781
13.30256384,0.9999958435289987,79.05798248785072
13.343589376,0.9999829644980437,77.60072152539699
13.384614912,0.9999700349179158,76.14382495476268
13.425641472,0.9999573249440185,74.68731398715477
13.466667008,0.9999448146537425,73.23116812826507
13.507692544,0.9999329020114307,71.77540286360883
13.54871808,0.999921549378398,70.32002462241094
13.589743616,0.9999108881720021,68.86502746834313
13.630769152,0.9999011224550219,67.41040313981301
13.671794688,0.9998924620127574,65.9561683224588
13.712820224,0.9998848437557614,64.50232877421205
13.75384576,0.9998785740344093,63.04885386250133
13.794871296,0.9998735184190222,61.595745542068514
13.835897856,0.9998700757511689,60.14302057799231
13.876923392,0.999867959397945,58.69065571708664
13.917948928,0.9998673994407389,57.23864876481878
13.958974464,0.9998684531620092,55.78699777160662
14.0,0.9998711171555515,54.335709102927105
