freq,mag,phase
6.0,1.0000599535765835,-96.60141542828502
6.007168512,0.9999492408590616,-96.95975242767908
6.014337024,0.9998401002323687,-97.3166309068018
6.021505536,0.9997394939021103,-97.67216127727758
6.028674048,0.9996528105434634,-98.02654314587105
6.035842048,0.9995851057497478,-98.37992178054262
6.04301056,0.9995398270367786,-98.73264347521352
6.050179072,0.9995196417948238,-99.08495343171867
6.057347584,0.9995256249624593,-99.43725642253709
6.064516096,0.9995573633305544,-99.78990445893228
6.071684608,0.99961350083802,-100.14315022986034
6.07885312,0.9996906435871162,-100.49742658787238
6.086021632,0.9997848225643964,-100.85288732337204
6.093190144,0.9998908948503559,-101.20980616389714
6.100358656,1.0000029418726077,-101.56821244456789
6.107526656,1.000115026500152,-101.9282668234753
6.114695168,1.0002209564993925,-102.28981176381738
6.12186368,1.0003149660065265,-102.65277856350109
6.129032192,1.000391846193956,-103.01699534875527
6.136200704,1.0004475636293988,-103.38217250878236
6.143369216,1.0004789584581308,-103.74800395388647
6.150537728,1.0004842201291357,-104.11415042654049
6.15770624,1.0004630215272952,-104.48028479223326
6.164874752,1.000416615174901,-104.84600208271924
6.172043264,1.000347361716677,-105.21106449378551
6.179211264,1.000259145753638,-105.575121996826
6.186379776,1.0001565410064637,-105.93795199090096
6.193548288,1.000045398218906,-106.29944933331933
6.2007168,0.9999314154151073,-106.65948037142562
6.207885312,0.9998211672577673,-107.01809000272024
6.215053824,0.9997204544199862,-107.37531684911639
6.222222336,0.9996348741382881,-107.73138691828889
6.229390848,0.999568959003009,-108.0864787689594
6.23655936,0.9995266244744277,-108.44093618755808
6.24372736,0.9995099641443861,-108.79506182043355
6.250895872,0.9995201292436289,-109.14914414133005
6.258064384,0.999556397081982,-109.50368816535105
6.265232896,0.9996168683703399,-109.85890726773862
6.272401408,0.9996984412027258,-110.21514137604622
6.27956992,0.9997964952645872,-110.57267399967415
6.286738432,0.9999058411476848,-110.93167157110167
6.293906944,1.0000204263551011,-111.29223562878194
6.301075456,1.0001340279039808,-111.65442654431384
6.308243968,1.0002405524937081,-112.01815519576651
6.315411968,1.0003340030386603,-112.38328879678296
6.32258048,1.0004094602058977,-112.74965617516568
6.329748992,1.0004626882346357,-113.11695278032427
6.336917504,1.0004906937126499,-113.48485755506279
6.344086016,1.000492081967596,-113.85305287879261
6.351254528,1.000466519046037,-114.22115293269707
6.35842304,1.0004156208521495,-114.58877667612026
6.365591552,1.0003419483473124,-114.95569511845304
6.372760064,1.000249565107356,-115.32153522893064
6.379928064,1.0001433875365864,-115.68611860723271
6.387096576,1.0000292863654703,-116.04926436468446
6.394265088,0.9999133345837351,-116.41093846768541
6.4014336,0.999802018323222,-116.77115412954527
6.408602112,0.9997013292976582,-117.1300312801481
6.415770624,0.9996167447269831,-117.48769986340885
6.422939136,0.9995529720518418,-117.84444792394531
6.430107648,0.9995135697340456,-118.20053582457231
6.43727616,0.9995005741502679,-118.5563535178525
6.444444672,0.999514857255607,-118.91222686234322
6.451612672,0.9995556149713861,-119.26855260940872
6.458781184,0.9996206121054583,-119.62563552791977
6.465949696,0.9997064983427151,-119.98383674858998
6.473118208,0.9998084591166865,-120.34331546229966
6.48028672,0.9999210559356538,-120.70435100053905
6.487455232,1.000038121646305,-121.0669770957534
6.494623744,1.000153290461284,-121.43121632631451
6.501792256,1.0002602184231955,-121.79705640519673
6.508960768,1.0003531834906838,-122.16425042601641
6.51612928,1.000426944609103,-122.5327089097663
6.52329728,1.0004776367653714,-122.90201750135554
6.530465792,1.000502341580486,-123.27191723198275
6.537634304,1.0004996888139168,-123.6420204110735
6.544802816,1.0004697690934747,-124.0120139820637
6.551971328,1.0004143537077221,-124.38148411342546
6.55913984,1.0003362010894434,-124.7501417582937
6.566308352,1.0002395805278022,-125.11764379150088
6.573476864,1.000129782137086,-125.48386472190664
6.580645376,1.0000128131781614,-125.84862179401472
6.587813376,0.9998948926156673,-126.2118502808715
6.594981888,0.9997826013608903,-126.57362095470629
6.6021504,0.9996819907624555,-126.9339804314005
6.609318912,0.9995985643072474,-127.29317157786696
6.616487424,0.9995369861775403,-127.65145384442502
6.623655936,0.9995004973782993,-128.00914451195987
6.630824448,0.9994912522876396,-128.36655522986052
6.63799296,0.9995097786385236,-128.72409757091657
6.645161472,0.9995550218493181,-129.08212800778992
6.652329984,0.999624691440866,-129.44100389161162
6.659497984,0.9997149110756757,-129.80101356402292
6.666666496,0.9998208074516131,-130.16238481521566
6.673835008,0.9999367082803317,-130.52533391418015
6.68100352,1.0000561872487586,-130.88992459203996
6.688172032,1.0001728433382675,-131.25616247073944
6.695340544,1.0002801521442446,-131.62398271690398
6.702509056,1.0003724735005202,-131.993210070962
6.709677568,1.0004445972983476,-132.3635683877014
6.71684608,1.0004925772547206,-132.73485095831592
6.724014592,1.0005138358362964,-133.10665251147728
6.731182592,1.0005072720918922,-133.47861318422025
6.738351104,1.0004729274958395,-133.85035473738026
6.745519616,1.0004128444711375,-134.22154403047148
6.752688128,1.000330127273421,-134.59185245906764
6.75985664,1.0002293674501739,-134.96096345868477
6.767025152,1.0001159935554353,-135.32871952069098
6.774193664,0.9999961140791431,-135.69493966511033
6.781362176,0.9998762724529845,-136.05960443167425
6.788530688,0.999762998626172,-136.42277380663515
6.795698688,0.9996625410732317,-136.78455168526284
6.8028672,0.9995803325429924,-137.14519650266442
6.810035712,0.9995209476051391,-137.5048982638835
6.817204224,0.9994874921904504,-137.86404067776692
6.824372736,0.9994820677008146,-138.22296554190152
6.831541248,0.9995049394061025,-138.58208403493282
6.83870976,0.9995548611771586,-138.9417311843619
6.845878272,0.9996290506836791,-139.30227762169383
6.853046784,0.9997237419459806,-139.6640014603782
6.860215296,0.9998335338897375,-140.0271951002313
6.867383296,0.9999527138231696,-140.39196471916063
6.874551808,1.000074627103141,-140.75841378126182
6.88172032,1.0001926792365985,-141.1265027455774
6.888888832,1.0003003632168979,-141.49621128393946
6.896057344,1.0003919420767735,-141.86733417778782
6.903225856,1.00046229189136,-142.23957288102426
6.910394368,1.000507706553559,-142.6126665665663
6.91756288,1.000525409262798,-142.98625203705032
6.924731392,1.0005146530871498,-143.35993256866297
6.931899392,1.0004757960864277,-143.73335019300103
6.939067904,1.0004110752287172,-144.1061471172326
6.946236416,1.000323865531856,-144.47795682897626
6.953404928,1.0002187862007639,-144.84856484929395
6.96057344,1.0001018054354094,-145.2177074122914
6.967741952,0.9999790121294987,-145.58527831771806
6.974910464,0.9998572722061202,-145.95130527133063
6.982078976,0.99974313198386,-146.31578468848323
6.989247488,0.9996427404801556,-146.6788558009544
6.996416,0.9995618104508778,-147.0407807611082
7.003584,0.9995046286000815,-147.40179318038867
7.010752512,0.9994745001707545,-147.76231533110513
7.017921024,0.9994728669976883,-148.1226109395956
7.025089536,0.9995001103373913,-148.48315656117134
7.032258048,0.9995546752514357,-148.84432156909182
7.03942656,0.9996335768638659,-149.20641092878407
7.046595072,0.9997326171974112,-149.5697714650678
7.053763584,0.9998464490092371,-149.9346060436978
7.060932096,0.9999688888020422,-150.30108117352464
7.068100608,1.000093171040707,-150.66928667471132
7.075268608,1.0002126659077941,-151.03917920628038
7.08243712,1.0003207496385105,-151.4106447974624
7.089605632,1.0004115606396795,-151.7835002902866
7.096774144,1.000480119613048,-152.15751815113146
7.103942656,1.0005227224353472,-152.5322969352686
7.111111168,1.0005368192484652,-152.90753816711387
7.11827968,1.000521879281088,-153.28285322108493
7.125448192,1.0004784606635115,-153.65779919856413
7.132616704,1.000408973049228,-154.03206390609637
7.139784704,1.000317070951466,-154.40527497290796
7.146953216,1.0002079053908295,-154.77723520384637
7.154121728,1.0000870990554276,-155.14767718259313
7.16129024,0.9999615012797024,-155.5165006217104
7.168458752,0.9998377870767993,-155.88371114143274
7.175627264,0.9997227989420434,-156.24934191684366
7.182795776,0.9996227471778455,-156.61358769619187
7.189964288,0.9995430789384149,-156.97666147072815
7.1971328,0.9994882483990071,-157.33887351322747
7.204301312,0.9994612995429055,-157.70060924390506
7.211469312,0.9994637589634562,-158.06220682782381
7.218637824,0.9994953309552017,-158.42407489288507
7.225806336,0.9995546796631551,-158.7865767553272
7.232974848,0.9996384154530238,-159.15013325791472
7.24014336,0.9997420219732035,-159.5149722013458
7.247311872,0.9998598564941128,-159.88136208957653
7.254480384,0.9999855290531575,-160.24940573631386
7.261648896,1.0001122516007253,-160.61923730601995
7.268817408,1.000233182700072,-160.99075883507103
7.275985408,1.0003414952506375,-161.36388416084492
7.28315392,1.0004315037886076,-161.73840922303938
7.290322432,1.000498198117464,-162.1140134861148
7.297490944,1.0005379095399876,-162.49039722438673
7.304659456,1.0005484258076873,-162.86714318549173
7.311827968,1.000529102770676,-163.24393957417809
7.31899648,1.0004810823753614,-163.62030375265397
7.326164992,1.0004066072932105,-163.99590633764885
7.333333504,1.000310091713887,-164.37039315734302
7.340502016,1.000196587717279,-164.74354478581571
7.347670016,1.0000720890573294,-165.11510730332387
7.354838528,0.9999435933601002,-165.4850456541119
7.36200704,0.9998178992230731,-165.8533130954476
7.369175552,0.9997020368798714,-166.2199940554333
7.376344064,0.9996022261348985,-166.5852780412833
7.383512576,0.9995240254375319,-166.9493940600787
7.390681088,0.9994716350645796,-167.31267095062267
7.3978496,0.9994479562773478,-167.6754752722628
7.405018112,0.999454482287976,-168.03816673156547
7.412186624,0.9994908250649163,-168.40123216113633
7.419354624,0.999554943623419,-168.76499810726548
7.426523136,0.9996434131777848,-169.12983534398765
7.433691648,0.9997516231359569,-169.49603300297605
7.44086016,0.999873553986619,-169.86381906005582
7.448028672,1.0000025972146254,-170.23334037017133
7.455197184,1.0001317032859764,-170.60461739552025
7.462365696,1.0002539772991534,-170.97769571952261
7.469534208,1.0003626258389913,-171.3523069142517
7.47670272,1.0004517560955983,-171.72835977445428
7.48387072,1.0005164287480524,-172.1054350150898
7.491039232,1.0005532079319155,-172.48327032511799
7.498207744,1.0005599139392785,-172.8614431187362
7.505376256,1.0005362203203603,-173.23955570928194
7.512544768,1.0004833357941045,-173.6171860147145
7.51971328,1.0004040690793692,-173.99397193472507
7.526881792,1.000302757588215,-174.36960060599836
7.534050304,1.0001846994930588,-174.74380519155346
7.541218816,1.000056490528804,-175.11639746673967
7.548387328,0.9999250600738243,-175.4872620956661
7.555555328,0.9997974878337046,-175.8564420300121
7.56272384,0.9996807708731374,-176.2240057750827
7.569892352,0.9995813016232843,-176.59016413853374
7.577060864,0.999504517351174,-176.95515834372534
7.584229376,0.9994546740261994,-177.3193424880014
7.591397888,0.9994344426735791,-177.68308766524385
7.5985664,0.9994451002930429,-178.04678249191596
7.605734912,0.9994861009415599,-178.41088145159387
7.612903424,0.9995551725924081,-178.77574896422465
7.620071936,0.9996486600450933,-179.14175865760703
7.627239936,0.9997614308335925,-179.5091650004301
7.634408448,0.9998875195101097,-179.87822237399
7.64157696,1.0000199388437694,179.7509346100981
7.648745472,1.0001515100714062,179.3782623209251
7.655913984,1.0002752697809376,179.00386013322688
7.663082496,1.000384146163232,178.62782904498704
7.670251008,1.000472232094711,178.25044745981754
7.67741952,1.0005349133567145,177.87199583026842
7.684588032,1.0005686411445607,177.49289393257314
7.691756032,1.0005714353291524,177.1134430733254
7.698924544,1.0005431850744368,176.73419305073423
7.706093056,1.00048543756472,176.35541503916994
7.713261568,1.0004011000564923,175.97757609719974
7.72043008,1.000294849163418,175.60095437275893
7.727598592,1.000172448994068,175.22585810948226
7.734767104,1.0000404017956517,174.85242249258587
7.741935616,0.9999060144923861,174.4807386182517
7.749104128,0.999776428657979,174.11081037677988
7.75627264,0.9996589044937046,173.74249575064866
7.76344064,0.9995597790643217,173.37564811101296
7.770609152,0.9994845578851977,173.0099054261111
7.777777664,0.9994374165811483,172.64496394407672
7.784946176,0.9994207252599583,172.28043297901593
7.792114688,0.9994357013394597,171.91587962807947
7.7992832,0.9994814102561265,171.55089607710698
7.806451712,0.9995556000042696,171.1850945031427
7.813620224,0.9996542091896021,170.81806119940788
7.820788736,0.99977183196373,170.44957054394206
7.827956736,0.9999021338787856,170.07939154867807
7.835125248,1.0000379663004053,169.70738433901104
7.84229376,1.000172077529512,169.33350574059824
7.849462272,1.0002970466812262,168.95784698216974
7.856630784,1.0004060692331271,168.5806117944945
7.863799296,1.000493369584134,168.2019854510639
7.870967808,1.0005538389745694,167.822347814489
7.87813632,1.0005843852469156,167.44207038872204
7.885304832,1.000583249692286,167.06153852966017
7.892473344,1.000550285763144,166.68120288936692
7.899641344,1.000487460069932,166.3014559397164
7.906809856,1.0003980248616249,165.9227347913268
7.913978368,1.0002868355323014,165.54528391856095
7.92114688,1.0001596967745081,165.16943103748878
7.928315392,1.0000237140163635,164.79531029862088
7.935483904,0.9998863039037411,164.42298976195497
7.942652416,0.999754830227223,164.05245368968627
7.949820928,0.9996364885866397,163.6835861622041
7.95698944,0.9995378400955571,163.31614016390256
7.964157952,0.9994642357396121,162.94984630583176
7.971325952,0.9994197491312806,162.58429978338685
7.978494464,0.9994068014449243,162.21915060900838
7.985662976,0.9994261994283248,161.85390221073368
7.992831488,0.9994770039042106,161.48819265528005
8.0,0.9995563527949156,161.1215762787365
8.007168512,0.9996601072446463,160.75369134863053
8.014337024,0.9997827166387658,160.38424123258562
8.021505536,0.9999172429889305,160.0130819010875
8.028674048,1.0000566648825635,159.64003370915535
8.035842048,1.000193277423536,159.2650903841611
8.04301056,1.0003197411637703,158.88836048511718
8.050179072,1.0004289408744946,158.51001305153224
8.057347584,1.0005150747148455,158.13031856831986
8.064516096,1.0005733290590184,157.74962500051137
8.071684608,1.000600528943546,157.36830806348863
8.07885312,1.0005952112636525,156.9868231744148
8.086021632,1.0005575395262851,156.60560210296643
8.093190144,1.0004893768038408,156.22504860879408
8.100358656,1.0003946099981924,155.8455611127671
8.107526656,1.0002780960835276,155.4674640949171
8.114695168,1.0001464444085069,155.0910165249736
8.12186368,1.000006333120779,154.71636856117328
8.129032192,0.9998658864435455,154.343578779181
8.136200704,0.9997324881256486,153.9725996200786
8.143369216,0.9996132866120069,153.60330937691757
8.150537728,0.9995150677710922,153.235485571777
8.15770624,0.9994431859522397,152.8687729131801
8.164874752,0.9994014922232158,152.5027782091441
8.172043264,0.9993923235225494,152.1371515528102
8.179211264,0.9994163765099311,151.77139221076436
8.186379776,0.9994722704190683,151.40508617290692
8.193548288,0.9995572468472955,151.03781075636948
8.2007168,0.999666334966456,150.669210756045
8.207885312,0.9997938740231856,150.29898226953912
8.215053824,0.9999329178447138,149.92698858982746
8.222222336,1.0000758691732958,149.55302458842783
8.229390848,1.000215160834304,149.17717334325238
8.23655936,1.0003429302562097,148.7995108957685
8.24372736,1.0004522232158704,148.42020205266746
8.250895872,1.000537242518415,148.0395772091486
8.258064384,1.0005932908098996,147.65795831147113
8.265232896,1.0006169795856015,147.27580672251648
8.272401408,1.0006073273413671,146.8934970895208
8.27956992,1.000564581558341,146.51154594028884
8.286738432,1.0004910107734628,146.13033145160563
8.293906944,1.0003906941188778,145.75025559633372
8.301075456,1.0002689118096821,145.37164121631986
8.308243968,1.0001322867870763,144.99475069057507
8.315411968,0.9999882654261075,144.61971557232187
8.32258048,0.9998445462419402,144.2466248813337
8.329748992,0.999709086150541,143.87537652616797
8.336917504,0.9995892539650516,143.5058494364051
8.344086016,0.999491688582823,143.13775468978088
8.351254528,0.9994214957380194,142.77079221027043
8.35842304,0.9993828018238702,142.40455116303224
8.365591552,0.9993777638458814,142.0385910126462
8.372760064,0.9994066089668322,141.67246934807756
8.379928064,0.9994679346545747,141.30571697591967
8.387096576,0.9995584508752023,140.9379409791516
8.394265088,0.9996730487330591,140.5687865208797
8.4014336,0.9998059394330757,140.19794427017905
8.408602112,0.9999494918577251,139.82521017668975
8.415770624,1.0000962288010888,139.45053310763785
8.422939136,1.0002380260592871,139.07388455950584
8.430107648,1.0003671346023557,138.69539128007835
8.43727616,1.0004766176938853,138.31527591043812
8.444444672,1.0005603393264808,137.93386552336244
8.451612672,1.0006137754001538,137.55147254800903
8.458781184,1.0006338960357655,137.16859632426966
8.465949696,1.000619730298805,136.78562072640923
8.473118208,1.0005716919148555,136.40306093168783
8.48028672,1.0004926131408247,136.0213431886829
8.487455232,1.000386621069604,135.64082984882796
8.494623744,1.0002592225781217,135.26186310597703
8.501792256,1.0001176583649278,134.88471470106774
8.508960768,0.9999693193112821,134.5094846056153
8.51612928,0.999822444972213,134.13623939882996
8.52329728,0.9996848900224663,133.76487928084867
8.530465792,0.999564336129262,133.3952484913354
8.537634304,0.999467216367712,133.02708666717746
8.544802816,0.9993990288160133,132.6600269544559
8.551971328,0.9993636042256661,132.29368635296325
8.55913984,0.9993627061784802,131.9275596793454
8.566308352,0.9993965114395651,131.56122777910818
8.573476864,0.9994634726848786,131.1941774315583
8.580645376,0.9995597044762055,130.82605702042426
8.587813376,0.9996801690260984,130.45648397950006
8.594981888,0.9998184580624504,130.08514322820446
8.602150912,0.9999667678519193,129.71185478966436
8.609318912,1.000117335079559,129.3365527442751
8.616487936,1.0002617142735282,128.9592494473834
8.623655936,1.0003923201614104,128.58008795259656
8.630823936,1.0005017281420399,128.19931485479682
8.63799296,1.0005841163829639,127.8172135225284
8.64516096,1.0006349228610425,127.43420705089585
8.652329984,1.000651324839132,127.0507337309576
8.659497984,1.000632382250565,126.66723979585707
8.666667008,1.000578852270982,126.28425017313461
8.673835008,1.0004937778494123,125.90216038893263
8.681004032,1.0003817112479578,125.52137261296781
8.688172032,1.0002487488244711,125.142230535929
8.695340032,1.0001018317834722,124.76494367950515
8.702509056,0.9999492084071729,124.38966924832327
8.709677056,0.999799003424787,124.01641456647604
8.71684608,0.9996593889137839,123.64512382785526
8.72401408,0.9995380238211673,123.27558202563522
8.731183104,0.9994418608249986,122.90750169110092
8.738351104,0.9993756207579781,122.54051391661045
8.745520128,0.9993435658602626,122.17418665920889
8.752688128,0.999347043588542,121.8080722390778
8.759856128,0.9993862484059781,121.44165658072103
8.767025152,0.9994589146528684,121.07448734353757
8.774193152,0.9995613786800273,120.70614792126462
8.781362176,0.9996879032458074,120.33626489513985
8.788530176,0.9998316263827449,119.96456651746442
8.7956992,0.999985029388459,119.5908573300703
8.8028672,1.0001394463036963,119.21507591430816
8.810036224,1.000286657279835,118.83726106377836
8.817204224,1.0004185935391017,118.45756346839516
8.824373248,1.0005279730464087,118.07621264496508
8.831541248,1.000608928490326,117.69359238556973
8.838709248,1.0006568776674127,117.31009084914233
8.845878272,1.0006692301924032,116.92616862728084
8.853046272,1.0006451822357796,116.54230637321803
8.860215296,1.0005860099325106,116.15900567681123
8.867383296,1.000494860517198,115.776668105806
