freq,mag,phase
6.0,0.9999913746022582,-51.04979378707994
6.041236992,0.9999911365492855,-52.7090116196977
6.082473984,0.999991177744905,-54.369142650758114
6.123711488,0.999991480273028,-56.030347012348365
6.16494848,0.999991708599137,-57.69253098610388
6.206185472,0.9999920449220958,-59.355662671967515
6.247422464,0.999992649340988,-61.01977314052744
6.288659968,0.9999930484797999,-62.6848689461347
6.32989696,0.9999935538425573,-64.35090159473117
6.371133952,0.9999941538397954,-66.01788328185658
6.412370944,0.9999949468149543,-67.68578559642532
6.453608448,0.9999956085321511,-69.35459234957911
6.49484544,0.9999963271795007,-71.02433941472574
6.536082432,0.9999970865305694,-72.69494201922396
6.577319424,0.9999978087560093,-74.36648325149028
6.618556928,0.9999986693395376,-76.03882634498927
6.65979392,0.9999994313116521,-77.71210412737773
6.701030912,1.0000001631709927,-79.38620828611457
6.742267904,1.0000009981677915,-81.06108801730859
6.783505408,1.0000017233096445,-82.73686026104959
6.8247424,1.0000025320679098,-84.41340797062516
6.865979392,1.0000031543012728,-86.0907499380247
6.907216384,1.0000038660694732,-87.76885184986395
6.948453376,1.0000043127056195,-89.44773675048373
6.98969088,1.0000049893224663,-91.12738440152131
7.030927872,1.000005302549179,-92.80776071134855
7.072164864,1.00000567545808,-94.48885934732516
7.113401856,1.0000059929862606,-96.17063099310772
7.15463936,1.0000062921783597,-97.85311921443562
7.195876352,1.0000064047586485,-99.5362564143839
7.237113344,1.0000065069768005,-101.22008955425211
7.278350336,1.0000065156080082,-102.90452192431742
7.31958784,1.0000064733405587,-104.5896303865652
7.360824832,1.0000062335079887,-106.27528225709275
7.402061824,1.0000059983845315,-107.96152688879216
7.443298816,1.0000056299919702,-109.6483750325581
7.48453632,1.0000053091675487,-111.33575280151099
7.525773312,1.0000048098993202,-113.02366608150507
7.567010304,1.0000042450043019,-114.71211427223915
7.608247296,1.000003752789086,-116.40102204795993
7.649484288,1.0000030853803237,-118.09043239927033
7.690721792,1.000002419003849,-119.78033170167363
7.731958784,1.0000017172460058,-121.47065235275798
7.773195776,1.0000009501696139,-123.16139852150752
7.814432768,1.0000002270558381,-124.85255650730801
7.855670272,0.9999995139153315,-126.54409161013177
7.896907264,0.9999986735213429,-128.2359936387007
7.938144256,0.9999980285943125,-129.9282787187868
7.979381248,0.9999972514231718,-131.62085180656527
8.020618752,0.9999965477064864,-133.31376985550045
8.061855744,0.9999958598615125,-135.00695475804437
8.103092736,0.9999952841794203,-136.70045228052786
8.144329728,0.9999947402191206,-138.3941718808067
8.185567232,0.9999941968769228,-140.08815134792525
8.226804224,0.9999937853083778,-141.78234878092084
8.268041216,0.9999934467046108,-143.47674908625675
8.309278208,0.9999931298044027,-145.17132328494915
8.350515712,0.999992918874057,-146.86603738881948
8.391752704,0.9999927910318539,-148.56092985732792
8.432989696,0.9999927793719967,-150.2558995975074
8.474226688,0.999992794961459,-151.95103359334468
8.51546368,0.9999928957505693,-153.6461762280819
8.556701184,0.9999931793193603,-155.34143591471195
8.597938176,0.9999934557270993,-157.036739835962
8.63917568,0.9999938573201321,-158.73206385119585
8.68041216,0.9999944091189138,-160.4273839001547
8.721649664,0.9999949186476749,-162.12269490548425
8.762886144,0.9999955665564082,-163.81797742290053
8.804123648,0.9999961764253967,-165.51320943111241
8.845361152,0.9999970410414264,-167.20838922730306
8.886597632,0.9999977808290914,-168.90343389807614
8.927835136,0.9999986744196353,-170.59840443139507
8.96907264,0.9999994986162095,-172.29322666023805
9.01030912,1.0000004128873095,-173.98790593055645
9.051546624,1.0000013112395376,-175.6824401601815
9.092783104,1.0000022562976387,-177.37677759592674
9.134020608,1.0000032048614567,-179.07090157278978
9.175258112,1.0000040824243668,179.23523716294005
9.216494592,1.0000049176911636,177.54158755764774
9.257732096,1.0000057352841856,175.84819418853513
9.298968576,1.0000066187306993,174.15509165539262
9.34020608,1.0000073057989922,172.4622845257596
9.381443584,1.0000079462520508,170.76980456490347
9.422680064,1.0000086771750567,169.0776755224356
9.463917568,1.0000091714578914,167.38589498796256
9.505155072,1.0000095798834467,165.69449851889863
9.546391552,1.0000099843005315,164.003492713654
9.587629056,1.0000102178383814,162.31291345605922
9.628865536,1.0000103154803286,160.62277050530253
9.67010304,1.0000104166353982,158.93306555878283
9.711340544,1.0000103650018763,157.24383439457853
9.752577024,1.0000102618915412,155.55512284894664
9.793814528,1.0000100510205772,153.86688075887605
9.835052032,1.0000096432958734,152.1791808153085
9.876288512,1.0000093197313775,150.49202828807708
9.917526016,1.0000087236084816,148.80542507927362
9.958762496,1.0000081397735034,147.11940443913718
10.0,1.0000075014110446,145.4339747436828
10.041237504,1.0000067526640442,143.7491644142521
10.082473984,1.0000058556570892,142.06499125954414
10.123711488,1.0000050224520787,140.38143395112348
10.164947968,1.0000040207749423,138.6985547250648
10.206185472,1.0000030891008844,137.01633721479377
10.247422976,1.0000020943099244,135.33481104596103
10.288659456,1.0000010239793526,133.65401190149504
10.32989696,1.000000041936965,131.97390686111646
10.371134464,0.9999990479944125,130.29456186543075
10.412370944,0.9999980832271829,128.6159354787122
10.453608448,0.9999970839986265,126.93807544299688
10.494844928,0.9999962338162414,125.26101146641928
10.536082432,0.999995382525291,123.5847295519358
10.577319936,0.9999945141291723,121.90922258882604
10.618556416,0.9999937678242583,120.23455058844172
10.65979392,0.9999931277624345,118.56069963895577
10.701031424,0.9999925592375305,116.88769707371056
10.742267904,0.9999920607407768,115.21552698847994
10.783505408,0.9999917081139157,113.54423433095135
10.824741888,0.9999914764900293,111.87378539904128
10.865979392,0.9999913728847696,110.20423582214828
10.907216896,0.9999912915279994,108.53558414041701
10.948453376,0.9999913981573475,106.8678292156683
10.98969088,0.9999916230453251,105.20097096237203
11.03092736,0.999991885771407,103.53506270339534
11.072164864,0.9999923953420519,101.8700481577935
11.113402368,0.9999929010028391,100.20599754268198
11.154638848,0.9999935008141416,98.54288905392131
11.195876352,0.9999942829314765,96.88073219865782
11.237113856,0.9999951665178868,95.21951636191346
11.278350336,0.9999960033493731,93.55930912914098
11.31958784,0.9999970482394828,91.90006787864269
11.36082432,0.9999979980106312,90.2418084414345
11.402061824,0.9999991963020107,88.5845212259928
11.443299328,1.0000002422734413,86.92826467281374
11.484535808,1.0000014848041987,85.27300539587944
11.525773312,1.0000027196291352,83.6187657530605
11.567010816,1.000003832841465,81.9655246091959
11.608247296,1.0000049659406902,80.3133228992498
11.6494848,1.0000060977868666,78.66213337992696
11.69072128,1.0000072695930167,77.01201578253811
11.731958784,1.000008287983884,75.36291963413662
11.773196288,1.000009245234731,73.714856315147
11.814432768,1.0000101424028347,72.06786377560523
11.855670272,1.0000109801103634,70.42193125580582
11.896906752,1.0000116708771118,68.77705105243749
11.938144256,1.00001218488454,67.13323357606608
11.97938176,1.0000127512677872,65.4904945915038
12.02061824,1.0000130424124831,63.84882069028992
12.061855744,1.000013312751283,62.20821927219292
12.103093248,1.0000134195434855,60.5687002086941
12.144329728,1.0000133183824096,58.93027293295825
12.185567232,1.000013192910992,57.292930781939354
12.226803712,1.000012815165538,55.656674942748005
12.268041216,1.0000123639638716,54.02150454603328
12.30927872,1.0000117906703323,52.38742950206189
12.3505152,1.0000110697755267,50.75445600164909
12.391752704,1.0000101414357296,49.12256637759126
12.432989184,1.0000091934070208,47.491787139322014
12.474226688,1.0000081495333821,45.86209799962029
12.515464192,1.0000069841186332,44.23350612839078
12.556700672,1.0000057616565616,42.606018666129735
12.597938176,1.0000043718584897,40.97962172043771
12.63917568,1.0000030143368255,39.35432621964154
12.68041216,1.0000016495053325,37.73012393448164
12.721649664,1.0000002006191722,36.107010063032696
12.762886144,0.999998750643502,34.485000800672104
12.804123648,0.9999973254911876,32.86407673594276
12.845361152,0.9999958178359678,31.24425338255906
12.886597632,0.9999944912662598,29.625508768125776
12.927835136,0.9999931049550582,28.007857820385034
12.96907264,0.9999919402336891,26.39125458177793
13.01030912,0.9999907514915486,24.775766691071915
13.051546624,0.9999896581286568,23.161336862845026
13.092783104,0.9999887502618452,21.547983422934045
13.134020608,0.9999878427622034,19.935680132669937
13.175258112,0.9999872175949475,18.3244314305984
13.216494592,0.999986675573883,16.714252745406377
13.257732096,0.9999862963776334,15.105123738929473
13.298968576,0.9999860863941693,13.497032925057045
13.34020608,0.9999860528450661,11.889969818095036
13.381443584,0.999986209423991,10.283946619875746
13.422680064,0.9999864751287522,8.678935655535684
13.463917568,0.9999869729052144,7.074961289521268
13.505155072,0.9999876496661876,5.471985697729531
13.546391552,0.9999884896637267,3.870008229114445
13.587629056,0.9999894548933127,2.2690216103100265
13.628865536,0.9999905684107375,0.6690374757188694
13.67010304,0.9999918253124013,-0.929963214150339
13.711340544,0.9999931911671631,-2.528004150826057
13.752577024,0.9999946928127105,-4.125079163876715
13.793814528,0.9999963499152996,-5.721186387033952
13.835052032,0.999998019218898,-7.316359198726191
13.876288512,0.9999998084640942,-8.910586959458866
13.917526016,1.000001572555174,-10.503876753827658
13.958762496,1.0000034061531327,-12.096243174250306
14.0,1.0000052623188767,-13.687697903377689
