freq,mag,phase
6.0,1.0006952105729128,14.652220565945564
6.010781696,1.0008817470142524,14.33900244263247
6.021563392,1.001024904870583,14.023619306393252
6.032345088,1.0011169795280264,13.706711595436387
6.043126784,1.0011535127610547,13.388925143381138
6.05390848,1.0011324890144866,13.070992148549882
6.064690176,1.001054902800738,12.753658613800262
6.075471872,1.0009247565646233,12.43762768978781
6.086253568,1.0007481163697947,12.123518432704234
6.097035264,1.0005340593615444,11.811866474986054
6.10781696,1.0002932966937514,11.503139380244498
6.118598144,1.0000375645228134,11.197551541695205
6.12937984,0.9997797433828495,10.89524451083375
6.140161536,0.999532840898573,10.596131922317648
6.150943232,0.999308966454068,10.300095798906003
6.161724928,0.9991195872649749,10.006669104403938
6.172506624,0.9989740431770827,9.715314787716807
6.18328832,0.9988799401352205,9.42558968001837
6.194070016,0.998841791389596,9.136586161803468
6.204851712,0.9988615645116318,8.847765555256792
6.215633408,0.9989385904745459,8.558223587934997
6.226415104,0.9990687098240425,8.267379401753912
6.2371968,0.9992456780698642,7.974494667360768
6.247978496,0.9994605968635834,7.6790627423733815
6.258760192,0.9997027627406331,7.3805863404266905
6.269541888,0.9999600353840075,7.078939309294911
6.280323584,1.0002195369634448,6.77385647780082
6.29110528,1.0004684503614274,6.465515802891651
6.301886976,1.0006940714143662,6.154040602528747
6.312668672,1.0008853067883383,5.839890378307646
6.323450368,1.001032584290356,5.523483594956879
6.334231552,1.0011284660650521,5.205502313810729
6.345013248,1.001168161056568,4.886607909126644
6.355794944,1.0011496030342568,4.567541259259297
6.36657664,1.0010735998410782,4.248998581629925
6.377358336,1.0009440554658164,3.931754263025122
6.388140032,1.000767231110424,3.6164620907696228
6.398921728,1.0005519031776633,3.3036353532837808
6.409703424,1.000308849072783,2.9937268179208316
6.42048512,1.0000501729257174,2.68699376550408
6.431266816,0.9997887459608745,2.3835796329351693
6.442048512,0.9995376305853285,2.0834551390456975
6.452830208,0.9993094346622192,1.786393308218029
6.463611904,0.9991155221080575,1.491997170040526
6.4743936,0.9989657703108968,1.1998024422264488
6.485175296,0.9988677426399711,0.909193818548155
6.495956992,0.9988262829325939,0.6194291477125814
6.506738688,0.9988436488644054,0.329819398446896
6.517520384,0.9989189509095941,0.03961528775333981
6.52830208,0.9990483607178959,-0.2520187312007574
6.539083776,0.9992255645697407,-0.5456213441140878
6.549865472,0.9994418411648536,-0.8417826254112675
6.560646656,0.9996863247574633,-1.1409723114260848
6.571428352,0.9999466811468992,-1.4434364397761414
6.582210048,1.000209967594212,-1.749326957022077
6.592991744,1.0004631079943962,-2.05858173948877
6.60377344,1.0006933082197647,-2.370983806741803
6.614555136,1.00088918326587,-2.686177118467735
6.625336832,1.0010408634365329,-3.0036004537169885
6.636118528,1.0011407799509335,-3.322717438297684
6.646900224,1.0011838425798334,-3.6427919490822656
6.65768192,1.0011679321526277,-3.963128896796305
6.668463616,1.0010937394019606,-4.282841696930935
6.679245312,1.0009648014403907,-4.601365004901714
6.690027008,1.0007876505876412,-4.917965958654584
6.700808704,1.0005709336764974,-5.232022000502887
6.7115904,1.0003256236979368,-5.543177682792439
6.722372096,1.0000637238631476,-5.851111513514041
6.733153792,0.9997984785770864,-6.15569833332009
6.743935488,0.9995429015918168,-6.4569425070210835
6.754717184,0.9993100152591676,-6.755063686135578
6.76549888,0.9991114231656807,-7.050457477562093
6.776280576,0.9989570718385646,-7.343583203342015
6.78706176,0.9988548203640972,-7.635079215123001
6.797843456,0.9988097488205306,-7.9256470704698145
6.808625152,0.9988243832092055,-8.216038295901825
6.819406848,0.998897869207404,-8.507056083598178
6.830188544,0.9990265810315386,-8.799418972674781
6.84097024,0.999204194474784,-9.093781945451207
6.851751936,0.9994219466809094,-9.390692654808797
6.862533632,0.9996687677158888,-9.690674967314985
6.873315328,0.9999324361762931,-9.994020685838963
6.884097024,1.0001998626194166,-10.300781059724406
6.89487872,1.000457450363705,-10.610969637492795
6.905660416,1.0006926107596101,-10.924371090992215
6.916442112,1.0008933498439212,-11.240576806108551
6.927223808,1.0010497441502233,-11.55918704724593
6.938005504,1.0011540028570536,-11.879477474499902
6.9487872,1.0012007950348105,-12.200800546350859
6.959568896,1.0011877212044247,-12.522411224617214
6.970350592,1.0011152818107347,-12.843466672327876
6.981132288,1.0009871637425112,-13.163282669247742
6.991913984,1.000809654731063,-13.481242306276785
7.002695168,1.0005915961212806,-13.79665730426561
7.013476864,1.0003436762683016,-14.109113066777175
7.02425856,1.0000783826499637,-14.418328560590037
7.035040256,0.9998088378393976,-14.724113282723009
7.045821952,0.9995486200399342,-15.026581612295358
7.056603648,0.9993106615884632,-15.32581459046972
7.067385344,0.9991069662497081,-15.622237437234332
7.07816704,0.9989477367060774,-15.91632736047752
7.088948736,0.9988410096408545,-16.208784952537403
7.099730432,0.9987921915025321,-16.500259988954323
7.110512128,0.998803882047995,-16.791491748357828
7.121293824,0.9988754498740033,-17.08327278240182
7.13207552,0.9990033417387737,-17.376448246134135
7.142857216,0.9991812498416387,-17.67159627807428
7.153638912,0.999400490000291,-17.96933019981157
7.164420608,0.9996498595255225,-18.27013244099604
7.175202304,0.9999171053179108,-18.5743185885371
7.185984,1.0001887426233935,-18.881958709909448
7.196765696,1.0004512227393147,-19.19317440194879
7.207547392,1.0006917332935776,-19.50758045765578
7.218329088,1.0008977297868054,-19.824944039014284
7.229110272,1.0010592243429484,-20.144708846214353
7.239891968,1.0011680719077858,-20.46627800959058
7.250673664,1.001218724502847,-20.788917302687945
7.26145536,1.0012086581809414,-21.111843695638232
7.272237056,1.0011383664459086,-21.434325622442074
7.283018752,1.0010110539173278,-21.755574781208193
7.293800448,1.0008332678416028,-22.074924667303776
7.304582144,1.0006136761621949,-22.391753595265403
7.31536384,1.0003631837606297,-22.70559921466248
7.326145536,1.0000941069045832,-23.016180910705838
7.336927232,0.9998201756299406,-23.32327375288143
7.347708928,0.9995548186961002,-23.626929556267523
7.358490624,0.9993115156914141,-23.927371581817784
7.36927232,0.9991023274620088,-24.2249057990548
7.380054016,0.9989377187928377,-24.5200775470486
7.390835712,0.9988263050381092,-24.813450314470842
7.401617408,0.9987734605331259,-25.10581606763908
7.412399104,0.9987818779547154,-25.397960329000412
7.4231808,0.998851370839478,-25.69059535465952
7.433962496,0.9989783013581229,-25.984557993431103
7.44474368,0.9991567299638141,-26.280524312723628
7.455525376,0.9993774537908664,-26.579124629985394
7.466307072,0.9996296004114831,-26.880790623863952
7.477088768,0.9999005172128873,-27.18585310786944
7.487870464,1.0001768614957938,-27.494507599245996
7.49865216,1.0004446570451067,-27.80671212853291
7.509433856,1.0006905432065325,-28.122255702516934
7.520215552,1.000902428222393,-28.44079326204409
7.530997248,1.0010692018657172,-28.761821662333038
7.541778944,1.0011830818044027,-29.084682863127306
7.55256064,1.0012381641571948,-29.408676861781178
7.563342336,1.0012311802230955,-29.73305417813095
7.574124032,1.0011631457116423,-30.05700663271729
7.584905728,1.001036804472445,-30.379750363783955
7.595687424,1.0008587440351833,-30.700577893518165
7.60646912,1.0006373787986715,-31.01892032989585
7.617250816,1.000384008839097,-31.33423995385847
7.628032512,1.0001112123121492,-31.64619948148108
7.638814208,0.9998324305854672,-31.95467090939738
7.649595904,0.9995618082055718,-32.259659518126576
7.6603776,0.9993127554663476,-32.56130172529021
7.671158784,0.9990976742259547,-32.86002582741581
7.68194048,0.9989275295833692,-33.1562485426491
7.692722176,0.9988107464254321,-33.450697680939655
7.703503872,0.9987534739212527,-33.74403295292464
7.714285568,0.9987585671050144,-34.03705250996275
7.725067264,0.9988256762963874,-34.33058466424107
7.73584896,0.9989517907484914,-34.62543395617933
7.746630656,0.9991304179691594,-34.92224645969364
7.757412352,0.9993528075619349,-35.22169695738015
7.768194048,0.9996079063855938,-35.52426396945691
7.778975744,0.9998828511822938,-35.830285604861366
7.78975744,1.0001640302067152,-36.13994125021846
7.800539136,1.0004374518658683,-36.45323048146827
7.811320832,1.0006893727703476,-36.76992678055978
7.822102528,1.000907168660624,-37.08969781675696
7.832884224,1.0010800467206682,-37.41201018467346
7.84366592,1.0011991356700876,-37.736286194442954
7.854447616,1.001258669402732,-38.06172923997976
7.865229312,1.0012553922834193,-38.38759684641481
7.876011008,1.001189604142779,-38.713105276992884
7.886792704,1.0010643862039852,-39.0374403597
7.897573888,1.0008859964376882,-39.359834552681946
7.908355584,1.000663082089015,-39.67972411794619
7.91913728,1.0004066248056183,-39.99660133710545
7.929918976,1.0001296239701127,-40.31010844660901
7.940700672,0.9998458896523887,-40.62001702603827
7.951482368,0.9995694389034736,-40.9263601306373
7.962264064,0.9993140777167862,-41.229319294592685
7.97304576,0.999092789124993,-41.529232829473074
7.983827456,0.9989165459612562,-41.82663479770888
7.994609152,0.998794216704564,-42.1221296015404
8.005390848,0.9987321277883356,-42.41650777466157
8.016172544,0.9987334519066478,-42.71047462987159
8.02695424,0.9987982262945396,-43.00490883095037
8.037735936,0.9989231352357024,-43.30062428542929
8.048517632,0.999102040562288,-43.59835390762871
8.059299328,0.999326300156728,-43.89871064786477
8.070081024,0.9995844592706724,-44.20221056609405
8.08086272,0.9998635649169644,-44.50922984172282
8.091644416,1.0001501186519781,-44.819920983074766
8.102426112,1.0004294688731852,-45.134320845377985
8.113207296,1.000687717931044,-45.452238883365794
8.123988992,1.00091203823884,-45.77329989347733
8.134770688,1.001091137484554,-46.096988066113305
8.145552384,1.0012160832671235,-46.42268444055378
8.15633408,1.001280427428235,-46.74969157172804
8.167115776,1.0012811594561015,-47.07714252144142
8.177897472,1.0012179360519529,-47.40427383407947
8.188679168,1.0010939248008321,-47.7302588490412
8.199460864,1.000915182281757,-48.054335907592844
8.21024256,1.000690443740944,-48.37589093060406
8.221024256,1.0004310475508935,-48.69439052236337
8.231805952,1.0001497313028198,-49.009460258176155
8.242587648,0.9998604057686363,-49.32090351370783
8.253369344,0.9995778264588013,-49.628702151532174
8.26415104,0.9993159192003896,-49.93302465873509
8.274932736,0.9990878093085285,-50.234243031561526
8.285714432,0.9989050119033386,-50.53282550188158
8.296496128,0.9987767207957975,-50.829462838120754
8.307277824,0.9987095959654622,-51.12485992617659
8.31805952,0.9987067285526353,-51.4198361858701
8.328841216,0.9987687261676991,-51.71525544696357
8.3396224,0.9988924108636419,-52.011887606585354
8.350404096,0.9990716948879107,-52.310519408868316
8.361185792,0.9992976996560134,-52.61180419183189
8.371967488,0.9995590906832719,-52.916287550943466
8.382749184,0.999842838935787,-53.22430960907765
8.39353088,1.0001349268595245,-53.5361186936963
8.404312576,1.0004206539507323,-53.85167259415125
8.415094272,1.0006857351625413,-54.17086878594931
8.425875968,1.0009170879322906,-54.4932552154427
8.436657664,1.0011030176415008,-54.81839030953167
8.44743936,1.001234089938779,-55.14565539402815
8.458221056,1.0013039672911608,-55.47422149598249
8.469002752,1.0013087971790904,-55.80338322804013
8.479784448,1.0012483961340044,-56.13219470642865
8.490566144,1.001125767296189,-56.459907436259776
8.50134784,1.0009467404114925,-56.78575544007515
8.512129536,1.0007201888448019,-57.10904354802685
8.522911232,1.0004574047693606,-57.42927161819197
8.533692928,1.00017152291605,-57.746013278352315
8.544474624,0.9998764492680338,-58.059054488593425
8.55525632,0.9995871968160305,-58.36838488810285
8.566037504,0.9993181630556776,-58.674145189590185
8.5768192,0.9990828036553079,-58.97672672613394
8.587600896,0.9988929689742466,-59.27658792390706
8.598382592,0.9987582197557289,-59.57438767609426
8.609164288,0.9986854925998179,-59.87088787882548
8.619945984,0.9986783479365546,-60.1669133011081
8.63072768,0.998737178632664,-60.463289506002184
8.641509376,0.9988594547892969,-60.76089228193283
8.652291072,0.9990389594881337,-61.06050747896748
8.663072768,0.9992668560452699,-61.36275614456806
8.673854464,0.9995315863967467,-61.668253060479145
8.68463616,0.9998203506107368,-61.9773137948049
8.695417856,1.0001182983246886,-62.290272937616145
8.706199552,1.000410897959226,-62.607063828140134
8.716981248,1.0006834243145415,-62.927539704187396
8.727762944,1.0009222532941406,-63.251352839935535
8.73854464,1.0011154768394082,-63.57800061229103
8.749326336,1.0012533367693814,-63.906824273770425
8.760108032,1.0013288687231072,-64.23710698553869
8.770889728,1.0013383769365665,-64.56800717581997
8.781671424,1.001281086214893,-64.89864291014908
8.79245312,1.001159881350214,-65.22821152730438
8.803234816,1.000980711764842,-65.5559062992867
8.814016512,1.0007524074456342,-65.88101810204346
8.824798208,1.0004860397893045,-66.20307133393688
8.835579904,1.0001951095501003,-66.5215632855036
8.8463616,0.9998941175752153,-66.83627275610303
8.857143296,0.9995975954148723,-67.14724341627505
8.867924992,0.999321037497447,-67.45452246834064
8.878706688,0.9990777715991187,-67.75850908322074
8.88948736,0.9988804640298357,-68.05967623334062
8.900269056,0.9987385253587873,-68.35871095543729
8.911050752,0.9986596692862337,-68.6563705357416
8.921832448,0.9986477990182648,-68.95345231034482
8.932614144,0.9987035127739518,-69.2508700369066
8.94339584,0.9988240996866216,-69.5494911605032
8.954177536,0.999003769764638,-69.85006294293976
8.964959232,0.9992334798413203,-70.15332712202569
8.975740928,0.9995019757378142,-70.45984659688104
8.986522624,0.9997956730127493,-70.77005734276189
8.99730432,1.0001001138002334,-71.08416703036323
9.008086016,1.0004001381444407,-71.40220600303734
9.018867712,1.0006804185111464,-71.72405189352635
9.029649408,1.0009273559001088,-72.04934723340101
9.040431104,1.0011283906159223,-72.37757660698188
9.0512128,1.0012735378027326,-72.70809954972837
9.061994496,1.001355366977149,-73.04013645896912
9.072776192,1.001369904296709,-73.37285013352232
9.083557888,1.0013160925422298,-73.70538950645275
9.094339584,1.0011967067983416,-74.03687248918672
9.10512128,1.001017411448087,-74.36651798809822
9.115902976,1.0007870485623347,-74.69361758595552
9.126684672,1.0005170629067777,-75.01754340289375
9.137466368,1.000220879510076,-75.33789073303544
9.148248064,0.9999131256101358,-75.65440040589017
9.15902976,0.9996092756557742,-75.96705686920065
9.169811456,0.9993243697716818,-76.27595636952104
9.180593152,0.9990726947240237,-76.58144290862364
9.191374848,0.998867084415489,-76.88399484547502
9.202156544,0.9987176735304071,-77.18432626170674
9.21293824,0.9986322261937073,-77.4831603226489
9.223719936,0.9986150339525764,-77.78138000836157
9.234501632,0.9986671246649854,-78.07984684479838
9.245283328,0.9987858469528987,-78.37950188090902
9.256065024,0.9989656696629018,-78.68110061092199
9.26684672,0.9991973385072386,-78.98538810645528
9.277628416,0.9994696159474442,-79.29300008223558
9.288410112,0.9997687825859314,-79.6043235192769
9.299191808,1.0000800637279674,-79.9196289358605
9.309973504,1.0003878782171052,-80.23901177585829
9.3207552,1.0006766812408265,-80.5622616901142
9.331536896,1.0009323346158923,-80.88909444648954
9.342317568,1.0011419683311098,-81.21898367365185
9.353099264,1.0012950303431654,-81.55123825441558
9.36388096,1.0013837751620722,-81.88512723038404
9.374662656,1.0014037847138406,-82.21979550798778
9.385444352,1.0013537723635035,-82.55433922855862
9.396226048,1.0012362392166576,-82.8878715515248
9.407007744,1.0010570096745257,-83.21957018322382
9.41778944,1.0008245775951166,-83.54871730581088
9.428571136,1.000550845436428,-83.87465213871201
9.439352832,1.0002490175556722,-84.19696076516287
9.450134528,0.9999343099005191,-84.51537938514447
9.460916224,0.9996223071444975,-84.82978445170217
9.47169792,0.9993285390133799,-85.14036745959231
9.482479616,0.9990678218022061,-85.44740259180719
9.493261312,0.9988532564056606,-85.75140732986443
9.504043008,0.9986956761921864,-86.05310236922762
9.514824704,0.9986030357619115,-86.3531878973572
9.5256064,0.9985800626511501,-86.6525617158468
9.536388096,0.9986280916552872,-86.95214839278128
9.547169792,0.9987448758176102,-87.25285997900811
9.557951488,0.9989245374295208,-87.55550232922359
9.568733184,0.9991583593649694,-87.8608701155139
9.57951488,0.999434584370231,-88.16957554161674
9.590296576,0.9997395679328208,-88.48209329559633
9.601078272,1.0000580476260839,-88.79867288410063
9.611859968,1.0003742117069037,-89.11940177651928
9.622641664,1.000672345682197,-89.44413238594757
9.63342336,1.0009374801552315,-89.77256044281147
9.644205056,1.001156196381166,-90.10416182691459
9.654986752,1.0013178272399672,-90.4382705310538
9.665768448,1.0014140241292193,-90.77410561154949
9.676550144,1.0014400091944753,-91.11079279656809
9.68733184,1.0013943202335227,-91.44744458785644
9.698113536,1.0012790327540984,-91.78314222337781
9.708895232,1.0010999190289813,-92.11701429461098
9.719676928,1.0008655095309797,-92.44829274882332
9.730458624,1.0005876351892682,-92.77638399388385
9.74124032,1.0002799253621415,-93.10075105591675
9.752022016,0.99995760093662,-93.42113348250686
9.762803712,0.9996368094699748,-93.73746423997224
9.773585408,0.9993335729488748,-94.04980675080924
9.78436608,0.9990630755966892,-94.35848917149514
9.795147776,0.9988388512145981,-94.6640346766727
9.805929472,0.9986723067060708,-94.9671063066452
9.816711168,0.9985718162622113,-95.26850361490268
9.827492864,0.9985425762010439,-95.56908121611009
9.83827456,0.9985860593934869,-95.8698366197254
9.849056256,0.9987003782754752,-96.17159582589413
9.859837952,0.9988799153366109,-96.47535510722557
9.870619648,0.9991156546388417,-96.7818271198122
9.881401344,0.9993961227832593,-97.09166176231554
9.89218304,0.9997072779857266,-97.40538588398887
9.902964736,1.000033632537521,-97.72327001371119
9.913746432,1.00035891107662,-98.04540431863516
9.924528128,1.000666804399008,-98.37167787038882
9.935309824,1.0009420722015714,-98.70175795778408
9.94609152,1.0011709093539165,-99.03515558581775
9.956873216,1.0013419008100526,-99.37118775414085
9.967654912,1.0014462640545339,-99.7090712932221
9.978436608,1.0014788844424793,-100.04790085227226
9.989218304,1.0014378669497759,-100.38678894751607
10.0,1.0013252271920567,-100.72471849637883
10.010781696,1.0011462834890523,-101.0608922652374
10.021563392,1.000909913945588,-101.39449001152815
10.032345088,1.000627657267882,-101.72481806839471
10.043126784,1.0003136089863038,-102.05137150673241
10.05390848,0.9999833227839893,-102.3738506050304
10.064690176,0.9996531039426936,-102.69216882355639
10.075471872,0.9993396018826305,-103.00635414764972
10.086253568,0.9990584599893488,-103.31680126316829
10.097035264,0.9988237983692492,-103.62395050828093
10.10781696,0.9986474119199111,-103.92848392668695
10.118598656,0.9985382966518578,-104.23122483900441
10.129380352,0.9985020172119514,-104.53308356737776
10.140162048,0.9985406518432423,-104.8349886111778
10.150943744,0.9986521426717597,-105.13792210636274
10.16172544,0.9988313245498803,-105.44277408082687
10.172507136,0.9990692473683006,-105.75035552813858
10.183288832,0.99935421624888,-106.06138297867584
10.194070528,0.999671813523035,-106.37632537705156
10.204852224,1.0000064710090242,-106.69555318546682
10.21563392,1.0003415906921433,-107.01915070029327
10.226414592,1.0006602110317704,-107.34701004135411
10.237196288,1.0009465836953289,-107.67883087352489
10.247977984,1.001186283838748,-108.0141242437947
10.25875968,1.001367423728836,-108.35216790268784
10.269541376,1.001480847024464,-108.69219567629497
10.280323072,1.0015207926671041,-109.03328846160997
10.291104768,1.001485049452417,-109.37448938873851
10.301886464,1.0013752175901978,-109.71485250167537
10.31266816,1.001196806172758,-110.05344965218077
