freq,mag,phase
6.0,1.0001107269953544,-141.8337025323707
6.003738112,1.0001003898536738,-142.04044742793945
6.007476736,1.0000841116490296,-142.246996156705
6.011214848,1.0000628758955106,-142.45326220252127
6.014953472,1.000037911960947,-142.65919999980287
6.018691584,1.0000108391156575,-142.86480607400696
6.022429696,0.9999832289688357,-143.07000523281465
6.02616832,0.9999567819360311,-143.2748295430935
6.029906432,0.999933046563263,-143.47926462352044
6.033645056,0.999913555561789,-143.68343416265975
6.037383168,0.999899437612709,-143.88733247809697
6.04112128,0.9998915671880187,-144.0911069148873
6.044859904,0.9998902792849023,-144.2947920289958
6.048598016,0.9998958912644408,-144.49853009237034
6.05233664,0.9999079958709806,-144.7023945995647
6.056074752,0.9999256482597622,-144.90644532547202
6.059812864,0.9999481260026442,-145.11080938314743
6.063551488,0.9999738411749421,-145.3155207354412
6.0672896,1.0000012235633513,-145.52057772132204
6.071028224,1.0000287075212924,-145.72604629685353
6.074766336,1.0000546044510217,-145.93191410838057
6.078504448,1.0000773581250897,-146.13810963716824
6.082243072,1.0000955929380309,-146.34459488702277
6.085981184,1.000108252879926,-146.55131685478537
6.089719808,1.0001144403009827,-146.75815233585305
6.09345792,1.0001137155292006,-146.9650297232774
6.097196032,1.000106347230913,-147.1718762135364
6.100934656,1.0000927115627194,-147.3785504463481
6.104672768,1.0000736067996308,-147.5849840476116
6.108411392,1.00005007109819,-147.79112936933038
6.112149504,1.0000237239919976,-147.99693498045056
6.115887616,0.9999960845382794,-148.20236909802713
6.11962624,0.9999688508914171,-148.40738120354678
6.123364352,0.9999435093022118,-148.61203641461645
6.127102976,0.9999218211887755,-148.81634770548982
6.130841088,0.9999050091645348,-149.02039159884163
6.1345792,0.9998940796926268,-149.2242395478241
6.138317824,0.9998896724161404,-149.42799278317798
6.142055936,0.9998921366118932,-149.63170181430016
6.14579456,0.999901233222693,-149.83555090194983
6.149532672,0.9999164870304054,-150.03952002222022
6.153270784,0.9999368705524467,-150.24375453903357
6.157009408,0.9999613067512062,-150.44831932612175
6.16074752,0.9999882203527259,-150.6532420114745
6.164486144,1.0000159997510718,-150.85855600400734
6.168224256,1.0000429418210508,-151.0642499631846
6.171962368,1.0000674738718165,-151.27031427066956
6.175700992,1.0000879968377998,-151.47673600853014
6.179439104,1.0001033629902605,-151.68337607579173
6.183177728,1.000112608952602,-151.89019600523486
6.18691584,1.000115284896958,-152.09711608326
6.190653952,1.000111000057189,-152.3040188958051
6.194392576,1.0001001953017283,-152.51080343192618
6.198130688,1.0000834512343917,-152.71740202881338
6.201869312,1.000061746523422,-152.92372993888688
6.205607424,1.0000364491023803,-153.12972308659113
6.209346048,1.000009149209117,-153.3353498594506
6.21308416,0.9999814014992225,-153.54055745081718
6.216822272,0.999954865681134,-153.74541695007892
6.220560896,0.9999312546789931,-153.94988501193006
6.224299008,0.9999119109733549,-154.15410042788795
6.228037632,0.9998980247338393,-154.3580574517394
6.231775744,0.9998905268609208,-154.5618520036785
6.235513856,0.9998897346242684,-154.76558466490638
6.23925248,0.99989579787549,-154.96937132268047
6.242990592,0.9999082968701588,-155.17327987225352
6.246729216,0.9999264678889441,-155.37739911575918
6.250467328,0.9999492959786906,-155.58182823161033
6.25420544,0.9999753058702822,-155.78660416547396
6.257944064,1.0000029474441128,-155.9917423672179
6.261682176,1.0000306883538792,-156.19729165014041
6.2654208,1.000056593059745,-156.40321158758778
6.269158912,1.0000791919923517,-156.60948634632692
6.272897024,1.0000972146723544,-156.81603946308664
6.276635648,1.0001095091430128,-157.02281190233626
6.28037376,1.0001152691017225,-157.22972281728073
6.284112384,1.0001141733459353,-157.43665788029506
6.287850496,1.0001064388751881,-157.64354965223558
6.291588608,1.0000922840166906,-157.85025537874913
6.295327232,1.0000726386264882,-158.0567358973389
6.299065344,1.0000488863383383,-158.2629214194234
6.302803968,1.0000222489861947,-158.46874324399613
6.30654208,0.9999943017492288,-158.67417108956687
6.310280192,0.9999669297808145,-158.87921149993932
6.314018816,0.9999416480384291,-159.08388689714982
6.317756928,0.9999200266930315,-159.28820125693736
6.321495552,0.9999035202307308,-159.49228237644613
6.325233664,0.999892887775519,-159.69614310400942
6.328971776,0.9998888726169028,-159.89990800104567
6.3327104,0.9998917795385854,-160.1036549460046
6.336448512,0.9999013091838519,-160.30749048433657
6.340187136,0.9999170269408739,-160.51152716568782
6.343925248,0.9999379413472221,-160.71580825950767
6.34766336,0.9999626921669645,-160.92044078684688
6.351401984,0.9999899235592934,-161.12542055071384
6.355140096,1.0000178622506704,-161.33077246806104
6.35887872,1.000044948581254,-161.53654129729853
6.362616832,1.000069374515838,-161.74267650143722
6.366354944,1.000089741160166,-161.94911001781188
6.370093568,1.0001048650446152,-162.155811560532
6.37383168,1.0001138384010042,-162.36267819488214
6.377570304,1.0001159733128295,-162.56964262395329
6.381308416,1.0001112901540778,-162.7765616562194
6.385046528,1.0001000162949827,-162.98339814337174
6.388785152,1.0000828065233178,-163.19000816238614
6.392523264,1.0000607668316723,-163.39634465556804
6.396261888,1.0000350598010692,-163.6023340892992
6.4,1.000007470673976,-163.80797128788234
6.403738112,0.9999795380277924,-164.01319936968423
6.407476736,0.9999529861120497,-164.2180326026426
6.411214848,0.9999294734112155,-164.4225234811814
6.414953472,0.9999102512410282,-164.62670764480745
6.418691584,0.9998966725953189,-164.83066536786131
6.422429696,0.9998895538816643,-165.0344761182301
6.42616832,0.9998891855189544,-165.2382033791943
6.429906432,0.9998957152414649,-165.44199977329376
6.433645056,0.9999087523821448,-165.64592648355122
6.437383168,0.9999272992111427,-165.85007475736774
6.44112128,0.999950554245661,-166.05452503892698
6.444859904,0.9999769103872932,-166.2593363069468
6.448598016,1.0000048292625539,-166.46454150385316
6.45233664,1.0000325746699577,-166.67010624881462
6.456074752,1.0000585313568153,-166.87608613704043
6.459812864,1.000081071912313,-167.0823766150071
6.463551488,1.000098914756147,-167.28898172389066
6.4672896,1.0001108136838708,-167.49578724089838
6.471028224,1.0001162144812974,-167.70273096043618
6.474766336,1.0001147848755165,-167.90967114505068
6.478504448,1.0001063835430197,-168.11658686011694
6.482243072,1.0000918669644159,-168.3233140027851
6.485981184,1.0000718713322145,-168.529806762358
6.489719808,1.0000476598297738,-168.73595730162126
6.49345792,1.0000206400834948,-168.94176650283717
6.497196032,0.999992588727844,-169.147178128044
6.500934656,0.9999650422565165,-169.35220325084018
6.504672768,0.9999397723623951,-169.5568358785591
6.508411392,0.999918382732234,-169.76114056981098
6.512149504,0.9999019831501628,-169.9651693112743
6.515887616,0.9998916714910686,-170.1690214493723
6.51962624,0.999888111427822,-170.37276671025032
6.523364352,0.9998914704162162,-170.57652650912956
6.527102976,0.999901518016946,-170.78036017123648
6.530841088,0.9999177156751928,-170.98440034421455
6.5345792,0.9999390066014919,-171.18871645005018
6.538317824,0.9999642207600287,-171.39333705312055
6.542055936,0.9999916717855573,-171.59833126803588
6.54579456,1.0000197758533114,-171.8037357991372
6.549532672,1.000046938876662,-172.0095229952503
6.553270784,1.0000713136012704,-172.2156689330172
6.557009408,1.0000915645751962,-172.42213538885355
6.56074752,1.0001064591328432,-172.62886201411487
6.564486144,1.0001149769512567,-172.83574039617858
6.568224256,1.0001167274994625,-173.0426925382547
6.571962368,1.0001116967549435,-173.24965207276603
6.575700992,1.0000998034029818,-173.45642772725665
6.579439104,1.0000821952579895,-173.66306618927823
6.583177728,1.0000596037109493,-173.86936154586337
6.58691584,1.0000336214450791,-174.07533069618745
6.590653952,1.0000057634868948,-174.28093295432888
6.594392576,0.999977725192418,-174.486119690379
6.598130688,0.999951086836654,-174.69090418484905
6.601869312,0.9999275640151118,-174.89536722090335
6.605607424,0.9999085773188454,-175.0995189080522
6.609346048,0.9998952361127427,-175.3034202475865
6.61308416,0.9998885711760951,-175.5071998473364
6.616822272,0.9998886547344696,-175.71092040911506
6.620560896,0.9998955860779377,-175.91468356343566
6.624299008,0.9999090743067279,-176.11858880522277
6.628037632,0.9999281911943223,-176.32274069080157
6.631775744,0.9999518092114538,-176.52717573927242
6.635513856,0.9999785172602704,-176.73198581278913
6.63925248,1.0000067035506293,-176.9371841589319
6.642990592,1.0000345888869047,-177.14277612006472
6.646729216,1.0000605846926962,-177.3487559989621
6.650467328,1.0000830276313235,-177.55505773984245
6.65420544,1.000100615821353,-177.76167436405223
6.657944064,1.0001122402478089,-177.96847781959102
6.661682176,1.0001172002939984,-178.17540566306238
6.6654208,1.000115276892665,-178.38235373200456
6.669158912,1.000106463979822,-178.58921466200096
6.672897024,1.0000914286516502,-178.7959205746617
6.676635648,1.0000710090050924,-179.00237023472846
6.68037376,1.0000463658081828,-179.20849857315682
6.684112384,1.0000190588776097,-179.414246978551
6.687850496,0.9999907459680224,-179.61960873785202
6.691588608,0.9999631419297338,-179.82458611861287
6.695327232,0.9999379023153364,179.97083284287947
6.699065344,0.9999166253269081,179.7665877407946
6.702803968,0.9999003917712791,179.56258998308715
6.70654208,0.9998904763507159,179.35878840960982
6.710280192,0.9998873407781983,179.15509937820602
6.714018816,0.9998910710038664,178.95137559363914
6.717756928,0.9999015670290666,178.7475851841477
6.721495552,0.9999182623150127,178.54355692575982
6.725233664,0.9999400010108906,178.3393081016464
6.728971776,0.9999655395182618,178.13468776770526
6.7327104,0.9999933283195932,177.92971092343424
6.736448512,1.0000216339810855,177.72430744870812
6.740187136,1.0000488131049177,177.5185468544614
6.743925248,1.000073338879288,177.312406595269
6.74766336,1.0000933677001267,177.10595763893443
6.751401984,1.0001079665252128,176.89923422341127
6.755140096,1.0001162099736574,176.6923715912047
6.75887872,1.0001176241421397,176.48544067799844
6.762616832,1.0001119225946806,176.27854100867856
6.766354944,1.000099621273756,176.0717787598505
6.770093568,1.0000813834097466,175.86521675893422
6.77383168,1.0000585176301224,175.65896023627568
6.777570304,1.000032160582704,175.45304764131882
6.781308416,1.0000040334288423,175.2475207982276
6.785046528,0.9999757612229,175.04240027584518
6.788785152,0.9999491021540882,174.83765814619608
6.792523264,0.9999256824056783,174.63327963568452
6.796261888,0.9999068786679155,174.42922417020196
6.8,0.9998938021940061,174.22537090519128
6.803738112,0.9998875132959009,174.0216771269416
6.807476736,0.9998880000101905,173.81800795609797
6.811214848,0.9998954486212801,173.61429787697352
6.814953472,0.999909348496611,173.4104187907706
6.818691584,0.9999290016277489,173.20631894380605
6.822429696,0.9999530113652416,173.00191390821504
6.82616832,0.9999800805746226,172.7971371834277
6.829906432,1.000008461040008,172.59196850882833
6.833645056,1.0000365003915048,172.38639891947466
6.837383168,1.0000625002406416,172.1804633540893
6.84112128,1.0000848935855926,171.97416282188468
6.844859904,1.0001022258543446,171.76759540971827
6.848598016,1.0001135417125075,171.5608183984057
6.85233664,1.0001181960345036,171.35392475387974
6.856074752,1.0001158929341207,171.1470248999556
6.859812864,1.0001064773491783,170.9402115312695
6.863551488,1.0000909946763639,170.7335713631638
6.8672896,1.0000699974094829,170.52718749403493
6.871028224,1.0000449866992709,170.32114259163012
6.874766336,1.0000173022758347,170.11546719896617
6.878504448,0.99998886140124,169.9101798889229
6.882243072,0.9999610486021665,169.7052953492564
6.885981184,0.999935850834695,169.50081068803146
6.889719808,0.9999146350741508,169.29665537709792
6.89345792,0.999898727432913,169.09275937773967
6.897196032,0.9998891253705606,168.88903070709648
6.900934656,0.9998864081266177,168.68540014190455
6.904672768,0.9998906281752211,168.48176382769728
6.908411392,0.9999016708708411,168.2780208981545
6.912149504,0.9999188268496169,168.07407337034869
6.915887616,0.9999410801183422,167.8698622752244
6.91962624,0.99996696935078,167.6653045648635
6.923364352,0.9999950864814008,167.46035488838564
6.927102976,1.0000236217109937,167.2550095120625
6.930841088,1.0000507977543263,167.0492706096902
6.9345792,1.0000751892404307,166.84317251072508
6.938317824,1.000095218545658,166.63675339568428
6.942055936,1.0001094395750798,166.43010387100128
6.94579456,1.0001174252445233,166.22328487778708
6.949532672,1.000118216722599,166.0164191160491
6.953270784,1.00011208061912,165.80956655116836
6.957009408,1.0000992939039286,165.6028776498094
6.96074752,1.00008073009692,165.39640408634952
6.964486144,1.0000572457241717,165.1902123575846
6.968224256,1.0000305930773241,164.98439875517596
6.971962368,1.0000022349131246,164.7789737487739
6.975700992,0.9999737717216228,164.5739583549416
6.979439104,0.9999469900818295,164.36932303703225
6.983177728,0.999923684700665,164.1650646118266
6.98691584,0.9999051129936246,163.96110322235904
6.990653952,0.9998923651698297,163.75734803534044
6.994392576,0.9998863348379433,163.55375170362794
6.998130688,0.9998873378930793,163.35015412747885
7.001869312,0.9998952188277936,163.14652756572997
7.005607424,0.9999097403663297,162.9427443425723
7.009346048,0.9999298097576952,162.7387251747121
7.01308416,0.9999542821960684,162.5343688978324
7.016822272,0.9999816067435922,162.32966231007651
7.020560896,1.00001026531618,162.12454122665866
7.024299008,1.0000384451287292,161.91902778752242
7.028037632,1.0000644500483329,161.71313233063742
7.031775744,1.0000867787024186,161.50689454882792
7.035513856,1.0001039273865286,161.300372834459
7.03925248,1.0001149543793302,161.0936753223256
7.042990592,1.0001190996096592,160.88685385875957
7.046729216,1.0001162398925847,160.68002879219122
7.050467328,1.0001065389613852,160.47329964215834
7.05420544,1.0000904021792438,160.2667334702466
7.057944064,1.0000689616508465,160.06046038252154
7.061682176,1.0000436316634203,159.85451259253222
7.0654208,1.0000156520659536,159.64894912727542
7.069158912,0.9999868719197842,159.44378330403913
7.072897024,0.9999590463452226,159.23902437730263
7.076635648,0.9999338523481727,159.0346466622173
7.08037376,0.9999128138167768,158.83060218577685
7.084112384,0.9998971095277417,158.62682155783054
7.087850496,0.9998878339063209,158.4232046745033
7.091588608,0.9998855421479188,158.21967803403945
7.095327232,0.9998901564184628,158.01614247316104
7.099065344,0.9999017004659515,157.81250609889904
7.102803968,0.9999192956775766,157.60865335026674
7.10654208,0.9999420585406498,157.40451708836815
7.110280192,0.9999684317744119,157.20004430263094
7.114018816,0.9999967254728654,156.99515673921246
7.117756928,1.000025562652543,156.7898915647199
7.121495552,1.0000528185896462,156.58421063334563
7.125233664,1.000077132697401,156.37817119896764
7.128971776,1.0000969365760783,156.17183752294082
7.1327104,1.0001110393514356,155.96524707503053
7.136448512,1.000118462786107,155.75852443340992
7.140187136,1.000118904686203,155.55171237129295
7.143925248,1.0001121935254385,155.34498300043595
7.14766336,1.000099036951188,155.13838601543813
7.151401984,1.0000798964157347,154.93201635922367
7.155140096,1.0000560973944304,154.72595753749016
7.15887872,1.0000289746915483,154.5202666517426
7.162616832,1.0000002787074946,154.3149664281505
7.166354944,0.99997156379452,154.11006439248928
7.170093568,0.9999449579609313,153.905587434771
7.17383168,0.9999216402095132,153.70144991032384
7.177570304,0.9999032649988524,153.49761447971025
7.181308416,0.9998908445084883,153.29401300044793
7.185046528,0.9998851757045482,153.09050629586164
7.188785152,0.9998866480727029,152.88705031487487
7.192523264,0.9998951432718826,152.683539836587
7.196261888,0.9999100155142007,152.4798491664587
7.2,0.9999306429118516,152.27591166686713
7.203738112,0.9999554522953242,152.0716481795955
7.207476736,0.9999833069215369,151.86702780525235
7.211214848,1.0000122021279811,151.6620110348995
7.214953472,1.0000403817461032,151.4565816192803
7.218691584,1.0000665058742662,151.25076400141668
7.222429696,1.000088682428685,151.04461685962886
7.22616832,1.0001055636031757,150.83818190556872
7.229906432,1.0001161899081519,150.6315635053533
7.233645056,1.000120031774162,150.4248329279491
7.237383168,1.0001167327149552,150.21811054290566
7.24112128,1.0001065437204038,150.01148035522243
7.244859904,1.00008993461027,149.80505040963473
7.248598016,1.000068005414678,149.59889188900058
7.25233664,1.0000421663991492,149.39309202167476
7.256074752,1.00001385295741,149.1876613309566
7.259812864,0.9999848550423053,148.98262387363764
7.263551488,0.9999569547690511,148.7780251222319
7.2672896,0.9999316740526634,148.5737912627146
7.271028224,0.9999107834222024,148.36987391816007
7.274766336,0.9998953966629336,148.16624258029123
7.278504448,0.9998865098191494,147.96278257878222
7.282243072,0.9998845457893835,147.75940273432994
7.285981184,0.9998898451234985,147.555996245625
7.289719808,0.9999019015859204,147.35246508964516
7.29345792,0.9999200219227143,147.1487233334468
7.297196032,0.999943142099276,146.94470652164355
7.300934656,0.9999697300071753,146.74031070210734
7.304672768,0.9999985697496662,146.5355603697425
7.308411392,1.0000275296559296,146.33036630459324
7.312149504,1.0000549552949187,146.1247825192512
7.315887616,1.0000792295921708,145.91885122332232
7.31962624,1.0000987919256747,145.71260761055763
7.323364352,1.0001125791866903,145.50610963460932
7.327102976,1.0001197015974244,145.29950071941417
7.330841088,1.0001196989410444,145.09282557035823
7.3345792,1.0001125995702076,144.88619457960093
7.338317824,1.0000988187855064,144.67971409796408
7.342055936,1.0000791670161837,144.4734745499711
7.34579456,1.0000548684998891,144.26755562555203
7.349532672,1.0000273802116535,144.0620063979358
7.353270784,0.9999983924746687,143.8568578700657
7.357009408,0.9999695848361112,143.65212539296616
7.36074752,0.999942868952578,143.44780174405813
7.364486144,0.9999196553385846,143.2438171393879
7.368224256,0.9999013474241377,143.04012755522444
7.371962368,0.9998893842389502,142.83668262024534
7.375700992,0.999884135736189,142.63333423949697
7.379439104,0.999886070631175,142.4300364648797
7.383177728,0.9998949920511686,142.2266488455112
7.38691584,0.9999104746121321,142.02310564542645
7.390653952,0.9999314673215124,141.81927708599147
7.394392576,0.9999568402525949,141.61514511562973
7.398130688,0.9999849271576543,141.4106310512976
7.401869312,1.0000140608244115,141.20571083934135
7.405607424,1.000042529441844,141.0004006201289
7.409346048,1.0000685747236524,140.79469107104543
7.41308416,1.0000906855740057,140.58864037485733
7.416822272,1.0001073139102534,140.38231766991763
7.420560896,1.0001177027034387,140.17582052031375
7.424299008,1.0001210424688063,139.96919991637495
7.428037632,1.0001172207551279,139.7626166439659
7.431775744,1.0001064928343535,139.55613020531638
7.435513856,1.0000893887905362,139.3498281135478
7.43925248,1.0000670471612672,139.14382961064612
7.442990592,1.000040639907218,138.93816751858918
7.446729216,1.0000121147335184,138.7328969252644
7.450467328,0.9999828349554313,138.52805479401746
7.45420544,0.999954749487007,138.32359985352645
7.457944064,0.9999296413876411,138.11952928325377
7.461682176,0.9999088435044904,137.9158092038952
7.4654208,0.9998936414043087,137.71233929474909
7.469158912,0.9998851041674313,137.50903540732713
7.472897024,0.9998836515790026,137.30582065482554
7.476635648,0.9998893862274286,137.1025539575519
7.48037376,0.9999020287484337,136.89917486713307
7.484112384,0.9999205777731013,136.6955828898078
7.487850496,0.9999442646536849,136.49166916757392
7.491588608,0.9999713785724673,136.28743175256295
7.495327232,1.0000004750792852,136.08277763022718
7.499065344,1.0000294860463728,135.87771459743277
