freq,mag,phase
6.0,1.000321163022229,-73.8562766183748
6.008080896,1.0003451376418944,-74.23464519956843
6.016161792,1.0003518990069549,-74.6133144094438
6.024242176,1.0003401120713307,-74.99210189600404
6.032323072,1.0003103578875783,-75.37064396929819
6.040403968,1.0002642917610371,-75.74887692737778
6.048484864,1.000204346186903,-76.12651736847549
6.05656576,1.0001335844371833,-76.50341677573923
6.064646656,1.0000560501956348,-76.87940342169951
6.07272704,0.9999755973773664,-77.25449654787579
6.080807936,0.9998967501782673,-77.62861543286846
6.088888832,0.9998234734952275,-78.00181265827231
6.096969728,0.9997599757236526,-78.37424276222191
6.105050624,0.9997094481467469,-78.74605189045178
6.11313152,0.9996745553392412,-79.11737737313797
6.121211904,0.9996574035842709,-79.488450966136
6.1292928,0.9996587570820732,-79.85957744866381
6.137373696,0.99967846078616,-80.23097019163824
6.145454592,0.9997156861361254,-80.6027756912866
6.153535488,0.9997683392635729,-80.97538373564711
6.161616384,0.9998337195250786,-81.34884775728403
6.169696768,0.9999081348307217,-81.72338941743406
6.177777664,0.999987859333666,-82.09904439495567
6.18585856,1.000068430232121,-82.47589497506402
6.193939456,1.0001456425820605,-82.85393046413445
6.202020352,1.0002155228708896,-83.23303285240642
6.210101248,1.0002740622292017,-83.6131108664133
6.218181632,1.000318302132024,-83.99403824105313
6.226262528,1.0003457113730538,-84.37551324986676
6.234343424,1.0003550512690262,-84.75734964088286
6.24242432,1.0003456094486232,-85.13930889923643
6.250505216,1.0003180408286316,-85.52116082457984
6.258586112,1.0002737685344152,-85.90263764657249
6.266666496,1.000215081571779,-86.28353806534614
6.274747392,1.0001450124808091,-86.66370846359098
6.282828288,1.0000675840688609,-87.0429984536692
6.290909184,0.9999865295472091,-87.42137357445331
6.29899008,0.9999064030002677,-87.79878589674425
6.307070464,0.9998316190148988,-88.17528010699209
6.31515136,0.999765989414471,-88.55095259314842
6.323232256,0.999713055870594,-88.92594303248609
6.331313152,0.999675579815687,-89.30043373251863
6.339394048,0.9996556239557206,-89.67468869732848
6.347474944,0.9996544187712837,-90.04890358153847
6.355555328,0.9996718060008136,-90.42334707470202
6.363636224,0.9997070888116549,-90.7982533661169
6.37171712,0.9997581271051158,-91.17384833357485
6.379798016,0.9998223917280934,-91.55032138740462
6.387878912,0.9998965349285118,-91.92784191539151
6.395959808,0.9999763845151579,-92.30648476041729
6.404040192,1.0000578027864904,-92.68632840647811
6.412121088,1.0001364379494908,-93.06738010105781
6.420201984,1.0002081103446974,-93.44953033080185
6.42828288,1.0002690096429399,-93.83267903650959
6.436363776,1.00031572404834,-94.21666224714058
6.444444672,1.0003460184756745,-94.60128007667821
6.452525056,1.0003580287040643,-94.98629123365244
6.460605952,1.0003512401791599,-95.37144064589442
6.468686848,1.0003260029358854,-95.7565267953537
6.476767744,1.0002835480638932,-96.14123258378518
6.48484864,1.000226135633287,-96.52544167934421
6.492929536,1.0001569320066404,-96.90889540909369
6.50100992,1.000079559301202,-97.29153703417629
6.509090816,0.9999982549776656,-97.67316979524966
6.517171712,0.9999170799044717,-98.05387411028532
6.525252608,0.9998405204983255,-98.43364207690213
6.533333504,0.9997728110341352,-98.81256809358172
6.541413888,0.999717247798528,-99.19075596356777
6.549494784,0.9996771456248982,-99.56843801022667
6.55757568,0.9996543702402501,-99.94584666303231
6.565656576,0.9996502482978502,-100.3231600349659
6.573737472,0.9996652039264035,-100.70065959469476
6.581818368,0.9996982179804055,-101.07859155888092
6.589898752,0.9997475160772429,-101.45718065657779
6.597979648,0.9998106907693943,-101.83666841841354
6.606060544,0.999884208108993,-102.21716518379323
6.61414144,0.9999642454798153,-102.5987771945066
6.622222336,1.0000463407455458,-102.98159692322223
6.630303232,1.0001264377113794,-103.36561897025659
6.638383616,1.0002000010326877,-103.75076155347494
6.646464512,1.0002632044251656,-104.13695268165634
6.654545408,1.0003127772853773,-104.52399885791554
6.662626304,1.0003458107765455,-104.91174396092168
6.6707072,1.0003607515756654,-105.299884183453
6.678788096,1.0003567685859125,-105.6882205265048
6.68686848,1.0003339100209323,-106.07650372817342
6.694949376,1.0002935297998996,-106.46447275028804
6.703030272,1.0002377307357488,-106.85193653990979
6.711111168,1.0001695078539703,-107.23867589713115
6.719192064,1.0000923963765442,-107.6245839213244
6.72727296,1.0000106185690225,-108.00949106254
6.735353344,0.9999283663272199,-108.39348989588571
6.74343424,0.9998501819495655,-108.77647446474445
6.751515136,0.9997802707067764,-109.15865912460005
6.759596032,0.9997221378389447,-109.54006124398175
6.767676928,0.9996791410704393,-109.92086851543876
6.775757824,0.999653425541232,-110.30139659092893
6.783838208,0.9996464247662193,-110.68181749777828
6.791919104,0.9996585185591247,-111.0623315762025
6.8,0.9996891926936613,-111.44328376185588
6.808080896,0.9997366339665974,-111.82483798656737
6.816161792,0.9997984117986658,-112.20725290505864
6.824242176,0.9998712344945698,-112.59069969864163
6.832323072,0.9999511772855639,-112.97524040505286
6.840403968,1.0000341897866702,-113.3610085703415
6.848484864,1.000115554045478,-113.74795560876528
6.85656576,1.0001910512730967,-114.13605714703303
6.864646656,1.0002567481844864,-114.52526730829291
6.87272704,1.0003089949863708,-114.9153334018081
6.880807936,1.0003451098415532,-115.30611716090463
6.888888832,1.000363109348056,-115.69734810389517
6.896969728,1.0003620371815611,-116.0888329982112
6.905050624,1.0003418268648667,-116.48027197649164
6.91313152,1.0003037622073414,-116.87145193151906
6.921211904,1.000249588586701,-117.26214661888297
6.9292928,1.000182468930829,-117.65212526240748
6.937373696,1.000105753898129,-118.04126451974965
6.945454592,1.0000236307706534,-118.42949499846794
6.953535488,0.9999404375491806,-118.81670340791054
6.961616384,0.9998605616021914,-119.20293430677746
6.969696768,0.999788311505013,-119.58826375065891
6.977777664,0.9997275778746607,-119.97283899616677
6.98585856,0.9996815678785882,-120.35680858734129
6.993939456,0.999652795103242,-120.74035596202914
7.002020352,0.9996427584974934,-121.12380049708094
7.010101248,0.9996518905775504,-121.50732564722112
7.018181632,0.9996799500786395,-121.89123790442503
7.026262528,0.999725285380958,-122.27573476140479
7.034343424,0.9997856422279904,-122.66102974108507
7.04242432,0.9998576504557342,-123.04732013013529
7.050505216,0.9999375472039215,-123.43471648974295
7.058586112,1.0000210966096978,-123.82336386928182
7.066666496,1.0001037708609108,-124.21321351460702
7.074747392,1.0001812990240253,-124.60421721375901
7.082828288,1.0002494598809706,-124.99631004448817
7.090909184,1.0003046554226898,-125.3893278441857
7.09899008,1.000343863362702,-125.78310642468401
7.107070464,1.0003650341115526,-126.1773959730483
7.11515136,1.0003670295382638,-126.57194440092962
7.123232256,1.0003497512116126,-126.96649400820799
7.131313152,1.0003140378987674,-127.36083939919155
7.139394048,1.0002618956799145,-127.75467846483161
7.147474944,1.0001959543414334,-128.1478619163398
7.155555328,1.0001197530751342,-128.54020849590384
7.163636224,1.0000373414477044,-128.93161735125966
7.17171712,0.9999532450394965,-129.32201797629446
7.179798016,0.9998717675636932,-129.71139457664663
7.187878912,0.9997972319778755,-130.0998748129584
7.195959808,0.9997337630841032,-130.48755157653065
7.204040192,0.9996847210259046,-130.87458290648192
7.212121088,0.999652561343955,-131.2611662294565
7.220201984,0.9996393348281359,-131.64757080656528
7.22828288,0.9996453999785377,-132.03402334636874
7.236363776,0.9996706341032099,-132.42080401860926
7.244444672,0.9997137407553477,-132.80813222721034
7.252525056,0.9997724193395634,-133.19625635866151
7.260605952,0.9998434322386102,-133.5853399014013
7.268686848,0.9999231139814846,-133.9755606117769
7.276767744,1.000007197474168,-134.3669591818306
7.28484864,1.000091182830238,-134.7596025036976
7.292929536,1.0001706378072823,-135.15340306131577
7.30100992,1.0002413945717257,-135.54835058284493
7.309090816,1.0002994814706576,-135.94426773805208
7.317171712,1.0003419510761862,-136.34092208805842
7.325252608,1.000366489394503,-136.7381501893984
7.333333504,1.0003718167906002,-137.13569840492792
7.341413888,1.0003575520051338,-137.5332813607363
7.349494784,1.0003244379272362,-137.93066628496135
7.35757568,1.0002743985799036,-138.32761246352018
7.365656576,1.0002099066439822,-138.7238735025785
7.373737472,1.000134355378527,-139.1193591637611
7.381818368,1.0000518999037098,-139.5138875447571
7.389898752,0.999966898281276,-139.90738234113172
7.397979648,0.99988374185656,-140.2999100595928
7.406060544,0.9998069692676261,-140.69145168590163
7.41414144,0.9997407169461179,-141.08211198105917
7.422222336,0.9996883864372578,-141.47214971838798
7.430303232,0.9996529600674355,-141.86168082113957
7.438383616,0.9996361860204599,-142.25096222793306
7.446464512,0.9996390315677239,-142.64024281248135
7.454545408,0.9996613436644333,-143.02981892282753
7.462626304,0.9997019368232599,-143.41989448841147
7.4707072,0.9997586702164996,-143.81075797700373
7.478788096,0.9998285808374453,-144.20252661920725
7.48686848,0.9999079234243758,-144.59541382494473
7.494949376,0.9999924435180313,-144.9894809086083
7.503030272,1.0000776813622105,-145.38481581185002
7.511111168,1.0001591165008896,-145.78134044678913
7.519192064,1.0002323892653926,-146.17897960418614
7.52727296,1.0002935148668288,-146.57766058716632
7.535353344,1.0003394095991232,-146.97714072204266
7.54343424,1.0003674733154349,-147.3772171061495
7.551515136,1.000376249244306,-147.77763552864087
7.559596032,1.000365204077831,-148.17813766728042
7.567676928,1.0003350465836967,-148.57849434266907
7.575757824,1.0002871637594346,-148.9784190936174
7.583838208,1.0002242164411808,-149.37772688314513
7.591919104,1.0001495914626233,-149.77620828346284
7.6,1.000067148328164,-150.17377551714242
7.608080896,0.999981336331697,-150.57027654781405
7.616161792,0.9998966415712598,-150.96577238562818
7.624242176,0.9998176293896053,-151.36029688197246
7.632323072,0.9997484952400741,-151.75392468059707
7.640403968,0.9996929370117497,-152.1468252936823
7.648484864,0.9996538641656808,-152.53917673953916
7.65656576,0.9996335134821017,-152.93123750517339
7.664646656,0.9996329013730061,-153.32326382396963
7.67272704,0.9996520109822311,-153.71552126022166
7.680807936,0.999689979085753,-154.10825765445378
7.688888832,0.9997446480628679,-154.5016701958929
7.696969728,0.9998131872242163,-154.89605381958506
7.705050624,0.9998920408218895,-155.29148948456367
7.71313152,0.9999769083426668,-155.6881222790614
7.721211904,1.0000633303524131,-156.08599943216421
7.7292928,1.0001466487863642,-156.48509368009493
7.737373696,1.0002224542380704,-156.88536785362132
7.745454592,1.0002868216038059,-157.28665259302954
7.753535488,1.0003360694277539,-157.68880228400494
7.761616384,1.00036781507238,-158.0916099729053
7.769696768,1.0003802565171795,-158.49477287844093
7.777777664,1.000372739191801,-158.89808243830433
7.78585856,1.0003455326345865,-159.30128070008695
7.793939456,1.0003002013283513,-159.70406499335394
7.802020352,1.0002391494546168,-160.1062632576924
7.810101248,1.0001654831505973,-160.50766294894368
7.818181632,1.0000832126863746,-160.90810794530407
7.826262528,0.9999966635737304,-161.30753861427897
7.834343424,0.9999104221063888,-161.70593502105712
7.84242432,0.999829162319595,-162.10330736095386
7.850505216,0.9997571582364829,-162.4997314175407
7.858586112,0.9996982117004678,-162.89541710415344
7.866666496,0.9996555302010668,-163.29046340526935
7.874747392,0.9996313616161585,-163.68519812044124
7.882828288,0.9996270978200644,-164.0798505885811
7.890909184,0.9996428926388954,-164.47464584532696
7.89899008,0.9996778745838991,-164.86987946640897
7.907070464,0.9997303320041249,-165.26579461980248
7.91515136,0.9997974309516666,-165.66259868805665
7.923232256,0.9998755908198885,-166.06045894784134
7.931313152,0.9999605857396043,-166.4595032956327
7.939394048,1.000048085510461,-166.85980294135047
7.947474944,1.0001333602712479,-167.26133002267588
7.955555328,1.0002116947083972,-167.66404142053636
7.963636224,1.0002792088738146,-168.06781819892603
7.97171712,1.0003321472855218,-168.47247889647244
7.979798016,1.0003676845143767,-168.87781575543335
7.987878912,1.0003839597492177,-169.28361330574455
7.995959808,1.0003799581422388,-169.68958612656073
8.004040192,1.000356072662123,-170.09547574934743
8.012121088,1.0003135057395094,-170.50098892576352
8.020201984,1.0002543891487492,-170.9059397215174
8.02828288,1.0001818671463494,-171.3101284403421
8.036363776,1.0000999488053668,-171.71337107561396
8.044444672,1.00001279438049,-172.11554860768968
8.052525056,0.9999251864755555,-172.51670805678063
8.060605952,0.9998416810100668,-172.91678042523193
8.068686848,0.999766699172282,-173.31591372474446
8.076767744,0.9997043541313917,-173.71419642604343
8.08484864,0.9996579489228048,-174.11185158353908
8.092929536,0.9996298511299676,-174.50911294732433
8.10100992,0.9996216880739316,-174.9062218622149
8.109090816,0.9996337976697295,-175.3034403399964
8.117171712,0.9996657598084101,-175.70102337186555
8.125252608,0.9997156750919791,-176.0992712112344
8.133333504,0.999781023054989,-176.49836995893946
8.141413888,0.9998584005655752,-176.89846977323717
8.149494784,0.9999435592619336,-177.29975892926345
8.15757568,1.0000319714398123,-177.70228570716253
8.165656576,1.0001190180673127,-178.10610191160075
8.173737472,1.00020008349929,-178.51105461096597
8.181818368,1.0002707789559386,-178.91716392848468
8.189898752,1.000327314288317,-179.32419224902196
8.197979648,1.0003667891101025,-179.73192693885815
8.206060544,1.0003870870967642,179.85980415755145
8.21414144,1.0003870410493796,179.45135487827602
8.222222336,1.0003666572502403,179.04291813971625
8.230303232,1.0003268532361624,178.63482408835648
8.238383616,1.000269989647466,178.22728288165143
8.246464512,1.000198869733745,177.82048060420925
8.254545408,1.0001173891305695,177.41460953877294
8.262626304,1.0000298201216673,177.00980229946566
8.2707072,0.999940819487452,176.60604765060606
8.278788096,0.9998551783915879,176.20338251457372
8.28686848,0.9997773347288268,175.80173849166243
8.294949376,0.9997115008735293,175.40094030366458
8.303030272,0.9996610882525955,175.000851853643
8.311111168,0.9996288681264812,174.60122732109323
8.319192064,0.9996167661170537,174.20179665613293
8.32727296,0.9996251895963871,173.8023424298727
8.335353344,0.9996537176705521,173.40254758785167
8.34343424,0.9997009676329679,173.00216878553204
8.351515136,0.9997643642182147,172.60098385754688
8.359596032,0.9998406219703415,172.19875830169664
8.367676928,0.9999256762191646,171.79539365573805
8.375757824,1.0000149298329777,171.3908003550368
8.383838208,1.0001038166304796,170.98493026107215
8.391919104,1.0001874043443097,170.5778206752526
8.4,1.0002612968355151,170.16959689999896
8.408080896,1.0003216630700054,169.760407370234
8.416161792,1.000365230832505,169.35042147934706
8.424242176,1.0003896015934437,168.93991188001425
8.432323072,1.000393611149001,168.529118513315
8.440403968,1.0003767805306945,168.11833955537924
8.448484864,1.0003403020387793,167.70782435710035
8.45656576,1.0002858367888372,167.2978574131717
8.464646656,1.0002164227897572,166.88860625546064
8.47272704,1.0001355904095994,166.48027978685946
8.480807936,1.0000476923539898,166.0730051100369
8.488888832,0.9999574688941093,165.66682829005308
8.496969728,0.9998695029172532,165.26173791485434
8.505050624,0.9997888696551469,164.85770518258124
8.51313152,0.9997194423077529,164.45461595352708
8.521211904,0.9996650072012124,164.05224209640477
8.5292928,0.9996287528340116,163.65041568597346
8.537373696,0.9996122438502466,163.2488607603635
8.545454592,0.9996166041100971,162.84731879606778
8.553535488,0.9996417326155217,162.4454727836018
8.561616384,0.9996860558269589,162.04312796120732
8.569696768,0.999747353446294,161.64000986948497
8.577777664,0.9998223234958409,161.23588707037197
8.58585856,0.9999070869735118,160.83063725263585
8.593939456,0.9999971196237314,160.42416431381875
8.60201984,1.0000875143375632,160.0164027618509
8.610101248,1.0001737348937458,159.6073934112914
8.618181632,1.0002509069172556,159.19721709302704
8.62626304,1.0003150607937548,158.78604229472694
8.634343424,1.000362780172632,158.37402117006425
8.642423808,1.0003915310214455,157.96143632174793
8.650505216,1.0003997219196517,157.54853065846115
8.6585856,1.000386862412759,157.13557023238923
8.666667008,1.0003537156429942,156.72284154918373
8.674747392,1.000301905520733,156.3106019406853
8.682827776,1.0002344016848297,155.89908038868575
8.690909184,1.0001544234331514,155.48848885600958
8.698989568,1.0000664156374297,155.07889605927843
8.707070976,0.9999751035970557,154.6704512905296
8.71515136,0.9998850397857181,154.2631500944456
8.723232768,0.9998013407673806,153.856929863634
8.731313152,0.999728392482398,153.45165565916207
8.739393536,0.999669967516815,153.04720117031826
8.747474944,0.9996292219546318,152.64333584360955
8.755555328,0.9996084972960416,152.23982564350212
8.763636736,0.9996086875376798,151.8363691653077
8.77171712,0.9996298921467313,151.43270900713293
8.779797504,0.9996710814744978,151.0285773291484
8.787878912,0.9997299201693911,150.62370521520205
8.795959296,0.9998036175746638,150.21787927802964
8.804040704,0.9998878504279993,149.81094139466518
8.812121088,0.9999784028656344,149.40277076194013
8.820202496,1.0000705123683817,148.99332406073864
8.82828288,1.0001591105829766,148.58260033967994
8.836363264,1.0002396151876665,148.17068754030484
8.844444672,1.0003076532503499,147.7577191879679
8.852525056,1.000359714178597,147.343895880586
8.860606464,1.0003928779004407,146.9294256953422
8.868686848,1.0004054232756816,146.51458978322785
8.876767232,1.0003967519983896,146.09966166352584
8.88484864,1.000367145918577,145.68490013671212
8.892929024,1.0003183369996629,145.2706068241733
8.901010432,1.0002526468052124,144.85699554422186
8.909090816,1.0001738533438669,144.4442814479988
8.917172224,1.0000858014081535,144.0326136840662
8.925252608,0.9999934719288119,143.6220764767467
8.933332992,0.9999015347987411,143.21269160009936
8.9414144,0.9998149375573954,142.80443291961134
8.949494784,0.9997383926356069,142.39721147070009
8.957576192,0.9996758918697389,141.99084696728343
8.965656576,0.999630658914533,141.58513990529292
8.97373696,0.9996052113648008,141.17982830150567
8.981818368,0.9996010331632589,140.77466601740628
8.989898752,0.9996182877321529,140.369354135037
8.99798016,0.9996560740334434,139.9636292556197
9.006060544,0.9997124675359633,139.55721490710425
9.014140928,0.9997842593046102,139.1498737745878
9.022222336,0.9998679456707631,138.74144228954273
9.03030272,0.9999588946961192,138.33180345295622
9.038384128,1.0000523047403589,137.9208573073541
9.046464512,1.0001435001690102,137.508647776165
9.05454592,1.0002272314815206,137.0952045465305
9.062626304,1.0002992527130656,136.68064547643039
9.070706688,1.0003555994892495,136.26520840886843
9.078788096,1.0003934313205372,135.84906508036778
9.08686848,1.000410587759608,135.43249762317447
9.094949888,1.0004063165019865,135.01579144451662
9.103030272,1.000380431417454,134.59919940743612
9.111110656,1.000334783003221,134.1830433935305
9.119192064,1.0002715082002367,133.7675476067338
9.127272448,1.0001938974706772,133.35291798242554
9.135353856,1.0001060860956867,132.93931988553203
9.14343424,1.0000128732772027,132.52687701140474
9.151515648,0.9999190357205168,132.11562236631354
9.159596032,0.9998296058731028,131.7055327939946
9.167676416,0.9997494211635581,131.2965131080449
9.175757824,0.9996825646622661,130.88840764219233
9.183838208,0.9996328813529749,130.48105166518442
9.191919616,0.9996027626056421,130.07415565060387
9.2,0.9995939514668678,129.66745414346036
9.208080384,0.9996070131089629,129.26068437378675
9.216161792,0.999641053077201,128.85355288766766
9.224242176,0.9996946745670683,128.4457727209899
9.232323584,0.9997645192071521,128.0371275213224
