freq,mag,phase
6.0,1.0000371868553395,178.6564117500276
6.002288128,1.0001631448818518,178.49934193079423
6.004576768,1.0002786825222356,178.34051651887268
6.006864896,1.0003762277186803,178.18017714521466
6.009153536,1.0004497019776268,178.01857996123456
6.011441664,1.000494418200828,177.85614497950897
6.013729792,1.0005076456369397,177.6932725439043
6.016018432,1.0004883572204826,177.53044766714157
6.01830656,1.0004378149059385,177.36815455599074
6.0205952,1.0003592053597417,177.20674647634573
6.022883328,1.000257592947437,177.04666895900465
6.025171456,1.0001390801570171,176.88819193151508
6.027460096,1.0000113517238163,176.7315080919216
6.029748224,0.9998824848888359,176.57669182138827
6.032036864,0.9997603946913142,176.42368714596168
6.034324992,0.9996531751391654,176.27234984778414
6.03661312,0.9995674574843995,176.1224383960819
6.03890176,0.9995084996604924,175.97360635613927
6.041189888,0.9994802867261056,175.82538750759684
6.043478016,0.999484591651012,175.67733788441504
6.045766656,0.999520997315112,175.52901422186113
6.048054784,0.9995875650930779,175.37992241094497
6.050343424,0.9996797782085037,175.22971663161493
6.052631552,0.9997919664109847,175.07802373924133
6.05491968,0.9999170485219848,174.9246133447649
6.05720832,1.0000470148992138,174.76933667818278
6.059496448,1.000173780410941,174.61221441360817
6.061785088,1.0002893571269023,174.45334577071264
6.064073216,1.0003863681495702,174.29291146074326
6.066361344,1.0004585360870535,174.1312572478558
6.068649984,1.000501487606703,173.96879304198742
6.070938112,1.0005123407506542,173.80591822973773
6.073226752,1.0004905515508318,173.64314347135758
6.07551488,1.0004374019875943,173.4808843295426
6.077803008,1.000356141199768,173.31964028829398
6.080091648,1.0002519758966621,173.159705156991
6.082379776,1.0001314209783125,173.00143977649353
6.084668416,1.0000020645204077,172.8449625927963
6.086956544,0.9998721590532809,172.69035947797636
6.089244672,0.9997498173692903,172.53761898953508
6.091533312,0.9996429617128884,172.38653498085978
6.09382144,0.9995579939120469,172.23687953402631
6.09611008,0.9995007567919882,172.08823039906696
6.098398208,0.999474646004612,171.94021624977495
6.100686336,0.9994813295614131,171.79231988138162
6.102974976,0.9995205392729427,171.64413574569906
6.105263104,0.9995897235017469,171.49514562117088
6.107551232,0.9996845636690985,171.34498654496014
6.109839872,0.9997990040368837,171.1932918953672
6.112128,0.9999260043713554,171.03985588856807
6.11441664,1.000057266328439,170.88454485254746
6.116704768,1.000184701946852,170.7273895230934
6.118992896,1.000300324263724,170.56846314645742
6.121281536,1.0003965407654059,170.40798301328704
6.123569664,1.0004674697282794,170.24630313924808
6.125858304,1.000508387734667,170.0838272445964
6.128146432,1.000517124077425,169.92098509616133
6.13043456,1.0004926082638903,169.75823191274412
6.1327232,1.000436797334447,169.59608886430928
6.135011328,1.0003528626306875,169.434952893349
6.137299968,1.0002461522485548,169.27521996517595
6.139588096,1.0001235591592994,169.11713212167513
6.141876224,0.9999926484952224,168.96088585323042
6.144164864,0.9998616653847693,168.80658110256127
6.146452992,0.9997390110145784,168.65410032201956
6.148741632,0.9996324076706722,168.50327230151737
6.15102976,0.9995487212743498,168.3538396039914
6.153317888,0.9994930191004499,168.20543757346363
6.155606528,0.9994691265899289,168.05764657351963
6.157894656,0.9994782537823124,167.90995401520692
6.160183296,0.9995201668931356,167.76189970598617
6.162471424,0.9995921875661837,167.61299860336365
6.164759552,0.9996895901894185,167.46289019790262
6.167048192,0.999806270478191,167.31125315377295
6.16933632,0.9999350697338701,167.15781293248162
6.17162496,1.0000676532526358,167.00249008647984
6.173913088,1.0001957987609174,166.84525212380902
6.176201216,1.0003112851566496,166.68630062098072
6.178489856,1.000406745216512,166.52579471107973
6.180777984,1.0004763582870924,166.36409566327148
6.183066112,1.000515450902967,166.20160586114082
6.185354752,1.0005217071338899,166.038799518855
6.18764288,1.0004945988688883,165.87614025336055
6.18993152,1.000435891068541,165.7141217650632
6.192219648,1.000349183260663,165.55312397499358
6.194507776,1.0002400911893254,165.39359770347966
6.196796416,1.0001153272798267,165.23572697568414
6.199084544,0.9999828945932026,165.07976037049102
6.201373184,0.9998508734045184,164.9257025104681
6.203661312,0.9997280147798164,164.77351335887258
6.20594944,0.999621691095517,164.62298394378428
6.20823808,0.9995391040055795,164.47385124158058
6.210526208,0.9994851343615164,164.3256957483033
6.212814848,0.9994634552625745,164.17809752147969
6.215102976,0.9994751889558725,164.03060622133873
6.217391104,0.999519816383753,163.8826956080435
6.219679744,0.9995945816151226,163.73391949324994
6.221967872,0.9996946395592452,163.5839022499178
6.224256512,0.9998138163115823,163.43230770319292
6.22654464,0.9999445212213278,163.27886522245336
6.228832768,1.0000782954884695,163.12352101429707
6.231121408,1.0002070424670721,162.96630250209918
6.233409536,1.0003223989451127,162.8073040334296
6.235698176,1.0004171402845732,162.64676916226327
6.237986304,1.0004851453038563,162.48506818185632
6.240274432,1.0005223760684196,162.32259565394867
6.242563072,1.0005261227697266,162.15986060098524
6.2448512,1.0004963169264067,161.99730635291505
6.24713984,1.0004348004527663,161.83539944284334
6.249427968,1.000345385356415,161.674598404006
6.251716096,1.0002337075447223,161.51527343401628
6.254004736,1.0001069800858418,161.35765760986752
6.256292864,0.9999728179987512,161.20196693008933
6.258580992,0.9998400303674722,161.0481956982328
6.260869632,0.9997169202955595,160.8963028852346
6.26315776,0.9996111794582847,160.74606452187484
6.2654464,0.9995295907356317,160.59720020358324
6.267734528,0.9994774361374474,160.44934732640417
6.270022656,0.9994579859708074,160.30201280780858
6.272311296,0.999472349568165,160.15470057691064
6.274599424,0.9995199288144357,160.00696863779038
6.276888064,0.9995973973300367,159.8583375628714
6.279176192,0.99970030487389,159.70838611581763
6.28146432,0.9998216901803875,159.556824939671
6.28375296,0.9999540758100127,159.40342866348283
6.286041088,1.0000891989637957,159.24810285002948
6.288329728,1.000218469569344,159.09084814718128
6.290617856,1.0003336846393447,158.9318400918766
6.292905984,1.000427516299011,158.77130366334424
6.295194624,1.0004940873856003,158.6096242488684
6.297482752,1.0005291399640732,158.4471975396576
6.299771392,1.000530409354641,158.28450569782908
6.30205952,1.0004978354614038,158.12205829912756
6.304347648,1.0004335064857046,157.96031032728538
6.306636288,1.0003413442313926,157.79972830336146
6.308924416,1.0002271047112947,157.64058520591053
6.311213056,1.0000982922443502,157.48327474938114
6.313501184,0.9999625144968275,157.32786138478554
6.315789312,0.9998288757850038,157.1744119367371
6.318077952,0.999705509393371,157.02284014730233
6.32036608,0.999600357534926,156.87292761649226
6.322654208,0.9995200684154661,156.72440525452197
6.324942848,0.9994697825997102,156.57680142302883
6.327230976,0.9994526745052534,156.4297376270216
6.329519616,0.999469788408606,156.2826399146789
6.331807744,0.9995201707476941,156.13507222360897
6.334095872,0.9996004788790518,155.9865799219475
6.336384512,0.9997059198527903,155.83676081549143
6.33867264,0.9998297140982227,155.68525608398625
6.34096128,0.9999640505158172,155.53185826274319
6.343249408,1.000100320930288,155.37655860701605
6.345537536,1.0002301351537983,155.2193166542943
6.347826176,1.0003450883108445,155.06027599687334
6.350114304,1.0004380063551284,154.8997590623726
6.352402944,1.000503011258327,154.73811052525645
6.354691072,1.0005358343520896,154.57573922374206
6.3569792,1.0005346332376983,154.41314620992455
6.35926784,1.0004992269726887,154.25084199681334
6.361555968,1.000431861921759,154.0892575399271
6.363844608,1.0003369553381218,153.92885642969492
6.366132736,1.0002202488467136,153.77000268840175
6.368420864,1.0000891806709538,153.6129526102508
6.370709504,0.9999519271845873,153.45785449376703
6.372997632,0.9998174301885279,153.30474903567335
6.375286272,0.9996940020905666,153.15351123514472
6.3775744,0.99958932640285,153.00393673464038
6.379862528,0.999510415599337,152.85570294510057
6.382151168,0.9994620483008293,152.70844063688895
6.384439296,0.9994472895976547,152.56161658356498
6.386727936,0.9994672031766629,152.41475977546324
6.389016064,0.9995204592535012,152.26739849669022
6.391304192,0.9996037737161366,152.11906232088612
6.393592832,0.9997119304416037,151.9693220526032
6.39588096,0.9998380153420335,151.81789260105162
6.398169088,0.9999741319134153,151.66458092409013
6.400457728,1.0001116036202242,151.50926871325387
6.402745856,1.000241930126768,151.35205874869607
6.405034496,1.0003566107601443,151.19302539097728
6.407322624,1.0004485679913133,151.03251886412292
6.409610752,1.000511852500181,150.8709088970649
6.411899392,1.00054245979957,150.7086062455101
6.41418752,1.000538618853873,150.54611719770728
6.41647616,1.0005003272774133,150.38394485184696
6.418764288,1.00043006218884,150.22254717419673
6.421052416,1.0003323012579415,150.0623879894668
6.423341056,1.0002129741703878,149.90381592313548
6.425629184,1.0000798615694715,149.747069971611
6.427917824,0.9999412364815512,149.5923015300088
6.430205952,0.999805812915465,149.4395145819077
6.43249408,0.9996821475933156,149.28863361220075
6.43478272,0.9995783297947356,149.13944823100644
6.437070848,0.9995007859936331,148.9915504560862
6.439359488,0.9994543404002846,148.84456952121224
6.441647616,0.9994420542175882,148.69805346962124
6.443935744,0.9994647885042256,148.55143197073238
6.446224384,0.9995209971956058,148.40427138269857
6.448512512,0.9996073405818726,148.2561030563361
6.450801152,0.9997182601031471,148.10647503026408
6.45308928,0.9998466055584613,147.95515027693747
6.455377408,0.9999846183068417,147.80186403912307
6.457666048,1.000123239960685,147.64659702270345
6.459954176,1.0002538718468377,147.48938530923584
6.462242816,1.000368305471439,147.33040768243174
6.464530944,1.0004591326403176,147.16992094433917
6.466819072,1.0005206901901273,147.00836959746866
6.469107712,1.0005491192328142,146.84613439362707
6.47139584,1.0005425723598336,146.68377809837804
6.473683968,1.0005013314450817,146.52176704238283
6.475972608,1.0004280313981218,146.3605790789951
6.478260736,1.0003273286585868,146.20067249147175
6.480549376,1.0002055383594297,146.04235411138802
6.482837504,1.0000702256149776,145.88591584329694
6.485125632,0.9999301165149643,145.73151617226412
6.487414272,0.9997940215354845,145.57911656206656
6.4897024,0.9996703737174295,145.42858975086915
6.49199104,0.9995672715051208,145.27975339143487
6.494279168,0.9994910739907102,145.13221726307972
6.496567296,0.9994467824871182,144.98557473856536
6.498855936,0.9994370940911547,144.83934258466223
6.501144064,0.9994626148234738,144.69299665977005
6.503432704,0.9995218702131906,144.54602931129435
6.505720832,0.9996111970174999,144.39801509205057
6.50800896,0.9997249115260177,144.24852425225117
6.5102976,0.999855612049102,144.09728972142042
6.512585728,0.9999953491487502,143.94407008678363
6.514874368,1.0001351585194738,143.788841243989
6.517162496,1.0002662316958362,143.6316772102823
6.519450624,1.0003801383178155,143.47271373256507
6.521739264,1.0004699617563269,143.31228269054628
6.524027392,1.0005297715917543,143.15077321657574
6.526316032,1.000555739536485,142.98864291290974
6.52860416,1.0005464418289496,142.8264293211487
6.530892288,1.0005022217750619,142.66456199266935
6.533180928,1.0004257777702616,142.50360820864915
6.535469056,1.0003222082221581,142.34395081388078
6.537757184,1.0001977700731461,142.18595766203202
6.540045824,1.0000604838802938,142.02986640478025
6.542333952,0.9999188113181371,141.87580726257377
6.544622592,0.9997819431486518,141.72380626239442
6.54691072,0.9996583834626237,141.57368078131054
6.549198848,0.9995561224826361,141.42518866845484
6.551487488,0.9994814579762006,141.27802550297017
6.553775616,0.9994392204607827,141.13171017821705
6.556064256,0.9994320998282901,140.9857970413596
6.558352384,0.9994606344750075,140.8397068603035
6.560640512,0.9995230048550154,140.69297927796887
6.562929152,0.9996153126769324,140.5451262826648
6.56521728,0.9997317501765964,140.3957803274242
6.56750592,0.9998649014907001,140.24463292139856
6.569794048,1.0000063314815175,140.09149327351446
6.572082176,1.0001471595692755,139.9363206678098
6.574370816,1.0002785421952884,139.77917289508738
6.576658944,1.0003921115095962,139.62026443555106
6.578947584,1.000480664930427,139.45988103645684
6.581235712,1.0005384727962587,139.2984687004103
6.58352384,1.0005620927563434,139.13644257876282
6.58581248,1.0005499016277695,138.97435536221977
6.588100608,1.0005026662698857,138.81269344631747
6.590389248,1.0004231805390453,138.65195544223883
6.592677376,1.0003166070280232,138.4925802418415
6.594965504,1.0001895632608795,138.33490615919567
6.597254144,1.0000502766918957,138.17917406070265
6.599542272,0.9999072409119101,138.02550845211692
6.601830912,0.9997696990712183,137.87385811713
6.60411904,0.999646249845669,137.72414783553128
6.606407168,0.9995447092035172,137.57609428426542
6.608695808,0.9994716352988777,137.42929839923457
6.610983936,0.9994316861016153,137.28331602274176
6.613272064,0.9994273135658207,137.1376910745146
6.615560704,0.9994588496419993,136.99188376844012
6.617848832,0.9995244242892453,136.84539027275576
6.620137472,0.9996197388265043,136.6977246804537
6.6224256,0.999738992447793,136.54851009791022
6.624713728,0.9998744767415519,136.3974707578946
6.627002368,1.0000176402217782,136.24440492780963
6.629290496,1.000159612937237,136.08928972770758
6.631579136,1.000291139666837,135.93219366851469
6.633867264,1.0004042948057554,135.773315800018
6.636155392,1.0004914423035054,135.6130113068241
6.638444032,1.0005473718087898,135.45167961357245
6.64073216,1.0005684423071377,135.28976179793253
6.6430208,1.0005533325141058,135.1278336037747
6.645308928,1.0005027985104333,134.96637340280395
6.647597056,1.0004203642260654,134.8058993857231
6.649885696,1.0003108530811813,134.64682903560623
6.652173824,1.0001812595531259,134.48946618102676
6.654462464,1.000039745524264,134.33410822534478
6.656750592,0.9998953160265254,134.18084140503677
6.65903872,0.9997571361409509,134.02960083113553
6.66132736,0.9996338924614793,133.8802927980734
6.663615488,0.9995333500934739,133.7326486702878
6.665904128,0.9994620071782092,133.58623553682477
6.668192256,0.9994242416732754,133.4406399275627
6.670480384,0.9994226724653977,133.29532915610017
6.672769024,0.9994573806798493,133.1498058001345
6.675057152,0.9995260302810696,133.00353372858746
6.677345792,0.9996244973424686,132.85608528085874
6.67963392,0.999746557362929,132.70701119335578
6.681922048,0.9998844002772949,132.55606269607813
6.684210688,1.000029299562328,132.40308800357914
6.686498816,1.0001722720333943,132.2480235938693
6.688786944,1.0003040328773376,132.0909686166756
6.691075584,1.0004165823380402,131.93216034176274
6.693363712,1.0005023717159387,131.7719288741382
6.695652352,1.000556318095564,131.61068500721814
6.69794048,1.000574699168983,131.4489087186902
6.700228608,1.000556581008052,131.28714127281157
6.702517248,1.0005029403713093,131.12589484074323
6.704805376,1.0004172073713247,130.9656999826317
6.707094016,1.00030462304935,130.80691390584147
6.709382144,1.0001725254065936,130.64992153741957
6.711670272,1.0000289679271448,130.49493962319113
6.713958912,0.9998832358582797,130.34207019462102
6.71624704,0.9997444363980017,130.19127252729862
6.71853568,0.9996213901158775,130.04240081428048
6.720823808,0.9995218595188821,129.8951438557034
6.723111936,0.9994522247650093,129.74914350405143
6.725400576,0.9994169961445808,129.60388412432448
6.727688704,0.9994181893385171,129.45893036586332
6.729977344,0.9994560897171699,129.3136944068993
6.732265472,0.9995280741484514,129.16766335682922
6.7345536,0.9996295637996854,129.0204006362785
6.73684224,0.9997544696272482,128.87147939338317
6.739130368,0.9998946551015405,128.7206505004407
6.741419008,1.000041369936965,128.56776039540154
6.743707136,1.0001852092258148,128.41275997110245
6.745995264,1.0003171789078316,128.25577194771114
6.748283904,1.0004289730975233,128.0970201608651
6.750572032,1.0005134083805263,127.93685264624851
6.75286016,1.00056518761018,127.77568983648032
6.7551488,1.0005809172030191,127.61408480747356
6.757436928,1.000559676855969,127.45250070130854
6.759725568,1.000502789683866,127.2914912265258
6.762013696,1.0004137406082931,127.1315511517682
6.764301824,1.000298179280563,126.97308884901946
6.766590464,1.0001634298158921,126.81646287275225
6.768878592,1.0000178443738794,126.66187519533447
6.771167232,0.9998707178285963,126.50941958211361
6.77345536,0.9997313977766396,126.35907408816921
6.775743488,0.9996086815638162,126.21063412790353
6.778032128,0.9995102494866709,126.06380902687413
6.780320256,0.9994425134025319,125.91819013122851
6.782608896,0.9994096789008814,125.77334856279859
6.784897024,0.9994138772394431,125.62871488865929
6.787185152,0.9994550194782317,125.48376960347318
6.789473792,0.9995302279038208,125.33798476206375
6.79176192,0.9996350755019465,125.19092259989596
6.79405056,0.9997626773801668,125.04216171017404
6.796338688,0.9999051980419804,124.89144308845397
6.798626816,1.0000536229198127,124.7386352991915
6.800915456,1.0001983978510125,124.58369861674409
6.803203584,1.0003304547770768,124.4267839387495
6.805492224,1.000441456866357,124.26810580840218
6.807780352,1.0005244529537836,124.10802397120396
6.81006848,1.0005739350646599,123.94699134861041
6.81235712,1.0005868705274945,123.78552296617397
6.814645248,1.0005625873490518,123.62412805967561
6.816933888,1.0005022432102988,123.46335278992755
6.819222016,1.0004099342916273,123.30369906623733
6.821510144,1.000291361101382,123.14557141169573
6.823798784,1.0001538637701988,122.98931048938726
6.826086912,1.0000063733006708,122.83513176690272
6.82837504,0.9998579031525098,122.68313448118785
6.83066368,0.9997181843879434,122.53322255022235
6.832951808,0.9995957651429043,122.38521598268039
6.835240448,0.9994985730548033,122.2388543606516
6.837528576,0.9994327154330267,122.09364638922595
6.839816704,0.9994024987117078,121.94917564929621
6.842105344,0.9994097419113167,121.8048819099606
6.844393472,0.9994541232362422,121.66024503213686
6.846682112,0.9995327171343372,121.51469534035982
6.84897024,0.9996408500834523,121.36782248050925
6.851258368,0.9997713404701045,121.21923956953125
6.853547008,0.9999162346021178,121.06864086198985
6.855835136,1.0000661846979018,120.91592923143794
6.858123776,1.0002119219138008,120.76108742271042
6.860411904,1.000344048627702,120.6042199355642
6.862700032,1.0004541474911954,120.4455895366724
6.864988672,1.0005354706005123,120.28560133529808
6.8672768,1.000582713438971,120.12470377933643
6.86956544,1.000592747858822,119.96337513135823
6.871853568,1.0005651984690793,119.80219076461093
6.874141696,1.0005015731091358,119.64166464947411
6.876430336,1.0004059238171465,119.48231646462936
6.878718464,1.0002841844199697,119.32453653927692
6.881007104,1.0001441954216432,119.1686775762299
6.883295232,0.999994527453158,119.01491226074366
6.88558336,0.9998448721993266,118.86334744884591
6.887872,0.9997046796235662,118.71387334846688
6.890160128,0.9995827488021766,118.56635043340498
6.892448768,0.9994868644752858,118.42042599164371
6.894736896,0.9994230414004847,118.27565686520184
6.897025024,0.9993953864566386,118.13157106097071
6.899313664,0.9994058243279388,117.98763627501786
6.901601792,0.9994535892588324,117.8432897024857
6.90388992,0.9995356167002215,117.6980076656485
6.90617856,0.999646903382681,117.55132968354138
6.908466688,0.999780290966385,117.40289392445027
6.910755328,0.9999275750973339,117.25241946522877
6.913043456,1.0000792367180018,117.0997970976957
6.915331584,1.0002256493561195,116.94503256168649
6.917620224,1.0003577439431404,116.78823379342504
6.919908352,1.0004669318435402,116.62970422623586
6.922196992,1.000546538879523,116.46981486119178
6.92448512,1.00059138548478,116.30902092049786
