freq,mag,phase
6.0,0.9997804112155951,29.79542567230708
6.007648256,0.9997291288375435,29.60603595917848
6.015296512,0.9996927688292734,29.41723697536357
6.022944768,0.9996736025798344,29.22878870686051
6.030592512,0.9996727851479563,29.040472562662455
6.038240768,0.9996902469687087,28.85205845810619
6.045889024,0.9997250773492268,28.663272306066002
6.05353728,0.9997753650360133,28.47393466920171
6.061185536,0.9998382870598963,28.283799125224792
6.068833792,0.9999105046734806,28.09272961172843
6.076482048,0.9999879935292915,27.900655738250208
6.084129792,1.0000664663415226,27.707539474839812
6.091778048,1.0001415541722996,27.513344108455247
6.099426304,1.00020930398816,27.318230730678895
6.10707456,1.0002657114768712,27.122198397465066
6.114722816,1.0003078717329847,26.925540243726907
6.122371072,1.0003334826010422,26.728418582809727
6.130019328,1.0003409483034083,26.531010619210246
6.137667072,1.000330000945506,26.33369712531833
6.145315328,1.000301072816206,26.13660247257107
6.152963584,1.00025586999072,25.939997288710888
6.16061184,1.000196935982068,25.7441116225112
6.168260096,1.0001273151050898,25.549101853736875
6.175908352,1.0000509182117605,25.355060766929363
6.183556608,0.99997196757469,25.16205269928113
6.191204352,0.9998947706266315,24.970076756000193
6.198852608,0.9998236148676476,24.77917358939379
6.206500864,0.9997624225147753,24.58907159151679
6.21414912,0.9997145053609204,24.39975595348463
6.221797376,0.9996826713198921,24.210974638713118
6.229445632,0.9996684919358462,24.02246217066235
6.237093888,0.9996728100682432,23.834054563724127
6.244741632,0.9996954860795149,23.645446284745987
6.252389888,0.9997352455556484,23.456421319380315
6.260038144,0.9997898435595621,23.266756317681455
6.2676864,0.9998563473615095,23.07625738441246
6.275334656,0.9999311629279097,22.884764116586968
6.282982912,1.0000100168049466,22.692280534523796
6.290631168,1.0000886240480351,22.49869858291229
6.298278912,1.0001626910588295,22.30410883972032
6.305927168,1.0002281859316828,22.108538415354197
6.313575424,1.000281341234022,21.91215027689037
6.32122368,1.0003193672574886,21.715167435079675
6.328871936,1.0003401248194765,21.517726749659133
6.336520192,1.0003424499905298,21.3201771017359
6.344168448,1.0003262233407986,21.122702309501253
6.351816192,1.00029211651397,20.925544529550418
6.359464448,1.0002424305582165,20.72896099947013
6.367112704,1.0001794947995173,20.533146941015787
6.37476096,1.0001068783120353,20.338193912671972
6.382409216,1.0000286616331528,20.144279746971403
6.390057472,0.9999490732639909,19.951425408887374
6.397705728,0.9998725112352723,19.759642566467537
6.405353984,0.999803135893741,19.56883693787435
6.413001728,0.9997449295880426,19.378874406285735
6.420649984,0.9997008933306646,19.189602485055655
6.42829824,0.9996735459937731,19.000816130504436
6.435946496,0.9996644989137795,18.812278507820324
6.443594752,0.999674182640772,18.62372559744805
6.451243008,0.9997021093138304,18.43493045833994
6.458891264,0.9997466425863328,18.245587824859314
6.466539008,0.9998054771353978,18.055602716861628
6.474187264,0.9998754038583587,17.864735879076093
6.48183552,0.9999524400841863,17.67283254769098
6.489483776,1.000032375387718,17.479902639066104
6.497132032,1.000110812421707,17.285838075010822
6.504780288,1.0001835637285426,17.090817028116497
6.512428544,1.0002464497354895,16.894788586210918
6.520076288,1.0002960826964147,16.69806111212459
6.527724544,1.000329752455874,16.500736861187836
6.5353728,1.0003455003336472,16.303055764673456
6.543021056,1.0003425462707585,16.105280049644733
6.550669312,1.0003209868718401,15.907698511682344
6.558317568,1.0002819773119527,15.71048963242933
6.565965824,1.0002276651319952,15.513919150365547
6.573613568,1.0001610308784032,15.318183889366829
6.581261824,1.0000857912415786,15.123361367702367
6.58891008,1.0000059935506405,14.929567440468649
6.596558336,0.9999260978748243,14.736882818021058
6.604206592,0.9998503862372965,14.545247686736374
6.611854848,0.9997832571705998,14.354573214963393
6.619503104,0.9997280628525792,14.164726846445266
6.627150848,0.9996882001075271,13.975468358281043
6.634799104,0.9996657005257764,13.786672396254085
6.64244736,0.9996619039093229,13.598044116190286
6.650095616,0.9996769344866983,13.4093344565037
6.657743872,0.9997100056423004,13.220282089354042
6.665392128,0.9997593229130448,13.030693682511309
6.673040384,0.9998221703831378,12.840331193576668
6.680688128,0.9998951872828861,12.649040631774747
6.688336384,0.9999741859100071,12.456726270929645
6.69598464,1.0000550158779187,12.263324831710229
6.703632896,1.0001330244487878,12.068826782160595
6.711281152,1.0002040623815018,11.873305329281463
6.718929408,1.0002640913771867,11.676899390633553
6.726577664,1.0003099051703914,11.479799808483707
6.734225408,1.00033896200838,11.282137009436402
6.741873664,1.0003496691960134,11.084219609512175
6.74952192,1.0003413022591998,10.88631057275119
6.757170176,1.0003143741395308,10.68857045995272
6.764818432,1.000270495541159,10.49134350571757
6.772466688,1.0002118173408614,10.294809193937521
6.780114944,1.0001417763733222,10.09910924893357
6.787762688,1.0000639616413365,9.904409761242416
6.795410944,0.9999829351650791,9.710793619297554
6.8030592,0.9999030517245514,9.518241819165581
6.810707456,0.999828636545313,9.32674776272989
6.818355712,0.9997638649906118,9.136189387293523
6.826003968,0.999712289098681,8.946407877443075
6.833652224,0.9996767690525231,8.757222423368049
6.841299968,0.9996592274623678,8.568356582095982
6.848948224,0.9996606788717451,8.37960226310982
6.85659648,0.9996811434604903,8.190744361770617
6.864244736,0.9997193899168273,8.001454125360539
6.871892992,0.9997733604318,7.811527147430882
6.879541248,0.9998401463044103,7.620810091702567
6.887189504,0.9999159232768485,7.4290986140258495
6.894837248,0.999996625486856,7.236325325279332
6.902485504,1.0000777959164961,7.042425168758279
6.91013376,1.0001551082373679,6.847469813808989
6.917782016,1.000224144633236,6.65151978058787
6.925430272,1.0002810439211371,6.4547081830786635
6.933078528,1.0003227346051593,6.257218161156087
6.940726784,1.000347080245837,6.059273665650743
6.948374528,1.000352464210143,5.861116613698125
6.956022784,1.0003386471909979,5.6630218585063465
6.96367104,1.0003065346931759,5.4652372585314914
6.971319296,1.000257654331897,5.26795254671288
6.978967552,1.0001948752009016,5.071443826027364
6.986615808,1.0001215131437828,4.875852588685914
6.994264064,1.000041609131138,4.681268544792307
7.001911808,0.999959579568553,4.487812449449591
7.009560064,0.9998800877301641,4.295407908918824
7.01720832,0.99980714850507,4.104022152944406
7.024856576,0.9997451436879283,3.913575320571487
7.032504832,0.9996973072754427,3.7238570232461896
7.040153088,0.9996663281298693,3.5346613990515396
7.047801344,0.9996539633429395,3.345760073431303
7.055449088,0.999660916690479,3.1568922798973813
7.063097344,0.999686771231575,2.9678109353277313
7.0707456,0.9997300759038948,2.778247359368577
7.078393856,0.9997885861717714,2.587980231561144
7.086042112,0.9998589671986898,2.3968551567177356
7.093690368,0.9999373174865936,2.204703768288166
7.101338624,1.0000195395861342,2.0114545405071373
7.108986368,1.0001008712754993,1.817091236966516
7.116634624,1.000177073274449,1.6216760626638238
7.12428288,1.0002437031045397,1.4252435104156964
7.131931136,1.0002972237819145,1.2280340896665536
7.139579392,1.00033466575901,1.0301881202198009
7.147227648,1.0003538911878551,0.8319677574747301
7.154875904,1.0003539407990922,0.6335875311961995
7.162523648,1.0003347648926668,0.4353297871376173
7.170171904,1.0002973127376595,0.23741891770208895
7.17782016,1.0002436712098954,0.04017090034112047
7.185468416,1.0001768124043247,-0.15627911968477498
7.193116672,1.0001005110908565,-0.35180627633532324
7.200764928,1.0000186275393557,-0.5462612622045624
7.208413184,0.9999360754926969,-0.7395615603108001
7.21606144,0.9998570296166408,-0.9318135884562205
7.223709184,0.9997861935399278,-1.1230229569514725
7.23135744,0.9997271642926102,-1.3134002571016963
7.239005696,0.9996833731703298,-1.5030729073929059
7.246653952,0.9996571621885509,-1.692306918214628
7.254302208,0.9996501527418563,-1.8812489277548894
7.261950464,0.999662662255091,-2.070285784019991
7.26959872,0.9996937843508705,-2.259628284243631
7.277246464,0.9997421703432613,-2.449467911806672
7.28489472,0.9998049824542675,-2.6400919901258506
7.292542976,0.9998787415722764,-2.831659183253335
7.300191232,0.9999595336501168,-3.0242702057240516
7.307839488,1.0000429309347303,-3.2179661574997613
7.315487744,1.0001241357087622,-3.412826895380569
7.323136,1.0001987617307002,-3.6087488398565095
7.330783744,1.0002627574751501,-3.80558058718427
7.338432,1.0003126223923535,-4.003214306094279
7.346080256,1.0003454830230065,-4.201401989657645
7.353728512,1.0003594785009815,-4.399940415007414
7.361376768,1.0003540497583103,-4.598526240212178
7.369025024,1.0003293628330847,-4.796912720152703
7.37667328,1.0002866799543204,-4.994866433528379
7.384321024,1.00022842721753,-5.192130657573995
7.39196928,1.0001577668520656,-5.388531896166016
7.399617536,1.000078595246776,-5.5839278330295725
7.407265792,0.9999951904589823,-5.778238759253994
7.414914048,0.9999121881640124,-5.97142346768381
7.422562304,0.9998342716638828,-6.163530769448922
7.43021056,0.9997655724196793,-6.3546549768544525
7.437858304,0.9997099026414231,-6.5449260253982855
7.44550656,0.9996704075379926,-6.73456900536916
7.453154816,0.999649256233073,-6.923802635904498
7.460803072,0.9996476637104804,-7.112906293374171
7.468451328,0.9996655556491568,-7.302090023527188
7.476099584,0.9997022693838115,-7.491652691172941
7.48374784,0.9997555651624197,-7.681858064808834
7.491395584,0.9998225514596875,-7.87285003146674
7.49904384,0.9998995394861554,-8.064876244388266
7.506692096,0.9999823910180277,-8.2579385509461
7.514340352,1.0000664161356985,-8.452153756646023
7.521988608,1.0001472086953451,-8.647465684039961
7.529636864,1.000220086419383,-8.84385775199213
7.53728512,1.0002811692437248,-9.041150814565652
7.544932864,1.0003269710622513,-9.239195167463764
7.55258112,1.0003549723122058,-9.437710760470061
7.560229376,1.0003638770450156,-9.636488499797622
7.567877632,1.00035286612058,-9.83529523280351
7.575525888,1.0003225863976848,-10.033843169757136
7.583174144,1.0002746292246183,-10.231839532986161
7.5908224,1.0002119217293406,-10.429069929596368
7.598470144,1.0001377185425768,-10.625415040446706
7.6061184,1.00005600045121,-10.82072457779893
7.613766656,0.9999713955169348,-11.01488520509932
7.621414912,0.9998884362758731,-11.207935582309817
7.629063168,0.9998116857554818,-11.399916661129254
7.636711424,0.9997456067684062,-11.590902898799479
7.64435968,0.9996935950470348,-11.781118778349915
7.652007424,0.9996586446180604,-11.970762082283906
7.65965568,0.9996426404121024,-12.1600452507807
7.667303936,0.9996465560781314,-12.349263071178765
7.674952192,0.9996701767785052,-12.538668737657265
7.682600448,0.9997121582383602,-12.72852395004341
7.690248704,0.9997701781601607,-12.919045443084682
7.69789696,0.9998413038160686,-13.110454337658945
7.705544704,0.9999212690085795,-13.302919873265173
7.71319296,1.0000058895840411,-13.496477864977889
7.720841216,1.000090492979822,-13.691165558692436
7.728489472,1.0001702362413576,-13.887024691517109
7.736137728,1.0002411483577587,-14.08389050715082
7.743785984,1.0002989711383306,-14.281614865539895
7.75143424,1.0003404497299277,-14.480065125446352
7.759081984,1.0003634669917596,-14.678922670145273
7.76673024,1.0003668317203902,-14.877980826397621
7.774378496,1.0003501615548869,-15.076954370354418
7.782026752,1.0003143940204389,-15.275564945449355
7.789675008,1.0002615261500907,-15.473600509748735
7.797323264,1.0001944448531177,-15.67083749558243
7.80497152,1.0001166770389558,-15.867102484315971
7.812619264,1.000032749168733,-16.062265904189147
7.82026752,0.999947150879884,-16.25630309805836
7.827915776,0.9998644528134465,-16.449214628571173
7.835564032,0.9997894367118835,-16.641061600685806
7.843212288,0.9997261834459283,-16.831978087008636
7.850860544,0.9996780735277835,-17.02213292810444
7.8585088,0.9996479078627024,-17.211762445345588
7.866156544,0.9996373631354961,-17.401136384958566
7.8738048,0.9996469675499534,-17.59050762215682
7.881453056,0.999676189223625,-17.780118693175947
7.889101312,0.999723459458174,-17.970284895299827
7.896749568,0.9997862493106533,-18.161185691466446
7.904397824,0.9998610542963179,-18.35304335822737
7.91204608,0.999943778689493,-18.54596188103427
7.919693824,1.0000298707146613,-18.740030705473686
7.92734208,1.0001145868724262,-18.935233318770525
7.934990336,1.0001933472569113,-19.131584415290323
7.942638592,1.0002616252733916,-19.328934978820207
7.950286848,1.0003158168936888,-19.527100368078525
7.957935104,1.0003527853472232,-19.725930175509415
7.96558336,1.0003707703826192,-19.92510930833471
7.973231104,1.0003684216173798,-20.124410322252178
7.98087936,1.0003460129387676,-20.323562140650363
7.988527616,1.000304783376353,-20.52228589611527
7.996175872,1.000246943973827,-20.72033384596891
8.003824128,1.000175699138703,-20.917528307648983
8.011472384,1.000094837103722,-21.113706144482517
8.01912064,1.000008705219048,-21.308770179123396
8.026768896,0.9999225186381118,-21.50268401848559
8.03441664,0.9998405650755221,-21.695431760897414
8.042064896,0.9997675094623193,-21.887130795539512
8.049713152,0.9997075312541541,-22.077967708866282
8.057361408,0.999663481574954,-22.26812308089492
8.065009664,0.999638465390254,-22.457777757305596
8.07265792,0.9996332956674226,-22.647241980164825
8.080306176,0.9996487135878148,-22.83678809020573
8.08795392,0.9996836153967931,-23.026674942987807
8.095602176,0.999736089736218,-23.21715007144939
8.103250432,0.9998035403768688,-23.408458494815118
8.110898688,0.9998818387061993,-23.600732270614973
8.118546944,0.9999670331274955,-23.79412532608479
8.1261952,1.000054295536379,-23.9887020497347
8.133843456,1.0001388724941798,-24.184487957731527
8.1414912,1.0002160047221134,-24.381312164788472
8.149139456,1.0002814665473898,-24.57916162710905
8.156787712,1.0003319743731691,-24.77773671874893
8.164435968,1.0003642305407392,-24.976949964560152
8.172084224,1.000376576660012,-25.176445597023093
8.17973248,1.0003686297730972,-25.37597016900991
8.187380736,1.0003405153635276,-25.57527571839954
8.19502848,1.0002937019068279,-25.774092353505065
8.202676736,1.0002309992746923,-25.97217417687087
8.210324992,1.0001556984769175,-26.169312827251737
8.217973248,1.0000719667566094,-26.36539661840591
8.225621504,0.9999842777107861,-26.560325708579988
8.23326976,0.9998976866307081,-26.75408815618846
8.240918016,0.9998167747798897,-26.94673540621375
8.24856576,0.9997460997916305,-27.138333689043325
8.256214016,0.9996895129978772,-27.329103662365945
8.263862272,0.9996501653666412,-27.519195043790297
8.271510528,0.9996303087980858,-27.708902960687578
8.279158784,0.9996308810202921,-27.898495193204198
8.28680704,0.9996519606544364,-28.088234094283525
8.294455296,0.9996925254149188,-28.278402248569286
8.30210304,0.9997502665609127,-28.46922590331305
8.309751296,0.9998219546058579,-28.66095183636571
8.317399552,0.9999036881290837,-28.853717752354104
8.325047808,0.9999910181813877,-29.047618364629745
8.332696064,1.0000790394992223,-29.242751585170605
8.34034432,1.0001631041330925,-29.43902739291813
8.347992576,1.0002384175665926,-29.63638134643219
8.35564032,1.0003009816101718,-29.834669230168
8.363288576,1.0003471384212321,-30.033725937522917
8.370936832,1.0003744154964551,-30.23327939039241
8.378585088,1.0003813065269636,-30.433086241352534
8.386233344,1.0003673826346133,-30.63282021011448
8.3938816,1.000333457426992,-30.832289037896313
8.401529856,1.0002812844344402,-31.03114219486053
8.4091776,1.000213855264062,-31.22922518698673
8.416825856,1.0001346487780245,-31.426338590187907
8.424474112,1.0000483099912414,-31.62232142458149
8.432122368,0.9999594277601588,-31.817097945083418
8.439770624,0.9998727380415712,-32.010719756942535
8.44741888,0.9997932682367545,-32.20324083328288
8.455067136,0.9997252126096301,-32.39476227238096
8.46271488,0.999672376103154,-32.585433633467545
8.470363136,0.9996378459687327,-32.77555538354693
8.478011392,0.9996234451070661,-32.96533279870957
8.485659648,0.9996297722444797,-33.15507049751561
8.493307904,0.999656807114399,-33.3450373269905
8.50095616,0.9997029574514743,-33.535478154840206
8.508604416,0.9997656815706467,-33.72670628270301
8.51625216,0.9998414924099457,-33.918870334824945
8.523900416,0.9999265081402247,-34.112109412816366
8.531548672,1.0000157845017028,-34.306534038666655
8.539196928,1.0001043102447382,-34.502208448022564
8.546845184,1.0001874453029451,-34.699008222094115
8.55449344,1.0002606118573203,-34.89687988990019
8.562141696,1.000319656223694,-35.09567274286858
8.56978944,1.0003613635174835,-35.29517074763703
8.577437696,1.0003832848115517,-35.495055886774246
8.585085952,1.0003844923856389,-35.69513977563529
8.592734208,1.000364725763039,-35.89511671531955
8.600382464,1.000325019902045,-36.09467886153809
8.60803072,1.000267555371309,-36.29361854381674
8.615678976,1.0001954797982564,-36.49167880543706
8.623327232,1.0001128853224255,-36.68870604880489
8.630975488,1.0000240893214662,-36.88459176101421
8.638623744,0.9999340281439001,-37.07923877875158
8.646272,0.9998477089500597,-37.27272217337401
8.653919232,0.9997699763439407,-37.46509953579669
8.661567488,0.9997048525491575,-37.65651351318286
8.669215744,0.9996562996106809,-37.847185793025496
8.676864,0.9996267119234584,-38.03733834579234
8.684512256,0.9996177832215305,-38.227186227337725
8.692160512,0.9996301566775407,-38.41711102047239
8.699808768,0.9996632180881135,-38.60731497500692
8.707457024,0.9997148047458683,-38.798105008909886
8.71510528,0.9997826327049478,-38.98971069418699
8.722753536,0.9998625033931805,-39.1823274723497
8.730401792,0.9999501891226622,-39.37610011282904
8.738050048,1.0000410643823787,-39.57105539790935
8.745698304,1.0001298474023468,-39.76726875915821
8.75334656,1.0002118078887674,-39.96461165377102
8.760993792,1.000282405155365,-40.163011384193716
8.768642048,1.000337522159554,-40.36229692537185
8.776290304,1.0003745276161005,-40.56217193253548
8.78393856,1.000391123593325,-40.7624529972397
8.791586816,1.000386402031802,-40.96278781687006
8.799235072,1.0003606111617256,-41.16295303706577
8.806883328,1.0003150273715784,-41.36266129724192
8.814531584,1.0002523953503377,-41.561605230314115
8.82217984,1.0001758667161424,-41.759670140141566
8.829828096,1.0000898773319191,-41.95659758767648
8.837476352,0.9999990291705453,-42.15234851654738
8.845124608,0.9999081807206209,-42.346917097408934
8.852772864,0.9998226837812033,-42.540253741032195
8.86042112,0.9997468906103799,-42.73251512772544
8.868068352,0.9996853163633577,-42.92385728015362
8.875716608,0.9996409993484379,-43.114500034179066
8.883364864,0.9996167465939352,-43.30463872149755
8.89101312,0.999613689870823,-43.49463555530144
8.898661376,0.9996321165864874,-43.68475158927175
8.906309632,0.9996709861338765,-43.875243639477375
8.913957888,0.9997283434799381,-44.0663900724924
8.921606144,0.9998007499715732,-44.25842842739681
8.9292544,0.9998844575635134,-44.45152370350292
8.936902656,0.9999748788589609,-44.645797526240194
8.944550912,1.0000668272724806,-44.841329076874764
8.952199168,1.000155472893083,-45.038090542005854
8.959847424,1.0002358922623422,-45.23600009829327
8.96749568,1.0003035557811093,-45.434912204693006
8.975142912,1.0003547335152116,-45.63464113516867
8.982791168,1.000386651698505,-45.834964875254805
8.990439424,1.000397546695461,-46.03556612551641
8.99808768,1.0003868224615753,-46.236192763441245
9.005735936,1.000354852905638,-46.436545810774994
9.013384192,1.0003037018505336,-46.63631339117023
9.021032448,1.00023580632576,-46.83530904158575
9.028680704,1.000155177279728,-47.033304661260516
9.03632896,1.0000660171773652,-47.230184212874576
9.043977216,0.9999733652750185,-47.42579948860291
9.051625472,0.9998821468466377,-47.620215965317
9.059273728,0.9997976266280757,-47.81342901799858
9.066921984,0.9997243691563881,-48.00558681468199
9.07457024,0.9996663299640528,-48.19686513261243
