freq,mag,phase
6.0,1.0006725295442391,-11.170457368308707
6.015180288,1.000664616302498,-11.684900024718214
6.030360576,1.0006283826246816,-12.199208581601695
6.045540864,1.000565494353224,-12.713144211560662
6.060721152,1.0004785023554943,-13.226363556667774
6.07590144,1.0003711863098148,-13.73864481531051
6.091081728,1.0002478012795442,-14.24974785755413
6.106262016,1.0001136606159524,-14.759447999307607
6.121442304,0.9999743208680829,-15.267812540164623
6.136622592,0.9998358489745847,-15.774579335759206
6.15180288,0.9997040881720147,-16.280023039514884
6.166983168,0.9995847149963004,-16.78407079184643
6.182162944,0.9994827984233046,-17.287028828198295
6.197343232,0.9994028621811453,-17.789039315361368
6.21252352,0.9993483045509103,-18.290427135819094
6.227703808,0.999321668793135,-18.791490951561492
6.242884096,0.9993239687000529,-19.29255311364331
6.258064384,0.999355584643822,-19.79405270992223
6.273244672,0.9994149426885248,-20.296220134164823
6.28842496,0.9994996427358527,-20.79940156573947
6.303605248,0.999606649298968,-21.303897470983625
6.318785536,0.9997307949743879,-21.809975902700437
6.333965824,0.9998671030435387,-22.31774724826656
6.349146112,1.0000099653188979,-22.827377353047353
6.3643264,1.0001534479890604,-23.338900464571807
6.379506688,1.0002908025048514,-23.852263721150095
6.394686976,1.0004168207384854,-24.367388282860425
6.409867264,1.00052578315768,-24.88411013048591
6.425047552,1.0006130953617016,-25.402212456315965
6.44022784,1.00067491903796,-25.92136143317888
6.455408128,1.0007083463755044,-26.441304084919963
6.470588416,1.000712102843405,-26.961674477455492
6.485768704,1.0006857340850353,-27.482131819800365
6.500948992,1.0006304360600653,-28.002263609612157
6.51612928,1.0005481344624512,-28.52183310331214
6.531309056,1.0004425179927015,-29.040475312222352
6.546489344,1.0003180304226853,-29.55793946889653
6.561669632,1.000179569643981,-30.07405451537553
6.57684992,1.0000330645240394,-30.588696634510693
6.592030208,0.9998849826699318,-31.101729203446943
6.607210496,0.9997414400697329,-31.613277323198183
6.622390784,0.9996085380744013,-32.123322858906214
6.637571072,0.999491957341657,-32.63212132216497
6.65275136,0.9993970469686344,-33.13977936329463
6.667931648,0.9993275503077906,-33.64669838860703
6.683111936,0.9992868130400228,-34.15311951932216
6.698292224,0.9992765205203412,-34.659402777036064
6.713472512,0.9992972837990914,-35.165911193066464
6.7286528,0.9993485131893929,-35.673044314568536
6.743833088,0.9994279048677785,-36.18115833797616
6.759013376,0.9995323754473333,-36.69054218992108
6.774193664,0.999657382517205,-37.20146851791218
6.789373952,0.9997977473167463,-37.71420378945843
6.80455424,0.9999475461097869,-38.228793059310874
6.819734528,1.0001006406132038,-38.74540205276939
6.834914816,1.0002501252948972,-39.26400833911103
6.850095104,1.000389875094981,-39.78455810322459
6.865275392,1.000513805127685,-40.306868903615204
6.880455168,1.0006167387038207,-40.83072576003199
6.895635456,1.000694077525218,-41.35588004337998
6.910815744,1.0007423640577207,-41.88199892027278
6.925996032,1.0007594441111411,-42.408737634860806
6.94117632,1.0007446110797367,-42.935685332694455
6.956356608,1.0006982748405673,-43.4624980175889
6.971536896,1.000622208212445,-43.988813260684665
6.986717184,1.0005195671921288,-44.514296904147486
7.001897472,1.0003945784301824,-45.03863904528308
7.01707776,1.000252532887817,-45.56162576157944
7.032258048,1.000099373908133,-46.08304728703222
7.047438336,0.9999415287319207,-46.602851079466596
7.062618624,0.9997857766966588,-47.12099609405667
7.077798912,0.9996388610361308,-47.63752796740251
7.0929792,0.9995068729053583,-48.15260802582429
7.108159488,0.9993954957013408,-48.666458908148485
7.123339776,0.9993097826458297,-49.17931608296497
7.138520064,0.9992533638304493,-49.691515898450525
7.153700352,0.9992288106270555,-50.20341055590904
7.16888064,0.9992373781583032,-50.71543328954885
7.184060928,0.9992786211408551,-51.227910222360606
7.199241216,0.9993511264443097,-51.741254139423546
7.214421504,0.999451923123105,-52.25584280090228
7.22960128,0.9995766282488509,-52.77197067268527
7.244781568,0.999720252392808,-53.289877378765986
7.259961856,0.999876684013881,-53.80978065892673
7.275142144,1.0000392753764982,-54.33180781313562
7.290322432,1.0002010865369746,-54.8559477613516
7.30550272,1.0003554250878848,-55.38219012968301
7.320683008,1.0004953080240127,-55.910417553461
7.335863296,1.0006149720157897,-56.44038564060267
7.351043584,1.0007094606028086,-56.971859184563826
7.366223872,1.000774154728781,-57.50449964428145
7.38140416,1.000806485134912,-58.03798879149417
7.396584448,1.0008048917468004,-58.57186613008635
7.411764736,1.0007692099977687,-59.10574993841488
7.426945024,1.0007008723815647,-59.63925856862171
7.442125312,1.0006027740363315,-60.1720465542252
7.4573056,1.0004786432441304,-60.70372816848581
7.472485888,1.0003338791607002,-61.23405394903597
7.487666176,1.0001743320766499,-61.76280291314379
7.502846464,1.0000071989917643,-62.289818848742705
7.518026752,0.9998390394620659,-62.81509250120205
7.53320704,0.9996773444281504,-63.33859845539342
7.548387328,0.9995288090229145,-63.86049370607805
7.563567616,0.9993999187841291,-64.38091776267639
7.578747392,0.9992963495922923,-64.90016243935878
7.59392768,0.9992224751980348,-65.41857903283642
7.609107968,0.999181758363938,-65.93653822697195
7.624288256,0.9991760735163151,-66.45438731553455
7.639468544,0.9992056033354411,-66.97257121867966
7.654648832,0.9992694753857314,-67.49151520862829
7.66982912,0.9993649618592478,-68.01162996023183
7.685009408,0.999488213567381,-68.53323611742032
7.700189696,0.9996339623543846,-69.05667785615262
7.715369984,0.9997963616304799,-69.58215123159053
7.730550272,0.9999683136087322,-70.1098237008595
7.74573056,1.0001426876854216,-70.63976870713014
7.760910848,1.0003118982356065,-71.17198116075984
7.776091136,1.0004689658887034,-71.70637881926355
7.791271424,1.000606941130957,-72.24276833534522
7.806451712,1.000719865325642,-72.78088021191267
7.821632,1.0008029915255674,-73.32041741106926
7.836812288,1.0008524994820185,-73.86093043100034
7.851992576,1.0008661496075824,-74.4021229051954
7.867172864,1.0008434171594507,-74.9435024528709
7.882353152,1.0007847220600943,-75.48465924376075
7.89753344,1.0006926867903232,-76.02515846253303
7.912713728,1.0005709047095421,-76.56464797289532
7.927893504,1.000424717352386,-77.1027856888002
7.943073792,1.0002597188813132,-77.63932567296214
7.95825408,1.0000832436238605,-78.17410002298966
7.973434368,0.9999025769127677,-78.70698936662583
7.988614656,0.9997255961148038,-79.23794511037977
8.003794944,0.999559547359923,-79.76710829304191
8.018975232,0.9994116554608965,-80.29462001133247
8.03415552,0.9992885524639631,-80.82071934747637
8.049335808,0.9991953402692533,-81.34576649562729
8.064516096,0.9991362612060662,-81.87013945910329
8.079696384,0.999113906351226,-82.39422258462122
8.094876672,0.9991295084699864,-82.91847383484667
8.11005696,0.9991824508549544,-83.44334487848359
8.125237248,0.9992707988659344,-83.96925633547282
8.140417536,0.9993908000888608,-84.49663535693135
8.155597824,0.9995375228755513,-85.02581923459606
8.170778112,0.99970497819316,-85.55709150901306
8.1859584,0.9998859451084025,-86.09064316066032
8.201138688,1.0000728102545913,-86.6266128199029
8.216318976,1.000257717870584,-87.16506656508295
8.231499264,1.0004327231924581,-87.70585664218432
8.246679552,1.0005902883004585,-88.24891310473838
8.261859328,1.000723691243925,-88.7939305666277
8.277039616,1.0008273137478358,-89.3405876355381
8.292219904,1.0008963207344967,-89.88855300769744
8.307400192,1.0009278790686924,-90.43735369470234
8.32258048,1.0009202676757776,-90.98660190804087
8.337760768,1.0008735533369302,-91.5357633233264
8.352941056,1.0007898778766788,-92.08442496759936
8.368121344,1.0006724300468675,-92.63214547164624
8.383301632,1.0005258107760364,-93.17860362616149
8.39848192,1.0003564616186373,-93.72340631626867
8.413662208,1.0001712922917743,-94.26640164447039
8.428842496,0.9999781873132305,-94.80735177212202
8.444022784,0.9997853265328733,-95.34628600723555
8.459203072,0.9996008151432407,-95.8832012163319
8.47438336,0.9994325689143376,-96.41825794837115
8.489563648,0.9992878947624302,-96.95168740915398
8.504743936,0.9991730136189539,-97.48379355520078
8.519924224,0.9990931733771148,-98.01495154063214
8.535104512,0.999051675324993,-98.54562940536181
8.5502848,0.9990505894097464,-99.0762534851781
8.565465088,0.9990902139012604,-99.60732608595872
8.580645376,0.9991689366547056,-100.13932652791823
8.595825664,0.9992838096480903,-100.67271185170739
8.61100544,0.9994298230357822,-101.20787386787148
8.62618624,0.9996010383208015,-101.74511959915259
8.641366016,0.9997903746598013,-102.28476516054383
8.656546816,0.9999896230306947,-102.8269569508113
8.671726592,1.0001906508035912,-103.37177896749027
8.686907392,1.0003846444996491,-103.91919085654776
8.702087168,1.0005634248784068,-104.46907350047823
8.717267968,1.0007194632554015,-105.02120759431473
8.732447744,1.0008457848559178,-105.57529684929112
8.747628544,1.0009369634954826,-106.1309078669108
8.76280832,1.0009889379963761,-106.68768034381846
8.77798912,1.0009994061646112,-107.24507468160135
8.793168896,1.0009676641111005,-107.802622886876
8.808348672,1.0008947780924322,-108.35985649004218
8.823529472,1.0007837199422378,-108.91627121300463
8.838709248,1.000638919276074,-109.47142722869037
8.853890048,1.000466429776127,-110.02499131796942
8.869069824,1.0002734664475332,-110.57665644935803
8.884250624,1.0000681149867523,-111.12624240777843
8.8994304,0.9998589082465565,-111.67358795835611
8.9146112,0.9996548779394334,-112.21876119116716
8.929790976,0.9994646453772904,-112.76182750284963
8.944971776,0.9992964432850008,-113.30298265988311
8.960151552,0.999157522294982,-113.84255526971194
8.975332352,0.9990539319665576,-114.38095088088387
8.990512128,0.9989902794984864,-114.91852806313096
9.005692928,0.9989695259878841,-115.45586844605269
9.020872704,0.9989927608138276,-115.9933896424446
9.036053504,0.9990590267421711,-116.531720597508
9.05123328,0.9991660339573634,-117.07130943183358
9.06641408,0.9993092759936024,-117.61258270085199
9.081593856,0.9994828172727933,-118.15601617019192
9.096774656,0.999679415639616,-118.70185599326247
9.111954432,0.9998909327574691,-119.25038750711579
9.127135232,1.0001082773164494,-119.80170276442641
9.142315008,1.0003222903074351,-120.35584069318983
9.157494784,1.0005239487385618,-120.91271924497273
9.172675584,1.0007045588154482,-121.47212478683669
9.18785536,1.000856316171596,-122.03376752252208
9.20303616,1.0009726008214097,-122.59730592062469
9.218215936,1.0010484195300433,-123.16223085816992
9.233396736,1.0010803042451026,-123.72811713936524
9.248576512,1.0010666359091553,-124.294410171816
9.263757312,1.0010078097091246,-124.86056270252585
9.278937088,1.0009059127666773,-125.4260373927524
9.294117888,1.0007653195655823,-125.99038230332584
9.309297664,1.0005915705845176,-126.55315989480958
9.324478464,1.0003919200746676,-127.11400588220509
9.33965824,1.0001747673488053,-127.67264366913766
9.35483904,0.9999490824120474,-128.22893240303435
9.370018816,0.9997245848964281,-128.78281471356826
9.385199616,0.9995107675252293,-129.33433791551275
9.400379392,0.9993167505297632,-129.88370217235982
9.415560192,0.9991508731414606,-130.43116724200965
9.430739968,0.9990204000015296,-130.9770995944324
9.445920768,0.9989311558362398,-131.52197165010477
9.461100544,0.9988869870852668,-132.06626973764872
9.476281344,0.998890112943672,-132.61056105251046
9.49146112,0.998940701027772,-133.15540305093
9.506640896,0.9990368288322875,-133.70132750675762
9.521821696,0.999174621056695,-134.24889981148786
9.537001472,0.9993483325498798,-134.798538547307
9.552182272,0.9995509174935429,-135.35068527307416
9.567362048,0.9997738173055596,-135.90558647566658
9.582542848,1.0000077907403369,-136.46345655978055
9.597722624,1.0002427549895818,-137.02441289417771
9.612903424,1.0004688044139116,-137.58833340140566
9.6280832,1.0006764626822149,-138.15512362442198
9.643264,1.0008565503806943,-138.72447682274606
9.658443776,1.0010014898006865,-139.29605090903488
9.673624576,1.0011048706809937,-139.8694002580127
9.688804352,1.0011620537412576,-140.4440142801581
9.703985152,1.0011704301492015,-141.01930497273776
9.719164928,1.0011292804109149,-141.59471491021006
9.734345728,1.0010402299672465,-142.1696567429816
9.749525504,1.000906615652178,-142.74359065503697
9.764706304,1.0007339234768555,-143.31602263146178
9.77988608,1.0005292989737213,-143.88650483609268
9.79506688,1.0003011518948346,-144.45471288218994
9.810246656,1.0000590289392142,-145.02043215152585
9.825427456,0.9998132146318643,-145.58351814213358
9.840607232,0.9995740865964221,-146.14399859452993
9.855787008,0.9993517835973911,-146.70198556883742
9.870967808,0.999155946584576,-147.25775738184097
9.886147584,0.998995000856877,-147.81167256897345
9.901328384,0.9988760403136859,-148.3641066861633
9.91650816,0.9988043385168657,-148.9156902444564
9.93168896,0.9987831706674406,-149.46693532970767
9.946868736,0.9988137830529935,-150.01847453956708
9.962049536,0.998895252891718,-150.570903765343
9.977229312,0.9990242194695046,-151.12482772858453
9.992410112,0.9991955181174383,-151.68077179716505
10.007589888,0.9994021860567905,-152.239208990291
10.022770688,0.9996355761502493,-152.8005029936585
10.037950464,0.9998858734856748,-153.3649503061951
10.053131264,1.0001426796750283,-153.9326541018825
10.06831104,1.0003949472718061,-154.50365647909578
10.08349184,1.0006320413012861,-155.07784285087442
10.098671616,1.0008438946673808,-155.65497738369248
10.113852416,1.0010213015557567,-156.23473263344678
10.129032192,1.001156448333727,-156.81662081906512
10.144212992,1.0012435034078895,-157.40015334966535
10.159392768,1.0012785669249733,-157.98472138913297
10.174572544,1.001259778306312,-158.56971549773442
10.189753344,1.0011875607652485,-159.1544712787413
10.20493312,1.0010647190285082,-159.73841577610176
10.22011392,1.000896057295714,-160.32094130453484
10.235293696,1.0006885944775457,-160.90155701029119
10.250474496,1.0004508092858524,-161.4798471221079
10.265654272,1.0001925134214307,-162.055491209812
10.280835072,0.9999246091174671,-162.62832206654915
10.296014848,0.9996584926149572,-163.19825092195558
10.311195648,0.9994052249563937,-163.76537207812868
10.326375424,0.9991759494064223,-164.32988839070165
10.341556224,0.9989803074438772,-164.89214204122655
10.356736,0.9988269062771052,-165.45253069207754
10.3719168,0.9987224971639228,-166.01165599029179
10.387096576,0.9986720529369312,-166.57008864003416
10.402277376,0.9986776776366757,-167.12848862085718
10.417457152,0.998739710003888,-167.68753698524182
10.432637952,0.9988558294341804,-168.24785767362658
10.447817728,0.9990213147413464,-168.8101132999437
10.462998528,0.9992293982096546,-169.37480352984784
10.478178304,0.999471692040603,-169.94246041137717
10.493359104,0.9997380603372364,-170.51337491123624
10.50853888,1.000017176515237,-171.087784504075
10.523718656,1.0002974372726048,-171.66580522292512
10.538899456,1.0005667446881357,-172.2473748486275
10.554079232,1.00081392579729,-172.83227009822426
10.569260032,1.0010281567402166,-173.42025200363867
10.584439808,1.0012002992131306,-174.01081038937286
10.599620608,1.0013226612558157,-174.60343628579736
10.614800384,1.0013900336653347,-175.1975126067286
10.629981184,1.001398887566571,-175.79237886302624
10.64516096,1.00134874768957,-176.38733544834983
10.66034176,1.0012411916603938,-176.9817024821587
10.675521536,1.0010805884423668,-177.57480509906756
10.690702336,1.0008731372314181,-178.16609670767548
10.705882112,1.0006275883789137,-178.7549918157514
10.721062912,1.0003537867720846,-179.34116283189235
10.736242688,1.0000633393911236,-179.9242625128855
10.751423488,0.9997684635768479,179.49579550458566
10.766603264,0.9994816389620951,178.9190111360875
10.781784064,0.9992148931289299,178.3452368183552
10.79696384,0.9989798706504799,177.7741943832172
10.81214464,0.9987866134220127,177.205439462594
10.827324416,0.998643873523928,176.638433502584
10.842505216,0.9985576860101729,176.0725578738677
10.857684992,0.9985323771147534,175.5071231995252
10.872864768,0.9985693094044196,174.9413667600097
10.888045568,0.9986673234975311,174.37457505837386
10.903225344,0.9988226608798799,173.80603329460368
10.918406144,0.9990290162037527,173.2351104670951
10.93358592,0.9992780174988944,172.66124696226004
10.94876672,0.9995593706159449,172.08393707208475
10.963946496,0.9998613354070747,171.5029140631154
10.979127296,1.0001711537644147,170.9180001852401
10.994307072,1.0004759051034005,170.3291310261768
11.009487872,1.00076248461684,169.7364590828045
11.024667648,1.001018844494984,169.14026309299283
11.039848448,1.0012336712131973,168.5409528464116
11.055028224,1.001397862652863,167.93906306297762
11.070209024,1.0015041142790784,167.33523830934865
11.0853888,1.0015473483538773,166.7301658552218
11.1005696,1.0015256896580291,166.12462956377212
11.115749376,1.0014392371526635,165.51934825180774
11.130930176,1.001291342855509,164.91511670766835
11.146109952,1.0010878776354222,164.31258647897604
11.161290752,1.0008370899582253,163.71240238805487
11.176470528,1.000549127851903,163.1150807276384
11.191651328,1.000235894583477,162.52097476288142
11.206831104,0.9999106158318731,161.93034082458274
11.22201088,0.9995868949895016,161.34324248389734
11.23719168,0.999278460337731,160.7596238146902
11.252371456,0.9989983245012394,160.17922025840386
11.267552256,0.9987589886739641,159.60162345195639
11.282732032,0.9985705220254095,159.02632902585057
11.297912832,0.9984415373095026,158.45268463902374
11.313092608,0.9983777622633315,157.87992453412204
11.328273408,0.99838258173333,157.30730488052208
11.343453184,0.9984559459208665,156.73398078843107
11.358633984,0.998595600864117,156.15914476147745
11.37381376,0.998795728031938,155.58206415798068
11.38899456,0.9990483927533894,155.0020221086166
11.404174336,0.9993433587086213,154.41848979356357
11.419355136,0.999668118913144,153.8309947803304
11.434534912,1.0000093256672462,153.23926335473448
11.449715712,1.0003526523122084,152.6431815582037
11.464895488,1.0006833664123678,152.04279966917554
11.480076288,1.0009876719698345,151.43832828226533
11.495256064,1.0012524141876538,150.83016742373061
11.510436864,1.00146607426567,150.21882320096597
11.52561664,1.001619295527085,149.60493061491513
11.54079744,1.0017051455294677,148.98926854668514
11.555977216,1.001719689925033,148.37263557589023
11.571156992,1.001661636609673,147.75587714555456
11.586337792,1.0015329098301642,147.1398209476555
11.601517568,1.0013385324575728,146.52528752107534
11.616698368,1.001086068202599,145.913021587433
11.631878144,1.0007857218296259,145.3036396034836
11.647058944,1.0004499360949488,144.6976880094665
11.66223872,1.0000925305142614,144.09548067510917
11.67741952,0.9997285437238944,143.49723088725554
11.692599296,0.9993733278553104,142.90293347319093
11.707780096,0.9990418517351592,142.3123936812555
11.722959872,0.9987485233236315,141.7252958222557
11.738140672,0.9985059858798719,141.1411043771664
11.753320448,0.9983250120451844,140.55919829390638
11.768501248,0.9982137937384542,139.97875960320022
11.783681024,0.9981773926897806,139.39897736790692
11.798861824,0.9982179646075672,138.8189403902834
11.8140416,0.9983345528761092,138.23770951648038
11.8292224,0.9985227875177816,137.6544205841346
11.844402176,0.9987748735967429,137.0682859669197
11.859582976,0.9990810304216933,136.4785526302966
11.874762752,0.999428410380587,135.88466074689526
11.889943552,0.9998026923726964,135.28621337728063
11.905123328,1.0001880978541624,134.68295134284546
11.920303104,1.0005685796708752,134.07483066403282
11.935483904,1.00092800582464,133.46197972519758
11.95066368,1.0012508769576491,132.8447431418123
11.96584448,1.0015234357509954,132.22359953246266
11.981024256,1.0017337705817917,131.59924476875796
11.996205056,1.0018724711537104,130.97239120225237
12.011384832,1.0019332394379346,130.3439729401525
12.026565632,1.0019127184797731,129.71488360184046
