freq,mag,phase
6.0,0.9999567454369089,18.16610427895008
6.042328064,0.9999667581231095,17.01606710466125
6.084656128,0.9999770976952935,15.865809242343891
6.126984192,0.9999877868602809,14.715278412759819
6.169312256,0.9999986473560476,13.5645548662417
6.21164032,1.0000095090727548,12.41352016135518
6.253968384,1.0000202006647445,11.262245023244535
6.296296448,1.0000306176875309,10.110747997301724
6.338624512,1.0000406730946874,8.959011448526313
6.380952576,1.0000501069679837,7.807002042884099
6.42328064,1.0000589143044978,6.654748858222564
6.465608704,1.0000669385280734,5.502311732369181
6.507936256,1.0000739640509964,4.349576254012366
6.55026432,1.000079858310693,3.1966382537907596
6.592592384,1.0000847614583852,2.0434581711773827
6.634920448,1.000088378974826,0.89012070044215
6.677248512,1.0000908024909254,-0.2634820735557657
6.719576576,1.000091906853055,-1.4172678632720186
6.76190464,1.000091762449368,-2.5712328103935826
6.804232704,1.0000902462040948,-3.7253553064434657
6.846560768,1.000087370705623,-4.879718265802037
6.888888832,1.0000834070764466,-6.034183177827844
6.931216896,1.0000781777613559,-7.188845167152647
6.97354496,1.0000717466318223,-8.34364915082293
7.015873024,1.0000643310792663,-9.498594392100504
7.058201088,1.0000559969295402,-10.653666655601064
7.100529152,1.0000467634363364,-11.8088739939556
7.142857216,1.0000367999631787,-12.964240284126776
7.18518528,1.0000263971081993,-14.119721361871722
7.227513344,1.0000154454264742,-15.27532739902257
7.269841408,1.0000042986313387,-16.431020154823095
7.312169472,0.9999930168692528,-17.586860297226977
7.354497536,0.9999816159344,-18.742840423644154
7.3968256,0.9999705840660318,-19.898885855927073
7.439153664,0.9999598483655278,-21.05512443040164
7.481481728,0.9999497405450353,-22.21143216437218
7.52380928,0.999940099262192,-23.367896614076717
7.566137344,0.9999313189119577,-24.524483965219382
7.608465408,0.9999234602209799,-25.681263118907893
7.650793472,0.999916570668059,-26.83814291023749
7.693121536,0.999910899273181,-27.99521702818031
7.7354496,0.9999063868974921,-29.1524309517579
7.777777664,0.999903077429084,-30.309832590729233
7.820105728,0.9999010863305441,-31.467394384265294
7.862433792,0.999900493836597,-32.62518638040736
7.904761856,0.9999012964298467,-33.78317287189032
7.94708992,0.9999033644904731,-34.94137398294197
7.989417984,0.999906906518247,-36.09977885075315
8.031746048,0.9999116756000221,-37.25845727680252
8.074074112,0.999917660156022,-38.417332287644655
8.116402176,0.9999247770598839,-39.57651354706906
8.15873024,0.999933035648752,-40.735904051927015
8.201058304,0.9999420672625396,-41.89562299463135
8.243386368,0.9999521704236305,-43.05552757828268
8.285714432,0.9999628688451329,-44.215769280811415
8.328042496,0.9999740504223616,-45.376304373960004
8.37037056,0.9999857169610593,-46.53710006102873
8.412698624,0.99999746434418,-47.698197742936344
8.455026688,1.0000093297097485,-48.85960570695657
8.497354752,1.0000210363992676,-50.021285529990344
8.539682304,1.0000327076585365,-51.18323871734809
8.582010368,1.0000436620745312,-52.34554260445623
8.624338944,1.0000542697986492,-53.50808364411785
8.666667008,1.0000639848403765,-54.67092512271323
8.708995072,1.0000728546067668,-55.83405268000356
8.751323136,1.000080784913737,-56.99745476844479
8.7936512,1.0000875307674082,-58.161098602890576
8.835979264,1.0000930862762034,-59.325036690270096
8.878307328,1.0000973024897146,-60.48920924501213
8.920635392,1.000100242858702,-61.65360198527172
8.962963456,1.0001017385907565,-62.81826545811133
9.005290496,1.0001017564567813,-63.98315404095601
9.04761856,1.0001003703533262,-65.14822126407914
9.089946624,1.0000975557149852,-66.31352182623445
9.132274688,1.0000933199117334,-67.47903121446494
9.174602752,1.0000878219957008,-68.64469179524006
9.216930816,1.000080957197467,-69.81056606468925
9.25925888,1.0000730017969452,-70.97658787226793
9.301586944,1.0000639036836803,-72.14277934558622
9.343915008,1.000053776594465,-73.30914036921162
9.386243072,1.0000429236679962,-74.4756343656657
9.428571136,1.0000314445782432,-75.64228796388099
9.4708992,1.000019319827061,-76.80907913439484
9.513227264,1.0000069443909152,-77.9760169832867
9.555555328,0.9999944391661338,-79.14307086098545
9.597883392,0.9999818670019973,-80.31029934740478
9.640211456,0.9999694174248188,-81.47763283778279
9.68253952,0.9999573500581518,-82.64511701010007
9.724867584,0.9999457731217528,-83.81272537427039
9.767195648,0.999934940409236,-84.98051277446594
9.809523712,0.9999248883636019,-86.14843590326613
9.851851776,0.999915849490666,-87.31651248408392
9.89417984,0.9999079757930288,-88.4847486378668
9.936507904,0.9999012557942247,-89.65317182542888
9.978835968,0.9998957738048119,-90.8217614040181
10.021164032,0.999891812142344,-91.99056188025334
10.063492096,0.9998893077386969,-93.159554999793
10.10582016,0.9998882895948853,-94.3287598981387
10.148148224,0.9998888988791824,-95.49816945632475
10.190476288,0.9998909392473558,-96.66781699847793
10.232804352,0.9998945518507564,-97.83770321524509
10.275132416,0.9998995710841422,-99.00784465101309
10.31746048,0.9999060622119742,-100.17824446141003
10.359788544,0.9999138319098053,-101.34893199634351
10.402116608,0.9999228986437164,-102.5198843678585
10.444444672,0.9999331136478538,-103.69111704473976
10.486772736,0.9999442521553995,-104.86267619497784
10.5291008,0.9999561210153709,-106.03451370652077
10.571428864,0.9999687316648708,-107.20665442046065
10.613756928,0.9999818456092767,-108.37911558270397
10.656084992,0.9999952866096744,-109.55186897210241
10.698413056,1.000008811063493,-110.72494918801561
10.74074112,1.0000223270232593,-111.89836835328896
10.783069184,1.0000355405164019,-113.07208197240324
10.825397248,1.000048365010608,-114.24609667853325
10.867725312,1.0000606188194177,-115.42044520916868
10.910053376,1.0000720699403844,-116.59507985659687
10.95238144,1.000082513370428,-117.77000693540566
10.994709504,1.0000919426241999,-118.9452447065969
11.037036544,1.0001000227724524,-120.12076122976069
11.079364608,1.0001068717006065,-121.2965517637377
11.121692672,1.0001121850419872,-122.47262276907922
11.164020736,1.000116017722157,-123.64893640517046
11.2063488,1.000118157727378,-124.82550693969199
11.248676864,1.000118763618894,-126.00228215011396
11.291004928,1.0001175555073634,-127.17930381474902
11.333332992,1.0001148744626485,-128.35654310566633
11.375661056,1.0001105021477423,-129.53396882474613
11.41798912,1.000104512208192,-130.71157581978244
11.460317184,1.0000970763930446,-131.88936763974783
11.502645248,1.0000881514330888,-133.06734057769702
11.544973312,1.0000779350843763,-134.24546336109898
11.587301376,1.0000665709728798,-135.42373841477414
11.62962944,1.000054308734242,-136.60214607651028
11.671957504,1.0000410402330067,-137.78069090217105
11.714285568,1.0000271383828512,-138.95936157069968
11.756613632,1.0000127245492263,-140.13816543434876
11.798941696,0.9999980482208186,-141.31708865757483
11.84126976,0.9999833951034134,-142.49612736974706
11.883597824,0.999968638122765,-143.675271712964
11.925925888,0.9999543633607577,-144.85455802846025
11.968253952,0.9999405552202951,-146.0339569300211
12.010582016,0.9999274179520593,-147.21347643049995
12.05291008,0.9999152234208106,-148.39312850289744
12.095238144,0.999904019285704,-149.57291050339512
12.137566208,0.9998941633852839,-150.75283996358823
12.179894272,0.9998856546932766,-151.9329193752936
12.222222336,0.9998786933713874,-153.113147542614
12.2645504,0.9998733523487119,-154.29356430931685
12.306878464,0.9998697508499581,-155.474131635083
12.349206528,0.9998677376711622,-156.65492058469567
12.391534592,0.9998677417107323,-157.83590274005556
12.433862656,0.9998694084369713,-159.0170855937961
12.47619072,0.9998730820607953,-160.1985133445047
12.518518784,0.9998784045281882,-161.3801586016791
12.560846848,0.9998854065351813,-162.56205770959392
12.603174912,0.999894210694378,-163.74421762399655
12.645502976,0.999904481190597,-164.92665543196958
12.68783104,0.999916145675615,-166.1093659828349
12.730159104,0.9999290539544815,-167.29234962363657
12.772487168,0.9999430985896922,-168.47564945707748
12.814815232,0.9999579666421516,-169.65924329992956
12.857143296,0.9999737232334941,-170.8431387819315
12.89947136,0.999989862322322,-172.027336881579
12.941799424,1.0000062174741935,-173.21188227070246
12.984127488,1.0000227473422716,-174.39671572992518
13.026454528,1.0000391005166667,-175.5818560904774
13.068782592,1.0000550012442406,-176.7673341173254
13.111110656,1.0000703212168678,-177.9531078795231
13.15343872,1.0000848555161403,-179.13918074406047
13.195766784,1.0000982788990662,179.67444947921663
13.238094848,1.0001105535671193,178.48778601042682
13.280422912,1.0001213169011782,177.3008487716537
13.322750976,1.0001306052123236,176.11364101242685
13.36507904,1.000138024793885,174.9261640359586
13.407407104,1.0001437663312343,173.73845060056618
13.449735168,1.0001475327011515,172.55051171257094
13.492063232,1.0001492721288945,171.36234555082262
13.534391296,1.0001489533787926,170.1739805210008
13.57671936,1.000146479758788,168.9854130443396
13.619047424,1.0001419919039347,167.79668789075802
13.661375488,1.0001355139584427,166.60780136418668
13.703703552,1.0001270358714318,165.41875657199083
13.746031616,1.000116731539205,164.22959199990325
13.78835968,1.0001046054105533,163.0402965529988
13.830687744,1.0000910210891782,161.8509187462693
13.873015808,1.0000758408895811,160.66142356265487
13.915343872,1.000059452258247,159.47185823833152
13.957671936,1.0000419826341937,158.28220672707405
14.0,1.0000238470615652,157.09248807434847
