freq,mag,phase
6.0,1.0003795970929446,-68.05801653571568
6.002996224,1.0004067299457147,-68.20878884674516
6.005992448,1.000409641886386,-68.35974395066799
6.008988672,1.0003865423220422,-68.51064560149057
6.011984896,1.0003387288243062,-68.66102450926533
6.01498112,1.0002695671471884,-68.81063042292621
6.017977344,1.000182950349712,-68.9590589105959
6.020973568,1.000084813765325,-69.10622700340127
6.023969792,0.999980886399909,-69.25193250525221
6.026966528,0.9998775774013569,-69.3962295615366
6.029962752,0.9997816320452869,-69.53906978851765
6.032958976,0.999698930202005,-69.68063222509606
6.0359552,0.9996343966051267,-69.82117741449065
6.038951424,0.9995923206731414,-69.96091082253967
6.041947648,0.9995754562936886,-70.1003045880265
6.044943872,0.9995846398466864,-70.23964301447549
6.047940096,0.9996193064488123,-70.37931087107518
6.05093632,0.9996774465556988,-70.51970237630614
6.053932544,0.9997553759329912,-70.66107446773198
6.056928768,0.999848097733582,-70.8036914445022
6.059924992,0.9999501487305054,-70.94774867676814
6.062921216,1.000055056155053,-71.09331393184881
6.06591744,1.0001558399840278,-71.2403980888197
6.068913664,1.0002467764941767,-71.38886742661585
6.071909888,1.0003219969104675,-71.53861284920626
6.074906112,1.000376848106827,-71.68927188764262
6.077902848,1.0004078029002386,-71.84053985508683
6.080899072,1.0004127974664192,-71.99213369623867
6.083895296,1.0003916590170736,-72.14362645649334
6.08689152,1.0003458611928857,-72.29464076110834
6.089887744,1.0002780298000307,-72.44489378942146
6.092883968,1.0001925633791902,-72.59402996693423
6.095880192,1.0000945347092154,-72.74191138042883
6.098876416,0.9999902589673537,-72.88831206012891
6.10187264,0.9998860267132812,-73.03324520183848
6.104868864,0.9997885252559817,-73.17675206734313
6.107865088,0.9997039804657057,-73.31896006550512
6.110861312,0.9996372715057449,-73.46010166680692
6.113857536,0.9995929944315272,-73.60044574605132
6.11685376,0.9995736110735183,-73.74038239187456
6.119849984,0.9995804433412693,-73.8802199266904
6.122846208,0.9996131954394126,-74.02035222722556
6.125842944,0.9996697238906865,-74.1611722816742
6.128839168,0.9997463012191297,-74.30298186120646
6.131835392,0.9998388109009754,-74.44601024113798
6.134831616,0.999940697746519,-74.590490447378
6.13782784,1.0000460412338081,-74.73647016265252
6.140824064,1.0001481993063315,-74.88398564113854
6.143820288,1.0002408099335467,-75.03286037392006
6.146816512,1.0003179989349962,-75.18302326246764
6.149812736,1.0003750790102302,-75.33422550844665
6.15280896,1.0004084168605063,-75.48601905581971
6.155805184,1.0004158373038414,-75.63823281527365
6.158801408,1.000397099012285,-75.79028017554594
6.161797632,1.000353040904728,-75.94196301240466
6.164793856,1.0002866618842297,-76.09281569296337
6.16779008,1.000201973661885,-76.24267333750208
6.170786304,1.0001044820939688,-76.39119637061557
6.173782528,0.999999930170928,-76.53827840159127
6.176779264,0.9998948300294461,-76.68387105436018
6.179775488,0.9997959863433641,-76.82804359624292
6.182771712,0.9997093299380688,-76.97085397958423
6.185767936,0.999640540400107,-77.11260657202187
6.18876416,0.9995936775322325,-77.25354679965713
6.191760384,0.9995720544303092,-77.39397955192617
6.194756608,0.9995765208898867,-77.53429064068843
6.197752832,0.9996072214151686,-77.67492393050348
6.200749056,0.9996620195527336,-77.81615588184401
6.20374528,0.9997374596906697,-77.95836956168387
6.206741504,0.9998292213754265,-78.10180588615901
6.209737728,0.9999311716936043,-78.24664931214242
6.212733952,1.000037036235298,-78.39303509394405
6.215730176,1.0001402497512957,-78.54095121261977
6.2187264,1.0002344605927869,-78.69027627320516
6.221722624,1.0003139192368347,-78.84088856273851
6.224718848,1.000373234823601,-78.99254036438775
6.227715584,1.0004090201252618,-79.14488309811117
6.230711808,1.0004188495405313,-79.29759024966003
6.233708032,1.000402362021912,-79.45027971526348
6.236704256,1.0003603140270612,-79.60253874221836
6.23970048,1.0002952970999963,-79.75403886360861
6.242696704,1.0002116394418104,-79.90451414230353
6.245692928,1.0001143808938733,-80.0537043161245
6.248689152,1.0000094516042393,-80.20147643669146
6.251685376,0.9999036354088231,-80.34774484681292
6.2546816,0.9998032307903856,-80.49251917304574
6.257677824,0.9997150565740273,-80.63596172228884
6.260674048,0.9996438651107493,-80.7782676971085
6.263670272,0.9995947695220524,-80.91972956082627
6.266666496,0.9995704772801566,-81.0606969906524
6.26966272,0.9995725907063749,-81.20148108019907
6.272658944,0.9996010214396456,-81.34254960200552
6.27565568,0.9996540832516089,-81.48420561693372
6.278651904,0.9997283845137036,-81.62682794707948
6.281648128,0.9998193481144035,-81.77062541324878
6.284644352,0.9999210914647226,-81.91584148868061
6.287640576,1.0000276584424885,-82.06259868779433
6.2906368,1.000131998512836,-82.2108616885252
6.293633024,1.0002278779639093,-82.360634150446
6.296629248,1.0003093576981794,-82.51169162928791
6.299625472,1.000370899093212,-82.66377803049198
6.302621696,1.0004091909560653,-82.81659018983127
6.30561792,1.0004215707783397,-82.96983430053362
6.308614144,1.0004072265732138,-83.12305440203099
6.311610368,1.0003672294663517,-83.27594627800502
6.314606592,1.0003040558390999,-83.42807415919992
6.317602816,1.0002213037959142,-83.57915134040486
6.32059904,1.0001243229082803,-83.72901084729634
6.323595264,1.0000195465837691,-83.87743159837693
6.326592,0.9999126918365482,-84.02429687460386
6.329588224,0.9998110432180911,-84.16970561345455
6.332584448,0.9997208562913218,-84.31373537551573
6.335580672,0.9996476389681922,-84.45662796577274
6.338576896,0.9995960529016236,-84.59861733977094
6.34157312,0.9995692002095108,-84.7400748638856
6.344569344,0.9995689414177114,-84.88136396126325
6.347565568,0.9995952771175287,-85.0228528546757
6.350561792,0.9996463460129347,-85.16491793628006
6.353558016,0.9997192661893084,-85.30786027988847
6.35655424,0.9998094254580774,-85.45206167522873
6.359550464,0.9999113404936888,-85.59762729320249
6.362546688,1.0000181249199867,-85.74470341270522
6.365542912,1.0001236045102855,-85.89332413611564
6.368539136,1.0002210838371275,-86.04347127048926
6.37153536,1.0003045636676762,-86.19494181258612
6.374531584,1.0003686329728898,-86.34745894609856
6.37752832,1.0004093549737738,-86.50077526486082
6.380524544,1.0004242289283276,-86.65448060994126
6.383520768,1.0004124291113436,-86.80826718993993
6.386516992,1.0003743225351007,-86.96170101293728
6.389513216,1.0003127473651865,-87.11443013544792
6.39250944,1.000231183433255,-87.26618189521487
6.395505664,1.0001347718647657,-87.41662867706661
6.398501888,1.0000295041696128,-87.56566025250773
6.401498112,0.9999221792717202,-87.71317520540744
6.404494336,0.9998191399773491,-87.85919307041732
6.40749056,0.9997270536397641,-88.0037933017756
6.410486784,0.9996515351883424,-88.14725400273481
6.413483008,0.9995974739219867,-88.28973723893036
6.416479232,0.999568097680496,-88.43169720504275
6.419475456,0.9995653695652515,-88.57338729284567
6.42247168,0.9995892957948354,-88.71529944751273
6.425468416,0.9996385994590747,-88.85774831802092
6.42846464,0.999710276235934,-89.00103189334112
6.431460864,0.9997995682295554,-89.14552161609504
6.434457088,0.999900973711216,-89.29148338817056
6.437453312,1.0000083788047596,-89.43887408023498
6.440449536,1.0001150443982845,-89.58784469287058
6.44344576,1.000214040335917,-89.73833129351618
6.446441984,1.0002993840608698,-89.89017354911331
6.449438208,1.0003658981823933,-90.04311961270635
6.452434432,1.0004093087758592,-90.196852990598
6.455430656,1.000426597717765,-90.35109540667726
6.45842688,1.0004171664798098,-90.50536974971246
6.461423104,1.0003814294378899,-90.6593524559432
6.464419328,1.000321398870679,-90.81268210492068
6.467415552,1.000241039041525,-90.9649741516929
6.470411776,1.0001451488105866,-91.11605221508104
6.473408,1.000039845041909,-91.26568218646123
6.476404736,0.9999316457123563,-91.41382352712004
6.47940096,0.9998273514600019,-91.5604112961485
6.482397184,0.99973351956982,-91.7056152640477
6.485393408,0.9996557742255417,-91.8495819919938
6.488389632,0.9995991781157993,-91.9925652536569
6.491385856,0.9995671701012342,-92.13500018670699
6.49438208,0.9995619480304042,-92.277140362845
6.497378304,0.999583676573725,-92.41941351326095
6.500374528,0.9996310692429523,-92.56220283361812
6.503370752,0.9997010978040932,-92.7058685950414
6.506366976,0.9997893871960181,-92.85065929437752
6.5093632,0.9998907164957326,-92.99689515040018
6.512359424,0.9999983989774461,-93.14461587416201
6.515355648,1.0001060714815309,-93.29388030320887
6.518351872,1.0002066859481469,-93.44471180712013
6.521348096,1.0002941940600385,-93.59690020162124
6.52434432,1.0003630294315704,-93.7502231568245
6.527341056,1.0004088898349452,-93.9044038620373
6.53033728,1.0004289409659004,-94.05909290703153
6.533333504,1.0004219095384213,-94.21386062559877
6.536329728,1.0003883043845896,-94.3683761699419
6.539325952,1.000330198215794,-94.52223117008303
6.542322176,1.000250949226861,-94.67513274087108
6.5453184,1.0001556511549825,-94.82678304818022
6.548314624,1.000050319780574,-94.977011852029
6.551310848,0.9999415434192483,-95.12572427606199
6.554307072,0.9998358997511547,-95.2728616537909
6.557303296,0.9997401328971169,-95.41861176288116
6.56029952,0.9996601904415382,-95.5631271229626
6.563295744,0.999601089302704,-95.70659073356006
6.566291968,0.9995666100384681,-95.84944444182062
6.569288192,0.999558741731636,-95.99199072242432
6.572284416,0.9995780654420416,-96.13461470281314
6.575281152,0.9996233384938409,-96.27774657833834
6.578277376,0.9996918528886537,-96.4217346735209
6.5812736,0.9997793618832744,-96.5668184763722
6.584269824,0.9998802153035309,-96.71329466439775
6.587266048,0.9999882518041134,-96.86133622263559
6.590262272,1.0000969029502447,-97.01088625354015
6.593258496,1.0001990292833298,-97.1620184994719
6.59625472,1.0002886488352094,-97.31454281451474
6.599250944,1.0003598585338913,-97.46821699527808
6.602247168,1.0004083208420125,-97.62279683482684
6.605243392,1.0004309817075174,-97.77791736878754
6.608239616,1.0004266053997926,-97.93315065937318
6.61123584,1.0003950363729635,-98.08814978859044
6.614232064,1.0003387191687703,-98.2425983609646
6.617228288,1.000260849293884,-98.39602565245421
6.620224512,1.0001662733843923,-98.54823117279534
6.623220736,1.000060964678581,-98.69908567698481
6.626217472,0.9999515331419417,-98.8483214768451
6.629213696,0.9998446022832761,-98.99601630131015
6.63220992,0.9997470460252547,-99.14232740429335
6.635206144,0.9996649080887821,-99.28727593922865
6.638202368,0.9996032299336072,-99.43126151394367
6.641198592,0.999566088762941,-99.57447272523693
6.644194816,0.9995555002231804,-99.71742674739733
6.64719104,0.9995723944133547,-99.86043117258475
6.650187264,0.9996156773157043,-100.00384527310926
6.653183488,0.9996826162612429,-100.14812352163693
6.656179712,0.9997690334309939,-100.29346944754548
6.659175936,0.9998694832253279,-100.44022939727348
6.66217216,0.9999779058294578,-100.5884889608266
6.665168384,1.0000873869374496,-100.7383302230775
6.668164608,1.0001912261450194,-100.889699029538
6.671160832,1.0002828010406912,-101.04253487829646
6.674157056,1.0003564254947739,-101.19656283322709
6.677153792,1.0004074641858178,-101.35147904665304
6.680150016,1.0004329215473404,-101.50701525344407
6.68314624,1.000431138937709,-101.66271627737187
6.686142464,1.0004019681539031,-101.81819871446555
6.689138688,1.0003474411828757,-101.97311202742073
6.692134912,1.0002708360871593,-102.12709683501404
6.695131136,1.0001771338846888,-102.27984017643882
6.69812736,1.0000718889479159,-102.43120574877348
6.701123584,0.9999618370045738,-102.58104962609747
6.704119808,0.999853757499481,-102.72928755740294
6.707116032,0.9997544765247414,-102.87606077767232
6.710112256,0.9996700201200555,-103.02152892345117
6.71310848,0.9996058801759254,-103.16590490959203
6.716104704,0.9995660086071525,-103.30960960750433
6.719100928,0.9995527333001498,-103.45286020969424
6.722097152,0.9995671505998903,-103.59621100258208
6.725093888,0.9996081855974305,-103.7399282267053
6.728090112,0.9996734672219295,-103.8844226170104
6.731086336,0.999758782738205,-104.03006133564926
6.73408256,0.9998588210486609,-104.17700517648142
6.737078784,0.9999675145717781,-104.32550345512406
6.740075008,1.0000778787462605,-104.47556751607911
6.743071232,1.0001830754999477,-104.62721697319422
6.746067456,1.0002767640686963,-104.78031464968761
6.74906368,1.000352710523665,-104.93464949612421
6.752059904,1.0004065241255549,-105.08994219122938
6.755056128,1.0004347342330013,-105.24580921330296
6.758052352,1.0004354905544774,-105.4019258831333
6.761048576,1.0004087262621701,-105.55786491122748
6.7640448,1.0003561856751229,-105.71328198820694
6.767041024,1.0002811288272107,-105.86775080771848
6.770037248,1.0001882054766327,-106.02106194425133
6.773033472,1.0000830200533386,-106.17292947916468
6.776030208,0.9999724914392694,-106.32327041212233
6.779026432,0.9998632156381859,-106.47200977824414
6.782022656,0.9997621205173504,-106.61926590384745
6.78501888,0.9996754222961862,-106.76522641112504
6.788015104,0.9996087442920313,-106.9100274225723
6.791011328,0.9995660926196019,-107.05407739315177
6.794007552,0.9995501020436528,-107.19768842005445
6.797003776,0.9995619422935779,-107.3413504956075
6.8,0.9996008171840751,-107.48534998330413
6.802996224,0.9996642708305458,-107.63007109985703
6.805992448,0.9997483861292372,-107.77591666103645
6.808988672,0.9998479478575228,-107.92308181451813
6.811984896,0.9999567617392335,-108.0717512842243
6.81498112,1.0000679771735765,-108.22203653152341
6.817977344,1.0001747885679038,-108.37389437848881
6.820973568,1.0002703183018313,-108.52726375927861
6.823969792,1.0003487908561877,-108.68182862478697
6.826966528,1.000405258978991,-108.8374361950635
6.829962752,1.000436134808749,-108.99367496877908
6.832958976,1.0004396040524863,-109.15020204801354
6.8359552,1.0004151989418044,-109.30656603914633
6.838951424,1.0003647355576146,-109.46239273909795
6.841947648,1.0002911840446402,-109.61736137415262
6.844943872,1.0001991706257902,-109.77113007398907
6.847940096,1.0000942929648908,-109.92353755075969
6.85093632,0.9999831820452336,-110.07435662678628
6.853932544,0.9998726860602101,-110.22360343262599
6.856928768,0.9997698431994193,-110.37134793944668
6.859924992,0.9996809975986001,-110.51771311809969
6.862921216,0.9996117120735689,-110.66293795065816
6.86591744,0.9995662769869673,-110.80732903344524
6.868913664,0.999547578967735,-110.9512683723702
6.871909888,0.9995567805680304,-111.09518334564831
6.874906112,0.9995933413522964,-111.23941748825722
6.877902848,0.9996549907427318,-111.38438962131221
6.880899072,0.9997379151050869,-111.53041490711821
6.883895296,0.999836911043601,-111.67774977687701
6.88689152,0.9999458380233393,-111.8266044098951
6.889887744,1.0000578252694097,-111.97705565937761
6.892883968,1.0001660443189297,-112.1291064901207
6.895880192,1.0002635799872073,-112.28267949964722
6.898876416,1.0003445344039241,-112.43753146174836
6.90187264,1.0004036598693193,-112.59341205713156
6.904868864,1.0004373328347886,-112.74995847113462
6.907865088,1.0004435142784656,-112.90682407547172
6.910861312,1.0004217732510827,-113.06355785185134
6.913857536,1.0003733728910955,-113.21986028605829
6.91685376,1.0003013298035563,-113.37528382622995
6.919849984,1.0002102235975678,-113.5295443614338
6.922846208,1.000105618478636,-113.68238826232886
6.925842944,0.9999941280199599,-113.8337003602603
6.928839168,0.9998826669251951,-113.98339423065265
6.931835392,0.9997780612058886,-114.1315701267609
6.934831616,0.9996869201435876,-114.27837724206942
6.93782784,0.9996149914069401,-114.42395600723067
6.940824064,0.9995667594690756,-114.56870094948749
6.943820288,0.9995453073855436,-114.7129433252107
6.946816512,0.9995518938832461,-114.85709660909042
6.949812736,0.9995860563557574,-115.00156310039746
6.95280896,0.9996458090357396,-115.14670327352317
6.955805184,0.9997273941972066,-115.29287166845678
6.958801408,0.9998257201473711,-115.4403835063218
6.961797632,0.9999346865388588,-115.58938160205936
6.964793856,1.0000474757207292,-115.7400101445874
6.96779008,1.0001571026784117,-115.89220648897974
6.970786304,1.0002566458819142,-116.04595971832012
6.973782528,1.0003399309561654,-116.20101777381325
6.976779264,1.000401776647633,-116.35713749237762
6.979775488,1.0004383302650872,-116.5139846204918
6.982771712,1.0004472859705518,-116.67117546620332
6.985767936,1.0004280224066258,-116.8283228713578
6.98876416,1.0003818456990619,-116.98496442326619
6.991760384,1.0003115617832925,-117.14080684977597
6.994756608,1.000221457830092,-117.29551715232343
6.997752832,1.00011712086647,-117.44882081470806
7.000749056,1.0000052177400212,-117.60060035564453
7.00374528,0.9998926669316525,-117.75074900302762
7.006741504,0.9997863136857592,-117.89934676660546
7.009737728,0.9996930056939739,-118.04649711752091
7.012733952,0.9996186175068528,-118.19244638739472
7.015730176,0.9995675928285932,-118.33751819914735
7.0187264,0.999543139420765,-118.48205456811219
7.021722624,0.9995470281195019,-118.62640954126914
7.024718848,0.9995786693141752,-118.77108065620875
7.027715584,0.9996365097010822,-118.91639996449318
7.030711808,0.9997167663829082,-119.06268916944741
7.033708032,0.9998143919706369,-119.21031830641897
7.036704256,0.999923394793714,-119.35941065725858
7.03970048,1.0000368226632823,-119.51012492246225
7.042696704,1.0001477516478265,-119.66247864609926
7.045692928,1.00024932042817,-119.81637570780704
7.048689152,1.0003350663117503,-119.97162202842424
7.051685376,1.0003997121419599,-120.12797143107882
7.0546816,1.0004390040866635,-120.28507634935828
7.057677824,1.0004508974899793,-120.4425511552775
7.060674048,1.000434240937638,-120.60003834264396
7.063670272,1.0003902839958465,-120.75706515454833
7.066666496,1.0003216950478215,-120.91330905897223
7.06966272,1.0002326432045303,-121.06841562341197
7.072658944,1.0001288169071922,-121.22218407626367
7.07565568,1.0000165861254693,-121.37435278384181
7.078651904,0.9999029391751302,-121.52490103334658
7.081648128,0.9997951064183275,-121.67389149361021
7.084644352,0.9996995266326187,-121.82143125007168
7.087640576,0.9996224635114767,-121.96768303483707
7.0906368,0.9995685580552717,-122.11304704660988
7.093633024,0.9995413652912574,-122.25780932719273
7.096629248,0.999542371639964,-122.40243226418723
7.099625472,0.9995717116133951,-122.54722317044553
7.102621696,0.9996274487225335,-122.69268516573227
7.10561792,0.9997062433432481,-122.83908888068235
7.108614144,0.9998031033296506,-122.986782261177
7.111610368,0.9999119825231249,-123.13598651006792
7.114606592,1.0000261343831498,-123.28678673705187
7.117602816,1.000138387947698,-123.43922744985801
7.12059904,1.0002418852118757,-123.59321082154462
7.123595264,1.0003300495218062,-123.74863204037445
7.126592,1.0003973144809473,-123.90519060496655
7.129588224,1.0004396664858337,-124.06249450948405
7.132584448,1.0004543416544678,-124.22027216424966
7.135580672,1.000440421005785,-124.37800165187313
7.138576896,1.0003986881089817,-124.53542621139658
7.14157312,1.000331972178612,-124.69200609647719
7.144569344,1.0002440538122002,-124.84751939720798
7.147565568,1.0001406779712492,-125.00167361157075
7.150561792,1.0000281405072973,-125.15426910363783
7.153558016,0.9999135321719844,-125.30521073227023
7.15655424,0.9998039994817491,-125.45459309856875
7.159550464,0.9997063811347531,-125.60242752342572
7.162546688,0.999626610404979,-125.74901142193856
7.165542912,0.999569886678507,-125.89464631474505
7.168539136,0.9995396634087228,-126.03963412708673
7.17153536,0.9995379431084424,-126.1844057485033
7.174531584,0.9995647023295274,-126.32934811820205
7.17752832,0.9996183949104454,-126.47490284464229
7.180524544,0.9996956181268571,-126.62142023243868
7.183520768,0.9997915465475582,-126.76914974394273
7.186516992,0.9999003176231412,-126.91838589986008
7.189513216,1.0000151138481501,-127.06926484173592
7.19250944,1.0001287098527507,-127.22175274667572
7.195505664,1.0002340629737274,-127.37586797822517
