freq,mag,phase
6.0,1.0004656044277547,164.4133308888724
6.002286592,1.000606526083279,164.2495201588507
6.004572672,1.0007087596995095,164.08392899664696
6.006859264,1.00076634579712,163.91718390061817
6.009145344,1.000775393547228,163.7499754448863
6.011431936,1.0007357194571247,163.5829797684169
6.013718016,1.0006494733084816,163.41691156914092
6.016004608,1.0005221706848793,163.252387537778
6.018290688,1.000361874846033,163.08993605457727
6.02057728,1.0001787224712289,162.9299762479076
6.022863872,0.9999843161778255,162.77277600270446
6.025149952,0.9997906608395706,162.6183918166301
6.027436544,0.9996101138176623,162.4667097615707
6.029722624,0.9994542810073815,162.31747098563937
6.032009216,0.9993329274297473,162.17026981709162
6.034295296,0.9992536868435613,162.02454258100173
6.036581888,0.999221646802462,161.87961152255397
6.03886848,0.9992387842511157,161.73479614848296
6.04115456,0.9993041065140199,161.58936530188214
6.043441152,0.9994134687151985,161.4426973781603
6.045727232,0.9995598710969326,161.29417077070852
6.048013824,0.9997341206800152,161.14331554514916
6.050299904,0.999925392250284,160.9898178957713
6.052586496,1.0001213728777636,160.8334787206366
6.054872576,1.0003095785798852,160.67440542050397
6.057159168,1.000478550481699,160.5126928821595
6.05944576,1.0006171766937246,160.34875621886377
6.06173184,1.0007169469529873,160.18313037020317
6.064018432,1.0007713430421499,160.01637306788524
6.066304512,1.0007771881139034,159.8491915162023
6.068591104,1.0007341010025406,159.68225827016866
6.070877184,1.0006445198537481,159.51627985892608
6.073163776,1.0005142476827662,159.35193484551212
6.075450368,1.0003514200691606,159.1896880141657
6.077736448,1.000166253083043,159.02997194330348
6.08002304,0.999970787921297,158.87301974023472
6.08230912,0.9997768880195178,158.71889537378823
6.084595712,0.9995970588043827,158.56751974251986
6.086881792,0.9994427016831473,158.41853847518507
6.089168384,0.9993235169703828,158.27156309503286
6.091454464,0.9992469818395808,158.12601566033592
6.093741056,0.9992181279339251,157.98124634821903
6.096027648,0.999238769502933,157.8365337763374
6.098313728,0.9993075397795335,157.6911610232346
6.10060032,0.9994200605176529,157.54450637213677
6.1028864,0.9995694058443766,157.39592142555924
6.105172992,0.9997458777903332,157.2449997067274
6.107459072,0.9999384758219261,157.091394249235
6.109745664,1.0001350596971552,156.9349671799184
6.112032256,1.0003231270309674,156.77574730375537
6.114318336,1.0004909228478471,156.6139317543991
6.116604928,1.0006277422532777,156.44994318112745
6.118891008,1.0007249962905707,156.2842666238239
6.1211776,1.0007764171080786,156.1174811887168
6.12346368,1.0007788887412665,155.9503195331766
6.125750272,1.0007322570971022,155.78348175889158
6.128036352,1.00063930594345,155.61765057083798
6.130322944,1.000506022658407,155.4534614790732
6.132609536,1.0003406914611557,155.29143253823435
6.134895616,1.0001538755016053,155.13199687755383
6.137182208,0.9999571223936697,154.97533529095912
6.139468288,0.9997631078248682,154.82147118302018
6.14175488,0.9995838177218401,154.67036801405402
6.14404096,0.9994310484555908,154.5216634367275
6.146327552,0.9993140995911843,154.37492156470822
6.148614144,0.9992404288418641,154.22957848066127
6.150900224,0.9992148717907094,154.08497350120535
6.153186816,0.9992389036296194,153.94035852446748
6.155472896,0.9993111025411734,153.7950607969839
6.157759488,0.9994269300002336,153.64841999117496
6.160045568,0.9995789173104217,153.49981821293022
6.16233216,0.9997576682466754,153.34882158446266
6.16461824,0.9999518501072377,153.19512969266202
6.166904832,1.0001489086044069,153.03859542502647
6.169191424,1.0003367857798953,152.87925961857815
6.171477504,1.0005033768442253,152.71736887769507
6.173764096,1.000638234360714,152.5532850216795
6.176050176,1.0007329416215793,152.38755225261113
6.178336768,1.000781335784566,152.22077391906228
6.180622848,1.000780441690691,152.05366473230097
6.18290944,1.0007302430507816,151.8869374171095
6.18519552,1.0006339972494218,151.72126489435095
6.187482112,1.000497675816389,151.55727922061467
6.189768704,1.000329868126426,151.39549286253495
6.192054784,1.0001411448117135,151.23628560209022
6.194341376,0.9999435523795839,151.07989852820836
6.196627456,0.9997492721391317,150.92638702269352
6.198914048,0.9995709296065911,150.77555835336653
6.201200128,0.9994195617592936,150.62712164329614
6.20348672,0.9993048996722171,150.480618259643
6.205773312,0.9992341494225458,150.33550552006105
6.208059392,0.9992118037039674,150.1910516180006
6.210345984,0.9992393921926016,150.04658855074678
6.212632064,0.9993150043237911,149.90134476940145
6.214918656,0.9994341078978044,149.75471086698957
6.217204736,0.999588865047608,149.60608522165282
6.219491328,0.9997697190187003,149.45504026449075
6.221777408,0.999965130563998,149.30123578622027
6.224064,1.0001629667640333,149.1446084334504
6.226350592,1.0003503873723647,148.9852096208833
6.228636672,1.0005158182935605,148.82322600197227
6.230923264,1.0006487830297266,148.65907133226887
6.233209344,1.000740723070503,148.49331787775475
6.235495936,1.0007859835611317,148.32656993020368
6.237782016,1.0007816846837887,148.15952251128155
6.240068608,1.0007279810276786,147.99287358630048
6.2423552,1.0006283299308565,147.82737298123735
6.24464128,1.0004889405606732,147.66359992572424
6.246927872,1.0003186543782394,147.5020565833869
6.249213952,1.0001282692936593,147.34315671401347
6.251500544,0.9999296096030835,147.18705358605288
6.253786624,0.9997353075980195,147.03385368481912
6.256073216,0.9995577382027213,146.88331147855345
6.258359296,0.9994080530461877,146.7351692823586
6.260645888,0.9992957842068495,146.5889486092222
6.26293248,0.9992279701746302,146.4440531367507
6.26521856,0.9992090971375805,146.29975553467594
6.267505152,0.9992400913758166,146.1554070438987
6.269791232,0.9993192436657692,146.0102572610297
6.272077824,0.9994413464209584,145.8636492937689
6.274363904,0.9995989131322094,145.715028525374
6.276650496,0.9997819489348398,145.56391612977217
6.278937088,0.9999787215813734,145.41005835457207
6.281223168,1.0001770999592248,145.25332199298947
6.28350976,1.0003641338848805,145.09381530049833
6.28579584,1.000528297581544,144.93175829499216
6.288082432,1.0006591498890651,144.76757962944822
6.290368512,1.000748485928691,144.60179047616745
6.292655104,1.000790505750369,144.43508237511483
6.294941184,1.0007827563622367,144.26809278183683
6.297227776,1.0007255199601406,144.10159721782424
6.299514368,1.0006225136090576,143.93625129717694
6.301800448,1.0004802619394562,143.77269740767358
6.30408704,1.0003074144500328,143.61141940468823
6.30637312,1.0001152707717584,143.45279876534698
6.308659712,0.9999157415441217,143.297006861522
6.310945792,0.9997214377446306,143.14410472753198
6.313232384,0.9995446664243591,142.99391727826344
6.315518464,0.9993967551478777,142.84606513650692
6.317805056,0.9992867670768139,142.7001030641562
6.320091648,0.9992218879831648,142.55542267812177
6.322377728,0.9992063694464107,142.41133234788995
6.32466432,0.9992407903418511,142.2671168402567
6.3269504,0.9993234837101084,142.12206374434072
6.329236992,0.999448994497509,141.97547539412005
6.331523072,0.9996092464674909,141.82681887556865
6.333809664,0.9997943430530235,141.6756965252531
6.336096256,0.9999924875655326,141.52175473059586
6.338382336,1.000191224618425,141.36493170406945
6.340668928,1.0003778587598688,141.2053780107267
6.342955008,1.0005406481676096,141.04325895517871
6.3452416,1.0006694239629417,140.87900852004776
6.34752768,1.00075598102653,140.71320642620032
6.349814272,1.000794924779812,140.54652875439598
6.352100352,1.0007835535759944,140.3796443528707
6.354386944,1.0007228741069332,140.2132702927296
6.356673536,1.0006163925873635,140.04814022705852
6.358959616,1.0004710853185683,139.88480828271543
6.361246208,1.0002958383275706,139.7237977045
6.363532288,1.000101983615961,139.56549344965526
6.36581888,0.9999015520934607,139.41004277477768
6.36810496,0.9997071984447619,139.25747939377675
6.370391552,0.9995313364624426,139.10758426632418
6.372678144,0.9993851159577207,138.96003932677695
6.374964224,0.9992777821112533,138.8143657893156
6.377250816,0.9992159575621271,138.6699301811015
6.379536896,0.9992037178295339,138.5260222280109
6.381823488,0.9992418300889297,138.3819599732058
6.384109568,0.9993280533741549,138.2369705092977
6.38639616,0.9994567536767266,138.09042894622985
6.38868224,0.9996197961874562,137.94180252516088
6.390968832,0.999806987461739,137.79059425126852
6.393255424,1.0000062953849043,137.63662102227508
6.395541504,1.000205466548749,137.4797343625467
6.397828096,1.0003915894353466,137.32004794960108
6.400114176,1.0005531040522373,137.15788369101367
6.402400768,1.000679793400622,136.99363947580275
6.404686848,1.0007635514080047,136.82784660405736
6.40697344,1.0007991522144786,136.6611822506083
6.409260032,1.000784304583112,136.49440192777223
6.411546112,1.0007199107568678,136.32820195136273
6.413832704,1.0006101280697015,136.16323451375104
6.416118784,1.0004617638298525,136.00015718121313
6.418405376,1.00028418784412,135.8394494625392
6.420691456,1.0000886287659134,135.68144910580415
6.422978048,0.9998873662284536,135.52633442672303
6.425264128,0.999693178317704,135.3740959282605
6.42755072,0.999518251006148,135.2245678163553
6.429837312,0.9993737484138122,135.07734738002566
6.432123392,0.9992688501368514,134.93193393153473
6.434409984,0.9992101804117732,134.7877319384015
6.436696064,0.9992015316680325,134.64405154343126
6.438982656,0.9992431714428913,134.5000798064006
6.441268736,0.9993328570716065,134.35521506129083
6.443555328,0.9994648165251648,134.208733474521
6.44584192,0.9996304938909196,134.0600845912644
6.448128,0.9998197428297374,133.9088687768901
6.450414592,1.000020377153093,133.75482556415878
6.452700672,1.0002198461922276,133.5978847747393
6.454987264,1.000405408665833,133.43814911400602
6.457273344,1.0005655142965972,133.27591043371328
6.459559936,1.0006898062644747,133.11163346248992
6.461846016,1.0007708661474535,132.94585641764738
6.464132608,1.0008030880830225,132.77926588661637
6.4664192,1.000784780600872,132.61259499386654
6.46870528,1.0007168294517448,132.4465391282029
6.470991872,1.0006036618020324,132.2817779930854
6.473277952,1.0004522020204496,132.1189734242248
6.475564544,1.00027228487543,131.95856255123783
6.477850624,1.000075093701166,131.8009071588696
6.480137216,0.9998730878837423,131.64613937783335
6.482423296,0.9996789628023345,131.49424059968226
6.484709888,0.9995050919301991,131.3450438241934
6.48699648,0.999362523001766,131.19814424065794
6.48928256,0.9992601714391667,131.05304949256364
6.491569152,0.9992046094675757,130.90908984924653
6.493855232,0.9991993744908436,130.76558796602623
6.496141824,0.9992447557530113,130.62179541136427
6.498427904,0.9993379732787805,130.47701744429995
6.500714496,0.9994730543878967,130.33057174423269
6.503001088,0.9996415067768669,130.18193254783145
6.505287168,0.9998327336592876,130.03068484847668
6.50757376,1.0000346383726086,129.8765815452358
6.50985984,1.0002344180465166,129.7195777490404
6.512146432,1.000419280966895,129.5598023054165
6.514432512,1.000577886740246,129.39753166013207
6.516719104,1.0007000716097763,129.23322809226062
6.519005184,1.0007780102865877,129.0674797388365
6.521291776,1.0008069778891513,128.90096134125122
6.523578368,1.000784933145953,128.7343982034181
6.525864448,1.0007134267732554,128.56853106100525
6.52815104,1.0005967418685795,128.40399720385648
6.53043712,1.000442410400662,128.24144571423105
6.532723712,1.000260056831716,128.08134503033298
6.535009792,1.000061322052167,127.92404201688075
6.537296384,0.9998585577310014,127.76961964590554
6.539582976,0.9996646468590445,127.61808030227566
6.541869056,0.9994919185833689,127.46923501595286
6.544155648,0.9993512117615526,127.32268522312361
6.546441728,0.9992514699521182,127.17784946827709
6.54872832,0.999199216990553,127.03415748687901
6.5510144,0.9991974904361742,126.89087633247183
6.553300992,0.9992466464792052,126.74722441386369
6.555587072,0.9993433424622505,126.60255417578833
6.557873664,0.9994816788772051,126.45614715884504
6.560160256,0.9996528261897991,126.30755106133027
6.562446336,0.9998461082129115,126.15626732456714
6.564732928,1.0000490262236852,126.00211645139012
6.567019008,1.0002491107146716,125.84506788873648
6.5693056,1.0004334004099784,125.68523007603024
6.57159168,1.000590437106496,125.52290077230192
6.573878272,1.0007101376889096,125.35860869882033
6.576164864,1.0007851692200223,125.19289358164006
6.578450944,1.0008107142010836,125.02643853032566
6.580737536,1.0007849859429578,124.86000451224155
6.583023616,1.0007098446186946,124.69430011436135
6.585310208,1.0005897677227777,124.53004265158611
6.587596288,1.000432405249161,124.36776525345603
6.58988288,1.000247713693065,124.20799138455814
6.59216896,1.0000473910967072,124.05099916146281
6.594455552,0.9998439070759043,123.89696084567753
6.596742144,0.9996502638259167,123.74580944194999
6.599028224,0.9994787451174295,123.59729240982767
6.601314816,0.9993400093376623,123.45105572071682
6.603600896,0.9992429712150255,123.3065617537793
6.605887488,0.9991939899201732,123.16313199934935
6.608173568,0.9991958506586309,123.02005363734837
6.61046016,0.9992485334950284,122.8765693300535
6.612746752,0.999348954622766,122.73200325695025
6.615032832,0.9994906275434858,122.58568580608484
6.617319424,0.99966437214076,122.43704692061701
6.619605504,0.9998595852752127,122.28576935083186
6.621892096,1.0000636720074467,122.13157981559236
6.624178176,1.000263759994395,121.9744632276701
6.626464768,1.0004473125463458,121.81458162726948
6.628750848,1.0006027045657102,121.652260037428
6.63103744,1.000720176120379,121.48795586706414
6.633324032,1.0007920922069,121.3222619261797
6.635610112,1.0008141930791936,121.15591150348558
6.637896704,1.0007848184392247,120.98961175553178
6.640182784,1.000705962886907,120.82411372875957
6.642469376,1.000582533975872,120.6600581373077
6.644755456,1.0004221901979888,120.49810733012573
6.647042048,1.0002351732403332,120.33864078763132
6.649328128,1.000033212154642,120.18202896902042
6.65161472,0.9998292098068755,120.0283568659495
6.653901312,0.9996357886301018,119.87758087678559
6.656187392,0.9994654548379975,119.72943126358409
6.658473984,0.9993287788986575,119.5835549462728
6.660760064,0.9992346475902817,119.4393708154454
6.663046656,0.9991889116960619,119.29619768534252
6.665332736,0.9991943703151958,119.1533257768525
6.667619328,0.9992509122649017,119.01000070421198
6.66990592,0.9993548020598987,118.8655304591841
6.672192,0.9994996039205016,118.71924585768885
6.674478592,0.9996761918488971,118.57067144268086
6.676764672,0.9998731853116576,118.41935126486831
6.679051264,1.0000783857804652,118.2651516323931
6.681337344,1.0002786788708262,118.10798187639917
6.683623936,1.0004614101484257,117.94804477398306
6.685910016,1.000615088361749,117.7857009791838
6.688196608,1.0007300376241535,117.62139102789754
6.6904832,1.0007989439957612,117.45577356324662
6.69276928,1.0008174535491827,117.2895025173095
6.695055872,1.0007844361155012,117.12337929317421
6.697341952,1.0007017635846793,116.95804917213124
6.699628544,1.0005748222884683,116.79427728005555
6.701914624,1.0004116124582205,116.63260843511138
6.704201216,1.0002223097445335,116.47350361378427
6.706487808,1.0000189113241862,116.31723611442557
6.708773888,0.999814263375827,116.16395940832749
6.71106048,0.9996212120912854,116.01354948142242
6.71334656,0.9994520913465063,115.8658101146915
6.715633152,0.9993176826418874,115.72027557425889
6.717919232,0.9992263072347389,115.57636254766953
6.720205824,0.9991838510240734,115.43347991201735
6.722491904,0.9991930898452821,115.29084126868509
6.724778496,0.9992533595068696,115.147674999961
6.727065088,0.9993609920478045,115.00330844630948
6.729351168,0.9995089365809421,114.85711337584094
6.73163776,0.9996881548614939,114.70852305242549
6.73392384,0.999887020284684,114.55721139365627
6.736210432,1.0000932871730641,114.40295741393166
6.738496512,1.0002936470920993,114.2457487723267
6.740783104,1.0004754709763604,114.08579241659736
6.743069696,1.0006274811654732,113.92342328081955
6.745355776,1.0007398311115945,113.75911148515773
6.747642368,1.0008055959265143,113.59354431204522
6.749928448,1.0008205334251763,113.42739888313486
6.75221504,1.000783656625975,113.26141234248507
6.75450112,1.000697399873643,113.0963137431526
6.756787712,1.000567042340922,112.93278388699152
6.759073792,1.000400821971644,112.77141855372261
6.761360384,1.000209204139002,112.61267137405554
6.763646976,1.0000043664669025,112.4567965123883
6.765933056,0.9997991287616422,112.30389995170133
6.768219648,0.999606597758949,112.15389332487315
6.770505728,0.9994388862643203,112.00652430247729
6.77279232,0.9993065955463287,111.86135131878635
6.7750784,0.9992181683674408,111.71777256921494
6.777364992,0.9991791167421509,111.57514003443147
6.779651584,0.9991920797719451,111.43270868572507
6.781937664,0.9992561428249396,111.28972925243313
6.784224256,0.9993672512638212,111.14548816968012
6.786510336,0.9995185981221927,110.99932619728149
6.788796928,0.9997003816957224,110.85075494781786
6.791083008,0.9999011129357963,110.69944549461626
6.7933696,1.000108307191243,110.54515279589597
6.79565568,1.0003086936972536,110.38790634495503
6.797942272,1.0004897718471562,110.22790553210754
6.800228864,1.0006397935802946,110.06553374510818
6.802514944,1.0007496263846736,109.90126999329483
6.804801536,1.0008122074193815,109.73573966025532
6.807087616,1.0008234714850426,109.56970928149494
6.809374208,1.0007827644889162,109.40389573567886
6.811660288,1.0006926674545957,109.23901120344134
6.81394688,1.000558831963732,109.07578038158476
6.81623296,1.0003897407696933,108.91472429431307
6.818519552,1.000195902441968,108.75633615016845
6.820806144,0.999989680059533,108.60082695821467
6.823092224,0.9997839396715799,108.44832470579848
6.825378816,0.9995918332917983,108.2987241027114
6.827664896,0.9994255856890032,108.15173878964443
6.829951488,0.9992955506725159,108.00692570522799
6.832237568,0.9992100590248548,107.86366172891807
6.83452416,0.9991745436455965,107.72130419399879
6.836810752,0.9991912830930163,107.5790968873585
6.839096832,0.9992591707274017,107.43629269824082
6.841383424,0.9993739587808765,107.29215073285319
6.843669504,0.9995284801063977,107.14606808715422
6.845956096,0.9997128501970857,106.9975272942596
6.848242176,0.9999154916083502,106.84618498092631
6.850528768,1.0001235078275108,106.69187739171426
6.852814848,1.0003238912184855,106.53459582284123
6.85510144,1.0005038890666318,106.37456457611817
6.857388032,1.0006521417285736,106.21215847066988
6.859674112,1.0007592481074918,106.04791318962948
6.861960704,1.0008184673982443,105.88247736896496
6.864246784,1.0008262229126716,105.71656022312226
6.866533376,1.0007816773277942,105.5509144240019
6.868819456,1.0006877898183393,105.38626533501372
6.871106048,1.0005504356765582,105.22329655827805
6.87339264,1.0003784055796352,105.06258388774657
6.87567872,1.0001823463161956,104.90454896791532
6.877965312,0.999974734176025,104.74944570187007
6.880251392,0.9997685944287127,104.59735455341351
6.882537984,0.9995771532635003,104.44815028039757
6.884824064,0.9994123501881084,104.30155744754876
6.887110656,0.9992846088663996,104.1571034892058
6.889396736,0.9992021806544782,104.01416870339072
6.891683328,0.9991701998199244,103.87210055576327
6.89396992,0.9991906992790299,103.73009890224749
6.896256,0.9992624687274266,103.58744944859743
6.898542592,0.999381018330805,103.4434438206948
6.900828672,0.9995386861524731,103.29741815484472
6.903115264,0.9997257027755325,103.14889352992049
6.905401344,0.999930078198623,102.9975252229904
6.907687936,1.000138995619857,102.8431967886032
6.909974528,1.000339215010119,102.68588609137504
6.912260608,1.0005181200801703,102.52583006438752
6.9145472,1.000664404458751,102.36343395555062
6.91683328,1.000768864156534,102.19920321452162
6.919119872,1.000824759947378,102.03385027116708
6.921405952,1.0008286012118177,101.86804427009365
6.923692544,1.0007801722247094,101.70258728407897
