freq,mag,phase
6.0,0.9994195485017406,24.13061559479051
6.003608576,0.9994173134368513,24.041156138043796
6.007217152,0.9994505470404881,23.951464752455898
6.010825216,0.9995176001966779,23.861081243454848
6.014433792,0.9996141722926293,23.769506893757434
6.018042368,0.9997344257308381,23.67633965748737
6.021650944,0.9998707735262188,23.581332474566825
6.02525952,1.000014840590947,23.48425611970034
6.028867584,1.0001577314500507,23.385157994557538
6.03247616,1.0002907097626008,23.284094697679983
6.036084736,1.0004054580021633,23.18122762979527
6.039693312,1.0004949488826251,23.076916339179885
6.043301888,1.0005535015581326,22.971503711953275
6.046910464,1.0005775853296122,22.865504765196278
6.050518528,1.0005657899490117,22.759378404532956
6.054127104,1.000518785109001,22.65368153661459
6.05773568,1.0004394146038584,22.54887187777508
6.061344256,1.0003325563778624,22.445412673825118
6.064952832,1.0002047297244798,22.343602243981973
6.068560896,1.0000639908505085,22.243745695529203
6.072169472,0.9999190551779529,22.14590508783982
6.075778048,0.9997786181098224,22.05008008302781
6.079386624,0.9996515861553027,21.956211808008007
6.0829952,0.9995457649782463,21.864012475692547
6.086603264,0.9994677015658895,21.773094069985735
6.09021184,0.9994222393544556,21.683068222835
6.093820416,0.9994122464216857,21.59345056919509
6.097428992,0.9994382388262792,21.503677937168646
6.101037568,0.9994987644919205,21.413321126432017
6.104646144,0.9995900654214938,21.321849235335765
6.108254208,0.999706404783031,21.228872872489585
6.111862784,0.9998406228170823,21.134095698446362
6.11547136,0.9999844759378975,21.03728029851864
6.119079936,1.0001291436139024,20.938439137551892
6.122688512,1.0002655189616771,20.837547312430782
6.126296576,1.0003851959171746,20.734825756785828
6.129905152,1.0004809030446657,20.63053231460015
6.133513728,1.000546732320617,20.525066508062107
6.137122304,1.0005784107330222,20.418898349086188
6.14073088,1.0005740741341376,20.31254352316321
6.144338944,1.0005341622569324,20.206490501473453
6.14794752,1.0004608585944503,20.101222870562502
6.151556096,1.0003587895726427,19.997200434237087
6.155164672,1.000234180627675,19.894816475521758
6.158773248,1.0000948361852158,19.794342995988934
6.162381824,0.9999492291843063,19.69586341321377
6.165989888,0.9998065134969423,19.59946333162104
6.169598464,0.9996752635667596,19.50500622304197
6.17320704,0.9995639980134468,19.412264186893857
6.176815616,0.9994791598793961,19.32096763247193
6.180424192,0.9994263229145889,19.230628219222133
6.184032256,0.999408638579068,19.14080864344274
6.187640832,0.9994272447914131,19.050981463113875
6.191249408,0.9994810372827694,18.960614386131613
6.194857984,0.9995665993584433,18.869199715057988
6.19846656,0.999678765093164,18.776433638618634
6.202074624,0.999810620769395,18.68184701689452
6.2056832,0.9999537532209081,18.58534623224753
6.209291776,1.0000996767150243,18.486679649610352
6.212900352,1.0002392180780635,18.38597680272554
6.216508928,1.0003636992777654,18.2834077186979
6.220117504,1.0004654767633667,18.17917989229614
6.223725568,1.0005382655830226,18.07369587180814
6.227334144,1.0005775616104473,17.96740190987804
6.23094272,1.000580894460758,17.860802091118867
6.234551296,1.0005481416193118,17.75439448736017
6.238159872,1.000481185821659,17.64868960205657
6.241767936,1.0003842875374538,17.544188741753484
6.245376512,1.0002632735971873,17.4411799651476
6.248985088,1.0001256403255006,17.34007207656441
6.252593664,0.9999799530678524,17.240953554297857
6.25620224,0.9998352384029592,17.14389926583022
6.259810304,0.9997002871605134,17.048886332104058
6.26341888,0.9995835090607467,16.95564654846476
6.267027456,0.9994921704693831,16.86389220140111
6.270636032,0.9994320089132003,16.773241846480374
6.274244608,0.999406668503784,16.683168848411448
6.277853184,0.9994177034285814,16.593212933649557
6.281461248,0.9994644964893067,16.502845196006227
6.285069824,0.9995441633131802,16.411531408880844
6.2886784,0.9996517999954179,16.318876528908593
6.292286976,0.9997806782225692,16.22453127344609
6.295895552,0.9999229136600295,16.128226283865583
6.299503616,1.0000697770888536,16.029847852678543
6.303112192,1.000212032878037,15.929323040504725
6.306720768,1.0003409459635717,15.826911468568612
6.310329344,1.000448568899925,15.722783025475369
6.31393792,1.0005282827464437,15.617303926018476
6.317545984,1.0005752033572266,15.510872684302942
6.32115456,1.0005862094265512,15.404056838019857
6.324763136,1.00056080957012,15.29732876254742
6.328371712,1.0005005223598502,15.191193858605892
6.331980288,1.000409030614897,15.086146930920524
6.335588864,1.000291940712018,14.982555282722386
6.339196928,1.0001564834110024,14.880816526945496
6.342805504,1.0000110407997866,14.78106985041839
6.34641408,0.9998645940034094,14.68337646327109
6.350022656,0.9997261363322093,14.587723313942725
6.353631232,0.9996043229626846,14.493969993703828
6.357239296,0.9995067317020156,14.401734252578734
6.360847872,0.9994392163072003,14.310736247526634
6.364456448,0.9994061886605645,14.220433886322144
6.368065024,0.9994096279367646,14.130292486726878
6.3716736,0.9994491803324282,14.039933840849125
6.375281664,0.9995226202915303,13.948651372910987
6.37889024,0.9996253405286685,13.856136153900277
6.382498816,0.9997510393880016,13.762031828973809
6.386107392,0.9998918816488095,13.665926450315997
6.389715968,1.0000391586129591,13.567811711527007
6.393324544,1.0001839046892498,13.467540003522897
6.396932608,1.0003170381185886,13.365266472611973
6.400541184,1.0004302678171648,13.261234028859201
6.40414976,1.0005168299179144,13.155732843234828
6.407758336,1.0005712754634954,13.04924742220408
6.411366912,1.000590025068645,12.942222807947404
6.414974976,1.000572264481625,12.835151243288625
6.418583552,1.0005187524396348,12.728614513699727
6.422192128,1.0004330188287291,12.623063950208609
6.425800704,1.0003202326006317,12.518902265077436
6.42940928,1.0001872757950863,12.416485400364367
6.433017344,1.0000425325191076,12.316081571389063
6.43662592,0.9998948096663701,12.217791978061669
6.440234496,0.9997532237370088,12.121529745641228
6.443843072,0.9996265982757018,12.027210845300113
6.447451648,0.9995227506702498,11.934510977867651
6.451060224,0.9994481599829381,11.843081361058893
6.454668288,0.9994073625922156,11.752515177087968
6.458276864,0.9994030363978508,11.662249863748631
6.46188544,0.9994352461881176,11.571775194134732
6.465494016,0.9995022078759386,11.48057534092681
6.469102592,0.9995996451777627,11.388169622993424
6.472710656,0.9997217498492338,11.294248471905039
6.476319232,0.9998607844497763,11.198335659277644
6.479927808,1.0000082333858598,11.100435157996767
6.483536384,1.0001549216823578,11.00038812070308
6.48714496,1.000291849324946,10.898293815091876
6.490753024,1.0004106358099734,10.794381547704843
6.4943616,1.0005037241750687,10.688913667351141
6.497970176,1.0005656534854015,10.582373610592034
6.501578752,1.000592307420088,10.475170827317351
6.505187328,1.000582141045807,10.367813656171926
6.508795904,1.0005357461475195,10.260855368106618
6.512403968,1.0004560454316833,10.154805031481137
6.516012544,1.000347878746242,10.050070795868525
6.51962112,1.0002179311364634,9.947050252927658
6.523229696,1.000074196125166,9.845992944752505
6.526838272,0.9999255893494944,9.747004903776267
6.530446336,0.9997812337168026,9.65012621246869
6.534054912,0.999650084006008,9.555199484374969
6.537663488,0.9995403110328673,9.462021981354914
6.541272064,0.9994586741756311,9.370209090537601
6.54488064,0.9994101628715548,9.279292356016944
6.548488704,0.9993978663063926,9.188818665171599
6.55209728,0.9994225206129471,9.098274908714119
6.555705856,0.9994827967653455,9.007100971692966
6.559314432,0.9995747662173458,8.914821810747528
6.562923008,0.9996928121322666,8.821030372247693
6.566531584,0.9998296032871944,8.725380058896414
6.570139648,0.9999768170403935,8.627700111698312
6.573748224,1.0001252074716926,8.527892215631244
6.5773568,1.0002657174462066,8.425991035439054
6.580965376,1.0003895916349668,8.322216377250463
6.584573952,1.0004892244948724,8.216795952702322
6.588182016,1.0005583963731493,8.110182864830369
6.591790592,1.0005928843562721,8.002781343918626
6.595399168,1.0005905302500384,7.89514729206704
6.599007744,1.0005514742097306,7.787846285237514
6.60261632,1.0004781675942982,7.681256867598025
6.606224384,1.000374962393238,7.57600316101898
6.60983296,1.000248376667038,7.4723271306963355
6.613441536,1.0001060729274267,7.370620927205391
6.617050112,0.9999569110037649,7.270975087128819
6.620658688,0.9998101536081677,7.173424554634948
6.624267264,0.9996748332821831,7.077929554851375
6.627875328,0.9995592375105696,6.98418531808929
6.631483904,0.9994706597439433,6.8919413587590235
6.63509248,0.9994145680655698,6.8006921412613135
6.638701056,0.9993943956879695,6.710025360987966
6.642309632,0.9994114158876392,6.619358712416599
6.645917696,0.9994646608991398,6.528187394860133
6.649526272,0.9995507503386496,6.435970830767874
6.653134848,0.9996643419156878,6.3423299654544
6.656743424,0.9997985981207164,6.2469251456648545
6.660352,0.999945064235287,6.149488289055253
6.663960064,1.0000948479574456,6.049881252614624
6.66756864,1.0002384458242766,5.948207832829891
6.671177216,1.0003672277341984,5.844524906975632
6.674785792,1.0004731626454348,5.739194714339021
6.678394368,1.0005496060132586,5.632536761129956
6.682002944,1.0005919290849075,5.524985413499624
6.685611008,1.000597524557105,5.417106736959414
6.689219584,1.000565925554659,5.309428886776438
6.69282816,1.0004992512490118,5.202381198577395
6.696436736,1.0004013421163305,5.096536709754641
6.700045312,1.0002784130201479,4.992271054098208
6.703653376,1.0001380021420694,4.88987864571144
6.707261952,0.9999887601861431,4.789541789693655
6.710870528,0.9998399717390536,4.691359511007599
6.714479104,0.999700794515227,4.595221820094324
6.71808768,0.999579760393502,4.500989491371347
6.721695744,0.9994843439963078,4.408214497993165
6.72530432,0.999420579587876,4.31667872400588
6.728912896,0.9993924783667189,4.225735236110345
6.732521472,0.9994016666844462,4.1349219773061385
6.736130048,0.9994476855361342,4.043691907999139
6.739738624,0.9995275944134561,3.9515692667418048
6.743346688,0.9996364803222321,3.858081063085049
6.746955264,0.9997677138801667,3.7628742415769962
6.75056384,0.9999130931127166,3.665643617431377
6.754172416,1.000063618388544,3.566299276188942
6.757780992,1.0002101218308057,3.464800221722143
6.761389056,1.000343496135191,3.361326176902734
6.764997632,1.000455453413874,3.256055235741247
6.768606208,1.0005390672114711,3.149356663415965
6.772214784,1.000589307738947,3.0416959856924737
6.77582336,1.0006027785862355,2.9335615878654933
6.779431424,1.0005788842891912,2.825510701685654
6.78304,1.0005190784732072,2.7180701986154667
6.786648576,1.0004268660852633,2.6116588817629083
6.790257152,1.0003080237540527,2.5067744245720895
6.793865728,1.0001699697925839,2.4037193646491977
6.797474304,1.0000210173285045,2.3026807258803887
6.801082368,0.9998704787403687,2.203856776123115
6.804690944,0.9997276848507693,2.1070447396012777
6.80829952,0.9996014477004751,2.012223763818225
6.811908096,0.9994994790294254,1.9190135920878268
6.815516672,0.9994283457090708,1.8270393211184868
6.819124736,0.9993921572021801,1.7358210720158114
6.822733312,0.99939338291235,1.644830252088129
6.826341888,0.9994319557036228,1.553597719769877
6.829950464,0.9995053543245952,1.4615145215514722
6.83355904,0.9996091136818023,1.3681477060023528
6.837167104,0.9997369345689244,1.2731214962743655
6.84077568,0.9998808035892518,1.176136534515702
6.844384256,1.0000319512990903,1.0770111084148681
6.847992832,1.0001807959292295,0.9757470589608631
6.851601408,1.000318500808452,0.8724382364903331
6.855209984,1.0004363543082293,0.7672326891850977
6.858818048,1.0005269931969545,0.6605357418847718
6.862426624,1.000584797479283,0.5527821345126989
6.8660352,1.0006064801942935,0.4444408480427817
6.869643776,1.000590487971949,0.3360522384892249
6.873252352,1.0005376967167245,0.22812618715554642
6.876860416,1.0004515391736404,0.12122767317787955
6.880468992,1.0003371614357939,0.015702030079895516
6.884077568,1.000201689665848,-0.08799718468097466
6.887686144,1.000053523391999,-0.18971323760603767
6.89129472,0.9999018167182884,-0.2892414476841301
6.894902784,0.9997557410922903,-0.38669812938822884
6.89851136,0.9996245343191195,-0.48212031908467395
6.902119936,0.9995162467358356,-0.5758612095685333
6.905728512,0.9994376554214481,-0.6682444740956952
6.909337088,0.9993935936763818,-0.7597825809938636
6.912945664,0.9993867267653931,-0.8509054050316834
6.916553728,0.9994174474952365,-0.9422633573015489
6.920162304,0.9994841930021684,-1.0343116757767135
6.92377088,0.9995826069898279,-1.127553195933124
6.927379456,0.9997065192128913,-1.2224262071831202
6.930988032,0.9998485429201744,-1.3191783662070142
6.934596096,0.9999998218900481,-1.418033053911992
6.938204672,1.000150700345001,-1.5190969042630664
6.941813248,1.000292333865054,-1.6222764166891968
6.945421824,1.000415686816626,-1.7273592836394809
6.9490304,1.0005131329479309,-1.8340338394541418
6.952638464,1.0005788940591291,-1.9418537229195698
6.95624704,1.0006085749252487,-2.0503899945225506
6.959855616,1.0006005753259606,-2.1591080026093112
6.963464192,1.000555115581514,-2.2674495142112296
6.967072768,1.0004753465415313,-2.3748867215987137
6.970681344,1.0003658271418812,-2.481029347318747
6.974289408,1.000233500489719,-2.5853936754985734
6.977897984,1.0000863876314006,-2.687788637762434
6.98150656,0.9999337412444326,-2.7880188189075557
6.985115136,0.9997849577983712,-2.886138946361882
6.988723712,0.99964912700987,-2.9821791986222785
6.992331776,0.9995346774258762,-3.076471664648941
6.995940352,0.9994486817233528,-3.1692584630111926
6.999548928,0.9993966685110631,-3.2611178121780577
7.003157504,0.9993816746249968,-3.3525184106876598
7.00676608,0.9994046899305832,-3.443975243868991
7.010374144,0.9994642555984279,-3.536004293798272
7.01398272,0.999556745639381,-3.6291614120646765
7.017591296,0.999676641436541,-3.723805306896823
7.021199872,0.9998162910012086,-3.820376175408116
7.024808448,0.9999671007805992,-3.919032648134817
7.028417024,1.0001198641006606,-4.0198560655127435
7.032025088,1.0002650165792921,-4.122825542390364
7.035633664,1.0003935959445713,-4.227787344047024
7.03924224,1.0004977776695905,-4.334424602430432
7.042850816,1.0005711266817068,-4.442330967036974
7.046459392,1.0006089165125407,-4.551079398531521
7.050067456,1.0006090526129086,-4.660075137807216
7.053676032,1.0005712451122384,-4.7688271981771555
7.057284608,1.0004979696305172,-4.876737447786025
7.060893184,1.000393786100169,-4.983487695238339
7.06450176,1.0002648763484194,-5.088518455470861
7.068109824,1.0001194725876925,-5.191622935502023
7.0717184,0.9999663740479315,-5.292548433562491
7.075326976,0.9998150625050517,-5.391324016880971
7.078935552,0.9996748326458283,-5.488037382057483
7.082544128,0.9995544707752078,-5.582852478132044
7.086152704,0.9994614213522715,-5.676179585442791
7.089760768,0.9994013145652918,-5.768388841816597
7.093369344,0.9993781579085678,-5.859988939239526
7.09697792,0.999393113792316,-5.951571636901468
7.100586496,0.9994454035938264,-6.043647249745252
7.104195072,0.9995318553497946,-6.136729707425165
7.107803136,0.9996470935743724,-6.231247415726296
7.111411712,0.9997839300912521,-6.327565773462212
7.115020288,0.9999340407132961,-6.4260004441695315
7.118628864,1.0000881148706309,-6.5265953487297885
7.12223744,1.0002364554645564,-6.629380089596208
7.125845504,1.0003701235631357,-6.73419890015532
7.12945408,1.000480741757221,-6.840774447602963
7.133062656,1.0005616559362411,-6.948755767664962
7.136671232,1.0006075521787954,-7.057602221990038
7.140279808,1.0006158674993633,-7.166912016670226
7.143888384,1.000585926903049,-7.276050663820209
7.147496448,1.0005195429575753,-7.38451153315325
7.151105024,1.0004209012507215,-7.491802580576647
7.1547136,1.000296095593782,-7.5975018910321985
7.158322176,1.000152593672797,-7.7012793984779195
7.161930752,0.9999993998715023,-7.802932167646829
7.165538816,0.9998460186513609,-7.902418968767986
7.169147392,0.9997018730144107,-7.999760010944852
7.172755968,0.9995757873729083,-8.095213206732083
7.176364544,0.9994758440242568,-8.189012149181268
7.17997312,0.999407923698153,-8.281623865288795
7.183581184,0.9993762955948493,-8.373521556095714
7.18718976,0.9993832462665614,-8.465228135072028
7.190798336,0.9994279838380338,-8.557333397494519
7.194406912,0.9995079643191731,-8.65033254163818
7.198015488,0.9996181541321771,-8.744761138399689
7.201624064,0.9997518846287571,-8.840863668213121
7.205232128,0.9999008193878338,-8.939081059971064
7.208840704,1.0000556520480681,-9.039422098490656
7.21244928,1.0002069682407464,-9.142009204958217
7.216057856,1.000345397516655,-9.246679595561291
7.219666432,1.0004623067883078,-9.353221716313827
7.223274496,1.000550479371444,-9.461196302283183
7.226883072,1.0006045472235787,-9.570198581438211
7.230491648,1.0006212365406615,-9.679735381031866
7.234100224,1.0005992408946975,-9.789267372970206
7.2377088,1.0005399892922717,-9.898224283067876
7.241316864,1.0004473133988094,-10.006093138677551
7.24492544,1.0003268454237795,-10.112414403584866
7.248534016,1.0001857320135308,-10.21691758960557
7.252142592,1.000033022686059,-10.319308614683488
7.255751168,0.99987787435209,-10.419503131770144
7.259359744,0.9997300870909325,-10.51751983728075
7.262967808,0.9995986827608023,-10.613560178808534
7.266576384,0.9994918614703203,-10.707895902395169
7.27018496,0.9994161965772858,-10.800898499619185
7.273793536,0.9993764023552668,-10.893129736187888
7.277402112,0.9993749308526299,-10.985036549503597
7.281010176,0.9994118751621637,-11.077213113670885
7.284618752,0.9994851160069541,-11.170191320236487
7.288227328,0.9995899953716754,-11.264437441304855
7.291835904,0.9997200253612837,-11.36040161030171
7.29544448,0.9998673023232059,-11.458377949559168
7.299052544,1.0000225860944876,-11.558482483220692
7.30266112,1.0001763892021136,-11.660862308674577
7.306269696,1.000319157065188,-11.765375609307029
7.309878272,1.0004421447217515,-11.871793776510668
7.313486848,1.0005375580988545,-11.97981062009124
7.317095424,1.000599771847018,-12.088964025054352
7.320703488,1.000624745628372,-12.198729833484885
7.324312064,1.000610965108985,-12.308578797919763
7.32792064,1.0005592646473414,-12.418008658266107
7.331529216,1.0004728223477466,-12.526430002463513
7.335137792,1.0003569521283993,-12.63344277490678
7.338745856,1.000218909588028,-12.738622770705687
7.342354432,1.0000668090684413,-12.84174047549342
7.345963008,0.999910464483782,-12.942657335025858
7.349571584,0.9997594329573392,-13.041367088485467
7.35318016,0.9996229146515595,-13.138041672508864
7.356788224,0.9995094923413451,-13.232917102701366
7.3603968,0.9994261900222216,-13.32639023806733
7.364005376,0.9993779912368884,-13.418928139613094
7.367613952,0.9993681060406753,-13.5110575059724
7.371222528,0.99939727132762,-13.603328579355288
7.374831104,0.9994632809911228,-13.696276983306001
7.378439168,0.9995624260753182,-13.790431894825531
7.382047744,0.9996884953881725,-13.886212895257152
7.38565632,0.9998336281835548,-13.983975133899785
7.389264896,0.9999890597363511,-14.083859447406146
7.392873472,1.0001448084386662,-14.186035815616764
7.396481536,1.0002917045290194,-14.290370775987867
7.400090112,1.0004203399085299,-14.396684465878003
7.403698688,1.0005230448258629,-14.504658950803451
7.407307264,1.0005931699429504,-14.613901597042059
7.41091584,1.000626538410941,-14.723888060383361
7.414523904,1.0006211453501916,-14.834100961548923
7.41813248,1.0005770541239194,-14.943966493562893
7.421741056,1.0004973780631523,-15.052972099135738
7.425349632,1.0003865271282775,-15.160578825607946
7.428958208,1.0002516936742711,-15.266467941152847
7.432566784,1.0001010945857294,-15.370319939094163
7.436174848,0.9999438156007757,-15.471999079330383
7.439783424,0.9997898891102217,-15.571423046180271
7.443392,0.9996486858955667,-15.668712912546402
7.447000576,0.9995288321053881,-15.764170793435555
7.450609152,0.9994379114680604,-15.858115209456177
