freq,mag,phase
6.0,1.000004061129402,16.48142585393842
6.008928768,0.9998524809779025,16.236124465277396
6.017857024,0.9997091666562864,15.99276995143157
6.026785792,0.9995816615017394,15.751200053624842
6.035714048,0.9994766544241253,15.511174919233925
6.044642816,0.9993999640213196,15.27235359931055
6.053571584,0.9993555270995012,15.03429313531572
6.06249984,0.9993458291016906,14.796585262654707
6.071428608,0.9993714637129345,14.558801078719679
6.080357376,0.9994309883389132,14.320399403698472
6.089285632,0.9995212917228783,14.081051792304315
6.0982144,0.9996376957959807,13.840253543136749
6.107142656,0.9997738346610949,13.597800717944782
6.116071424,0.9999225171221229,13.35338667130514
6.125000192,1.0000758481560397,13.106997844940073
6.133928448,1.0002256667384704,12.858543709366472
6.142857216,1.0003639983935473,12.608168347348013
6.151785472,1.000483270611044,12.356075265784389
6.16071424,1.0005774614290188,12.102548264390773
6.169643008,1.0006412927549444,11.847892008309525
6.178571264,1.0006713127027667,11.592670159779264
6.187500032,1.0006660776111223,11.337198966236123
6.1964288,1.0006257087061494,11.082103002354541
6.205357056,1.00055233499987,10.82766838393308
6.214285824,1.000449814312909,10.574426320428199
6.22321408,1.0003237016149304,10.322660432963485
6.232142848,1.0001805411411446,10.072676319400907
6.241071616,1.000027949109539,9.824671973930327
6.249999872,0.9998742098133057,9.578628151331236
6.25892864,0.9997273672202355,9.334615982724362
6.267856896,0.9995953318049597,9.092478713929697
6.276785664,0.9994852215440286,8.85186816760965
6.285714432,0.999402706788482,8.61258512202838
6.294642688,0.9993525013929855,8.374203346190185
6.303571456,0.9993370965517538,8.136179575933532
6.312500224,0.9993575051265257,7.898116168061687
6.32142848,0.999412622702028,7.659586340640957
6.330357248,0.999499510658924,7.42009265822375
6.339285504,0.9996135574307035,7.1792081509648495
6.348214272,0.9997486949083,6.936659466428113
6.35714304,0.9998977671061618,6.692239101340012
6.366071296,1.0000528185713224,6.445749460894684
6.375000064,1.0002055126953822,6.197192687006022
6.38392832,1.0003479095274574,5.946679341403389
6.392857088,1.0004721788865691,5.694357579961702
6.401785856,1.0005718423374759,5.440522002653113
6.410714112,1.0006414588950086,5.185567733061382
6.41964288,1.0006773304668897,4.92989216768577
6.428571648,1.0006775525730154,4.673935202813311
6.437499904,1.0006421767832387,4.41818264791485
6.446428672,1.0005729285017828,4.163149548991026
6.455356928,1.0004733707406432,3.909178338211506
6.464285696,1.000348963396581,3.656700897927096
6.473214464,1.000206193542483,3.4060096762771446
6.48214272,1.0000527225601594,3.157229375060828
6.491071488,0.9998967268793016,2.9105097339273795
6.499999744,0.9997463231662554,2.6657678906691964
6.508928512,0.9996097854462386,2.423023873368364
6.51785728,0.9994943247090559,2.1818762617631178
6.526785536,0.9994061777649131,1.9420941342116738
6.535714304,0.9993499381936493,1.703251192364876
6.544643072,0.9993287194965693,1.4649303206890545
6.553571328,0.9993438257760894,1.2266475927555867
6.562500096,0.9993943132877526,0.9878967971337392
6.571428352,0.9994774967959401,0.7482377792495694
6.58035712,0.9995890448041738,0.5072889824111984
6.589285888,0.999723074726368,0.26468059547857187
6.598214144,0.999872388688065,0.020150701111951427
6.607142912,1.0000290258257274,-0.22639237731847048
6.61607168,1.0001847006666746,-0.475048018884546
6.624999936,1.0003309417194979,-0.7257324563094532
6.633928704,1.0004601804836766,-0.9782725520851697
6.64285696,1.0005654683221314,-1.2323841656035777
6.651785728,1.000641041391508,-1.4877033754510751
6.660714496,1.0006829143434368,-1.7438439273121282
6.669642752,1.000688825792937,-2.0003238934816445
6.67857152,1.0006585085574908,-2.256666096444137
6.687499776,1.0005933875382476,-2.5123888964735985
6.696428544,1.0004970902059354,-2.767044531378217
6.705357312,1.0003745321946942,-3.020244333118632
6.714285568,1.0002323356922826,-3.271751872011437
6.723214336,1.0000778587908905,-3.5212988854956713
6.732143104,0.9999196853033373,-3.768706786550508
6.74107136,0.9997658813037557,-4.014139445735822
6.750000128,0.9996249924577589,-4.257575713284773
6.758928384,0.999504142371687,-4.499302152284218
6.767857152,0.9994101198582077,-4.739595400212349
6.77678592,0.9993478361264061,-4.978851698313748
6.785714176,0.9993207047878733,-5.21757499584937
6.794642944,0.9993301554747845,-5.456135267013331
6.8035712,0.9993758440071269,-5.695091738626073
6.812499968,0.9994552679601176,-5.934878502100476
6.821428736,0.999564218761859,-6.175974978583162
6.830356992,0.9996968712098698,-6.418669400385258
6.83928576,0.9998462084213737,-6.663244642866731
6.848214528,1.0000043558217524,-6.909911246739173
6.857142784,1.000162815195829,-7.158653690567672
6.866071552,1.0003131517901152,-7.409519297101723
6.874999808,1.0004473380231635,-7.662294197374926
6.883928576,1.0005582193014464,-7.916687743387453
6.892857344,1.0006398823902656,-8.172395426502634
6.9017856,1.0006878817258693,-8.428978401617385
6.910714368,1.0006997188450333,-8.68599407859905
6.919642624,1.000674667501015,-8.942931036133386
6.928571392,1.0006140252488853,-9.199326630568441
6.93750016,1.0005210618093405,-9.45469820195369
6.946428416,1.0004006424547536,-9.708699791176583
6.955357184,1.0002591152429288,-9.960966581656095
6.964285952,1.0001040141226445,-10.21127036977255
6.973214208,0.9999436667474797,-10.459529862956371
6.982142976,0.9997864586371684,-10.705661202982224
6.991071232,0.9996409567946888,-10.949794176828297
7.0,0.9995148916573813,-11.192112354715933
7.008928768,0.9994149855604976,-11.43295500776069
7.017857024,0.999346446128659,-11.672662032236676
7.026785792,0.9993130872995665,-11.911757711979643
7.035714048,0.9993168923797987,-12.150639599467036
7.044642816,0.9993575204020425,-12.389846074014853
7.053571584,0.999432993741064,-12.629815327799465
7.06249984,0.9995390064325836,-12.87101417652038
7.071428608,0.9996702390651308,-13.113779601528487
7.080357376,0.9998196006885204,-13.35847372808692
7.089285632,0.9999791240421766,-13.605216419871423
7.0982144,1.0001402595178728,-13.854118704518926
7.107142656,1.0002945867260988,-14.105110591125765
7.116071424,1.0004337419095473,-14.358106020461518
7.125000192,1.0005503829567681,-14.612824407591326
7.133928448,1.0006381159754958,-14.868936913389074
7.142857216,1.000692462368095,-15.125973917706474
7.151785472,1.0007102890349326,-15.383537601619143
7.16071424,1.0006907046665734,-15.641098208853824
7.169643008,1.0006348156337899,-15.89818920363948
7.178571264,1.000545352793591,-16.1543257455685
7.187500032,1.0004271942239635,-16.409093080889832
7.1964288,1.0002865376409558,-16.662193981620202
7.205357056,1.0001308200463845,-16.913317244788846
7.214285824,0.9999684210266833,-17.162336148808677
7.22321408,0.9998078793684697,-17.40924233976875
7.232142848,0.9996577601446394,-17.654068488487173
7.241071616,0.99952634131359,-17.897063332264285
7.249999872,0.999420260732202,-18.13849629549056
7.25892864,0.9993454278203937,-18.37870719996382
7.267856896,0.9993059034157712,-18.61817983297298
7.276785664,0.9993037399832646,-18.85736052522594
7.285714432,0.999339202061185,-19.09679326641563
7.294642688,0.9994102940253349,-19.336987090472626
7.303571456,0.9995133484032397,-19.57830131490951
7.312500224,0.9996429499603441,-19.82118592775708
7.32142848,0.9997920515770485,-20.06596740556048
7.330357248,0.9999528755949761,-20.312839948741495
7.339285504,1.0001168401316047,-20.56187266047436
7.348214272,1.000274956395151,-20.813039516691067
7.35714304,1.0004192827341212,-21.066280533762548
7.366071296,1.0005415887720654,-21.321297496482867
7.375000064,1.0006357478459982,-21.57775700745166
7.38392832,1.0006964249864772,-21.835304629678923
7.392857088,1.0007205048494878,-22.093440099190513
7.401785856,1.0007067928680051,-22.351606645371554
7.410714112,1.000655553064514,-22.609429743070265
7.41964288,1.000569917219346,-22.866334475359547
7.428571648,1.0004542134664964,-23.121927562967844
7.437499904,1.0003145912526508,-23.3758537195532
7.446428672,1.000158345818445,-23.627821808059124
7.455356928,0.9999939741297924,-23.877683013553245
7.464285696,0.9998301819858523,-24.125370395347698
7.473214464,0.9996755579311364,-24.37097755858886
7.48214272,0.9995384456105751,-24.614628763958493
7.491071488,0.999426322603436,-24.856620521922174
7.500000256,0.9993450853037237,-25.097375845611374
7.508928512,0.9992991125488394,-25.33725671725952
7.51785728,0.9992907545432792,-25.576816107526184
7.526785536,0.99932084252375,-25.81650719533234
7.535714304,0.999387528319973,-26.056887807499795
7.544643072,0.9994873719343024,-26.29835178037798
7.553571328,0.999615027164493,-26.541399827524856
7.562500096,0.9997638566175192,-26.78625974280895
7.571428352,0.9999257998717166,-27.033230461156982
7.58035712,1.0000922942558943,-27.282380864898297
7.589285888,1.000254569845377,-27.53376272787224
7.598214144,1.0004038289512704,-27.78723383891811
7.607142912,1.0005319710075986,-28.04258088977348
7.61607168,1.0006325893914345,-28.29946962978976
7.624999936,1.0006997359306227,-28.557468044443503
7.633928704,1.0007302990454328,-28.816170080295567
7.64285696,1.0007223399630063,-29.07501266202088
7.651785728,1.0006763699391563,-29.333549841250015
7.660714496,1.000594658858933,-29.591243700073775
7.669642752,1.0004816731060795,-29.84769418089905
7.67857152,1.0003431971231322,-30.1024757438046
7.687499776,1.0001866281614593,-30.35532722712326
7.696428544,1.000020438676335,-30.606017600133253
7.705357312,0.9998533370041321,-30.85450922659813
7.714285568,0.9996941924298854,-31.10089724354596
7.723214336,0.9995516408479284,-31.345269185146773
7.732143104,0.9994332617956821,-31.587902880510534
7.74107136,0.9993453192015084,-31.829179166638834
7.750000128,0.9992927533120463,-32.0695086043799
7.758928384,0.9992782030224597,-32.3094417008768
7.767857152,0.9993024033219566,-32.54943593918475
7.77678592,0.9993644338149862,-32.79003455260563
7.785714176,0.9994608284108087,-33.03168675176728
7.794642944,0.9995865402018624,-33.27483175017488
7.8035712,0.9997348770703838,-33.51982109530109
7.812499968,0.9998979162529152,-33.766903745992984
7.821428736,1.0000670469837074,-34.01624659023604
7.830356992,1.0002329983535656,-34.26780107646619
7.83928576,1.0003873556996,-34.52148588898105
7.848214528,1.0005215311376723,-34.77716823851459
7.857142784,1.000628632779852,-35.03443827049867
7.866071552,1.0007027590723732,-35.292948925800545
7.874999808,1.0007398509615395,-35.55224631972707
7.883928576,1.0007379933165685,-35.81176554047368
7.892857344,1.000697446629724,-36.07104814912353
7.9017856,1.0006198833025122,-36.32956114585401
7.910714368,1.0005097757197654,-36.58685567482915
7.919642624,1.0003725955994425,-36.84251400811988
7.928571392,1.0002158739409177,-37.096261260580405
7.93750016,1.0000479350884932,-37.347874674845734
7.946428416,0.9998776114785837,-37.597243759403455
7.955357184,0.999713980259515,-37.84441391320104
7.964285952,0.999565812786616,-38.08951403797292
7.973214208,0.9994410512941694,-38.332821554561136
7.982142976,0.9993464017387398,-38.574653665489755
7.991071232,0.9992867497892357,-38.815506224872586
8.0,0.9992656773101185,-39.05578411732415
8.008928768,0.9992842048661099,-39.29611634352564
8.017857024,0.999341244628212,-39.53693374946377
8.026785792,0.9994339608392927,-39.77878436725836
8.035714048,0.9995574515159033,-40.02204499319192
8.044642816,0.9997049689960794,-40.267196616793974
8.053571584,0.9998689936333907,-40.5143807017496
8.06249984,1.0000405339351712,-40.76384369609073
8.071428608,1.0002104956320128,-41.01561028096143
8.080357376,1.0003699013620693,-41.26958669219403
8.089285632,1.0005102635249865,-41.52556234577634
8.0982144,1.000623993538863,-41.78325926175875
8.107142656,1.0007049866979454,-42.04225791564753
8.116071424,1.0007490293407988,-42.30214636150428
8.125000192,1.0007535185357743,-42.5623840844412
8.133928448,1.0007184208934135,-42.82242744598368
8.142857216,1.0006453296385633,-43.0817483640871
8.151785472,1.000538303637168,-43.339937100780574
8.16071424,1.0004026847473169,-43.596520894845256
8.169643008,1.0002460146017411,-43.851170866076124
8.178571264,1.0000763171826106,-44.103721796655385
8.187500032,0.9999027929690077,-44.35397888957157
8.1964288,0.9997347249471453,-44.60197927933457
8.205357056,0.9995809007493772,-44.84785206575761
8.214285824,0.9994496493850965,-45.09185784890953
8.22321408,0.9993479150015047,-45.33432944632727
8.232142848,0.9992814861640552,-45.57562767720882
8.241071616,0.9992535464018132,-45.81637601666514
8.249999872,0.9992658562756684,-46.05703955652916
8.25892864,0.9993178332744284,-46.298092126482906
8.267856896,0.9994065735616842,-46.54014709594143
8.276785664,0.9995275754827989,-46.78356481806591
8.285714432,0.9996743715091521,-47.02882752492077
8.294642688,0.999839072177047,-47.27616347731904
8.303571456,1.0000129885899995,-47.525822840017625
8.312500224,1.0001869485314074,-47.77774442686275
8.32142848,1.0003513647082216,-48.03198898055365
8.330357248,1.0004979043937687,-48.28829687365275
8.339285504,1.0006185018961113,-48.54638499201401
8.348214272,1.0007065738389591,-48.80594903544281
8.35714304,1.0007576394132212,-49.066421942154534
8.366071296,1.0007688494085305,-49.32733564401836
8.375000064,1.0007395839654671,-49.588175657241266
8.38392832,1.0006711525995666,-49.848359869827945
8.392857088,1.0005673716533685,-50.10748702437531
8.401785856,1.0004336658416806,-50.36499908075429
8.410714112,1.0002770471348386,-50.620644422681806
8.41964288,1.000105830224845,-50.87413123090718
8.428571648,0.9999292001030564,-51.12528631621787
8.437499904,0.9997565641037738,-51.374197238370996
8.446428672,0.9995969142597219,-51.620847666203154
8.455356928,0.9994590942202372,-51.865566154172896
8.464285696,0.9993503149491861,-52.10865592382165
8.473214464,0.9992764835723577,-52.35052847702313
8.48214272,0.9992415939928568,-52.59173702457609
8.491071488,0.9992474317668947,-52.832727796515535
8.499999744,0.9992939004441883,-53.074076407730374
8.508928512,0.9993785819603734,-53.31629869515789
8.51785728,0.9994968707789699,-53.55994496448749
8.526785536,0.9996425633491145,-53.80532613473352
8.535714304,0.9998080399043519,-54.05279718474006
8.544643072,0.9999842695278993,-54.30259025560199
8.553571328,1.000162029972815,-54.55473842329666
8.562500096,1.0003316886719185,-54.80924192339523
8.571428352,1.0004844249586275,-55.06586025465601
8.58035712,1.0006119426971651,-55.32441524248525
8.589285888,1.0007073672582836,-55.584493814223244
8.598214656,1.0007657903834382,-55.845586665467614
8.607142912,1.000783822704807,-56.10723028555955
8.616071168,1.000760681436192,-56.368856995973616
8.625000448,1.0006972877040061,-56.62995904826768
8.633928704,1.0005969786016395,-56.8899569349924
8.64285696,1.000465269912585,-57.14847257509456
8.651785216,1.0003089684020416,-57.40509637335418
8.660714496,1.0001364267301256,-57.65958498578277
8.669642752,0.9999567236806087,-57.911734883989574
8.678571008,0.9997794990114272,-58.16149568307286
8.687500288,0.9996141831007135,-58.409040713093056
8.696428544,0.9994695084558195,-58.654519558830984
8.7053568,0.9993534526523411,-58.898248986025024
8.71428608,0.9992721655860864,-59.14070306624259
8.723214336,0.9992298753066321,-59.382335600095395
8.732142592,0.9992291586215165,-59.62371061815997
8.741071872,0.9992699636346406,-59.86535974253396
8.750000128,0.9993501875419591,-60.10783620152494
8.758928384,0.9994655055105064,-60.351624818581705
8.76785664,0.9996098916120426,-60.59719367886945
8.77678592,0.9997758519567875,-60.844796544695285
8.785714176,0.9999544065519974,-61.09474416744353
8.794642432,1.0001358761556818,-61.34714810094411
8.803571712,1.0003108303532202,-61.60187809427363
8.812499968,1.0004699643449817,-61.858869162015395
8.821428224,1.0006045791860882,-62.11784581359993
8.830357504,1.0007076190838597,-62.37843418540198
8.83928576,1.0007736229635735,-62.64018284552617
8.848214016,1.0007988134575176,-62.902539309420334
8.857143296,1.0007819190822234,-63.165021813410775
8.866071552,1.0007238548965784,-63.426988309737844
8.874999808,1.000627421355564,-63.68801487604634
8.883928064,1.0004978801092477,-63.94751722720746
8.892857344,1.0003421218374602,-64.20515243281784
8.9017856,1.000168211880528,-64.4606692598686
8.910713856,0.9999854797076118,-64.71379670397559
8.919643136,0.9998037173734661,-64.96453405037455
8.928571392,0.999632491302876,-65.21293963701324
8.937499648,0.9994810165944912,-65.45919134939331
8.946428928,0.9993574565432013,-65.7036655137566
8.955357184,0.9992684097027313,-65.9467119641236
8.96428544,0.9992186235570405,-66.1888358142122
8.97321472,0.999210879458853,-66.4306282869501
8.982142976,0.9992456707377207,-66.67260020794868
8.991071232,0.9993210602527228,-66.91530449509786
8.999999488,0.9994332637090186,-67.15929703952095
9.008928768,0.9995762934505531,-67.40497489137051
9.017857024,0.99974245545146,-67.6527713001475
9.02678528,0.999923043390384,-67.90287142660928
9.03571456,1.0001083856670996,-68.15546008641921
9.044642816,1.0002887250450763,-68.41046594574293
9.053571072,1.0004542317645264,-68.66781755859738
9.062500352,1.000596152135378,-68.9272441323834
9.071428608,1.0007070277116514,-69.18839235444862
9.080356864,1.0007807387149532,-69.45077364725645
9.089286144,1.0008134725098237,-69.71389867021962
9.0982144,1.0008032831221712,-69.9772031857741
9.107142656,1.0007507668697986,-70.240114235236
9.116071936,1.0006584492725998,-70.50209382383547
9.125000192,1.000531443421367,-70.76266519309414
9.133928448,1.0003762075289166,-71.02138964780887
9.142856704,1.0002012570989145,-71.27790700494123
9.151785984,1.0000156428933598,-71.5320922260466
9.16071424,0.9998293120588784,-71.78381194230053
9.169642496,0.9996521195190873,-72.03313141135474
9.178571776,0.9994936234363451,-72.28023093365923
9.187500032,0.9993624088279192,-72.52542397350592
9.196428288,0.999265276521266,-72.76909856452772
9.205357568,0.9992076141608961,-73.01177208394785
9.214285824,0.9991925458791017,-73.25397934502664
9.22321408,0.9992210528074231,-73.49627719652364
9.23214336,0.9992914736724837,-73.73924917263362
9.241071616,0.9994001883250746,-73.98344852426996
9.249999872,0.9995414394048593,-74.22930904915019
9.258928128,0.9997078174591392,-74.47724307599408
9.267857408,0.9998904511204983,-74.72752454805921
9.276785664,1.0000795347238565,-74.98031245379008
9.28571392,1.0002650959473336,-75.23560990933284
9.2946432,1.0004372442914606,-75.49331876832638
9.303571456,1.000586805623476,-75.75317046256363
9.312499712,1.000705589705987,-76.0148735171562
9.321428992,1.0007874147451534,-76.27792661055496
9.330357248,1.0008278707436529,-76.54179812159917
9.339285504,1.0008246904356735,-76.80597868469239
9.348214784,1.000778028653455,-77.06986433930929
9.35714304,1.0006902118476784,-77.33286917296564
9.366071296,1.0005659329460501,-77.59448473734022
9.374999552,1.0004117212600623,-77.85429682029084
9.383928832,1.0002356699848234,-78.11196871547921
9.392857088,1.0000471728746525,-78.36720347511176
9.401785344,0.9998562409792373,-78.61994243497514
9.410714624,0.9996730416544198,-78.87024365084763
9.41964288,0.9995073816046479,-79.11819668063116
9.428571136,0.9993681211769865,-79.36418023563137
9.437500416,0.9992627536399631,-79.60851762489663
9.446428672,0.9991969389527948,-79.85175693081172
9.455356928,0.9991742683837869,-80.0943803964297
9.464286208,0.9991959945384408,-80.33705236212342
9.473214464,0.9992610896821019,-80.5802909938332
9.48214272,0.9993661280242262,-80.82468672621495
9.491070976,0.9995053853216563,-81.07072496524262
9.500000256,0.999671799520303,-81.31884435859963
9.508928512,0.9998562759470816,-81.56928173777465
9.517856768,1.0000491992499376,-81.82230633069769
9.526786048,1.0002401234446805,-82.07788282696929
9.535714304,1.0004189094554652,-82.33593159942825
9.54464256,1.0005761773164898,-82.59625295699021
9.55357184,1.0007032720156173,-82.85851883625358
9.562500096,1.0007936235282133,-83.12222723314949
9.571428352,1.0008421449500815,-83.38690078351163
9.580357632,1.000846446234961,-83.65195707484445
