freq,mag,phase
6.0,0.9999347712425968,107.47509338999505
6.002286592,0.9996129979954818,107.32359431076657
6.004572672,0.9993150109014374,107.17663020295883
6.006859264,0.9990604549497343,107.0337244551047
6.009145344,0.9988658036739021,106.89411016161274
6.011431936,0.9987430415727304,106.75686881585251
6.013718016,0.9987002501899354,106.62086766036003
6.016004608,0.998740180064514,106.48484661854788
6.018290688,0.9988601951873931,106.34776429589292
6.02057728,0.9990527155705238,106.20842557477914
6.022863872,0.9993055974706071,106.06586812210367
6.025149952,0.9996027141318902,105.91933481934153
6.027436544,0.9999254881182338,105.76832487489479
6.029722624,1.0002531082779393,105.61260796459216
6.032009216,1.0005652441852615,105.45228347996661
6.034295296,1.0008419879582509,105.28770654182115
6.036581888,1.0010658163511323,105.11955116560407
6.03886848,1.0012226903861414,104.9486432058092
6.04115456,1.0013025811041065,104.77607445951608
6.043441152,1.0013004109973094,104.6029569174143
6.045727232,1.0012165398628592,104.43049721638391
6.048013824,1.0010559520847493,104.25979737264788
6.050299904,1.0008289295528758,104.09196386564327
6.052586496,1.0005497247291126,103.92780468582512
6.054872576,1.0002359444784092,103.76796971814949
6.057159168,0.9999073583966175,103.61284801578107
6.05944576,0.9995848494134034,103.46246167497767
6.06173184,0.9992887376734171,103.31660150006836
6.064018432,0.9990379151517387,103.17476564937455
6.066304512,0.9988481979353314,103.0361740668731
6.068591104,0.9987317151330016,102.8998139450883
6.070877184,0.9986957948258341,102.76463984097914
6.073163776,0.9987429237844777,102.62935688379564
6.075450368,0.9988699193317863,102.49290232826411
6.077736448,0.9990688080078662,102.35407736143817
6.08002304,0.9993270855219248,102.21192729357463
6.08230912,0.9996282871148963,102.06573956672715
6.084595712,0.9999533209376714,101.91503412893576
6.086881792,1.0002816847480946,101.7596064315704
6.089168384,1.0005925933715094,101.59958504144755
6.091454464,1.0008664500547717,101.43531880232645
6.093741056,1.0010857458762517,101.26753009662757
6.096027648,1.0012368533169143,101.09703635136756
6.098313728,1.0013101343730908,100.9250113832393
6.10060032,1.0013009033806768,100.75250552594589
6.1028864,1.0012097623508047,100.5807493993875
6.105172992,1.0010425639453846,100.41089841974438
6.107459072,1.0008095116503757,100.24399487057782
6.109745664,1.0005256433870566,100.0808037314081
6.112032256,1.0002085861887622,99.92204595871007
6.114318336,0.9998786033882728,99.76796583133292
6.116604928,0.9995563849468286,99.61868855371891
6.118891008,0.9992625142343948,99.47390086338396
6.1211776,0.9990154715279088,99.33306745113515
6.12346368,0.9988310913505739,99.19543482193708
6.125750272,0.9987208816390014,99.05997459170698
6.128036352,0.998692066335452,98.92553210132165
6.130322944,0.9987462983933694,98.79094301027065
6.132609536,0.9988804406677187,98.6550062967162
6.134895616,0.9990857461415816,98.51662555839262
6.137182208,0.9993493656109682,98.37488264588943
6.139468288,0.9996544494052164,98.22899140966263
6.14175488,0.9999818095506045,98.0785359556498
6.14404096,1.0003106721991133,97.92333865140374
6.146327552,1.0006203284104627,97.76354158184834
6.148614144,1.0008908369933973,97.59957935326824
6.150900224,1.0011056588746303,97.43207656307705
6.153186816,1.001250838658421,97.26202060848865
6.155472896,1.0013171826026555,97.09045919275098
6.157759488,1.0013007486184011,96.9185490750088
6.160045568,1.001202278803866,96.74747709537557
6.16233216,1.0010282367549361,96.578418002631
6.16461824,1.0007893092567157,96.41238382536763
6.166904832,1.0005006676932364,96.2501814393378
6.169191424,1.0001806749543793,96.09239687980948
6.171477504,0.9998492734448045,95.93939856551634
6.173764096,0.9995276615972943,95.7911550462379
6.176050176,0.9992360143889505,95.64738604205168
6.178336768,0.9989930095106093,95.50756719816677
6.180622848,0.998813929034132,95.37083638856704
6.18290944,0.9987103163173298,95.2361857124512
6.18519552,0.9986886363508592,95.10246784158763
6.187482112,0.9987503467927142,94.96850327530912
6.189768704,0.9988916346635446,94.83305772353621
6.192054784,0.9991033113640322,94.69508996655948
6.194341376,0.9993723571947359,94.55363638987436
6.196627456,0.9996812913860759,94.40801244948527
6.198914048,1.0000107356215981,94.25775220908608
6.201200128,1.0003399249326121,94.10276189078304
6.20348672,1.0006479131576989,93.94314837062375
6.205773312,1.0009152742600658,93.77938977556701
6.208059392,1.0011251414602016,93.61217537974854
6.210345984,1.001264226226018,93.44247026349512
6.212632064,1.0013236525185907,93.27135835714034
6.214918656,1.0012998304720937,93.10000170044414
6.217204736,1.001194090788458,92.92959803152753
6.219491328,1.001013029674296,92.76130972784692
6.221777408,1.0007682093071923,92.59609832350478
6.224064,1.0004751530325364,92.43482188061772
6.226350592,1.0001519738706417,92.27801452596368
6.228636672,0.9998194439930775,92.1260433746886
6.230923264,0.9994984134261201,91.97880636271171
6.233209344,0.9992093733002764,91.836034868906
6.235495936,0.9989705671698034,91.69714700294193
6.237782016,0.9987971690321139,91.56126692364111
6.240068608,0.9987001620997804,91.42739907636405
6.2423552,0.998685913538405,91.29436011634483
6.24464128,0.9987551330396571,91.16093913266593
6.246927872,0.9989036704026959,91.02595081893212
6.249213952,0.999121942121624,90.88832275963695
6.251500544,0.9993960602212012,90.74714776719946
6.253786624,0.9997088864641098,90.6017224815293
6.256073216,1.0000403611902315,90.45159668928362
6.258359296,1.0003697315721127,90.29672440940521
6.260645888,1.0006760457182866,90.1372451492941
6.26293248,1.000939951789638,89.9736624427199
6.26521856,1.0011447411702319,89.80671864272955
6.267505152,1.0012774789877068,89.63732291444545
6.269791232,1.0013297775907946,89.46660837203056
6.272077824,1.001298362504455,89.29577123200939
6.274363904,1.0011851963291307,89.1259833149784
6.276650496,1.0009972372141238,88.95843090422744
6.278937088,1.0007465460913065,88.79403502065114
6.281223168,1.0004488431863852,88.63366819853532
6.28350976,1.0001229177349233,88.47780858618643
6.28579584,0.9997891858177637,88.32676691438415
6.288082432,0.9994690491869039,88.18052727257069
6.290368512,0.999182729548099,88.03870590656287
6.292655104,0.9989482337681744,87.90070365181163
6.294941184,0.9987807194953212,87.76564290120282
6.297227776,0.9986906600499846,87.63249846103867
6.299514368,0.9986839137665786,87.5000344632347
6.301800448,0.998760700471533,87.36715928314766
6.30408704,0.9989164804915621,87.2325526929373
6.30637312,0.9991412189619628,87.09521564650031
6.308659712,0.9994206013025184,86.95425078411051
6.310945792,0.999737069849821,86.80894657781319
6.313232384,1.0000704635842046,86.65893565967795
6.315518464,1.0003998111942607,86.50412260971432
6.317805056,1.000704200594494,86.34475710724618
6.320091648,1.0009643909699293,86.18130795622939
6.322377728,1.0011638567474646,86.01453729260155
6.32466432,1.0012902343594483,85.8454267406582
6.3269504,1.0013352391484578,85.67510355163074
6.329236992,1.001296128949703,85.50474760653759
6.331523072,1.0011754531382504,85.33555155801434
6.333809664,1.000980637993407,85.16868201232805
6.336096256,1.0007240673044941,85.00508357361153
6.338382336,1.000421855863523,84.84554331246191
6.340668928,1.0000930960641141,84.69059793596973
6.342955008,0.9997585103736586,84.54052317368871
6.3452416,0.999439455770606,84.39518483533413
6.34752768,0.9991559593243283,84.25428855686363
6.349814272,0.9989261100139023,84.11710070681299
6.352100352,0.9987645438181738,83.98282827037555
6.354386944,0.9986815134778024,83.85034831131676
6.356673536,0.9986823209148219,83.71847009249896
6.358959616,0.9987668359759743,83.58599951871162
6.361246208,0.9989299175578022,83.45176632160286
6.363532288,0.9991611201659695,83.31467676738771
6.36581888,0.9994456931976569,83.17383183970662
6.36810496,0.9997657853609567,83.02862003398633
6.370391552,1.0001009240490955,82.87866216204417
6.372678144,1.0004301185685665,82.72389490492904
6.374964224,1.0007323913091613,82.56456779942637
6.377250816,1.000988689153835,82.40118772547567
6.379536896,1.0011827367731831,82.23458602852473
6.381823488,1.0013023642681793,82.06570817769146
6.384109568,1.0013400656269018,81.89571616745516
6.38639616,1.0012931887529823,81.7257988064063
6.38868224,1.0011648625587073,81.5571641475089
6.390968832,1.0009632934317836,81.39092291659921
6.393255424,1.0007007068739417,81.22809511247864
6.395541504,1.0003940407560845,81.06939498891016
6.397828096,1.00006268349941,80.91533990706576
6.400114176,0.9997275117715434,80.76612074755379
6.402400768,0.9994095262862466,80.62170482105819
6.404686848,0.9991291183426052,80.4816277662455
6.40697344,0.9989041461572449,80.34528324793851
6.409260032,0.9987487839076414,80.2116876756651
6.411546112,0.9986729192035554,80.07983688981889
6.413832704,0.9986814760975585,79.94849109368447
6.416118784,0.9987737674022166,79.81643187629201
6.418405376,0.9989441788485405,79.68243361697837
6.420691456,0.9991818036578668,79.54552734604653
6.422978048,0.9994716000538487,79.40477733013938
6.425264128,0.9997951508649519,79.25959930797035
6.42755072,1.0001319593146756,79.10963994890348
6.429837312,1.0004607631953584,78.95483798333336
6.432123392,1.0007607679996053,78.79550294429316
6.434409984,1.0010129732384168,78.63218680169594
6.436696064,1.0012014294606406,78.46567120107179
6.438982656,1.0013142313517462,78.29699606211537
6.441268736,1.001344264092231,78.12730575329323
6.443555328,1.0012896413632018,77.95780911129401
6.44584192,1.0011536897512274,77.78968725212421
6.448128,1.0009450223199041,77.62408234455448
6.450414592,1.0006766898367199,77.46196417452398
6.452700672,1.000365828515249,77.30403513334838
6.454987264,1.0000318983042003,77.15081052462862
6.457273344,0.9996960128299404,77.00248017722706
6.459559936,0.9993795792208503,76.85890124119148
6.461846016,0.9991025222974017,76.71964469281282
6.464132608,0.99888253196425,76.58402588693157
6.4664192,0.9987334381858909,76.4511354110011
6.46870528,0.9986649141516328,76.31984306611868
6.470991872,0.9986812631672735,76.18894426043288
6.473277952,0.9987815328792968,76.05720457694942
6.475564544,0.9989593331962083,75.92345676695095
6.477850624,0.9992032863806813,75.78667506016863
6.480137216,0.999498152480735,75.64596331526829
6.482423296,0.9998250667720344,75.50074114628188
6.484709888,1.0001633724713792,75.35070336630776
6.48699648,1.0004916086911844,75.19584460787006
6.48928256,1.0007890954629721,75.03647277444128
6.491569152,1.00103706314762,74.87314831377022
6.493855232,1.0012197163327976,74.70670609853663
6.496141824,1.0013256161024504,74.5381726683336
6.498427904,1.001347931531545,74.36875740627895
6.500714496,1.0012853998458355,74.19963971591896
6.503001088,1.0011417178474509,74.03201086267039
6.505287168,1.0009261285023552,73.86698768135669
6.50757376,1.0006521605269396,73.70555370348171
6.50985984,1.0003371123975822,73.54837005954204
6.512146432,1.000000789621411,73.3959418321669
6.514432512,0.9996644776109949,73.24842042058795
6.516719104,0.9993495838306624,73.10564048477504
6.519005184,0.999075885843555,72.96715621840288
6.521291776,0.9988611620146155,72.83226007679775
6.523578368,0.9987186593389203,72.699961426734
6.525864448,0.9986575796733924,72.56917761646088
6.52815104,0.9986819886063444,72.43869383037338
6.53043712,0.9987900840601488,72.30724007721187
6.532723712,0.9989752015494653,72.1736574636443
6.535009792,0.9992255492101276,72.03693956100688
6.537296384,0.9995253215858777,71.89619474704449
6.539582976,0.9998554537564477,71.75090227328396
6.541869056,1.0001950918305769,71.60075106644722
6.544155648,1.0005227043509535,71.4457727342364
6.546441728,1.0008175042235605,71.2862983005691
6.54872832,1.0010609115004978,71.12293165530366
6.5510144,1.0012376728519439,70.95650906660401
6.553300992,1.0013363265376996,70.78811766467442
6.555587072,1.0013508483639022,70.61892202965194
6.557873664,1.001280250667445,70.4501077376378
6.560160256,1.0011289126613894,70.28296426688863
6.562446336,1.0009064434455106,70.11848735995319
6.564732928,1.0006266787791915,69.95767359502494
6.567019008,1.000307390501951,69.80122493524107
6.5693056,0.9999688281913935,69.64957309836633
6.57159168,0.9996323703240623,69.50281523790521
6.573878272,0.9993192419206967,69.36080434245432
6.576164864,0.9990493617311335,69.22304103576249
6.578450944,0.9988398832237452,69.08878608528026
6.580737536,0.9987040989440613,68.95706571045775
6.583023616,0.9986506875950152,68.82674850708524
6.585310208,0.9986830612653579,68.69659566409092
6.587596288,0.9987991083045583,68.56536424384893
6.58988288,0.998991678956934,68.43190186090412
6.59216896,0.9992483416164584,68.29517737439294
6.594455552,0.9995530255470669,68.15438007924207
6.596742144,0.9998863263752606,68.0089228251969
6.599028224,1.0002270296526337,67.85861703556354
6.601314816,1.0005537346758477,67.7034848659275
6.603600896,1.0008457454909965,67.5438685356082
6.605887488,1.0010845363242598,67.38039431796463
6.608173568,1.0012550692304458,67.21396810525839
6.61046016,1.0013464953035751,67.04566361179852
6.612746752,1.0013532039501185,66.87663082389
6.615032832,1.0012744314005133,66.70817582850933
6.617319424,1.0011153797647663,66.54139885038461
6.619605504,1.000885982028524,66.377471323043
6.621892096,1.0006006654906092,66.21724697255425
6.624178176,1.0002774858065422,66.06147262604463
6.626464768,0.9999367940150238,65.9105310773875
6.628750848,0.9996002466796393,65.76451286762331
6.63103744,0.9992891323218206,65.62322111845116
6.633324032,0.9990231247654775,65.48614495810061
6.635610112,0.9988192013453073,65.35248539954559
6.637896704,0.9986902501884248,65.22129161895673
6.640182784,0.9986445644680323,65.09136123533206
6.642469376,0.9986850010144537,64.96148398535472
6.644755456,0.9988091796285817,64.83043881686913
6.647042048,0.9990090995190333,64.69702249013643
6.649328128,0.9992720844075609,64.5602671998889
6.65161472,0.999581533761527,64.41931900396655
6.653901312,0.9999177376073233,64.27370597332587
6.656187392,1.0002594746543803,64.12318387429416
6.658473984,1.0005851214453771,63.96780023148593
6.660760064,1.0008740204698534,63.80798806764696
6.663046656,1.0011079694480458,63.64438942173263
6.665332736,1.0012721341751318,63.47790534771153
6.667619328,1.0013562817367196,63.3096330485399
6.66990592,1.0013548117544142,63.14075428037017
6.672192,1.0012679535959152,62.97255295360411
6.674478592,1.0011011200927742,62.8061767111962
6.676764672,1.0008649264103273,62.64272611345896
6.679051264,1.0005740670804169,62.48311192201822
6.681337344,1.0002469935829648,62.32796020072944
6.683623936,0.9999044422313691,62.177695051366
6.685910016,0.9995679656920184,62.03236134553863
6.688196608,0.9992589653813971,61.891744376951195
6.6904832,0.9989970198725884,61.75527825043337
6.69276928,0.9987988462793771,61.62218979103381
6.695055872,0.9986769167686972,61.4914596548836
6.697341952,0.9986391480134043,61.36187085954886
6.699628544,0.9986878631491235,61.23223211171093
6.701914624,0.9988200498644324,61.1012838881973
6.704201216,0.9990272969570251,60.96787325003919
6.706487808,0.9992965070893592,60.831009399540655
6.708773888,0.9996105874251178,60.68989927139257
6.71106048,0.9999496451444149,60.544034955255235
6.71334656,1.0002921908682476,60.393229509794295
6.715633152,1.0006165626438939,60.237588423092625
6.717919232,1.0009021770993676,60.077547520975074
6.720205824,1.001131142302647,59.913745468524446
6.722491904,1.0012888250981644,59.747180389059324
6.724778496,1.0013653113890293,59.57891872698987
6.727065088,1.001355815808486,59.410158091554464
6.729351168,1.0012607459243936,59.24216259968008
6.73163776,1.0010861332440544,59.07613265944235
6.73392384,1.0008430952458185,58.91313157718298
6.736210432,1.000546850415046,58.75404254469424
6.738496512,1.0002159336799032,58.599506486202756
6.740783104,0.9998717016121607,58.4498720304857
6.743069696,0.9995354710422739,58.305208848785334
6.745355776,0.9992288195502607,58.165193788703384
6.747642368,0.9989711500784992,58.02932153516188
6.749928448,0.9987787627686526,57.89672625329691
6.75221504,0.9986640536356443,57.76638602656733
6.75450112,0.9986342541032583,57.63713448006541
6.756787712,0.9986912119757713,57.50767354387361
6.759073792,0.9988315082760573,57.37675296795735
6.761360384,0.9990460241136678,57.24329434246673
6.763646976,0.9993214166015559,57.106248225498355
6.765933056,0.999639999221739,56.964884392903635
6.768219648,0.999981728879096,56.81875858520188
6.770505728,1.0003249999447692,56.66762311641595
6.77279232,1.0006479742693104,56.51167680282931
6.7750784,1.000930107816685,56.35133011762002
6.777364992,1.0011538566568883,56.187342448298615
6.779651584,1.001304846320387,56.02062418780748
6.781937664,1.0013736803048376,55.85231964866963
6.784224256,1.0013558998673446,55.683664210267516
6.786510336,1.0012525842117055,55.51585281779522
6.788796928,1.0010703662118992,55.350141324822715
6.791083008,1.0008204345166891,55.18755100567929
6.7933696,1.0005188558166511,55.02894117345406
6.79565568,1.0001844444026988,54.87497098841714
6.797942272,0.9998385537178281,54.72596872062494
6.800228864,0.999502774761095,54.58187694753962
6.802514944,0.9991987528460287,54.44246678636246
6.804801536,0.9989455103997258,54.307119641866
6.807087616,0.9987592389016449,54.17498114026047
6.809374208,0.9986517753599674,54.04499510788232
6.811660288,0.99863004241133,53.9159649736574
6.81394688,0.9986954148536594,53.78660849152753
6.81623296,0.9988437503279497,53.65572132148034
6.818519552,0.9990656089314921,53.52211611698865
6.820806144,0.9993470758420228,53.38487166969589
6.823092224,0.9996700694706115,53.24321694437084
6.825378816,1.0000143557045023,53.096713451829785
6.827664896,1.0003580067153959,52.94524084319306
6.829951488,1.0006792929702368,52.78892509019688
6.832237568,1.0009579777698792,52.628243607622586
6.83452416,1.0011762351604787,52.46398346705841
6.836810752,1.0013204948623968,52.29709961434041
6.839096832,1.0013815566666795,52.12871724152871
6.841383424,1.0013554446675954,51.96010300079756
6.843669504,1.0012439453801576,51.79247949046615
6.845956096,1.0010538916621539,51.62700692579167
6.848242176,1.0007973708624514,51.464796756486116
6.850528768,1.0004904837675357,51.30665739216001
6.852814848,1.0001525943599625,51.15321634383784
6.85510144,0.9998052584610339,51.00472477101017
6.857388032,0.9994701779070623,50.86123536063366
6.859674112,0.9991688821002157,50.72236752797434
6.861960704,0.9989202074506917,50.587487907812886
6.864246784,0.9987402261466873,50.455764053506485
6.866533376,0.9986402066186417,50.32605915344873
6.868819456,0.9986266363267339,50.197203622725354
6.871106048,0.9987003253391704,50.067931802672454
6.87339264,0.9988566777089541,49.93696297399676
6.87567872,0.9990858727458604,49.803204140083544
6.877965312,0.9993731658160566,49.66568241339322
6.880251392,0.9997005654519676,49.52366483223383
6.882537984,1.000047224047152,49.37678906668454
6.884824064,1.0003911374243921,49.22486357873407
6.887110656,1.0007106052909223,49.06815200923105
6.889396736,1.0009854474990558,48.90710284658138
6.891683328,1.001198276498949,48.74254764857407
6.89396992,1.0013355381127267,48.57543749669228
6.896256,1.0013886799980123,48.40695331337178
6.898542592,1.0013542895985188,48.23833371255228
6.900828672,1.00123444210597,48.07082131964176
6.903115264,1.0010367209208624,47.90559600993177
6.905401344,1.000773566129406,47.74373151156676
6.907687936,1.000461584924087,47.58602772173592
6.909974528,1.0001204826275945,47.43305993458718
6.912260608,0.9997717650090819,47.28510369034252
6.9145472,0.999437606185505,47.142093772642795
6.91683328,0.9991390850692895,47.003716225084645
6.919119872,0.9988953251214521,46.86928699330257
6.921405952,0.9987217112090203,46.73791238874781
6.923692544,0.9986292356711152,46.60845836887699
6.925978624,0.9986238629853564,46.47973280418077
6.928265216,0.9987060604486528,46.35045223052337
6.930551808,0.9988704468080993,46.219380032389644
6.932837888,0.9991068132901169,46.085365924802275
6.93512448,0.9994000818963695,45.94752213154642
