freq,mag,phase
6.0,1.0001906160719887,-83.4928529680696
6.002288128,1.0002073550143977,-83.6156962417252
6.004576768,1.000207953891794,-83.73862390126494
6.006864896,1.0001953687248082,-83.86147817473885
6.009153536,1.0001702726738282,-83.9840896297688
6.011441664,1.000134444705785,-84.10625911946615
6.013729792,1.000089584441424,-84.22781459839324
6.016018432,1.00003927523112,-84.34876080979404
6.01830656,0.999986243536448,-84.46889953343205
6.0205952,0.999933929813716,-84.58830621659565
6.022883328,0.999885860146221,-84.70700874214606
6.025171456,0.9998449842519164,-84.82502215756388
6.027460096,0.9998138729247603,-84.94260722910946
6.029748224,0.9997944986206758,-85.05977097636436
6.032036864,0.9997883892511218,-85.17678173672043
6.034324992,0.9997956155020279,-85.29378270055524
6.03661312,0.9998157678545248,-85.41106120812785
6.03890176,0.9998477648203015,-85.52868271685678
6.041189888,0.9998895035793749,-85.64685938526402
6.043478016,0.9999381907416562,-85.76566896902986
6.045766656,0.9999908463265111,-85.88530098177988
6.048054784,1.0000442326082433,-86.00564178523388
6.050343424,1.0000947958014756,-86.12678267357931
6.052631552,1.00013911853463,-86.24865758142944
6.05491968,1.0001749636702026,-86.3710987147889
6.05720832,1.000199454066053,-86.49401212037597
6.059496448,1.000211162070667,-86.61715999049075
6.061785088,1.000209506555549,-86.74043853283925
6.064073216,1.0001945100674645,-86.8635957460083
6.066361344,1.0001668539674862,-86.98646547923846
6.068649984,1.0001286732552228,-87.10882843292622
6.070938112,1.0000822922378307,-87.2306250669445
6.073226752,1.0000304693015314,-87.35168942382116
6.07551488,0.9999766242868314,-87.47204816229622
6.077803008,0.9999242110629862,-87.59160434540195
6.080091648,0.9998765902373848,-87.71045891902345
6.082379776,0.999836676144844,-87.8286873830827
6.084668416,0.9998070856990293,-87.94638076069695
6.086956544,0.999789898998804,-88.0637529777395
6.089244672,0.9997859417771385,-88.18096896054742
6.091533312,0.9997955437148067,-88.2982759892993
6.09382144,0.9998182159212075,-88.41583791756834
6.09611008,0.9998526744976564,-88.53378321733182
6.098398208,0.9998963478476188,-88.6523737950019
6.100686336,0.9999465798913321,-88.77156393496344
6.102974976,1.000000324164309,-88.89156462006481
6.105263104,1.0000542199469917,-89.01235063833133
6.107551232,1.0001044033303417,-89.1339866756641
6.109839872,1.0001481698690318,-89.25620284607767
6.112128,1.0001824721538743,-89.37907249193601
6.11441664,1.000205096538701,-89.50235590970627
6.116704768,1.0002147976636973,-89.62589336201577
6.118992896,1.000210668115119,-89.74946546721863
6.121281536,1.0001930769254632,-89.87289121830175
6.123569664,1.0001631999179863,-89.99603026689654
6.125858304,1.0001229021900873,-90.11861519370294
6.128146432,1.0000745000567623,-90.24057534381345
6.13043456,1.0000214884500718,-90.3618115481653
6.1327232,0.9999670573730918,-90.48227445222801
6.135011328,0.9999145184163155,-90.60196355913189
6.137299968,0.9998673835036748,-90.720972855142
6.139588096,0.9998286187147871,-90.83930293216595
6.141876224,0.9998007905120679,-90.95721599784977
6.144164864,0.9997855534597605,-91.0748027545212
6.146452992,0.9997838418514188,-91.19226714124548
6.148741632,0.9997961495990261,-91.3098303633289
6.15102976,0.999821182508532,-91.42764112669633
6.153317888,0.999857831000325,-91.54594136116772
6.155606528,0.9999035237777955,-91.66484344449293
6.157894656,0.9999551211684875,-91.78448130689999
6.160183296,1.0000098763260707,-91.90491306851574
6.162471424,1.0000639759911847,-92.0260981502271
6.164759552,1.0001140718469532,-92.1480784212986
6.167048192,1.0001568135121264,-92.27079843661265
6.16933632,1.0001897004729787,-92.39399009307496
6.17162496,1.0002104412787771,-92.51763354742049
6.173913088,1.0002179249232819,-92.64147565300406
6.176201216,1.00021133389182,-92.76537446292083
6.178489856,1.0001911447103216,-92.88905622462863
6.180777984,1.0001590091060717,-93.01240203611897
6.183066112,1.0001164850329072,-93.13515066690256
6.185354752,1.0000664589772659,-93.25727500562107
6.18764288,1.0000122290459055,-93.37868627373862
6.18993152,0.9999571411777536,-93.49923907514396
6.192219648,0.9999046784434188,-93.61909184538494
6.194507776,0.9998581420081222,-93.73816873786757
6.196796416,0.9998206878377028,-93.85668405196337
6.199084544,0.9997945934791457,-93.97474083231162
6.201373184,0.9997814962526939,-94.09249042164926
6.203661312,0.9997821626273864,-94.21017922865944
6.20594944,0.9997969162822239,-94.32800784739396
6.20823808,0.9998246191344292,-94.44613537720409
6.210526208,0.9998633376348514,-94.56473458895078
6.212814848,0.9999108940444564,-94.68399966363724
6.215102976,0.9999641014018013,-94.80398895692183
6.217391104,1.0000197462668685,-94.92477835968496
6.219679744,1.0000739527486722,-95.04639600499242
6.221967872,1.0001237982110058,-95.16879029715093
6.224256512,1.0001654535178057,-95.29183616483479
6.22654464,1.000196761602393,-95.41549134281382
6.228832768,1.0002154461904682,-95.5394357440564
6.231121408,1.000220617326483,-95.66359108461168
6.233409536,1.0002114822587793,-95.78773821013559
6.235698176,1.0001889629989376,-95.91169734008523
6.237986304,1.000154205709212,-96.0351647944518
6.240274432,1.0001097997406063,-96.15814946635741
6.242563072,1.000058205566178,-96.28043515553547
6.2448512,1.0000028092880153,-96.40189529710314
6.24713984,0.9999472833401524,-96.52261446125085
6.249427968,0.9998947934960469,-96.64253792048089
6.251716096,0.9998491317368314,-96.7617706292445
6.254004736,0.999813033786688,-96.88039134242297
6.256292864,0.9997886998427455,-96.99855839581848
6.258580992,0.9997779613427781,-97.11649732614157
6.260869632,0.9997810963205042,-97.23442198291242
6.26315776,0.9997983709631395,-97.35244694993709
6.2654464,0.9998284638505823,-97.47085245702804
6.267734528,0.999869503795056,-97.58979459899544
6.270022656,0.9999188520311836,-97.70940111738022
6.272311296,0.9999733782811905,-97.82976362656139
6.274599424,1.0000297659155732,-97.95094234099902
6.276888064,1.0000841755651826,-98.07295425283945
6.279176192,1.000133312876514,-98.1957223575955
6.28146432,1.0001740372749188,-98.31914147680105
6.28375296,1.0002036664222431,-98.44308158605584
6.286041088,1.0002203492125328,-98.56739376884946
6.288329728,1.000222994675697,-98.69186192179778
6.290617856,1.0002112868822464,-98.81623483250569
6.292905984,1.0001862614316888,-98.94039408414002
6.295194624,1.0001493414383227,-99.06410636064614
6.297482752,1.0001026059090985,-99.18718997577477
6.299771392,1.000049509992964,-99.30957267165621
6.30205952,0.9999932436382352,-99.43115516386796
6.304347648,0.9999371516946283,-99.55193536100306
6.306636288,0.9998850056467767,-99.67195127164558
6.308924416,0.9998402048474105,-99.7912540971258
6.311213056,0.9998053741752707,-99.90999402128207
6.313501184,0.9997831451752176,-100.02831496939828
6.315789312,0.9997745442673927,-100.14642057397093
6.318077952,0.9997802809565892,-100.26451933190128
6.32036608,0.9998000097713942,-100.38280214555073
6.322654208,0.9998325596119173,-100.50149604240377
6.324942848,0.9998758607897406,-100.62072910235862
6.327230976,0.9999270484948244,-100.74064093471854
6.329519616,0.9999826940398991,-100.8613971613024
6.331807744,1.0000397022402068,-100.98291546914677
6.334095872,1.0000941941467933,-101.10531516110524
6.336384512,1.0001427424567053,-101.22845664176576
6.33867264,1.0001822126289397,-101.35223939714255
6.34096128,1.0002101366373906,-101.4765165433902
6.343249408,1.0002246813903597,-101.60110513876106
6.345537536,1.0002247882988764,-101.7258598723341
6.347826176,1.0002106275693468,-101.85047878396138
6.350114304,1.0001830413244794,-101.97477150993119
6.352402944,1.000143606497769,-102.09863736842308
6.354691072,1.0000950805420674,-102.22187177902768
6.3569792,1.0000404568248142,-102.34435451742216
6.35926784,0.9999831791573954,-102.46599024236825
6.361555968,0.9999268947265821,-102.58689431546614
6.363844608,0.999875110395971,-102.70695391475329
6.366132736,0.9998313730144132,-102.82631475857136
6.368420864,0.9997981147887532,-102.94515777865882
6.370709504,0.999777813865628,-103.06362220548924
6.372997632,0.999771698403544,-103.18189475007128
6.375286272,0.9997799588883033,-103.3001558008216
6.3775744,0.9998023367011402,-103.41869223163748
6.379862528,0.9998372764955824,-103.53763292282382
6.382151168,0.9998826036105114,-103.65715940150915
6.384439296,0.9999355438331281,-103.77737946293446
6.386727936,0.9999925055526209,-103.89846502981815
6.389016064,1.0000500691146996,-104.02034124761754
6.391304192,1.0001043730994312,-104.143116382245
6.393592832,1.0001522124059634,-104.26658741052307
6.39588096,1.0001902938579617,-104.39071863003643
6.398169088,1.0002163480522062,-104.5152950074837
6.400457728,1.0002284907416448,-104.64015380999497
6.402745856,1.0002262801796313,-104.76511731780909
6.405034496,1.0002094702604547,-104.8899763920113
6.407322624,1.0001793672295005,-105.01447821345728
6.409610752,1.0001376775028408,-105.13844912298067
6.411899392,1.0000873071301377,-105.26180333665336
6.41418752,1.0000312753693514,-105.38433824195376
6.41647616,0.9999730488076203,-105.50607598482925
6.418764288,0.9999165870439356,-105.62697240282405
6.421052416,0.9998652971196731,-105.74708426288959
6.423341056,0.999822486678781,-105.86654481296331
6.425629184,0.9997910816022094,-105.98544260112702
6.427917824,0.9997727932649371,-106.1040397880994
6.430205952,0.9997690465605372,-106.22243596494863
6.43249408,0.9997800865597213,-106.34087293889321
6.43478272,0.9998050548959732,-106.45958851462234
6.437070848,0.9998424145805302,-106.57881521531274
6.439359488,0.9998898636935177,-106.69862168130935
6.441647616,0.999944359205501,-106.81920659734425
6.443935744,1.0000024893958768,-106.94058958464288
6.446224384,1.000060451600954,-107.0628113562617
6.448512512,1.0001145198358423,-107.18590431715243
6.450801152,1.0001615258516359,-107.30969438086765
6.45308928,1.0001982092914905,-107.43413377646529
6.455377408,1.0002222706910509,-107.55904606701972
6.457666048,1.0002320915072258,-107.68416964688741
6.459954176,1.0002272844372393,-107.80934768375809
6.462242816,1.000207858094994,-107.93438705136384
6.464530944,1.000175290509514,-108.05900554261532
6.466819072,1.0001313514913426,-108.1830989435629
6.469107712,1.0000789849456584,-108.30649637860459
6.47139584,1.0000215518714322,-108.42912317042891
6.473683968,0.9999627046119093,-108.5509223345715
6.475972608,0.9999061145425147,-108.67181831299601
6.478260736,0.9998554707236587,-108.7919929586958
6.480549376,0.9998139485204935,-108.91153590551018
6.482837504,0.9997842549122172,-109.03047616912787
6.485125632,0.9997682176162862,-109.14915379630939
6.487414272,0.9997669462343184,-109.26766826766246
6.4897024,0.9997805369889283,-109.38631128470918
6.49199104,0.9998080346625285,-109.50522818230974
6.494279168,0.9998478652964019,-109.62464488390482
6.496567296,0.9998972786161737,-109.7447566362138
6.498855936,0.999953507993963,-109.8656120005618
6.501144064,1.00001257770912,-109.98731891592546
6.503432704,1.0000708813343466,-110.10988346797615
6.505720832,1.0001247154566137,-110.2332883191073
6.50800896,1.0001707504590478,-110.35741896706058
6.5102976,1.0002057969282916,-110.48215745479733
6.512585728,1.0002278079156373,-110.607302314868
6.514874368,1.000235394267575,-110.73268022807213
6.517162496,1.0002278137180427,-110.8580856420652
6.519450624,1.0002058405416694,-110.98323000170791
6.521739264,1.0001706262111845,-111.10802911977865
6.524027392,1.0001244860740068,-111.2321851614333
6.526316032,1.000070375725864,-111.3556495173659
6.52860416,1.0000116617493855,-111.47828372271762
6.530892288,0.9999522130021045,-111.60008816508632
6.533180928,0.9998957223950745,-111.72103593044238
6.535469056,0.9998457151700739,-111.84124006311393
6.537757184,0.9998054764989883,-111.96075710972177
6.540045824,0.9997777149309874,-112.07978654107382
6.542333952,0.9997639724125033,-112.19852134432344
6.544622592,0.9997652196681618,-112.3171420558332
6.54691072,0.9997814231080461,-112.43593629742948
6.549198848,0.999811553014254,-112.55505734376612
6.551487488,0.9998537419691885,-112.67475355431529
6.553775616,0.9999052392544792,-112.79508694820552
6.556064256,0.9999628388083454,-112.91625075073789
6.558352384,1.0000229153989066,-113.03824835854206
6.560640512,1.0000814374904845,-113.1611432153914
6.562929152,1.0001348808139112,-113.28485095892886
6.56521728,1.0001797355389346,-113.409275353284
6.56750592,1.0002132470899996,-113.53426926940223
6.569794048,1.000233063406938,-113.65967450981722
6.572082176,1.000238150373327,-113.78524613290048
6.574370816,1.000227925131252,-113.91081136963535
6.576658944,1.0002031803992715,-114.03612640156526
6.578947584,1.0001655586394018,-114.16101024538588
6.581235712,1.0001171846279016,-114.28523787791997
6.58352384,1.0000613905792286,-114.40872334956154
6.58581248,1.000001565411325,-114.53139594372657
6.588100608,0.9999415247120694,-114.65318863997422
6.590389248,0.9998851786927767,-114.77413508925426
6.592677376,0.9998360115117216,-114.89430300067292
6.594965504,0.9997974115911072,-115.01384230990239
6.597254144,0.9997714440609238,-115.13293000494248
6.599542272,0.9997601493662274,-115.25173594726559
6.601830912,0.9997639322683246,-115.3705233282392
6.60411904,0.9997829503884642,-115.48940968700009
6.606407168,0.9998156506851551,-115.60872470628945
6.608695808,0.9998602013098468,-115.72861820340266
6.610983936,0.9999136781145728,-115.84921863469764
6.613272064,0.9999727142561944,-115.97063262900669
6.615560704,1.0000334952194445,-116.09295292028247
6.617848832,1.000092225076736,-116.21611221386351
6.620137472,1.0001451223983997,-116.34008636606032
6.6224256,1.0001886837141418,-116.46481653958303
6.624713728,1.0002203953444424,-116.5900777277161
6.627002368,1.0002380721567623,-116.715710350489
6.629290496,1.0002405264210232,-116.8415053162681
6.631579136,1.0002277435170948,-116.96719412968406
6.633867264,1.0002003915174724,-117.09261938645903
6.636155392,1.000160075659713,-117.2175661785534
6.638444032,1.0001097437135087,-117.34182987262943
6.64073216,1.000052138548944,-117.46534800823196
6.6430208,0.9999912611883517,-117.58797444521345
6.645308928,0.9999307963953354,-117.70978591063329
6.647597056,0.9998747281917131,-117.83066903644277
6.649885696,0.9998265593073398,-117.95085905243359
6.652173824,0.9997893543419246,-118.07040077761653
6.654462464,0.9997654969158165,-118.18950987461164
6.656750592,0.999756615176334,-118.30837477193025
6.65903872,0.9997631648840694,-118.42720677797388
6.66132736,0.9997847795375745,-118.54630579708072
6.663615488,0.9998202152866579,-118.6657827280971
6.665904128,0.999867052011753,-118.78585868036348
6.668192256,0.9999224594998082,-118.90669574573118
6.670480384,0.9999827298503395,-119.02835712299805
6.672769024,1.0000442935473515,-119.15093497696637
6.675057152,1.0001029895733238,-119.27441936277111
6.677345792,1.0001551937432465,-119.3986831761259
6.67963392,1.0001975931755442,-119.52364149883414
6.681922048,1.0002273234241241,-119.64911950043302
6.684210688,1.0002426393869106,-119.77495548167404
6.686498816,1.0002425214438249,-119.90091276015765
6.688786944,1.0002270005173766,-120.0267606083836
6.691075584,1.0001968879798917,-120.15223321085837
6.693363712,1.0001542959327543,-120.27722303713108
6.695652352,1.0001017687366762,-120.40153706331152
6.69794048,1.0000425836409117,-120.52501462683968
6.700228608,0.999980747810293,-120.64762654827628
6.702517248,0.9999200389187529,-120.769353302864
6.704805376,0.9998643018138872,-120.89026663870932
6.707094016,0.9998171052852329,-121.01036265715523
6.709382144,0.9997816550030276,-121.12993165468654
6.711670272,0.999759983200236,-121.24902905038985
6.713958912,0.9997535977863147,-121.36794797711869
6.71624704,0.9997628582831599,-121.4868824820933
6.71853568,0.9997871803872346,-121.60607275296366
6.720823808,0.9998251928082047,-121.72569598535927
6.723111936,0.9998743093257817,-121.84599024159951
6.725400576,0.9999314500600792,-121.96706874464475
6.727688704,0.9999931847028414,-122.08898682233536
6.729977344,1.0000551635964399,-122.21180671357047
6.732265472,1.0001137759027894,-122.33555020183906
6.7345536,1.0001652280009663,-122.46007773442052
6.73684224,1.000206095020202,-122.58527394730991
6.739130368,1.0002339092719241,-122.71097318980755
6.741419008,1.0002469321043421,-122.83697105179179
6.743707136,1.0002441027639348,-122.96307025515024
6.745995264,1.0002256781018115,-123.08902375177547
6.748283904,1.0001929166430361,-123.21459431022791
6.750572032,1.0001479116100342,-123.33958882448586
6.75286016,1.0000932516241585,-123.46387095052603
6.7551488,1.0000326606897312,-123.58734097553457
6.757436928,0.9999698809846357,-123.70987548459308
6.759725568,0.9999089755387808,-123.83153761604513
6.762013696,0.9998538005055224,-123.95236394858675
6.764301824,0.9998078622495633,-124.07245660335148
6.766590464,0.9997741125615771,-124.19197128585458
6.768878592,0.9997546512668657,-124.31106761305774
6.771167232,0.9997507882758399,-124.43003559116983
6.77345536,0.9997628642607623,-124.54902619960991
6.775743488,0.999790034508743,-124.66835440014944
6.778032128,0.9998305478900128,-124.7881072490818
6.780320256,0.9998819280135153,-124.90861037832458
6.782608896,0.9999408933672006,-125.02984108316492
6.784897024,1.0000035907162699,-125.1520225722763
6.787185152,1.0000661960164945,-125.27509563863308
6.789473792,1.0001245346660133,-125.39907558624444
6.79176192,1.000175087170808,-125.52381471298504
6.79405056,1.0002144046194805,-125.64923899153109
6.796338688,1.0002401791511852,-125.77511081511321
6.798626816,1.0002506054818006,-125.90130635009463
6.800915456,1.0002450772578144,-126.02750843452422
6.803203584,1.0002239641717792,-126.15350954706616
6.805492224,1.0001884720425083,-126.27911202650054
6.807780352,1.000141003483649,-126.40412084815068
6.81006848,1.0000844261217596,-126.52839518933781
6.81235712,1.0000223258148502,-126.65178672759363
6.814645248,0.9999588705893724,-126.77427716743497
6.816933888,0.9998978568268136,-126.89585774930123
6.819222016,0.9998433930758442,-127.0165813316658
6.821510144,0.9997986875887643,-127.13661108304666
6.823798784,0.9997667639803027,-127.25605341646614
6.826086912,0.9997497165521374,-127.37514499306019
6.82837504,0.9997485517139929,-127.49411059670277
6.83066368,0.9997635023243289,-127.61319290442987
6.832951808,0.9997934170561421,-127.73258512452628
6.835240448,0.9998364513398191,-127.8525390718914
6.837528576,0.9998900094761122,-127.9731606648957
6.839816704,0.9999506399084999,-128.09464827451555
6.842105344,1.0000144526693184,-128.21701872964127
6.844393472,1.0000773253551,-128.34032321546283
6.846682112,1.000135438970532,-128.4645099605293
6.84897024,1.0001848187318956,-128.58951847183545
6.851258368,1.0002225855625666,-128.71509082894062
6.853547008,1.0002461195509178,-128.84114977052218
6.855835136,1.0002539944054287,-128.9674713481456
6.858123776,1.0002457927956263,-129.0937706130546
6.860411904,1.0002217266973266,-129.2198371138843
6.862700032,1.000183598561655,-129.34547674378152
6.864988672,1.0001337112458162,-129.4704561278256
6.8672768,1.00007522608334,-129.59464007964777
6.86956544,1.0000118469412502,-129.7179626347928
6.871853568,0.999947687618794,-129.84033143012854
6.874141696,0.9998866723553843,-129.96179418338215
6.876430336,0.9998328744903774,-130.0824434561102
6.878718464,0.999789660336017,-130.20240033156125
6.881007104,0.9997598195883095,-130.321786373235
6.883295232,0.9997451390322488,-130.44084803396953
6.88558336,0.9997467693555915,-130.55982795574545
6.887872,0.999764396544117,-130.67895205002523
6.890160128,0.9997971698447121,-130.79842942083238
6.892448768,0.9998428431103896,-130.91849517256378
6.894736896,0.9998985257140953,-131.03928346027018
6.897025024,0.9999608034203216,-131.16096156888926
6.899313664,1.0000255875453838,-131.28353364670153
6.901601792,1.0000885934696402,-131.4070704615071
6.90388992,1.0001462123565954,-131.53145611852486
6.90617856,1.0001945466913384,-131.65663614715766
6.908466688,1.0002305252853263,-131.78239635756464
6.910755328,1.000251697262136,-131.9086374401868
