freq,mag,phase
6.0,0.9997948160096207,-15.223968444146788
6.002286592,0.9998458342662279,-15.305530763623008
6.004572672,0.9999055465618847,-15.387932347419206
6.006859264,0.999971491367757,-15.471250082001065
6.009145344,1.0000397243364536,-15.555573006967295
6.011431936,1.0001054078803404,-15.640844603391646
6.013718016,1.0001647748633395,-15.727090239044252
6.016004608,1.0002139711593179,-15.814142908031368
6.018290688,1.0002495928061457,-15.901793912200121
6.02057728,1.0002696061049208,-15.98986625875115
6.022863872,1.0002725461270645,-16.078140279139284
6.025149952,1.0002583196636785,-16.166329251316437
6.027436544,1.0002278179555362,-16.2542362094902
6.029722624,1.000182753001431,-16.341585637221815
6.032009216,1.0001264921203734,-16.428199249249335
6.034295296,1.000062125999174,-16.513967773593006
6.036581888,0.9999940165440128,-16.59876424253355
6.03886848,0.9999265413132217,-16.682548787953156
6.04115456,0.999863897716791,-16.765424004658048
6.043441152,0.9998101786428754,-16.84745744551599
6.045727232,0.9997688250433604,-16.928837553054695
6.048013824,0.999742607737874,-17.009645919481198
6.050299904,0.9997330645835392,-17.09030144955803
6.052586496,0.9997409050974457,-17.170910846083718
6.054872576,0.9997653856886252,-17.251771169681867
6.057159168,0.9998053979748217,-17.3331187409691
6.05944576,0.9998581088754925,-17.415144632336865
6.06173184,0.9999201877462368,-17.49800355027443
6.064018432,0.9999876564620884,-17.58186686085083
6.066304512,1.0000562897645229,-17.666713129615214
6.068591104,1.000121547735209,-17.752488668878538
6.070877184,1.0001793435001813,-17.839267456680144
6.073163776,1.0002258608475776,-17.92677197663434
6.075450368,1.0002582854208326,-18.01491878157581
6.077736448,1.0002743961421006,-18.103357391883634
6.08002304,1.0002731971289194,-18.1919911321043
6.08230912,1.0002548535256512,-18.280458827089635
6.084595712,1.0002203738911035,-18.36856231168246
6.086881792,1.0001719515285008,-18.456083546173044
6.089168384,1.0001127452450096,-18.542779229722917
6.091454464,1.0000466075337462,-18.628612591914578
6.093741056,0.9999776652334567,-18.713486000443233
6.096027648,0.9999102110129927,-18.797351060570165
6.098313728,0.9998489139572,-18.880253335664243
6.10060032,0.9997972794759511,-18.962409775679888
6.1028864,0.9997589743656585,-19.04387088495949
6.105172992,0.9997362867271867,-19.124916003515242
6.107459072,0.9997310155804754,-19.205749105065408
6.109745664,0.9997427284693677,-19.286649529695843
6.112032256,0.999771639235857,-19.36788428253091
6.114318336,0.9998153464073436,-19.44961975428791
6.116604928,0.9998711102324098,-19.53208826095857
6.118891008,0.9999353771918257,-19.615500149248206
6.1211776,1.0000040956417773,-19.69984175112459
6.12346368,1.0000729794878602,-19.785265250202098
6.125750272,1.0001373584218798,-19.871589448216668
6.128036352,1.0001932654965517,-19.958848681720806
6.130322944,1.0002373452915307,-20.04687521473238
6.132609536,1.0002661279565788,-20.135388258469273
6.134895616,1.0002783624511133,-20.224290110844237
6.137182208,1.0002729101206669,-20.313187892418355
6.139468288,1.0002503402170244,-20.40191958445361
6.14175488,1.0002119594378593,-20.49023387470458
6.14404096,1.0001602644495253,-20.577850915993736
6.146327552,1.0000984370252302,-20.664695225181045
6.148614144,1.000030465704662,-20.75060124468033
6.150900224,0.999960920849933,-20.835549684350795
6.153186816,0.9998940302906009,-20.919430243860017
6.155472896,0.9998341321722447,-21.00245414317097
6.157759488,0.9997849421829156,-21.08464045883063
6.160045568,0.9997498563377762,-21.166299957944265
6.16233216,0.9997309906368105,-21.247511376006848
6.16461824,0.9997296154513164,-21.328593774134834
6.166904832,0.9997459101123706,-21.409813998373725
6.169191424,0.9997787765697645,-21.491416840137315
6.171477504,0.9998259728284002,-21.57358020450808
6.173764096,0.9998847855406773,-21.656541572554577
6.176050176,0.9999509783772251,-21.740436705397084
6.178336768,1.0000208605464593,-21.825331675185115
6.180622848,1.0000896403437198,-21.91123650674944
6.18290944,1.0001529808614646,-21.998145035541526
6.18519552,1.0002067992760357,-22.08591593500459
6.187482112,1.0002477985902711,-22.174340944460162
6.189768704,1.0002730991496416,-22.26334664056966
6.192054784,1.0002813833410997,-22.35258561704483
6.194341376,1.0002716100296336,-22.441790363650302
6.196627456,1.0002449550813908,-22.530790066167377
6.198914048,1.0002027223244199,-22.619291591081975
6.201200128,1.000147753891392,-22.707074662644356
6.20348672,1.0000836134333049,-22.794001828132213
6.205773312,1.000014319489243,-22.87998041420195
6.208059392,0.9999442354753172,-22.96494664627148
6.210345984,0.9998781075714639,-23.04889627464348
6.212632064,0.9998197948262327,-23.131982615553582
6.214918656,0.9997733289231027,-23.214309316204375
6.217204736,0.9997417577254722,-23.296079547427617
6.219491328,0.999726742156012,-23.37751553748357
6.221777408,0.9997296916125487,-23.458888653832368
6.224064,0.9997501143679541,-23.540404311436
6.226350592,0.9997868854859158,-23.62238697323112
6.228636672,0.9998375988463853,-23.705015389784283
6.230923264,0.9998990302681614,-23.78849575480751
6.233209344,0.9999672438594431,-23.87285589901679
6.235495936,1.0000378230673719,-23.958297961985096
6.237782016,1.000106427838351,-24.04478108617771
6.240068608,1.0001684394456165,-24.132205666253007
6.2423552,1.0002200747066436,-24.220448254585417
6.24464128,1.0002576779801626,-24.309396308935778
6.246927872,1.0002792388118191,-24.39879252470632
6.249213952,1.0002832392130339,-24.48837995130266
6.251500544,1.0002693395658901,-24.57791378638169
6.253786624,1.0002383986369696,-24.667105835863183
6.256073216,1.0001925624543886,-24.755815061330786
6.258359296,1.0001345240647819,-24.84371722919338
6.260645888,1.0000680898243102,-24.930725709169167
6.26293248,0.9999975399206718,-25.016803628389383
6.26521856,0.9999273390122335,-25.10179063100631
6.267505152,0.9998620393911085,-25.18581828524079
6.269791232,0.9998057698420163,-25.26901151623942
6.272077824,0.9997621649799828,-25.351424554135793
6.274363904,0.9997340868111698,-25.433358662897337
6.276650496,0.9997232627599313,-25.51500605993721
6.278937088,0.9997303896829004,-25.596638396437715
6.281223168,0.9997550826999447,-25.678536805952096
6.28350976,0.9997958193630736,-25.760899065228212
6.28579584,0.9998499868511244,-25.84400354690479
6.288082432,0.9999139649073925,-25.92790570624999
6.290368512,0.9999836490494254,-26.012884882613648
6.292655104,1.0000548016151067,-26.098868832113585
6.294941184,1.0001229556849833,-26.185869165252928
6.297227776,1.0001833999758443,-26.273824170798743
6.299514368,1.0002325281016824,-26.36260231846702
6.301800448,1.0002668432172366,-26.451980325015235
6.30408704,1.0002846099718405,-26.541795843289943
6.30637312,1.0002841381764518,-26.631703991805143
6.308659712,1.0002660806357915,-26.721540324845783
6.310945792,1.0002310324021424,-26.810969143485668
6.313232384,1.0001815950356636,-26.899824802562552
6.315518464,1.0001205547671081,-26.98785809669582
6.317805056,1.000052188258774,-27.074973723822307
6.320091648,0.9999805571470383,-27.16104438298975
6.322377728,0.9999104920152746,-27.246110321676454
6.32466432,0.9998463775425346,-27.33021965084252
6.3269504,0.9997923671992238,-27.413481870042506
6.329236992,0.9997516833199958,-27.49606408840274
6.331523072,0.9997273752116651,-27.578163171103622
6.333809664,0.9997207475676271,-27.66003962157628
6.336096256,0.9997322234189309,-27.741986704429536
6.338382336,0.9997610794940817,-27.82422108356772
6.340668928,0.9998056680407785,-27.90702505947454
6.342955008,0.999862970799256,-27.99055961568394
6.3452416,0.9999294185425875,-28.074998212062862
6.34752768,1.0000006398795178,-28.160499928241748
6.349814272,1.0000720821756386,-28.247045319035948
6.352100352,1.000139280322686,-28.334582755889755
6.354386944,1.0001979971865322,-28.423072480607345
6.356673536,1.0002443341857365,-28.512333548366943
6.358959616,1.0002751679870159,-28.602198640271986
6.361246208,1.0002888713261966,-28.692368556742228
6.363532288,1.0002842454300693,-28.78263540719771
6.36581888,1.0002616721024826,-28.872739151480037
6.36810496,1.0002227270740844,-28.962376915415962
6.370391552,1.0001698645717845,-29.05133920044149
6.372678144,1.0001059909241081,-29.139527429614017
6.374964224,1.0000358274161585,-29.226707097553874
6.377250816,0.9999636554602676,-29.31287855689991
6.379536896,0.9998938509385256,-29.397994505016815
6.381823488,0.9998310895620524,-29.482182665301533
6.384109568,0.9997795456060775,-29.565531010716178
6.38639616,0.9997421876911549,-29.648224783173532
6.38868224,0.9997217224772135,-29.730516527543262
6.390968832,0.999719174846777,-29.812672688402763
6.393255424,0.9997350160539307,-29.894874104120625
6.395541504,0.999768236172806,-29.9775284695315
6.397828096,0.9998164352122376,-30.060765611523344
6.400114176,0.9998767779791231,-30.144794217169107
6.402400768,0.9999453771086723,-30.22975889707599
6.404686848,1.0000177214410824,-30.315783416949685
6.40697344,1.000089225962581,-30.402849503375133
6.409260032,1.0001554925344718,-30.490985675664003
6.411546112,1.0002120011202482,-30.57998834239042
6.413832704,1.0002553752500773,-30.669774835723157
6.416118784,1.0002826934707527,-30.760041381494357
6.418405376,1.0002921306054742,-30.85063362072744
6.420691456,1.000283133661308,-30.94120237391039
6.422978048,1.0002563407533627,-31.03155550582015
6.425264128,1.000213447844759,-31.12141143898705
6.42755072,1.000157032746896,-31.21052807766855
6.429837312,1.0000907748952774,-31.298794853269754
6.432123392,1.0000190865943481,-31.38600578058195
6.434409984,0.9999463316253848,-31.472238493666776
6.436696064,0.9998772202941847,-31.55745702725522
6.438982656,0.999816249956513,-31.64169541375102
6.441268736,0.9997670928543609,-31.725156152444754
6.443555328,0.9997333066757019,-31.807989150526385
6.44584192,0.9997167407470272,-31.890501243195317
6.448128,0.9997187332509985,-31.972897301758092
6.450414592,0.9997389893598155,-32.05548142806255
6.452700672,0.9997761683336759,-32.13849166708491
6.454987264,0.9998280067965186,-32.222176420315
6.457273344,0.9998912345333146,-32.30668477094579
6.459559936,0.9999617098944151,-32.39219503957966
6.461846016,1.0000349859867623,-32.478781325358746
6.464132608,1.000106457663753,-32.56642810754243
6.4664192,1.0001713842176285,-32.6550777910377
6.46870528,1.0002255711524095,-32.744654206931074
6.470991872,1.0002657773607837,-32.83488471809778
6.473277952,1.0002892714415386,-32.9255959241008
6.475564544,1.000294457477285,-33.01654808865144
6.477850624,1.0002811151805548,-33.10742526914738
6.480137216,1.000250096771653,-33.19802104189627
6.482423296,1.0002032012517441,-33.28803905008018
6.484709888,1.000143704639574,-33.37730103832313
6.48699648,1.000075224473762,-33.46567112319676
6.48928256,1.000002075764366,-33.55299319779917
6.491569152,0.9999289357810243,-33.63924692431601
6.493855232,0.999860795448253,-33.72448041075404
6.496141824,0.9998017460735603,-33.808840610312835
6.498427904,0.9997555425022605,-33.89238796178905
6.500714496,0.9997254220190045,-33.975424402408905
6.503001088,0.9997129080750793,-34.05817003265619
6.505287168,0.9997192347589297,-34.14086073683172
6.50757376,0.9997438484095137,-34.22377370263468
6.50985984,0.9997850999156122,-34.30718884655549
6.512146432,0.9998405636298359,-34.39133121764696
6.514432512,0.999906367775217,-34.47636426205657
6.516719104,0.9999786550898043,-34.56244033888857
6.519005184,1.0000527281002372,-34.649551898107205
6.521291776,1.0001235775117643,-34.73775112910771
6.523578368,1.000186919717152,-34.82697183501013
6.525864448,1.0002386678582942,-34.91702887825532
6.52815104,1.0002753698643798,-35.00776246543864
6.53043712,1.000295021892868,-35.098884217976924
6.532723712,1.0002957536189865,-35.19017925639506
6.535009792,1.000277912504925,-35.28138438106474
6.537296384,1.0002427885158391,-35.37219672131134
6.539582976,1.0001921765473571,-35.46239149598804
6.541869056,1.0001296067866436,-35.55175505792287
6.544155648,1.0000589511371663,-35.64021286902986
6.546441728,0.9999846860471978,-35.727609024851965
6.54872832,0.9999117703550099,-35.813942262054844
6.5510144,0.9998446574870811,-35.89926853628932
6.553300992,0.999787688774351,-35.98368524847333
6.555587072,0.9997445424968634,-36.067363007713276
6.557873664,0.9997180818778754,-36.15057384123605
6.560160256,0.99970990086247,-36.233516324745956
6.562446336,0.999720760346567,-36.31650080223467
6.564732928,0.9997496241238496,-36.39978730228552
6.567019008,0.9997949555046733,-36.4836584858563
6.5693056,0.9998536044063582,-36.56824186592694
6.57159168,0.9999220318762163,-36.653806567968374
6.573878272,0.9999959004931088,-36.740445112695134
6.576164864,1.0000703609122568,-36.82812031448003
6.578450944,1.000140574013951,-36.91687728433096
6.580737536,1.0002019272274687,-37.006620799966825
6.583023616,1.0002510102143127,-37.09719632876959
6.585310208,1.0002842356602435,-37.188393370301675
6.587596288,1.000299546894251,-37.279939376201014
6.58988288,1.0002961711800056,-37.37158244938329
6.59216896,1.0002738720588265,-37.46302900915462
6.594455552,1.0002344765259916,-37.554091309469555
6.596742144,1.0001802787557765,-37.64447736872639
6.599028224,1.000114723256285,-37.733992954178326
6.601314816,1.0000422001412566,-37.822485959980696
6.603600896,0.9999671741157613,-37.90993710917826
6.605887488,0.999894265759506,-37.996331489870215
6.608173568,0.9998286528075901,-38.081709981418264
6.61046016,0.999774018807354,-38.16624008849287
6.612746752,0.99973436879948,-38.25004398789142
6.615032832,0.9997117561835206,-38.33343613941017
6.617319424,0.9997080477709118,-38.41667057905043
6.619605504,0.9997232313249154,-38.499934819713616
6.621892096,0.9997564062071296,-38.58361955385718
6.624178176,0.9998055757372188,-38.66789218397516
6.626464768,0.9998674881642594,-38.75300990425865
6.628750848,0.9999382505988523,-38.839090737023575
6.63103744,1.0000133593167777,-38.92624773275502
6.633324032,1.0000878886963602,-39.0145321450134
6.635610112,1.0001571247206598,-39.10385981517992
6.637896704,1.0002167319062423,-39.194121462536984
6.640182784,1.000262812295173,-39.28521931114253
6.642469376,1.0002922522505944,-39.376816575597765
6.644755456,1.0003034052935187,-39.46878980018221
6.647042048,1.000295492023553,-39.56076636809146
6.649328128,1.000268906917717,-39.65248474232963
6.65161472,1.0002252421486844,-39.743762397527206
6.653901312,1.000167602380287,-39.83430287735095
6.656187392,1.0000994833404144,-39.92391728788659
6.658473984,1.0000251197309744,-40.01247248384501
6.660760064,0.9999494908842324,-40.10003377517373
6.663046656,0.9998773527321458,-40.186447890319734
6.665332736,0.9998131732585828,-40.271895447353565
6.667619328,0.99976134729717,-40.35650185869451
6.66990592,0.9997248755988718,-40.44049130348668
6.672192,0.9997064521462027,-40.52411220223771
6.674478592,0.9997069927886781,-40.60757027069306
6.676764672,0.9997267972396165,-40.69116992462038
6.679051264,0.9997642149712823,-40.77527729631195
6.681337344,0.9998172296660549,-40.85997639788468
6.683623936,0.9998822418596665,-40.94558024477852
6.685910016,0.9999551212155722,-41.032240935949936
6.688196608,1.0000311581136754,-41.11993775456544
6.6904832,1.0001056428733346,-41.20879682338408
6.69276928,1.0001736426300512,-41.29870792630557
6.695055872,1.0002310290819676,-41.38951242702032
6.697341952,1.0002736467906486,-41.48106293116283
6.699628544,1.0002994488108927,-41.573160493796365
6.701914624,1.000306226319911,-41.665495312752796
6.704201216,1.0002937362447706,-41.757784292309864
6.706487808,1.0002627253549148,-41.84977907700388
6.708773888,1.0002151614270567,-41.94124931298192
6.71106048,1.0001540889040306,-42.031911500967546
6.71334656,1.0000833244250549,-42.121623440642296
6.715633152,1.0000076307154149,-42.21030215941859
6.717919232,0.9999316940067682,-42.29784339139793
6.720205824,0.9998602853417132,-42.38433967135952
6.722491904,0.9997979562621172,-42.46985231606418
6.724778496,0.999749022460752,-42.55459768247282
6.727065088,0.9997163783672951,-42.63874623927726
6.729351168,0.9997020271847344,-42.722562177539274
6.73163776,0.9997071198728573,-42.80629988356286
6.73392384,0.9997313987041683,-42.89028043277813
6.736210432,0.9997730712682703,-42.97476858917494
6.738496512,0.9998296631354077,-43.05994609267021
6.740783104,0.999897433638168,-43.14610661580893
6.743069696,0.9999722018062107,-43.23324697539739
6.745355776,1.0000491013000328,-43.32155268729763
6.747642368,1.0001231487458715,-43.41097398254051
6.749928448,1.0001896680582352,-43.5014271523862
6.75221504,1.0002445855344717,-43.59278281569943
6.75450112,1.0002839271040789,-43.68484088688743
6.756787712,1.0003056619425987,-43.77733281727929
6.759073792,1.00030804781243,-43.870044378010405
6.761360384,1.00029099740356,-43.96265028704896
6.763646976,1.0002556297798022,-44.054898889433034
6.765933056,1.0002041701755466,-44.14655109249517
6.768219648,1.0001398329985287,-44.23734833987351
6.770505728,1.0000667930271345,-44.32714251824059
6.77279232,0.9999899134638732,-44.41585434826396
6.7750784,0.9999139127998551,-44.503472722705695
6.777364992,0.999843376598778,-44.590035523302994
6.779651584,0.9997833102548119,-44.67564682956011
6.781937664,0.9997374150988272,-44.76053677360447
6.784224256,0.9997086220208994,-44.844811003333575
6.786510336,0.9996986026283288,-44.92886402028229
6.788796928,0.999708225654284,-45.012915899613965
6.791083008,0.9997369514823091,-45.09724936189735
6.7933696,0.9997828368540833,-45.18214751558647
6.79565568,0.9998429931836995,-45.267824249271854
6.797942272,0.9999132910600398,-45.35449961098366
6.800228864,0.9999896894411543,-45.44224521101419
6.802514944,1.0000671383874002,-45.53109592711978
6.804801536,1.0001405549280897,-45.62111017336584
6.807087616,1.0002055189073786,-45.712065242332294
6.809374208,1.0002575612649254,-45.80398161725267
6.811660288,1.000293338489782,-45.89651591492088
6.81394688,1.0003107765691215,-45.98946969330079
6.81623296,1.0003086264878904,-46.08253095683033
6.818519552,1.0002871361452301,-46.17542986686645
6.820806144,1.0002474139838515,-46.2679122379951
6.823092224,1.0001922189917634,-46.3597066227508
6.825378816,1.000124862773416,-46.450619297468855
6.827664896,1.000049915651029,-46.540487054623256
6.829951488,0.9999719016451297,-46.629256107076756
6.832237568,0.9998959393494302,-46.716969033300465
6.83452416,0.9998269260377354,-46.803560699904324
6.836810752,0.9997692163690202,-46.889277049754426
6.839096832,0.9997266193725945,-46.974252579426455
6.841383424,0.9997017271919016,-47.0587415413458
6.843669504,0.9996961761929998,-47.1430430005985
6.845956096,0.9997105092925591,-47.22741449519076
6.848242176,0.9997435882234064,-47.31214390687039
6.850528768,0.9997934378882596,-47.39748767080716
6.852814848,0.9998567886107945,-47.48368432257054
6.85510144,0.9999298332187534,-47.57084673024571
6.857388032,1.0000077582339593,-47.659132815363144
6.859674112,1.0000854309180558,-47.74860151893116
6.861960704,1.0001579336381445,-47.83916313696649
6.864246784,1.0002207339714564,-47.93074558057269
6.866533376,1.000269783698931,-48.023124714698554
6.868819456,1.000302074973045,-48.11613272762742
6.871106048,1.0003151109091855,-48.20949735556579
6.87339264,1.0003083695009514,-48.30288509386181
6.87567872,1.000282350932521,-48.39608963620508
6.877965312,1.0002383479051074,-48.488758900094155
6.880251392,1.0001794958520858,-48.5807173204599
6.882537984,1.0001092772506273,-48.671738330092815
6.884824064,1.000032426430022,-48.7617125666572
6.887110656,0.9999536778063108,-48.8505385054436
6.889396736,0.9998781716020431,-48.93828310978222
6.891683328,0.9998106371070985,-49.024945446368044
6.89396992,0.9997556440648853,-49.110731891834114
6.896256,0.9997164191838834,-49.19587004061322
6.898542592,0.9996957153701731,-49.28059345496323
6.900828672,0.9996946678991023,-49.365139586556325
6.903115264,0.9997136884607931,-49.44984820049977
6.905401344,0.9997511580955505,-49.53497135694766
6.907687936,0.9998050120657647,-49.62075651145376
6.909974528,0.9998715042094505,-49.707440392765356
