freq,mag,phase
6.0,1.0000803929692024,72.23927682168939
6.002287104,0.999993156392682,72.06999505054286
6.004574208,0.9999063929281077,71.90195707076276
6.006861312,0.9998256299272111,71.73516043719965
6.009147904,0.9997557555244201,71.56946816218009
6.011435008,0.9997014250483196,71.4047053708834
6.013722112,0.9996659267767448,71.24059711018765
6.016009216,0.9996516385738301,71.07684249877587
6.01829632,0.9996593746175854,70.91316056644348
6.020583424,0.9996886216459413,70.74922870097684
6.022870016,0.9997376324779644,70.58471950323265
6.02515712,0.9998033575216073,70.41939263991078
6.027444224,0.9998815614485432,70.2530312642342
6.029731328,0.9999672571150467,70.08551187109289
6.032018432,1.000055152749509,69.91672980639537
6.034305536,1.0001395889636486,69.74668687506366
6.036592128,1.0002152721407538,69.57551078387984
6.038879232,1.0002773748646854,69.403337866986
6.041166336,1.000322065095531,69.23038709183166
6.04345344,1.0003464408261273,69.05696727688833
6.045740544,1.0003488191118801,68.88333665519845
6.048027648,1.0003293011651868,68.70983908681895
6.05031424,1.0002890170026224,68.53677914939217
6.052601344,1.0002303380340833,68.36447729528278
6.054888448,1.0001571837651881,68.19309790410506
6.057175552,1.0000740328395332,68.0228790189765
6.059462656,0.999986139655702,67.85390049678735
6.06174976,0.9998991784315466,67.68622105160863
6.064036352,0.9998184213342305,67.5197609407637
6.066323456,0.999749268438088,67.35440216614
6.06861056,0.999695981941967,67.1899244087145
6.070897664,0.9996618602400822,67.0261152464852
6.073184768,0.999649084377675,66.86262447250637
6.075471872,0.9996585655280877,66.69917805011566
6.077758464,0.9996897157619766,66.53546759850744
6.080045568,0.9997404807094568,66.37114608214942
6.082332672,0.9998078122154507,66.2059951271464
6.084619776,0.9998872369198142,66.0397570071275
6.08690688,0.9999739705778996,65.87232643445647
6.089193984,1.0000623219566425,65.70363833982037
6.091481088,1.0001468536174867,65.53372568292251
6.09376768,1.0002221238989446,65.36264207933418
6.096054784,1.0002834207253013,65.19057346888862
6.098341888,1.0003268113879127,65.01773925011574
6.100628992,1.0003496407859436,64.84442736554628
6.102916096,1.0003504244372134,64.67097417583304
6.1052032,1.0003290645350562,64.49765078737074
6.107489792,1.000286856725941,64.32482316484706
6.109776896,1.0002265452614438,64.1527090577295
6.112064,1.000151853186498,63.98160252068739
6.114351104,1.000067568627601,63.8116304170416
6.116638208,0.9999790156372234,63.64295804424662
6.118925312,0.9998917223881647,63.47554365543845
6.121211904,0.9998111865624846,63.309353843012296
6.123499008,0.9997426831218108,63.144256451107815
6.125786112,0.9996903375491135,62.98005959217752
6.128073216,0.9996576294391928,62.8164635904009
6.13036032,0.99964658315857,62.65321257903575
6.132647424,0.9996579158965004,62.48995748964422
6.134934016,0.9996908448398021,62.326381621384925
6.13722112,0.9997434542285613,62.162195344461225
6.139508224,0.9998122999246646,61.99714074419442
6.141795328,0.9998930399574573,61.83099443210411
6.144082432,0.9999806656506876,61.663642056713904
6.146369536,1.000069528925569,61.49500745531363
6.148656128,1.0001540637418875,61.325117746708564
6.150943232,1.0002289512057778,61.154076208948766
6.153230336,1.0002894520400154,60.98205409832387
6.15551744,1.0003315729908573,60.80929311189999
6.157804544,1.0003528265970445,60.63606846602138
6.160091648,1.0003518973409435,60.46270915822117
6.162378752,1.0003286112615855,60.28951797505071
6.164665344,1.0002846051058052,60.116843600847716
6.166952448,1.0002226215217307,59.94490546838138
6.169239552,1.0001464468131338,59.774000964709984
6.171526656,1.0000610709905586,59.60427288770482
6.17381376,0.9999718405566811,59.43580330756063
6.176100864,0.9998842658918383,59.268620583080825
6.178387456,0.9998040452882146,59.10267188146291
6.18067456,0.9997361668561437,58.93779150992677
6.182961664,0.9996849815736152,58.77378168710402
6.185248768,0.9996536825222004,58.61038948972121
6.187535872,0.9996443728238925,58.44728776307685
6.189822976,0.9996574988386995,58.284174011618084
6.192109568,0.9996923341770783,58.12069804950592
6.194396672,0.9997466744714752,57.956586730448244
6.196683776,0.9998171382603184,57.79158161510776
6.19897088,0.9998992190573767,57.62545213689121
6.201257984,0.9999877152495479,57.458107811275276
6.203545088,1.0000770554298346,57.289476874837085
6.20583168,1.0001615265860604,57.119579578013074
6.208118784,1.000235979461769,56.94853884344831
6.210405888,1.0002954758970566,56.77650315246243
6.212692992,1.0003364482078174,56.60375618582765
6.214980096,1.0003560787704502,56.43057698007891
6.2172672,1.000353308498068,56.25725868312169
6.219553792,1.0003281997966214,56.084176297106765
6.221840896,1.0002822888422487,55.9115672717049
6.224128,1.0002186285264991,55.739780966782256
6.226415104,1.0001410570230183,55.56902475294978
6.228702208,1.0000546416406195,55.399451243348715
6.230989312,0.9999645896309597,55.23114863756888
6.233275904,0.9998768861168476,55.06416144082349
6.235563008,0.9997969129213585,54.89838482135591
6.237850112,0.9997297230521403,54.73365724414273
6.240137216,0.9996796132089191,54.56981338960922
6.24242432,0.9996498776687053,54.40653892635985
6.244711424,0.999642160087451,54.243564523385125
6.246998528,0.9996571734647521,54.080513497381745
6.24928512,0.9996940003656861,53.91710325526273
6.251572224,0.9997500695387546,53.753016903279466
6.253859328,0.9998221212445433,53.588006013841
6.256146432,0.9999053892028609,53.42186020912357
6.258433536,0.9999947141899554,53.254462412418405
6.26072064,1.000084580454353,53.08576109694682
6.263007232,1.000169084948665,52.91579924046323
6.265294336,1.0002429507968444,52.744703350600986
6.26758144,1.0003015636027894,52.572617707682674
6.269868544,1.0003411281421493,52.3998327139615
6.272155648,1.0003591835336165,52.226633124197726
6.274442752,1.0003545822723876,52.05332860877241
6.276729344,1.000327503336259,51.88026456408224
6.279016448,1.000279765322742,51.70771180629439
6.281303552,1.000214361327328,51.53600733304528
6.283590656,1.0001353476430102,51.36533251003153
6.28587776,1.000047766444246,51.19587500574018
6.288164864,0.9999571989502744,51.02772546565166
6.290451456,0.999869274128057,50.86084936141673
6.29273856,0.9997895118799234,50.69519722568868
6.295025664,0.9997231808996188,50.53061793149413
6.297312768,0.9996742332507538,50.366864273045806
6.299599872,0.9996458702545377,50.20366663199849
6.301886976,0.9996400131490916,50.04074234336314
6.304173568,0.9996568387019945,49.87773635364534
6.306460672,0.999695492287173,49.71432078989344
6.308747776,0.9997534932170616,49.55019683901289
6.31103488,0.9998270188060354,49.385121221431305
6.313321984,0.9999115899969963,49.21888999455883
6.315609088,1.000001926084296,49.051399027746584
6.317896192,1.000092064097366,48.882586994373376
6.320182784,1.000176516507931,48.712534389386306
6.322469888,1.0002498439733924,48.54129827408014
6.324756992,1.000307413228655,48.3691104507944
6.327044096,1.0003456792193923,48.196239208904835
6.3293312,1.000362001591792,48.022985975448485
6.331618304,1.0003556350931395,47.84962288586161
6.333904896,1.000326668166284,47.67653270746826
6.336192,1.0002771096750158,47.50401355969984
6.338479104,1.0002099618426303,47.33230944995744
6.340766208,1.000129588797937,47.16169980708007
6.343053312,1.0000409172505986,46.99230896330528
6.345340416,0.999949669742996,46.82422460177257
6.347627008,0.9998615751105367,46.65741753443271
6.349914112,0.9997822397089811,46.491855390299406
6.352201216,0.9997164942493661,46.32734384140204
6.35448832,0.9996687730854055,46.16364869377707
6.356775424,0.9996419381079269,46.00047738642696
6.359062528,0.9996378160444848,45.83754491650618
6.36134912,0.9996566332264003,45.674498514022055
6.363636224,0.9996971348730767,45.511032291496235
6.365923328,0.99975686289153,45.34683040882875
6.368210432,0.9998320791094729,45.18164824807655
6.370497536,0.9999179584617958,45.01526543434618
6.37278464,1.0000089560717589,44.847627414248116
6.375071232,1.0000995397650891,44.67868075678489
6.377358336,1.0001838436898332,44.50843086531907
6.37964544,1.0002566872633307,44.33703643364654
6.381932544,1.0003132217467468,44.16471307979051
6.384219648,1.000350104522752,43.991701000766724
6.386506752,1.0003648429611298,43.81831140447546
6.388793344,1.0003564338039521,43.64486300009385
6.391080448,1.000325645493887,43.47170555376326
6.393367552,1.0002742608203394,43.299121231326346
6.395654656,1.0002054178094837,43.1274251970287
6.39794176,1.0001236168601897,42.95680742039851
6.400228864,1.0000339278983246,42.78743348569851
6.402515968,0.999942057244424,42.61936300493643
6.40480256,0.9998538693949329,42.452604372029114
6.407089664,0.9997747709635724,42.28705989408881
6.409376768,0.9997100006879882,42.12256234120875
6.411663872,0.9996634374813078,41.95885895627894
6.413950976,0.9996381986396699,41.79566780072421
6.41623808,0.9996359241848142,41.63268196053491
6.418524672,0.9996565306068231,41.469567481975
6.420811776,0.9996989476219342,41.305988922199596
6.42309888,0.9997605296606724,41.14164262337422
6.425385984,0.9998372711612717,40.97628054246838
6.427673088,0.9999242995619678,40.809742701308515
6.429960192,1.0000162792364005,40.641890430000394
6.432246784,1.0001071371390413,40.472708832358535
6.434533888,1.000191359989807,40.30226382456738
6.436820992,1.0002635474202681,40.13064712054559
6.439108096,1.0003190675450901,39.95812259883594
6.4413952,1.000354507987993,39.78492103012153
6.443682304,1.0003675695389576,39.61136179280382
6.445968896,1.0003573567950756,39.43776833691198
6.448256,1.0003246575396745,39.26447839544491
6.450543104,1.0002712653400505,39.09181971188759
6.452830208,1.0002007782613145,38.920047871997944
6.455117312,1.00011755798977,38.74937038664182
6.457404416,1.0000268732011817,38.579967619644364
6.459691008,0.9999344328472947,38.41187126119876
6.461978112,0.9998460808603293,38.245110604294936
6.464265216,0.9997673934591703,38.079522420998444
6.46655232,0.9997034798530368,37.91498251569714
6.468839424,0.9996581952738025,37.7512194306054
6.471126528,0.9996345564403283,37.587964795194665
6.473413632,0.9996340272168399,37.42489359949674
6.475700224,0.9996566275093164,37.26161882707895
6.477987328,0.9997010825211309,37.09789869275814
6.480274432,0.9997643402962871,36.933351409318206
6.482561536,0.999842681817771,36.76778727536374
6.48484864,0.9999309626557688,36.60100428339709
6.487135744,1.0000236385144625,36.43290072260235
6.489422336,1.00011492232885,36.2634543413872
6.49170944,1.000198978270171,36.09272150399251
6.493996544,1.0002705267232876,35.9208574349979
6.496283648,1.0003250013698946,35.74806695999226
6.498570752,1.0003589578908714,35.57462135143924
6.500857856,1.000370166589714,35.40085060385684
6.503144448,1.000358214476988,35.22705267956231
6.505431552,1.0003234414168731,35.05362166805648
6.507718656,1.0002682510598202,34.88081208099016
6.51000576,1.0001960932431466,34.70891131156179
6.512292864,1.0001115321785108,34.53815054927543
6.514579968,1.0000197704919729,34.36864639014938
6.51686656,0.9999268076608313,34.20047891956665
6.519153664,0.9998383852938771,34.03362635910887
6.521440768,0.9997601302656092,33.8679808225285
6.523727872,0.9996969981064969,33.7033538123906
6.526014976,0.99965299509983,33.53948691900555
6.52830208,0.9996310573057606,33.376113504656566
6.530588672,0.9996322380054348,33.21287406430682
6.532875776,0.9996569112301907,33.04945004203884
6.53516288,0.9997031314594417,32.88546914704424
6.537449984,0.999768290442692,32.720706928892106
6.539737088,0.9998480967893564,32.55487094160858
6.542024192,0.9999375763265328,32.387790142961485
6.544310784,1.0000310133459156,32.219366802592894
6.546597888,1.0001226462507171,32.049602519869275
6.548884992,1.00020652926301,31.8785618454077
6.551172096,1.0002773819397441,31.706361422253607
6.5534592,1.0003308066334315,31.53327047649845
6.555746304,1.0003632676957213,31.35954289919821
6.558033408,1.0003728660544018,31.185491053622933
6.56032,1.0003589139374676,31.01148143071198
6.562607104,1.000322231814487,30.837805868980496
6.564894208,1.0002652276679762,30.66481589570898
6.567181312,1.000191294071386,30.492745905324135
6.569468416,1.0001053484353641,30.321831487920107
6.57175552,1.0000127043981353,30.152206152146327
6.574042112,0.9999191370871142,29.983912174229747
6.576329216,0.9998306421144066,29.81694306184922
6.57861632,0.9997528739437289,29.651171983967032
6.580903424,0.9996906172273812,29.48641267079609
6.583190528,0.9996479009656221,29.322393883598387
6.585477632,0.9996274661638355,29.158835141753993
6.587764224,0.9996307139506709,28.995390761517218
6.590051328,0.9996571790293532,28.831712724960113
6.592338432,0.9997054492503982,28.667488547303517
6.594625536,0.9997723017017097,28.502414676587563
6.59691264,0.9998536907094236,28.336249805224256
6.599199744,0.999944358248403,28.168839191792767
6.601486336,1.0000385990117384,28.00005284430725
6.60377344,1.0001304155236872,27.829926902300784
6.606060544,1.0002140600112497,27.658499165553888
6.608347648,1.0002842919073256,27.48597086148803
6.610634752,1.0003365671955038,27.312502194222365
6.612921856,1.0003676361784097,27.13845079764533
6.615208448,1.0003754692438351,26.964091949714827
6.617495552,1.000359501731066,26.789773881441906
6.619782656,1.0003208526432443,26.615824480577434
6.62206976,1.0002619687030374,26.442595569751372
6.624356864,1.0001864193014587,26.270309868253836
6.626643968,1.0000990309007183,26.099205574872386
6.628931072,1.0000054833425127,25.929404321783792
6.631217664,0.9999113489634344,25.760935463122397
6.633504768,0.9998228448393192,25.59379922781689
6.635791872,0.9997455761144529,25.4278465491859
6.638078976,0.9996843099209362,25.262906455755367
6.64036608,0.9996429906351781,25.098673771549787
6.642653184,0.9996241493214114,24.934890804646287
6.644939776,0.9996291750002045,24.771169398670825
6.64722688,0.999657652931431,24.607214937328095
6.649513984,0.9997078570290922,24.442667000687585
6.651801088,0.9997764483607547,24.277248973353498
6.654088192,0.9998593430115221,24.11073829853597
6.656375296,0.9999511847216284,23.942924712912912
6.658661888,1.0000461572769574,23.773749010021593
6.660948992,1.0001382128656837,23.603184013923038
6.663236096,1.0002216860996607,23.431350923079503
6.6655232,1.000291154323317,23.258393756022542
6.667810304,1.000342223377724,23.084525101111197
6.670097408,1.0003717295869923,22.910092044376928
6.672384,1.0003777820355302,22.735349582162126
6.674671104,1.0003599745484808,22.56070133226245
6.676958208,1.00031933564711,22.386457489889423
6.679245312,1.0002585418666285,22.212925816268232
6.681532416,1.0001813533267354,22.040396801107683
6.68381952,1.000092727665857,21.869031767068996
6.686106112,0.999998086804449,21.699002657177004
6.688393216,0.9999036171339438,21.53032218705817
6.69068032,0.9998151671119989,21.362958031954797
6.692967424,0.9997382478663733,21.19677407669642
6.695254528,0.9996779482954966,21.03158006539342
6.697541632,0.9996379008649294,20.86711752171483
6.699828224,0.9996207972634373,20.703056852486807
6.702115328,0.9996276837467519,20.539032169191618
6.704402432,0.9996581210197344,20.374751572904664
6.706689536,0.9997101651885222,20.209837635290157
6.70897664,0.999780749824515,20.044022317341984
6.711263744,0.9998650706220974,19.87707285047361
6.713550848,0.9999579530660264,19.708838185363234
6.71583744,1.0000536551212575,19.539199632878233
6.718124544,1.0001460751066165,19.368167279054905
6.720411648,1.0002292245145237,19.195869418570698
6.722698752,1.000297938517652,19.02243494362536
6.724985856,1.0003478539028539,18.848127894986895
6.72727296,1.0003758819780597,18.67323194670831
6.729559552,1.0003801562231678,18.49810824724059
6.731846656,1.0003603641638685,18.323062208886203
6.73413376,1.0003177246429567,18.148448067725123
6.736420864,1.0002551281352916,17.97458672623107
6.738707968,1.000176367128767,17.80175113798589
6.740995072,1.0000863000274784,17.630092726244836
6.743281664,0.9999908512347072,17.459784256911213
6.745568768,0.999895764151567,17.290826462709667
6.747855872,0.999807295970342,17.123214992353134
6.750142976,0.999730995671141,16.956769293587023
6.75243008,0.9996716247478231,16.791285697263426
6.754717184,0.9996329923237702,16.626503980562827
6.757003776,0.9996175053714939,16.46212510465678
6.75929088,0.9996263516016732,16.29774666646929
6.761577984,0.9996587185535596,16.133070929510247
6.763865088,0.9997127735859501,15.96774458294531
6.766152192,0.9997850014210162,15.801484307838715
6.768439296,0.9998708345544477,15.634068527219172
6.770725888,0.9999649907033937,15.465332652354048
6.773012992,1.0000613121161066,15.295163605969428
6.775300096,1.0001538736287292,15.123631931002528
6.7775872,1.0002367796917908,14.9508263103148
6.779874304,1.000304714185778,14.776880432697189
6.782161408,1.0003534384127883,14.602085756532984
6.784448512,1.0003798543993891,14.426724287018187
6.786735104,1.0003823236264433,14.25111345101187
6.789022208,1.000360595894647,14.075649691284502
6.791309312,1.0003161641540563,13.900626862941447
6.793596416,1.0002516157895505,13.726395808632866
6.79588352,1.0001711262040975,13.553180146963829
6.798170624,1.0000798572175327,13.381204790363016
6.800457216,0.999983406232814,13.210562137385844
6.80274432,0.9998879415033595,13.04131269582178
6.805031424,0.9997995654290257,12.873369551134292
6.807318528,0.9997236896405067,12.706609169945885
6.809605632,0.9996653932936108,12.540803297845585
6.811892736,0.9996281152605448,12.375668621350174
6.814179328,0.9996144378181887,12.210891675228138
6.816466432,0.9996250859213677,12.046102939087048
6.818753536,0.9996593922715067,11.881014802622774
6.82104064,0.999715373930985,11.71521171475759
6.823327744,0.9997893582895578,11.548461616793082
6.825614848,0.9998767308978344,11.380525014748125
6.82790144,0.999971850726208,11.211234360417796
6.830188544,1.0000688753329194,11.040544542286929
6.832475648,1.000161590405735,10.868454988055003
6.834762752,1.0002441792195325,10.695080694715779
6.837049856,1.000311400186869,10.520585984563597
6.83933696,1.0003588823629581,10.345225090390096
6.841623552,1.000383868205938,10.169336743306628
6.843910656,1.0003844763835266,9.993251447464848
6.84619776,1.0003608115737794,9.81727876996146
6.848484864,1.000314380355504,9.64181621968353
6.850771968,1.0002480751159257,9.467166217081434
6.853059072,1.0001659745126086,9.29354294746347
6.855345664,1.0000732723806032,9.121190138990052
6.857632768,0.9999759526258845,8.950178334565745
6.859919872,0.9998801322608348,8.780547321788067
6.862206976,0.9997917706076253,8.612261252707563
6.86449408,0.9997166560266946,8.445125798578095
6.866781184,0.999659222838291,8.278946536879618
6.869068288,0.99962332944594,8.113404955824405
6.87135488,0.9996113587727218,7.948194764172493
6.873641984,0.999623939002114,7.782980622758166
6.875929088,0.9996602698697009,7.617378790318334
6.878216192,0.9997181372584086,7.451088629842804
6.880503296,0.9997938357912862,7.283785108820511
6.8827904,0.9998826391069672,7.115302705708003
6.885076992,0.9999789015773095,6.945418852385234
6.887364096,1.0000765902342212,6.774102356398258
6.8896512,1.0001695475699959,6.601430026511323
6.891938304,1.00025178374853,6.427414278392872
6.894225408,1.0003181266145422,6.252334544617751
6.896512512,1.000364365560418,6.076402659221
6.898799104,1.0003877701787192,5.899942237907649
6.901086208,1.0003865540054253,5.723306719462887
6.903373312,1.0003610173151156,5.546817730984167
6.905660416,1.0003125562205293,5.370851289535235
6.90794752,1.000244354670574,5.195718216401824
6.910234624,1.0001606764566304,5.021660432103383
6.912521216,1.0000667309800275,4.848869364945121
6.91480832,0.9999686591737159,4.677466742488339
6.917095424,0.9998723778614661,4.507433530542078
6.919382528,0.999784130306492,4.33872641665192
6.921669632,0.9997095164304552,4.171168187017451
6.923956736,0.9996531194668445,4.004553590609586
6.926243328,0.999618677501822,3.838584894855114
6.928530432,0.9996083772707698,3.6729132228332975
6.930817536,0.9996228691908566,3.50719526563361
6.93310464,0.9996611313853794,3.341077111634098
