freq,mag,phase
6.0,1.000001680650005,-137.3753662809704
6.008772096,0.9999735459143714,-137.8631696738378
6.01754368,0.9999463755667883,-138.3505519443468
6.026315776,0.9999219011821576,-138.83752516163537
6.035087872,0.999901467354311,-139.3241552359992
6.043859456,0.9998860296737307,-139.8104758241578
6.052631552,0.9998763558657278,-140.29657545370918
6.061403648,0.999873002889703,-140.78253767984276
6.070175232,0.9998761564167195,-141.26840377343052
6.078947328,0.9998855642337448,-141.75425904982603
6.087719424,0.9999009141631895,-142.24023630475511
6.096491008,0.9999212898412806,-142.72637915086815
6.105263104,0.9999456912144038,-143.2127412314781
6.1140352,0.9999728364543212,-143.6993735903723
6.122806784,1.000001349711518,-144.18628694108654
6.13157888,1.0000298030229406,-144.67350512903812
6.140350976,1.0000567125573472,-145.16100651732836
6.14912256,1.0000807293054281,-145.64875366848386
6.157894656,1.0001005408741566,-146.13674318682212
6.166666752,1.0001151632361653,-146.62486439315495
6.175438848,1.0001238783490196,-147.11304154988375
6.184210432,1.000126146081812,-147.6012815742008
6.192982528,1.0001220414705325,-148.08936112365924
6.201754624,1.000111575457653,-148.57731155738963
6.210526208,1.0000952484627634,-149.0649855111073
6.219298304,1.0000741457931595,-149.55233673782968
6.2280704,1.0000490592062785,-150.03930822590468
6.236841984,1.000021420645355,-150.5258554960242
6.24561408,0.9999927304765909,-151.01195581986514
6.254386176,0.9999641990272822,-151.4976118790353
6.26315776,0.999937544264331,-151.98281233179338
6.271929856,0.9999140336856016,-152.46758313687434
6.280701952,0.9998948814333226,-152.95202242144683
6.289473536,0.9998810091484901,-153.43612802087014
6.298245632,0.9998732426238274,-153.91999977030844
6.307017728,0.9998719418168251,-154.40377446067347
6.315789312,0.9998771382283729,-154.88745267724167
6.324561408,0.9998885665743189,-155.37114551905617
6.333333504,0.9999057762669404,-155.85497125750965
6.342105088,0.9999277488335242,-156.3389193407758
6.350877184,0.9999533405399277,-156.82310098665022
6.35964928,0.9999813434286663,-157.3075673846562
6.368420864,1.0000102995476259,-157.79228452603792
6.37719296,1.0000386626804503,-158.27730444310157
6.385965056,1.0000650391078132,-158.76257883220433
6.39473664,1.0000879545547394,-159.2480886177481
6.403508736,1.0001064803599233,-159.733789574618
6.412280832,1.0001193767669163,-160.21958286633168
6.421052416,1.000126179698624,-160.70539990104305
6.429824512,1.000126482651489,-161.1911552728075
6.438596608,1.0001201899065149,-161.67680916612227
6.447368192,1.0001077037152177,-162.1622276667188
6.456140288,1.0000895809118915,-162.64738054989922
6.464912384,1.0000668939080861,-163.13214589604559
6.473683968,1.0000406490758593,-163.61648169001882
6.482456064,1.0000122716727173,-164.1003777845909
6.49122816,0.9999831465123453,-164.5838011624579
6.499999744,0.9999548325809899,-165.0667260596961
6.50877184,0.9999288372508661,-165.5492262056872
6.517543936,0.9999063250267052,-166.031276146547
6.526316032,0.9998886040947791,-166.51299952221456
6.535087616,0.9998765740228162,-166.99437773442895
6.543859712,0.9998707133836684,-167.47555833603118
6.552631808,0.9998715698920393,-167.95660991890193
6.561403392,0.99987880098593,-168.43762130327596
6.570175488,0.9998923059583172,-168.91862576192278
6.578947584,0.9999112770174746,-169.39976711424913
6.587719168,0.9999348347666047,-169.8810651030555
6.596491264,0.9999616379542974,-170.3625981245254
6.60526336,0.9999903337887027,-170.8443593566458
6.614034944,1.0000195141883175,-171.3264306339453
6.62280704,1.0000477211896794,-171.80874228169822
6.631579136,1.0000733867404314,-172.29133133605598
6.64035072,1.0000952216746775,-172.77406518291681
6.649122816,1.0001122150897779,-173.2569873766521
6.657894912,1.000123307390827,-173.73995971274437
6.666666496,1.000127985901846,-174.22292748387906
6.675438592,1.0001261302165005,-174.70582901728127
6.684210688,1.0001176533381861,-175.18850945077173
6.692982272,1.0001032513652162,-175.6709608772401
6.701754368,1.0000832450255617,-176.15307586667615
6.710526464,1.0000590269919967,-176.63479651818565
6.719298048,1.0000317287171845,-177.1160405231328
6.728070144,1.0000026509508595,-177.5968241699076
6.73684224,0.9999733082805516,-178.0771069839962
6.745613824,0.9999452814084229,-178.55689933237065
6.75438592,0.9999200277870186,-179.03622540613893
6.763158016,0.9998988298504912,-179.51514660480922
6.7719296,0.9998826445339482,-179.99368174081607
6.780701696,0.9998725683667695,179.52806460937578
6.789473792,0.9998687904578479,179.05003053338189
6.798245376,0.9998718693071004,178.572068353884
6.807017472,0.9998812838714412,178.0941861429709
6.815789568,0.9998968362031262,177.61626562538544
6.824561152,0.9999175926054733,177.1382187094251
6.833333248,0.9999425804044128,176.65998344925828
6.842105344,0.9999704920348225,176.18150464447368
6.85087744,0.9999998684244482,175.70281685613577
6.859649024,1.0000290996677264,175.22383396968837
6.86842112,1.0000567708458694,174.74459781076519
6.877193216,1.0000816766955087,174.26514786389907
6.8859648,1.000102262317367,173.78553248073797
6.894736896,1.0001173826868197,173.30578528957625
6.903508992,1.000126561474175,172.82600416156112
6.912280576,1.0001292312118486,172.3462973920351
6.921052672,1.0001251311107313,171.86666917188793
6.929824768,1.000114492708949,171.38727522134022
6.938596352,1.0000979620628934,170.9082176391109
6.947368448,1.0000762414045783,170.429496293964
6.956140544,1.0000506137004317,169.95123556623412
6.964912128,1.0000222532591816,169.4734405527153
6.973684224,0.9999925593794661,168.99615706567783
6.98245632,0.9999633062289239,168.51935314656777
6.991227904,0.9999357789452351,168.04308685322536
7.0,0.999911471874505,167.56725938137762
7.008772096,0.999891612993395,167.0918548899362
7.01754368,0.9998772169979614,166.6167947415784
7.026315776,0.9998691290504742,166.14202314430696
7.035087872,0.9998676466861107,165.66743617211088
7.043859456,0.9998728948930954,165.19292709493504
7.052631552,0.9998846302661749,164.71847928742875
7.061403648,0.9999021179253154,164.24393809149512
7.070175232,0.9999246538531206,163.76928084578736
7.078947328,0.9999509884226477,163.2944115470152
7.087719424,0.9999798613128947,162.81933611450327
7.096491008,1.000009654837163,162.34400857255164
7.105263104,1.000038852751857,161.86841000530572
7.1140352,1.0000660743239451,161.39258224027628
7.122806784,1.0000898641998075,160.91650923873397
7.13157888,1.0001089402048289,160.4403386029346
7.140350976,1.0001222872189683,159.96407927200462
7.14912256,1.0001294546819368,159.48779612252002
7.157894656,1.000129806971289,159.01161220532822
7.166666752,1.000123308784053,158.53557839764207
7.175438848,1.0001105377047002,158.05981760398865
7.184210432,1.0000919397175532,157.5843806063134
7.192982528,1.0000685274478507,157.10936896122917
7.201754624,1.0000414984152535,156.63480135523818
7.210526208,1.000012270333441,156.16074415158835
7.219298304,0.9999822428696716,155.68718857652678
7.2280704,0.9999530980851827,155.21418322750063
7.236841984,0.9999262238318096,154.7416597336898
7.24561408,0.999903035943556,154.2695770162421
7.254386176,0.9998848007773691,153.797932053272
7.26315776,0.9998723211017851,153.32659449450466
7.271929856,0.999866292599609,152.8555455609258
7.280701952,0.9998671367643825,152.3846514945961
7.289473536,0.9998748237327143,151.91382144128673
7.298245632,0.999888736822646,151.44298163283048
7.307017728,0.9999082827774082,150.9720800658981
7.315789312,0.9999325016661976,150.5010272896899
7.324561408,0.9999601859603473,150.0297478574135
7.333333504,0.9999898855194658,149.55824556409425
7.342105088,1.000020057555437,149.08647657400735
7.350877184,1.000048998287706,148.61446367265992
7.35964928,1.0000754389541127,148.14223637432724
7.368420864,1.0000980519811828,147.66981225612383
7.37719296,1.0001154430241412,147.19726126477883
7.385965056,1.0001268006477693,146.7246579202475
7.39473664,1.000131610799847,146.25208841139326
7.403508736,1.0001296340048462,145.77963430050073
7.412280832,1.0001208743744432,145.30737604856094
7.421052416,1.0001058925209625,144.83539790590595
7.429824512,1.000085227033738,144.3638118587277
7.438596608,1.0000600656629377,143.89265124323575
7.447368192,1.0000319066675472,143.4219831209181
7.456140288,1.0000018130428052,142.95182215802532
7.464912384,0.9999716441148424,142.4821864326032
7.473683968,0.9999427151519414,142.01310874530068
7.482456064,0.9999166820846133,141.54448848243123
7.49122816,0.9998949119571137,141.07631787762477
7.500000256,0.9998784291134212,140.60858897960446
7.50877184,0.9998679802130371,140.14111791870195
7.517543936,0.9998643392264981,139.67390692011517
7.526316032,0.9998675930511483,139.20682217165717
7.535087616,0.9998775822364248,138.73978216570833
7.543859712,0.9998937712766194,138.27270653457123
7.552631808,0.9999153125635892,137.80554153819145
7.561403392,0.9999412016138552,137.33820811270326
7.570175488,0.9999700935974754,136.87061876691413
7.578947584,1.000000448772616,136.40280698094284
7.587719168,1.0000307289482147,135.93473800974192
7.596491264,1.0000592908958073,135.46641041969912
7.60526336,1.0000847830295574,134.99787995326187
7.614034944,1.0001059048050343,134.5291755863617
7.62280704,1.0001214469505881,134.0603697455761
7.631579136,1.0001307098537664,133.59151154154745
7.64035072,1.0001331049593611,133.12276253032832
7.649122816,1.000128705568573,132.65410366008865
7.657894912,1.0001174948348477,132.18572369793583
7.666666496,1.000100238369177,131.71767407359383
7.675438592,1.000077586619296,131.25000263063203
7.684210688,1.0000509283741001,130.78281509916482
7.692982272,1.000021621354764,130.3161062543883
7.701754368,0.9999908836823088,129.84993351712413
7.710526464,0.9999605981720626,129.3842927888458
7.719298048,0.9999323365137278,128.91916723585985
7.728070144,0.9999073311863127,128.45454575141008
7.73684224,0.9998870876594189,127.9903729527249
7.745613824,0.9998724936835953,127.52652581900176
7.75438592,0.9998643906953076,127.06298222429116
7.763158016,0.9998631372007363,126.59963209916863
7.7719296,0.9998689610773736,126.13642067454087
7.780701696,0.9998812493057117,125.67319493344534
7.789473792,0.9998998516615268,125.2099025676693
7.798245376,0.9999232735597815,124.74649149655475
7.807017472,0.9999507041541559,124.28287709891498
7.815789568,0.9999807022023047,123.81901972254508
7.824561152,1.0000114966644391,123.35490242600045
7.833333248,1.0000416968485375,122.8905317053849
7.842105344,1.0000696762118926,122.42590349461432
7.85087744,1.0000940137322398,121.96108770347251
7.859649024,1.000113522653687,121.49610564189393
7.86842112,1.0001270820193189,121.03105713016751
7.877193216,1.0001339935616702,120.56599959359679
7.8859648,1.0001338270315807,120.10102627708756
7.894736896,1.0001269275854907,119.63623774294757
7.903508992,1.0001131768312443,119.17173625971076
7.912280576,1.0000936263067548,118.70755405883071
7.921052672,1.0000691570545814,118.24383263406466
7.929824768,1.0000410984388117,117.78057558580147
7.938596352,1.0000106060212928,117.31782289471597
7.947368448,0.9999795146450451,116.8556288819443
7.956140544,0.9999494948584475,116.39395979727642
7.964912128,0.999921858000479,115.93278801084246
7.973684224,0.999898173247919,115.47211016812925
7.98245632,0.9998796448204037,115.01184902390175
7.991227904,0.9998671491234907,114.55189995144875
8.0,0.9998615550777099,114.09222720826152
8.008772096,0.9998628742377752,113.63271618849011
8.01754368,0.9998711768123064,113.17326923814942
8.026315776,0.9998860977477049,112.71378395858046
8.035087872,0.9999067838771333,112.25422543220334
8.043859456,0.9999322452690823,111.79450737765787
8.052631552,0.9999610414957731,111.33453447574524
8.061403648,0.9999919248459427,110.87433538322975
8.070175232,1.0000231234542363,110.41384874593035
8.078947328,1.0000530640213827,109.95310629899998
8.087719424,1.0000801412597062,109.49210436010264
8.096491008,1.000103149940601,109.03092394899228
8.105263104,1.000120775516507,108.56959082804882
8.1140352,1.0001320702889944,108.10821799883354
8.122806784,1.000136488089441,107.64687757966905
8.13157888,1.0001337203309228,107.185635603752
8.140350976,1.0001240399920193,106.72460559952151
8.14912256,1.0001079925787146,106.26389589033685
8.157894656,1.0000861570508408,105.80354859055842
8.166666752,1.0000598123501294,105.34364333707559
8.175438848,1.0000303901709442,104.88423972895677
8.184210432,0.9999991270486559,104.42536544654047
8.192982528,0.9999679331960712,103.96702666614738
8.201754624,0.9999380544144071,103.50922298500426
8.210526208,0.9999114413303816,103.05191990059498
8.219298304,0.9998892643512156,102.59505486993389
8.2280704,0.9998726720319875,102.13858580442718
8.236841984,0.9998625855100801,101.68242088081332
8.24561408,0.9998595284947334,101.22644645356755
8.254386176,0.9998634614086157,100.77061760657328
8.26315776,0.9998745599919839,100.31481625463219
8.271929856,0.9998919381672441,99.85895238352806
8.280701952,0.9999148341483366,99.4029605032061
8.289473536,0.9999420268175763,98.94676953913353
8.298245632,0.9999721542439598,98.49033012908622
8.307017728,1.0000037319107717,98.03360362718973
8.315789312,1.0000351264781864,97.57660584783946
8.324561408,1.0000645004733388,97.11931646119187
8.333333504,1.0000906013279935,96.66181825080142
8.342105088,1.0001119550454742,96.20410160616994
8.350877184,1.000127489638284,95.74628050808874
8.35964928,1.0001363649920505,95.2884309678531
8.368420864,1.0001381757001462,94.83063062544662
8.37719296,1.0001327348713418,94.37297829179548
8.385965056,1.0001203848527105,93.91556713049079
8.39473664,1.000101749323986,93.45847377098521
8.403508736,1.0000777741347018,93.00179077715586
8.412280832,1.0000497361916014,92.54557568545971
8.421052416,1.0000189142147808,92.08985747494421
8.429824512,0.9999871077439337,91.63467924598721
8.438596608,0.9999558285882741,91.18003108313079
8.447368192,0.9999267088971734,90.72590572466481
8.456140288,0.9999011998813527,90.27227008717996
8.464912384,0.9998807714853283,89.81902941573314
8.473683968,0.9998663943059841,89.36615698953709
8.482456064,0.9998588432534541,88.91353717472659
8.49122816,0.9998583411867237,88.46109401227724
8.499999744,0.9998651707263515,88.00872033311434
8.50877184,0.9998789153332626,87.55636464627494
8.517543936,0.9998987914905275,87.10388051276294
8.526316032,0.9999238442307494,86.65124895501349
8.535087616,0.9999527575360476,86.19835625466155
8.543859712,0.9999840751867274,85.74519522516678
8.552631808,1.0000162193643924,85.29175857342818
8.561403392,1.000047380442096,84.83799411760701
8.570175488,1.0000761546682195,84.38397367831261
8.578947584,1.0001007899591967,83.92970442522486
8.587719168,1.000120369050706,83.47527867588099
8.596491264,1.0001335436014378,83.02073745626716
8.605262848,1.000139802835997,82.56618771995736
8.614035456,1.0001387731219151,82.11172625975652
8.62280704,1.0001305087079828,81.6574467992994
8.631578624,1.0001154756909492,81.20342532915393
8.640351232,1.0000943592217344,80.74975076794478
8.649122816,1.0000682854498726,80.29648879722717
8.6578944,1.0000385113945325,79.84370992576696
8.666667008,1.000006771990812,79.39145709744747
8.675438592,0.9999745123961785,78.93972842343813
8.684210176,0.9999434919687366,78.48853811816406
8.692982784,0.9999152388169159,78.03783127739923
8.701754368,0.9998912091034236,77.58759754230154
8.710525952,0.999872720366875,77.13772677094828
8.71929856,0.9998607914042512,76.6881977804228
8.728070144,0.9998558506352822,76.23885896244312
8.736841728,0.9998583406758671,75.78967226175908
8.745614336,0.9998679976640433,75.34050310555327
8.75438592,0.9998844658080283,74.89127765450513
8.763157504,0.9999068050050497,74.44190972728732
8.771930112,0.9999339036515283,73.99234251735628
8.780701696,0.9999643342268825,73.54247572011406
8.78947328,0.9999966499387855,73.09231401807777
8.798245888,1.0000289973861216,72.64184144593317
8.807017472,1.0000598737853212,72.19106645138885
8.815789056,1.0000875517197263,71.73999954382788
8.824561664,1.000110740134965,71.28872154207689
8.833333248,1.0001281426732365,70.8372827502709
8.842104832,1.0001388491563403,70.38574502539113
8.85087744,1.0001423456632246,69.93423942544044
8.859649024,1.0001384159201132,69.48283845405629
8.868420608,1.0001272531833503,69.03162240751574
8.877193216,1.0001095036041128,68.58071996531811
8.8859648,1.0000859150306933,68.13017132621711
8.894736384,1.000057843079775,67.68005527203222
8.903508992,1.0000266748764606,67.23044214405785
8.912280576,0.9999940199870326,66.78135203813129
8.92105216,0.9999615236410143,66.33277586826185
8.929824768,0.9999309641137218,65.88472418651385
8.938596352,0.9999038685292316,65.43714262546503
8.947367936,0.9998815512495247,64.99000914199338
8.956140544,0.9998653718924523,64.54321249998907
8.964912128,0.9998559030592022,64.0966812734375
8.973683712,0.9998538727850018,63.65031612878748
8.98245632,0.999859381444089,63.20402813943373
8.991227904,0.9998719754796767,62.75773585596583
8.999999488,0.999891202409711,62.311324928373416
9.008772096,0.9999158917744273,61.86472025180121
9.01754368,0.9999449273379731,61.41786450309829
9.026316288,0.9999768463072882,60.97070196725904
9.035087872,1.0000097665799208,60.523212690666476
9.043859456,1.000042227909958,60.07538686970513
9.052632064,1.0000724772157665,59.62724756915098
9.061403648,1.000098924862637,59.17883065173919
9.070175232,1.0001202475863213,58.73018108724697
9.07894784,1.000135223619251,58.281394153380106
9.087719424,1.000143236864752,57.832566545906396
9.096491008,1.0001438432223735,57.38374143519177
9.105263616,1.000136754753686,56.93506996802915
9.1140352,1.000122730810862,56.48662300618115
9.122806784,1.0001021544274065,56.03847652762644
9.131579392,1.0000762951806692,55.59074394844586
9.140350976,1.0000462681661524,55.14345855787106
9.14912256,1.0000139206447676,54.69666554935176
9.157895168,0.999980551442935,54.250396407554845
9.166666752,0.9999482027742275,53.804636786604135
9.175438336,0.9999183012127628,53.35938382774664
9.184210944,0.9998926692411927,52.91457326733592
9.192982528,0.9998723584632373,52.47016490779087
9.201754112,0.9998585777340808,52.026066063530045
9.21052672,0.9998519965215357,51.58216834145964
9.219298304,0.9998530036813553,51.13841045599861
9.228069888,0.9998615214240603,50.69466434677796
9.236842496,0.9998771365152123,50.25084038786528
9.24561408,0.9998990005480709,49.806865108216954
9.254385664,0.9999260261421481,49.36264535727131
9.263158272,0.9999568572146906,48.91813810246132
9.271929856,0.9999898624618754,48.47329643826925
9.28070144,1.0000233234055569,48.028087726782246
9.289474048,1.0000555459669707,47.582541392846885
9.298245632,1.000084926046445,47.13665688152505
9.307017216,1.0001098165886457,46.69051767236514
9.315789824,1.0001290493341264,46.24415277641827
9.324561408,1.000141452760106,45.79766143402878
9.333332992,1.0001465952801107,45.351128328177566
9.3421056,1.0001439503442464,44.90465902992688
9.350877184,1.0001338982286159,44.45835142053354
9.359648768,1.0001168466030401,44.012294502498186
9.368421376,1.0000936149998099,43.5665714878596
9.37719296,1.0000653927523797,43.12126793860594
9.385964544,1.0000337755572872,42.67641956382658
9.394737152,1.0000002337923874,42.23208413594498
9.403508736,0.9999666489321621,41.78825350762682
9.41228032,0.9999345946792398,41.344934031581296
9.421052928,0.9999057880626344,40.90208238005027
9.429824512,0.9998817797293083,40.45964063522489
9.438596096,0.9998637219124393,40.01755649729103
9.447368704,0.9998526192156947,39.57575706062889
9.456140288,0.9998490358821586,39.13408352461423
9.464911872,0.9998531843636734,38.69251636757957
9.47368448,0.9998648404492393,38.25088267331735
9.482456064,0.9998833624196288,37.809144262233914
9.491227648,0.9999078535707309,37.36717928657319
9.500000256,0.9999372089680363,36.92494014085473
9.50877184,0.9999695165159845,36.482352970061534
9.517543424,1.0000035162696235,36.03941200735423
9.526316032,1.000037228302595,35.59609249812064
9.535087616,1.0000689978502868,35.15240348805367
9.5438592,1.0000970866493586,34.70837469579634
