freq,mag,phase
6.0,0.9996629974652427,-37.486006231096255
6.00255488,0.9995969169457821,-37.59425199061609
6.005110272,0.9995555238399111,-37.70173141459369
6.007665152,0.9995423092399647,-37.80886199115678
6.010220544,0.9995582154192154,-37.91600715930831
6.012775424,0.9996024544374333,-38.023626988062915
6.015330816,0.9996718794544243,-38.13212124567001
6.017885696,0.999762239623295,-38.241773529154536
6.020440576,0.9998680656642933,-38.352882556277166
6.022995968,0.9999821621662529,-38.46559421581753
6.025550848,1.0000978961820548,-38.58006341671761
6.02810624,1.0002076132720903,-38.69613292562956
6.03066112,1.0003042301523293,-38.813740291513184
6.033216,1.0003821688439436,-38.932651272315084
6.035771392,1.0004359185158618,-39.052533196270076
6.038326272,1.0004621811592702,-39.17304766038881
6.040881664,1.0004596553990044,-39.293753306201275
6.043436544,1.0004280075127148,-39.41424921798045
6.045991936,1.0003697773914593,-39.53410216157944
6.048546816,1.000288336998088,-39.6529768684234
6.051101696,1.0001883220525725,-39.77056249516373
6.053657088,1.0000771577696987,-39.88662813600411
6.056211968,0.9999609570908774,-40.00108548958358
6.05876736,0.9998474234234053,-40.113904481297055
6.06132224,0.9997437679728647,-40.22515581106182
6.06387712,0.9996563318229748,-40.33502166540199
6.066432512,0.9995908012995066,-40.44386751043015
6.068987392,0.9995515695279209,-40.55195603745328
6.071542784,0.9995407598950434,-40.65969321386019
6.074097664,0.9995591083235777,-40.7674877446533
6.076653056,0.9996057469631843,-40.87578957861302
6.079207936,0.9996774376935337,-40.98499795014223
6.081762816,0.9997697821576894,-41.09543348023589
6.084318208,0.9998770525581772,-41.207328549362195
6.086873088,0.9999920733663048,-41.32088339270728
6.08942848,1.000108003734805,-41.436099217113224
6.09198336,1.0002172728732266,-41.55299479021231
6.09453824,1.000313076209132,-41.67146686427503
6.097093632,1.0003892002029617,-41.79110082576053
6.099648512,1.0004411777979205,-41.9117640701118
6.102203904,1.0004652630717015,-42.03302159563118
6.104758784,1.0004601123470713,-42.15441842700851
6.107314176,1.0004260220228494,-42.27552670533907
6.109869056,1.0003655057711534,-42.39602095259502
6.112423936,1.0002817281096967,-42.515486644285076
6.114979328,1.000180401311724,-42.633634461684075
6.117534208,1.0000677532471947,-42.750221687895596
6.1200896,0.9999510479716601,-42.865239140454975
6.12264448,0.9998377464471722,-42.978561000865426
6.125199872,0.9997346178304268,-43.090351542372844
6.127754752,0.9996485191229411,-43.20081089427848
6.130309632,0.9995847997631232,-43.310172381048595
6.132865024,0.9995476488197295,-43.41886828496873
6.135419904,0.9995391315635515,-43.52721242012124
6.137975296,0.9995601776410136,-43.63571432657226
6.140530176,0.9996092817385754,-43.744703550433364
6.143085056,0.9996831214165761,-43.85465058189814
6.145640448,0.9997771523996684,-43.96582769525419
6.148195328,0.9998858216525363,-44.078486251568364
6.15075072,1.000001933203734,-44.192854387866426
6.1533056,1.0001179582133424,-44.30890715012367
6.155860992,1.0002269589566477,-44.426613788014805
6.158415872,1.0003218036011015,-44.54581405393801
6.160970752,1.0003962703148883,-44.66631299929496
6.163526144,1.0004462314491005,-44.78770212983458
6.166081024,1.000468171647638,-44.90965251416421
6.168636416,1.0004605065908452,-45.03175738149289
6.171191296,1.0004240752690094,-45.15356454681016
6.173746176,1.0003609994615381,-45.274645103013036
6.176301568,1.0002752468072367,-45.39467679571432
6.178856448,1.0001722687039474,-45.51342134174228
6.18141184,1.0000586433464291,-45.63053545348034
6.18396672,0.9999414962041482,-45.74606327730465
6.186522112,0.9998279747147919,-45.85993687812633
6.189076992,0.9997256078568578,-45.972258571004986
6.191631872,0.9996409265552211,-46.08324686004047
6.194187264,0.9995789772561373,-46.19323772651356
6.196742144,0.9995437602745666,-46.30246746405147
6.199297536,0.9995379942797632,-46.41144811181034
6.201852416,0.9995611356420322,-46.52059898365638
6.204407296,0.9996126827524133,-46.63031060090713
6.206962688,0.9996887785313856,-46.740986739515485
6.209517568,0.9997849120975314,-46.85289621126575
6.21207296,0.9998948881801675,-46.96639033505266
6.21462784,1.000011608521719,-47.08151566347897
6.217183232,1.0001278982955342,-47.198382541536915
6.219738112,1.0002362732063839,-47.3169386757183
6.222292992,1.0003301553318962,-47.43694233939814
6.224848384,1.0004032048991531,-47.5581786774627
6.227403264,1.0004511054582896,-47.68036782276865
6.229958656,1.000470685705604,-47.803040432780456
6.232513536,1.0004606960740756,-47.925785898139296
6.235068416,1.000421841047728,-48.04822920364164
6.237623808,1.0003563534983142,-48.16997537156896
6.240178688,1.0002687644638322,-48.29057926492183
6.24273408,1.0001641520495954,-48.409857221669995
6.24528896,1.0000494102495232,-48.52752931091001
6.247844352,0.9999316031730701,-48.643613811055694
6.250399232,0.9998183515532733,-48.75798074936612
6.252954112,0.9997168848350249,-48.87082246663228
6.255509504,0.9996334815219333,-48.982356287583364
6.258064384,0.9995733888726841,-49.09289329712686
6.260619776,0.9995403126345567,-49.20275880775049
6.263174656,0.9995367461902485,-49.31238140856508
6.265730048,0.9995625127490124,-49.42220316460688
6.268284928,0.9996163042985678,-49.532630370312255
6.270839808,0.9996945883653902,-49.64401248830845
6.2733952,0.9997924076540956,-49.75670493232482
6.27595008,0.9999037501475229,-49.87097595062683
6.278505472,1.0000214032639387,-49.98692071656919
6.281060352,1.000137783169507,-50.104579035976656
6.283615232,1.0002456727499436,-50.22392696122856
6.286170624,1.0003384856002948,-50.3447346332918
6.288725504,1.0004099369681214,-50.466747121650826
6.291280896,1.000455866999902,-50.589664328334855
6.293835776,1.0004732873880922,-50.71306017962441
6.296391168,1.0004607797194254,-50.83647640546189
6.298946048,1.000419541017163,-50.95958016977291
6.301500928,1.0003518247337524,-51.081926815473025
6.30405632,1.0002622167856432,-51.20312827537295
6.3066112,1.0001559339818415,-51.32295235426398
6.309166592,1.000040237990648,-51.44122840990293
6.311721472,0.9999220146975115,-51.55779662456152
6.314276352,0.9998090063016426,-51.67269463134085
6.316831744,0.999708278142068,-51.78605604435254
6.319386624,0.9996260613931778,-51.89812924119389
6.321942016,0.999567653128606,-52.00924227392414
6.324496896,0.9995369116668404,-52.119702435920296
6.327052288,0.9995356049956603,-52.22998438073495
6.329607168,0.9995638966457995,-52.340462297670705
6.332162048,0.9996202314895366,-52.45153569008187
6.33471744,0.9997004931401172,-52.56370490794229
6.33727232,0.9998001762435472,-52.6771683207759
6.339827712,0.999912590386899,-52.79221418782934
6.342382592,1.000031016156579,-52.908963531111695
6.344937472,1.0001474348712536,-53.02741939688851
6.347492864,1.00025489183221,-53.14751899556167
6.350047744,1.0003466025536087,-53.269155195197555
6.352603136,1.0004165918643024,-53.39193194442394
6.355158016,1.0004606431252738,-53.51559705199784
6.357713408,1.0004755509338061,-53.639669337337914
6.360268288,1.0004608222225027,-53.76383282220787
6.362823168,1.000417143305528,-53.88756535268233
6.36537856,1.0003472085143474,-54.01048177399177
6.36793344,1.000255578000133,-54.13228769941763
6.370488832,1.000147967982335,-54.25267261222642
6.373043712,1.0000311345112163,-54.37144729789574
6.375599104,0.9999125435523553,-54.48855407384065
6.378153984,0.9997996704186228,-54.6039657959448
6.380708864,0.9996996549174361,-54.717897749519665
6.383264256,0.9996188695643116,-54.83053817133553
6.385819136,0.9995622373575416,-54.942205161550426
6.388374528,0.9995337447990372,-55.053229683087466
6.390929408,0.9995348408677595,-55.16414187620048
6.393484288,0.9995654239594609,-55.27526961293525
6.39603968,0.9996239864822918,-55.387103351039606
6.39859456,0.9997065157309089,-55.49997463963169
6.401149952,0.9998077982074526,-55.61417594447717
6.403704832,0.9999215236971979,-55.72999457489359
6.406260224,1.000040426035711,-55.847537266213024
6.408815104,1.0001571355306575,-55.96681460020866
6.411369984,1.0002642621145457,-56.08772044380567
6.413925376,1.000354667888476,-56.210129700670635
6.416480256,1.0004230977699278,-56.33368993087374
6.419035648,1.000465022292306,-56.458064722364085
6.421590528,1.0004777584619893,-56.58287323657454
6.424145408,1.0004606239535438,-56.707674702236
6.4267008,1.0004143614794452,-56.83206011240665
6.42925568,1.000342339814305,-56.95558982690998
6.431811072,1.000248755285783,-57.07796934434467
6.434365952,1.0001397880436325,-57.198879194911136
6.436921344,1.0000220265487896,-57.31818371974269
6.439476224,0.9999031591698476,-57.43582129137304
6.442031104,0.9997904063064851,-57.551774510473265
6.444586496,0.9996912814609242,-57.66625156945449
6.447141376,0.9996117137775881,-57.77943129942396
6.449696768,0.9995571045754711,-57.89164350656941
6.452251648,0.9995305768383063,-58.003261411273584
6.454806528,0.9995339841769367,-58.11481104881372
6.45736192,0.9995671029520147,-58.22662076633544
6.4599168,0.9996279336015191,-58.339123136214205
6.462472192,0.9997125059677231,-58.45273208807606
6.465027072,0.9998153548173722,-58.5677205907535
6.467582464,0.9999303577285489,-58.68429159417769
6.470137344,1.000050107482959,-58.80261702385381
6.472692224,1.0001668022342096,-58.92267421794572
6.475247616,1.0002730997882623,-59.044420310376566
6.477802496,1.0003625346412996,-59.167591802558285
6.480357888,1.0004294174252917,-59.29187692738092
6.482912768,1.0004693327245426,-59.41697998174127
6.485467648,1.0004797842755222,-59.54248375764733
6.48802304,1.0004601724799003,-59.66796300150386
6.49057792,1.0004117240186066,-59.7929966017048
6.493133312,1.0003374822069633,-59.91712649739733
6.495688192,1.0002420860787185,-60.040089711707864
6.498243584,1.0001315719596293,-60.161545886119505
6.500798464,1.000012882615611,-60.28139303954927
6.503353344,0.9998936939008662,-60.3995126470465
6.505908736,0.9997813134213653,-60.51598483134324
6.508463616,0.999683041357367,-60.63095817469529
6.511019008,0.9996049090266623,-60.744689261424945
6.513573888,0.9995519361866868,-60.85747682278568
6.51612928,0.9995275735405081,-60.96972058241234
6.51868416,0.9995335112622412,-61.081858908435194
6.52123904,0.9995689841032109,-61.19432225608302
6.523794432,0.9996319832659143,-61.307535493267444
6.526349312,0.9997185133440858,-61.421846695765055
6.528904704,0.9998231690889409,-61.53761650013098
6.531459584,0.9999392655054716,-61.6549608907091
6.534014464,1.0000596115130564,-61.7740621414101
6.536569856,1.0001762547443853,-61.89494422443812
6.539124736,1.000282221051059,-62.01739200867462
6.541680128,1.0003704634338215,-62.14133749009552
6.544235008,1.000435561958986,-62.26639151140342
6.5467904,1.0004735555692161,-62.39225959126788
6.54934528,1.000481775494825,-62.51844304946767
6.55190016,1.0004598944088852,-62.64458552157576
6.554455552,1.0004090866873965,-62.77020969800288
6.557010432,1.0003326848514524,-62.894962402207305
6.559565824,1.000235331069681,-63.018455531091895
6.562120704,1.000123365415485,-63.1404851906956
6.564675584,1.0000038314536537,-63.26085189324674
6.567230976,0.9998843560805091,-63.37949614715576
6.569785856,0.9997722424310677,-63.4964754454084
6.572341248,0.9996747174788461,-63.61196154714017
6.574896128,0.9995979661676581,-63.72624707918027
6.57745152,0.9995470391036683,-63.83958889436163
6.5800064,0.999524853661342,-63.952426214521445
6.58256128,0.9995328704598548,-64.06520413375208
6.585116672,0.9995707635314071,-64.17832721067161
6.587671552,0.9996361093012117,-64.29222023119785
6.590226944,0.9997246672686412,-64.40727250179211
6.592781824,0.9998309519513375,-64.52372975542059
6.595336704,0.9999481087000828,-64.64185855075289
6.597892096,1.0000689546600428,-64.76177314733395
6.600446976,1.0001856582722386,-64.88337523946498
6.603002368,1.0002910250453525,-65.00664426187778
6.605557248,1.0003780363713133,-65.13136295506654
6.60811264,1.0004417099011755,-65.25715063163348
6.61066752,1.0004776008939729,-65.38371072668146
6.6132224,1.0004835542243502,-65.51060375556337
6.615777792,1.000459228188487,-65.63739341316321
6.618332672,1.0004061192839688,-65.76364216233945
6.620888064,1.0003276316100629,-65.88898463775618
6.623442944,1.0002286565651766,-66.0130311951217
6.625998336,1.0001154541685897,-66.1355506886483
6.628553216,0.9999949247040859,-66.25642446751435
6.631108096,0.9998751902682335,-66.37561542207452
6.633663488,0.9997633455265645,-66.49311469200853
6.636218368,0.999666681309738,-66.60912521931645
6.63877376,0.9995914143749944,-66.72391616084377
6.64132864,0.9995420764366224,-66.8378547893475
6.64388352,0.999522067094478,-66.95124789773845
6.646438912,0.9995324253513884,-67.06463006001046
6.648993792,0.9995726567614502,-67.17840206473522
6.651549184,0.9996401470083484,-67.29298853606635
6.654104064,0.999730734471842,-67.40873418847369
6.656659456,0.9998385738862567,-67.52596647639578
6.659214336,0.9999570882114595,-67.64485474970003
6.661769216,1.0000782667862993,-67.76548729794612
6.664324608,1.0001949606555958,-67.88790956345564
6.666879488,1.0002996026930975,-68.01191210918788
6.66943488,1.0003856345246944,-68.13742552123205
6.67198976,1.0004476532801085,-68.26393091008102
6.67454464,1.0004814764714423,-68.39117873851751
6.677100032,1.000485312701274,-68.5187546252909
6.679654912,1.000458571041463,-68.64619108629266
6.682210304,1.0004032151813282,-68.7730482409994
6.684765184,1.0003225742076067,-68.89896614105619
6.687320576,1.000221885459077,-69.023556554488
6.689875456,1.0001071395833272,-69.14663237826565
6.692430336,0.9999860075110051,-69.26804397118858
6.694985728,0.9998658395914231,-69.38766413502165
6.697540608,0.9997544198317094,-69.50571263552693
6.700096,0.9996587434700589,-69.62221868860415
6.70265088,0.9995848723943667,-69.73754171816493
6.70520576,0.9995373392409609,-69.85199802308733
6.707761152,0.9995194880084869,-69.96601621816635
6.710316032,0.9995322172396355,-70.07999869649542
6.712871424,0.9995748096261354,-70.19440188118006
6.715426304,0.9996445878526337,-70.3096517550636
6.717981696,0.999736860188952,-70.42615295302717
6.720536576,0.9998463936768498,-70.54406076643671
6.723091456,0.9999657538631523,-70.66371059563174
6.725646848,1.0000875984858628,-70.78511288008139
6.728201728,1.0002042802548106,-70.90832244182761
6.73075712,1.0003083073545236,-71.03309029365103
6.733312,1.000393169598664,-71.15925443793179
6.73586688,1.0004534171864299,-71.28654768354883
6.738422272,1.0004852645433409,-71.41452263898489
6.740977152,1.0004867975438116,-71.54275678892516
6.743532544,1.000457816074521,-71.67081393609908
6.746087424,1.0004002089189086,-71.79825366019023
6.748642816,1.000317492292536,-71.92472177419445
6.751197696,1.000214923753024,-72.04989896851751
6.753752576,1.0000990471358875,-72.17349295889112
6.756307968,0.9999770944322289,-72.29535751514244
6.758862848,0.9998566818117441,-72.41551841543296
6.76141824,0.9997456866154766,-72.53403097544796
6.76397312,0.9996508412932643,-72.6510442430429
6.766528512,0.9995783998939509,-72.76687776053679
6.769083392,0.9995328007653216,-72.88190486895871
6.771638272,0.9995170532289169,-72.99644782722073
6.774193664,0.9995320532090102,-73.11104712351566
6.776748544,0.9995770178773766,-73.22609116309745
6.779303936,0.999648876644583,-73.34201220004991
6.781858816,0.9997432249926451,-73.45917714854225
6.784413696,0.9998541292627048,-73.57786386987104
6.786969088,0.9999745888804231,-73.69824168347564
6.789523968,1.0000969551387129,-73.8204327730572
6.79207936,1.0002134698530838,-73.94431746187362
6.79463424,1.0003168268940663,-74.06988532813476
6.797189632,1.0004004359020866,-74.19680964384277
6.799744512,1.0004590692625954,-74.32480775021843
6.802299392,1.0004889358838658,-74.45344812937563
6.804854784,1.0004882929895693,-74.58232422631131
6.807409664,1.0004571134870883,-74.71100703082176
6.809965056,1.000397162333247,-74.8390397751561
6.812519936,1.0003123209217653,-74.96609016793359
6.815074816,1.000208111976849,-75.09179120100643
6.817630208,1.0000908718562105,-75.21589185143498
6.820185088,0.9999681804869064,-75.33824863298032
6.82274048,0.9998476730990687,-75.45888816494693
6.82529536,0.9997370252173119,-75.57785323934658
6.827850752,0.9996432477001713,-75.69537592036792
6.830405632,0.9995721051351764,-75.811738813587
6.832960512,0.9995285649978387,-75.92727338245277
6.835515904,0.9995146712328035,-76.04242769930036
6.838070784,0.9995320526629544,-76.15761758953373
6.840626176,0.9995790375376187,-76.27331217756921
6.843181056,0.9996532165053158,-76.38985229104529
6.845735936,0.9997494456794241,-76.50774688731371
6.848291328,0.9998617911733543,-76.62712483438231
6.850846208,0.9999832342364797,-76.74822289662217
6.8534016,1.000106164017807,-76.87112010269152
6.85595648,1.0002225862794463,-76.99581594631842
6.858511872,1.000325109381118,-77.1220872107475
6.861066752,1.0004075756032815,-77.24973457176985
6.863621632,1.0004645709945306,-77.3784268619924
6.866177024,1.0004925590335718,-77.50773196671155
6.868731904,1.0004896018320373,-77.63726257215995
6.871287296,1.0004560604578228,-77.76657269710427
6.873842176,1.0003938828063683,-77.89516403279845
6.876397568,1.000307034342014,-78.02277715708149
6.878952448,1.0002011690080699,-78.14894439020033
6.881507328,1.0000827514962878,-78.27352267763018
6.88406272,0.9999591394734507,-78.39641633725665
6.8866176,0.999838540674853,-78.51752286981392
6.889172992,0.9997283632670336,-78.63697751304093
6.891727872,0.9996354316907968,-78.7549991928641
6.894282752,0.9995658736614187,-78.87185735090839
6.896838144,0.9995239788695353,-78.98792485508304
6.899393024,0.9995124757111803,-79.10360190039633
6.901948416,0.9995318971478153,-79.21938117177714
6.904503296,0.9995813545234975,-79.3356737778614
6.907058688,0.9996574971285684,-79.45292065368496
6.909613568,0.9997555948800645,-79.57146632872859
6.912168448,0.9998694315865891,-79.69151195167207
6.91472384,0.9999918674176309,-79.81337304988313
6.91727872,1.000115155940785,-79.93699411367565
6.919834112,1.0002314851874279,-80.06240262154944
6.922388992,1.0003333940851795,-80.18941605089697
6.924943872,1.0004146391295854,-80.3177633064701
6.927499264,1.000469878133741,-80.44712356538264
6.930054144,1.0004959008816627,-80.57711414259386
6.932609536,1.0004907814513793,-80.70726392765006
6.935164416,1.0004549813091768,-80.83719305955412
6.937719808,1.0003906119245503,-80.96636153149112
6.940274688,1.0003017584491227,-81.09446765509678
6.942829568,1.0001942606288998,-81.22116544354252
6.94538496,1.0000745120706105,-81.3462404358865
6.94793984,0.9999504595030246,-81.4695832835815
6.950495232,0.9998295073824813,-81.59114512936978
6.953050112,0.9997197884666066,-81.71105907881964
6.955604992,0.9996278568332597,-81.82956464274183
6.958160384,0.9995597493492901,-81.94690339886844
6.960715264,0.9995196636464005,-82.06349161467604
6.963270656,0.9995102246661923,-82.1797222927929
6.965825536,0.9995320120241262,-82.29606236182482
6.968380928,0.9995836949994763,-82.41297540237258
6.970935808,0.9996619636492862,-82.5308738917647
6.973490688,0.999761919149199,-82.65005006351196
6.97604608,0.9998772279821673,-82.77081502063416
6.97860096,1.0000006618193953,-82.89336407173559
6.981156352,1.0001242538786244,-83.0177227884215
6.983711232,1.0002404071350837,-83.14383379686555
6.986266624,1.0003417109889046,-83.2715212294342
6.988821504,1.0004215476562752,-83.40062424867865
6.991376384,1.0004752237243808,-83.53063806926953
6.993931776,1.0004992400649417,-83.6612696734229
6.996486656,1.0004918784169112,-83.79205488378689
6.999042048,1.0004538286234745,-83.92251687780833
7.001596928,1.0003873525613352,-84.05226029600173
7.004151808,1.0002966015931534,-84.1808684765447
7.0067072,1.0001873744528473,-84.30807405416483
7.00926208,1.0000664276320759,-84.4336179847506
7.011817472,0.9999415702422543,-84.55740988243694
7.014372352,0.9998207027328022,-84.67947637850104
7.016927744,0.9997112370230689,-84.79985050335428
7.019482624,0.9996203827533423,-84.91877421485042
7.022037504,0.9995537278422892,-85.03659414086547
7.024592896,0.9995155048810667,-85.15367550987987
