freq,mag,phase
6.0,0.9998395842289718,-52.980383642592166
6.01041664,0.999917865463629,-53.4077802679572
6.02083328,0.9999992011860861,-53.83625580457054
6.03124992,1.000080975030125,-54.265956169832904
6.04166656,1.0001590551737887,-54.696770868101325
6.0520832,1.0002294834508814,-55.12868536922056
6.06249984,1.0002889430573716,-55.561589682331736
6.07291648,1.0003340047219524,-55.99521337771397
6.08333312,1.0003626019228797,-56.42948922614075
6.09374976,1.000373380009332,-56.864125310414494
6.104166912,1.000365384003892,-57.29888960428162
6.114583552,1.0003392242877673,-57.733576967076495
6.125000192,1.0002959393674753,-58.16792433748358
6.135416832,1.0002378889989283,-58.601758187860554
6.145833472,1.0001678532351665,-59.03489076519724
6.156250112,1.0000890049104776,-59.46720164935219
6.166666752,1.0000056031532125,-59.89853199386907
6.177083392,0.9999217705544202,-60.32892007801283
6.187500032,0.9998415996571002,-60.75838744513241
6.197916672,0.9997691586940323,-61.186937524273716
6.208333312,0.9997080446892539,-61.61476739056819
6.218749952,0.9996614779436451,-62.04200286645854
6.229166592,0.9996317322969452,-62.46885325913471
6.239583232,0.9996205959235048,-62.8955831006544
6.249999872,0.9996285730138145,-63.322387883967444
6.260416512,0.9996550751406058,-63.74948546290483
6.270833152,0.9996992039535056,-64.17715302431435
6.281249792,0.9997585068411416,-64.6056437495922
6.291666432,0.9998302809326878,-65.03505216696989
6.302083584,0.9999109118119845,-65.46555752552005
6.312500224,0.9999965760233371,-65.89727590746584
6.322916864,1.0000825302501468,-66.33016951335371
6.333333504,1.0001648832402494,-66.76431793971825
6.343750144,1.00023937174731,-67.19956465720875
6.354166784,1.0003021644266132,-67.63584160176754
6.364583424,1.000350159723323,-68.072914271241
6.375000064,1.0003809302624094,-68.51064196366472
6.385416704,1.0003926103093557,-68.94880223064591
6.395833344,1.0003849483949372,-69.38709521395207
6.406249984,1.0003580651801407,-69.82526585538116
6.416666624,1.0003130901488655,-70.26311713522398
6.427083264,1.0002524833924824,-70.70039939770402
6.437499904,1.0001791231344996,-71.1369650961787
6.447916544,1.0000966295669267,-71.57261601994448
6.458333184,1.0000088352555137,-72.00732211603835
6.468749824,0.999920595195673,-72.44100434132787
6.479166464,0.9998360553700893,-72.87368647640898
6.489583104,0.9997594456483738,-73.3054181585584
6.499999744,0.9996946936484072,-73.73640320374095
6.510416896,0.9996451010803394,-74.16672351625307
6.520833536,0.9996131782183689,-74.59660316839022
6.531250176,0.9996006051422889,-75.02634620631626
6.541666816,0.9996081674140094,-75.45611969355585
6.552083456,0.999635305068005,-75.8863045928914
6.562500096,0.9996810611688453,-76.31697636618851
6.572916736,0.9997429546304235,-76.7485042482906
6.583333376,0.9998179451511782,-77.18105217092555
6.593750016,0.9999025703355238,-77.61468424501322
6.604166656,0.9999925368998905,-78.04957377368966
6.614583296,1.0000829659833035,-78.48578494423279
6.624999936,1.0001698464679425,-78.92318273403137
6.635416576,1.0002487492327905,-79.36178188033277
6.645833216,1.0003153984002089,-79.80148113536457
6.656249856,1.0003665760925684,-80.24205715789327
6.666666496,1.0003998113161112,-80.6832621169846
6.677083136,1.0004131443058348,-81.12496766900702
6.687499776,1.0004059611918406,-81.56677836086645
6.697916416,1.0003784642522915,-82.00851441010234
6.708333568,1.000332084178578,-82.44991202087112
6.718750208,1.0002689656379444,-82.8906929336781
6.729166848,1.000192283731381,-83.33072682549803
6.739583488,1.0001057094112042,-83.76982740580912
6.750000128,1.0000137282602934,-84.20788974185683
6.760416768,0.9999206391424409,-84.64491317465449
6.770833408,0.9998314050548044,-85.08084187720128
6.781250048,0.9997501009394884,-85.5157990350819
6.791666688,0.999681421688868,-85.94988555303524
6.802083328,0.9996281423876134,-86.38330400966976
6.812499968,0.9995935909827383,-86.81628587121753
6.822916608,0.999579421679415,-87.24899441682571
6.833333248,0.9995861459062221,-87.68181381983037
6.843749888,0.9996138725373381,-88.1149410564345
6.854166528,0.9996607971745799,-88.54869403283595
6.864583168,0.9997251606010285,-88.98322704805088
6.874999808,0.9998036556197584,-89.41883509702798
6.885416448,0.9998921315178133,-89.85561201581076
6.895833088,0.9999865532423889,-90.29368901546303
6.90625024,1.0000820993472879,-90.73309642133111
6.91666688,1.0001737770215238,-91.17384582797222
6.92708352,1.0002573706933984,-91.61582966033896
6.93750016,1.0003282780189127,-92.0589037367373
6.9479168,1.0003831957653688,-92.50294464210879
6.95833344,1.0004192753754946,-92.94769248450056
6.96875008,1.0004347243414347,-93.39290360678494
6.97916672,1.000428502757341,-93.83828572824369
6.98958336,1.0004006825946765,-94.28361441035521
7.0,1.000352982490518,-94.72853105374526
7.01041664,1.0002876251198507,-95.17285814690324
7.02083328,1.0002074987911473,-95.61641050542005
7.03124992,1.0001169326518504,-96.05896103326722
7.04166656,1.0000201510714366,-96.5004084472574
7.0520832,0.9999221376216383,-96.94074708221451
7.06249984,0.9998277581047623,-97.3799667627875
7.07291648,0.999741630840785,-97.81809938708301
7.08333312,0.9996682171377335,-98.25531439269848
7.09374976,0.9996112375489806,-98.69180070262429
7.104166912,0.9995733713862053,-99.12784965176272
7.114583552,0.9995569858206744,-99.56354695100417
7.125000192,0.999562659528503,-99.99938032790952
7.135416832,0.9995903955764205,-100.43546215920082
7.145833472,0.9996386327274459,-100.8722158197443
7.156250112,0.999705315047796,-101.30973768530872
7.166666752,0.9997869865994102,-101.74836412760092
7.177083392,0.9998796254422584,-102.18822239126592
7.187500032,0.9999788186614689,-102.62942236427837
7.197916672,1.0000793825828669,-103.0720124935956
7.208333312,1.000176488957673,-103.51601208626266
7.218749952,1.000265162735119,-103.96135678378592
7.229166592,1.0003410669569965,-104.40782666845678
7.239583232,1.0004002068276994,-104.8552976306795
7.249999872,1.0004396840049257,-105.30354910259624
7.260416512,1.0004574101409536,-105.75226772842925
7.270833152,1.0004523895311912,-106.20121199415989
7.281249792,1.0004248453326003,-106.65008167272435
7.291666432,1.0003760688403465,-107.09857573918526
7.302083584,1.0003084343593858,-107.54643778285714
7.312500224,1.0002250494168679,-107.99348557603463
7.322916864,1.000130231104981,-108.43947699402943
7.333333504,1.000028761293224,-108.88431593611733
7.343750144,0.9999253871353287,-109.32795292826026
7.354166784,0.9998254689808558,-109.77043246846212
7.364583424,0.9997339109126017,-110.21174460481245
7.375000064,0.9996554212796255,-110.65209347907258
7.385416704,0.9995938629677904,-111.09163714457017
7.395833344,0.999552433875793,-111.53064092637247
7.406249984,0.9995333247567969,-111.96935595118244
7.416666624,0.9995374944234149,-112.40804508209446
7.427083264,0.9995647602359401,-112.84706716977117
7.437499904,0.9996140807640338,-113.28667526285189
7.447916544,0.9996828330261918,-113.72717132679895
7.458333184,0.9997678038066368,-114.16874851376238
7.468749824,0.9998646650488601,-114.61160033032988
7.479166464,0.9999688041017568,-115.05585574596766
7.489583104,1.0000748759616584,-115.50158724420282
7.500000256,1.000177718673113,-115.94876131168247
7.510416896,1.0002720604223758,-116.39732063984204
7.520833536,1.000353257791984,-116.84716437984859
7.531250176,1.0004171938071846,-117.29802010827049
7.541666816,1.0004605858576727,-117.74970938076305
7.552083456,1.0004812104525385,-118.20193920107722
7.562500096,1.000477998906438,-118.65441065168957
7.572916736,1.000450935039474,-119.10677807531246
7.583333376,1.0004014118959328,-119.55881036389006
7.593750016,1.000331593070059,-120.01020030827694
7.604166656,1.0002451501548364,-120.4606865948537
7.614583296,1.0001460277331833,-120.91010165864229
7.624999936,1.0000394398534118,-121.35832049691054
7.635416576,0.9999304192583314,-121.8052762975241
7.645833216,0.999824547849839,-122.25094003776591
7.656249856,0.9997270715530598,-122.69538945842173
7.666666496,0.9996429648903331,-123.13877767084722
7.677083136,0.9995763900704855,-123.58131959364485
7.687499776,0.9995307362330184,-124.02324459542652
7.697916416,0.9995083701576113,-124.46481273947707
7.708333568,0.999510520106396,-124.90638934658544
7.718750208,0.9995372174373102,-125.34818898975414
7.729166848,0.9995871266971134,-125.79063500314022
7.739583488,0.9996578915215958,-126.23392188953663
7.750000128,0.9997460691945188,-126.67833355577922
7.760416768,0.9998473457998373,-127.1240934038039
7.770833408,0.9999565196550829,-127.57131798144829
7.781250048,1.0000684590547655,-128.02007269458753
7.791666688,1.0001773862361392,-128.4703503785823
7.802083328,1.0002779160258315,-128.92210143942893
7.812499968,1.0003650662803343,-129.37513387279745
7.822916608,1.0004343633095591,-129.82935590781096
7.833333248,1.0004823044218636,-130.28441089500006
7.843749888,1.000506438578953,-130.74005385067136
7.854166528,1.000505451240847,-131.195957700787
7.864583168,1.000479224604313,-131.65184144385623
7.874999808,1.0004291643319532,-132.10732297694963
7.885416448,1.0003575181498119,-132.56216997565687
7.895833088,1.0002677283684966,-133.01609769122982
7.90625024,1.0001643845415435,-133.4688843711961
7.91666688,1.0000523745983105,-133.92039893008604
7.92708352,0.9999374602819691,-134.3705812044231
7.93750016,0.999825236075172,-134.81939149035213
7.9479168,0.9997212831774549,-135.2669292896306
7.95833344,0.9996308554577422,-135.7132815281104
7.96875008,0.9995585655662254,-136.15872431998486
7.97916672,0.9995080704585655,-136.60350286649233
7.98958336,0.9994819128534519,-137.04781225853543
8.0,0.9994815407968762,-137.49209014986982
8.01041664,0.9995071061586385,-137.93660901615647
8.02083328,0.9995573798669826,-138.3817090830619
8.03124992,0.9996299383526885,-138.8277040873562
8.04166656,0.9997212699690454,-139.27484966055476
8.0520832,0.9998268885386329,-139.7233937098789
8.06249984,0.9999415648324405,-140.17340780965554
8.07291648,1.0000596795578196,-140.62504129607476
8.08333312,1.0001752274046471,-141.07829183969864
8.09374976,1.0002825326503506,-141.5330789801294
8.104166912,1.0003761525620112,-141.9892851383346
8.114583552,1.0004514684736678,-142.44669206125738
8.125000192,1.000504585606307,-142.90500352892914
8.135416832,1.0005327968412612,-143.36398067532673
8.145833472,1.000534612640521,-143.82329497194968
8.156250112,1.0005098197258773,-144.28253874054593
8.166666752,1.0004596506817673,-144.74144009964905
8.177083392,1.0003862857738162,-145.1996569359293
8.187500032,1.0002934023473213,-145.65693016160952
8.197916672,1.0001856099001603,-146.1130231060251
8.208333312,1.0000681911459801,-146.56776191907267
8.218749952,0.9999468977784963,-147.02109380702964
8.229166592,0.9998277977025257,-147.47296781492773
8.239583232,0.9997168599038607,-147.92348838745568
8.249999872,0.9996195192956076,-148.37273194018488
8.260416512,0.9995408532437818,-148.82093455784607
8.270833152,0.9994848196250281,-149.2684233882617
8.281249792,0.999454194556972,-149.71540136703476
8.291666432,0.9994507486715466,-150.1622126046423
8.302083584,0.9994746585796388,-150.60928918953283
8.312500224,0.9995248960991499,-151.05692316256443
8.322916864,0.9995990072156367,-151.50546182424833
8.333333504,0.9996934366156596,-151.95517848903677
8.343750144,0.9998034905985237,-152.40627367812849
8.354166784,0.9999238193753177,-152.85895307863234
8.364583424,1.0000484620767418,-153.31334063367484
8.375000064,1.0001710984836851,-153.76939001268445
8.385416704,1.000285785830242,-154.22707441582588
8.395833344,1.0003866578482672,-154.68627163336768
8.406249984,1.0004687412462638,-155.14672735976714
8.416666624,1.0005277303645788,-155.60824287863846
8.427083264,1.0005607392947364,-156.07040404260428
8.437499904,1.0005660476610414,-156.53296799828394
8.447916544,1.0005431120400798,-156.99551637346477
8.458333184,1.0004930545635315,-157.45772375903312
8.468749824,1.0004183417844268,-157.91920821260737
8.479166464,1.0003225371032223,-158.37975262130325
8.489583104,1.00021024654707,-158.839043652143
8.499999744,1.0000869630004356,-159.2969245447445
8.510416896,0.999959040284457,-159.75328629310224
8.520833536,0.999832554132809,-160.2081521334422
8.531250176,0.9997139510373624,-160.66148482889858
8.541666816,0.9996090991515312,-161.11350746154818
8.552083456,0.9995233017225746,-161.5643883131587
8.562500096,0.9994609522427721,-162.01438561768458
8.572916736,0.9994252339757663,-162.46382520699632
8.583333376,0.9994179932219311,-162.91311277595972
8.593750016,0.9994396637093538,-163.3625474996728
8.604167168,0.9994894573985362,-163.81254323095595
8.614583296,0.9995648237024398,-164.26340474926454
8.625000448,0.9996622445438939,-164.7154606862006
8.635416576,0.9997768184097444,-165.16899922385852
8.645833728,0.9999029289505984,-165.62417064648992
8.656249856,1.000034543819419,-166.08105387307702
8.666667008,1.0001647909999636,-166.53974648742758
8.677083136,1.0002875034846785,-167.00016812277156
8.687500288,1.0003962750174809,-167.4621589429795
8.697916416,1.0004858088331017,-167.92552723251043
8.708333568,1.0005515889753471,-168.39001190529132
8.718749696,1.0005901150828787,-168.85526734635303
8.729166848,1.0005994688058586,-169.32096405827025
8.739582976,1.0005790221023858,-169.78664891939627
8.750000128,1.0005296981984033,-170.2520483377813
8.760416256,1.00045389405825,-170.71673374005297
8.770833408,1.000355168332333,-171.18039327240157
8.781249536,1.0002382246874755,-171.6427744438498
8.791666688,1.0001091726496198,-172.10369161282344
8.80208384,0.9999740213208794,-172.56299378089668
8.812499968,0.9998396308245083,-173.02066718500646
8.82291712,0.9997127710157278,-173.47672387653094
8.833333248,0.9995995727079033,-173.93134844300437
8.8437504,0.9995058722417485,-174.38470088629808
8.854166528,0.999436309776522,-174.8371011286135
8.86458368,0.9993946988850094,-175.2888534908706
8.874999808,0.9993829076423827,-175.7403673360887
8.88541696,0.9994019417151533,-176.19196163859283
8.895833088,0.9994508148884993,-176.64409455620358
8.90625024,0.9995270727493509,-177.09708825036958
8.916666368,0.9996273446857744,-177.55130717286846
8.92708352,0.9997465043529852,-178.0070192556474
8.937499648,0.9998787255687123,-178.46442083752348
8.9479168,1.0000176014632944,-178.9236627534536
8.958332928,1.0001561237099155,-179.38477889795027
8.96875008,1.0002874906522115,-179.84769426326437
8.979166208,1.0004049154334802,179.68768114018027
8.98958336,1.0005028898183557,179.2215865543636
8.999999488,1.0005760020604992,178.7542490976316
9.01041664,1.0006209793565275,178.2860906274958
9.020833792,1.0006351256755512,177.81744359420154
9.03124992,1.0006178583729015,177.34871960998447
9.041667072,1.000569815628731,176.88028683349575
9.0520832,1.000493194332327,176.4125742667453
9.062500352,1.0003917577837325,175.94589032224303
9.07291648,1.0002703498868053,175.48053936696098
9.083333632,1.0001348786915873,175.01676094123638
9.09374976,0.999992186317229,174.55466084330638
9.104166912,0.9998493963674404,174.09429768811626
9.11458304,0.9997134379427809,173.63567031625766
9.125000192,0.9995911810624413,173.17861719562097
9.13541632,0.9994885683145387,172.722934199785
9.145833472,0.9994111517985427,172.2683374330426
9.1562496,0.9993626020537807,171.81447960747627
9.166666752,0.9993456226269538,171.3609821314905
9.17708288,0.9993610942325766,170.90740179009762
9.187500032,0.9994084237328169,170.45337062733418
9.19791616,0.999485380020266,169.99849151831708
9.208333312,0.9995882024642432,169.54234480556306
9.218750464,0.9997119846961514,169.0847000610473
9.229166592,0.9998506369735191,168.62529552842656
9.239583744,0.999997264769658,168.16397037654994
9.249999872,1.0001444998418485,167.70066840408205
9.260417024,1.0002852178601973,167.23543641615424
9.270833152,1.000412330682433,166.76839646549578
9.281250304,1.0005195360235024,166.2997719953762
9.291666432,1.0006011762179947,165.82983412979564
9.302083584,1.0006534342722133,165.3589429297638
9.312499712,1.0006733692780374,164.8874929883047
9.322916864,1.0006598635931492,164.41589332124278
9.333332992,1.0006135682840658,163.9445802614293
9.343750144,1.0005365059773264,163.47397471316734
9.354166272,1.0004324486642233,163.00441725581697
9.364583424,1.0003065244578557,162.5362664415885
9.374999552,1.0001647192212322,162.06972270534357
9.385416704,1.000014061603115,161.6049811462238
9.395832832,0.999862101074857,161.14211172071538
9.406249984,0.9997164038355025,160.68107551616922
9.416667136,0.9995840559127485,160.2217562773373
9.427083264,0.9994719031071879,159.76392106393791
9.437500416,0.9993853401653209,159.30734850130384
9.447916544,0.9993291446004705,158.85158738041184
9.458333696,0.9993058874082934,158.39628292383387
9.468749824,0.9993171313731133,157.94102021925693
9.479166976,0.9993623858544168,157.48533850404075
9.489583104,0.9994395312607258,157.02877856331423
9.500000256,0.9995448672672689,156.5710271342854
9.510416384,0.9996732844083985,156.11167517605088
9.520833536,0.9998185193198876,155.65051373334822
9.531249664,0.9999732481561688,155.1873470132934
9.541666816,1.0001299407886721,154.72212449477547
9.552082944,1.0002808048693963,154.25482393388234
9.562500096,1.000418406540336,153.78563044127415
9.572916224,1.0005359125136042,153.31467142288983
9.583333376,1.0006269761457225,152.84232629278176
9.593749504,1.0006875244911664,152.36889378021993
9.604166656,1.0007140583863265,151.89480715423576
9.614583808,1.000705162674131,151.42053065539207
9.624999936,1.0006613296583748,150.94651714585277
9.635417088,1.0005843486167973,150.47315779288678
9.645833216,1.000477972021679,150.0008810060459
9.656250368,1.00034737119538,149.53006667800307
9.666666496,1.0001989801710685,149.06093567368225
9.677083648,1.0000399754840001,148.59370464060186
9.687499776,0.9998782043788584,148.1284723226201
9.697916928,0.9997217706500511,147.66520278595374
9.708333056,0.9995784572417854,147.20378614953708
9.718750208,0.9994554547907113,146.74405388673537
9.729166336,0.9993588954710007,146.2856672958798
9.739583488,0.9992938568923304,145.8282465605929
9.749999616,0.9992635724807393,145.37140624110444
9.760416768,0.9992697817615099,144.91468121952968
9.770832896,0.9993122886351037,144.457586750948
9.781250048,0.9993891130828716,143.9996787275995
9.791666176,0.9994966139014467,143.54050902777652
9.802083328,0.9996295969166769,143.07978414756667
9.81250048,0.9997817283840484,142.61714766528064
9.822916608,0.999945041608397,142.15241737706577
9.83333376,1.0001119271541998,141.6855157252942
9.843749888,1.00027396627741,141.216433311975
9.85416704,1.0004230606279656,140.74527325023877
9.864583168,1.0005517804422641,140.27225902265621
9.87500032,1.0006535152134934,139.79767176045243
9.885416448,1.0007234639633258,139.3219348575392
9.8958336,1.0007575422816442,138.84542872250825
9.906249728,1.0007542746632088,138.36862437976086
9.91666688,1.000713521950201,137.8920186570495
9.927083008,1.0006371360685884,137.41608070072544
9.93750016,1.0005286868458272,136.94126021884392
9.947916288,1.0003934914380233,136.4679268032693
9.95833344,1.0002382459682053,135.99634586043587
9.968749568,1.0000702790734095,135.52678389520156
9.97916672,0.9998979761436454,135.05935550392306
9.989582848,0.9997301746274541,134.59404722442173
10.0,0.9995747361143474,134.13074606389316
10.010417152,0.999439833480821,133.66926519574383
10.02083328,0.9993321311334195,133.2093048059456
10.031250432,0.9992570806613321,132.75044644438904
10.04166656,0.9992186227056566,132.29230868229976
10.052083712,0.999218732803296,131.83437751227493
10.06249984,0.9992577661396211,131.3761576501242
10.072916992,0.9993338154966014,130.91713217336118
10.08333312,0.9994432585836986,130.45689292249804
10.093750272,0.9995808516538942,129.99502556162088
10.1041664,0.9997398708346422,129.53120100979976
10.114583552,0.9999125769220082,129.06520875302581
10.12499968,1.0000902605000594,128.5968868370943
10.135416832,1.000264317206234,128.12625578981627
10.14583296,1.000425894241244,127.65340723204824
10.156250112,1.000567231086828,127.1785408254242
10.16666624,1.0006808578600872,126.70198020038892
