freq,mag,phase
6.0,1.0001095776353623,60.465785274252326
6.002287104,1.0000746253277042,60.302205098394474
6.004574208,1.0000350827575375,60.1391525497354
6.006861312,0.9999930231840181,59.9766973520998
6.009147904,0.9999510239429961,59.81485281543251
6.011435008,0.9999118267935763,59.65357029313848
6.013722112,0.999877787144102,59.49282126370542
6.016009216,0.999851207844976,59.33249732376838
6.01829632,0.9998336570799337,59.17249750528048
6.020583424,0.9998263657023981,59.01266969728299
6.022870016,0.9998296231224914,58.85286884168901
6.02515712,0.9998433709783999,58.69293295604481
6.027444224,0.9998667519902678,58.53271895086994
6.029731328,0.9998982069630961,58.37210557054974
6.032018432,0.9999357349868359,58.210994212528576
6.034305536,0.9999770581406998,58.04928646502714
6.036592128,1.000019518380443,57.88694467173778
6.038879232,1.000060425844913,57.724028970278354
6.041166336,1.0000970829393978,57.56052096491256
6.04345344,1.000127362806913,57.396514457433724
6.045740544,1.0001492270349068,57.232130110643524
6.048027648,1.0001613428044323,57.06749800320751
6.05031424,1.0001629478030805,56.902757356804166
6.052601344,1.0001539098997874,56.73802669563197
6.054888448,1.0001347092876613,56.57353035464471
6.057175552,1.000106751747643,56.40935369137575
6.059462656,1.000071655851781,56.245637022189136
6.06174976,1.000031728173558,56.08244237723014
6.064036352,0.9999894108397298,55.91983908154284
6.066323456,0.9999474560057916,55.7578404907695
6.06861056,0.9999084583009963,55.59641429936609
6.070897664,0.9998748716932299,55.4355240816143
6.073184768,0.9998489058874904,55.27504188642621
6.075471872,0.9998321617004958,55.1148574749894
6.077758464,0.9998256616915205,54.954833336772076
6.080045568,0.9998298798548647,54.79482605782332
6.082332672,0.9998445612497633,54.63465335750559
6.084619776,0.9998687319984693,54.47421104037115
6.08690688,0.9999008247074522,54.31334378834607
6.089193984,0.9999389726255667,54.151944828801184
6.091481088,0.9999805946703721,53.98996421531584
6.09376768,1.0000231015726702,53.82737493027885
6.096054784,1.0000638011779137,53.664139434387664
6.098341888,1.0001002267989583,53.500350818822845
6.100628992,1.0001298923156046,53.336083427164205
6.102916096,1.0001510359122037,53.17141603029068
6.1052032,1.0001623891297151,53.00651229645752
6.107489792,1.000163047766571,52.841488004550186
6.109776896,1.0001530496082363,52.67654343481546
6.112064,1.0001330399550723,52.5117911897258
6.114351104,1.0001043554848004,52.3473974685644
6.116638208,1.000068673695444,52.183429335668
6.118925312,1.0000283354209747,52.020032945103985
6.121211904,0.9999857787956539,51.857214095844384
6.123499008,0.9999439258071519,51.694989109734514
6.125786112,0.9999051257113932,51.533345942548486
6.128073216,0.9998720929124414,51.3722207350929
6.13036032,0.999846793928626,51.2114856730248
6.132647424,0.9998308085090132,51.051043422670155
6.134934016,0.9998252300534726,50.89075209010561
6.13722112,0.9998303578865435,50.73043637390106
6.139508224,0.9998459284691664,50.5699681953136
6.141795328,0.9998708248470002,50.40919983176651
6.144082432,0.9999035856345817,50.247987259656156
6.146369536,0.9999421962718312,50.08624669626522
6.148656128,0.999984100355058,49.923915217506426
6.150943232,1.0000266844855215,49.760938266149566
6.153230336,1.0000671456493841,49.597357393109235
6.15551744,1.000103131902527,49.43320781178502
6.157804544,1.0001322832024664,49.2685546246832
6.160091648,1.0001527164028237,49.10354887572004
6.162378752,1.0001631152667276,48.938275026279605
6.164665344,1.0001629295182208,48.77294675161519
6.166952448,1.0001519927745786,48.60766692752475
6.169239552,1.0001312425032733,48.442604590731385
6.171526656,1.0001017954869338,48.27789002134857
6.17381376,1.0000654856600921,48.11363744808324
6.176100864,1.000024739918376,47.949943610108214
6.178387456,0.9999821886365111,47.78682164629226
6.18067456,0.9999402911466829,47.624286892803454
6.182961664,0.9999019652496163,47.46235276153498
6.185248768,0.999869384676003,47.30087917186843
6.187535872,0.999844732895793,47.13982899400743
6.189822976,0.9998296286054883,46.979056471181266
6.192109568,0.9998248989961799,46.818382129745174
6.194396672,0.9998310220804547,46.657700156803394
6.196683776,0.9998474161709685,46.49684627184571
6.19897088,0.9998731069676134,46.335646745391706
6.201257984,0.9999065185994566,46.174034280681106
6.203545088,0.9999454737267536,46.01185907597551
6.20583168,0.9999876438463885,45.84908360706229
6.208118784,1.0000302027430459,45.68566917415355
6.210405888,1.0000705102092158,45.52163307469561
6.212692992,1.0001060130246964,45.35704392401858
6.214980096,1.0001344807190746,45.191954049899216
6.2172672,1.0001540945328413,45.02651082097671
6.219553792,1.000163722979245,44.86084354232753
6.221840896,1.000162586689859,44.6950880879471
6.224128,1.0001508041288119,44.52938988766043
6.226415104,1.0001291704124644,44.36394560776601
6.228702208,1.0000990610701594,44.19882739426021
6.230989312,1.0000622667752521,44.034222259677556
6.233275904,1.0000212447455898,43.870109124177084
6.235563008,0.9999785226829704,43.70662082130617
6.237850112,0.9999368539104616,43.54370382820156
6.240137216,0.9998987620993193,43.38136645062957
6.24242432,0.9998667402845485,43.21951711512948
6.244711424,0.9998429571902021,43.05807486491332
6.246998528,0.9998286987130233,42.89684949016352
6.24928512,0.9998248883131857,42.73574255205526
6.251572224,0.9998318310963602,42.574606311518615
6.253859328,0.9998490749440789,42.41327427695216
6.256146432,0.999875635472915,42.25159989221894
6.258433536,0.9999096016997803,42.089467059258624
6.26072064,0.9999489974664824,41.92676302586574
6.263007232,0.9999912456312093,41.76349268456429
6.265294336,1.000033720332295,41.599542951738854
6.26758144,1.000073861538755,41.43499271873023
6.269868544,1.0001088459776393,41.26987707878366
6.272155648,1.0001366109412995,41.10425882585848
6.274442752,1.0001554481898942,40.938312169326714
6.276729344,1.0001640559042657,40.77212968072386
6.279016448,1.0001619407213584,40.60587931956181
6.281303552,1.0001493830001136,40.43972512298484
6.283590656,1.000126859796455,40.27378880090576
6.28587776,1.0000961164514262,40.10823267448943
6.288164864,1.0000588383005624,39.9431280130769
6.290451456,1.0000176191689651,39.77857875257708
6.29273856,0.9999748449402353,39.6146240879237
6.295025664,0.99993338653546,39.45126388947799
6.297312768,0.9998957921367508,39.28846652845794
6.299599872,0.9998644277153086,39.12611838861234
6.301886976,0.9998413044319169,38.96415124691542
6.304173568,0.9998280254132045,38.80242996169834
6.306460672,0.9998250386145769,38.64081773633492
6.308747776,0.9998329713125076,38.47912315010911
6.31103488,0.9998510663404304,38.31722833069539
6.313321984,0.9998782119993714,38.15499287012299
6.315609088,0.9999127495056379,37.99226674425593
6.317896192,0.9999525369852827,37.82897793096405
6.320182784,0.9999948962033861,37.66509034216025
6.322469888,1.0000372337082384,37.50053260802901
6.324756992,1.0000769765642883,37.33535593981412
6.327044096,1.0001113435423141,37.16965698327914
6.3293312,1.000138425334501,37.00346206886065
6.331618304,1.0001564371798377,36.836914356181495
6.333904896,1.000164113248372,36.67015791622056
6.336192,1.0001610875003795,36.50333900808788
6.338479104,1.0001475794560222,36.336628542682966
6.340766208,1.0001243802221687,36.17014678426157
6.343053312,1.0000930007329893,36.00403841758091
6.345340416,1.0000553623946147,35.83841410854772
6.347627008,1.0000138606022537,35.67333178955038
6.349914112,0.9999711978518856,35.50882959299411
6.352201216,0.9999299938280941,35.3449295889007
6.35448832,0.9998928679417131,35.18155514349282
6.356775424,0.9998622210055467,35.01866576767878
6.359062528,0.999839933726923,34.85613124814943
6.36134912,0.9998274455304123,34.69380790015547
6.363636224,0.9998255034075362,34.531577265135795
6.365923328,0.9998342906053526,34.36927819139794
6.368210432,0.9998531927169317,34.2067282998092
6.370497536,0.9998810445936795,34.0438170399835
6.37278464,0.9999161585367548,33.88044175135801
6.375071232,0.9999561072850309,33.71648260627466
6.377358336,0.9999985509041432,33.551897773482565
6.37964544,1.0000406765630998,33.386670246203664
6.381932544,1.0000799502779283,33.22082388304094
6.384219648,1.00011379153158,33.05442720035806
6.386506752,1.0001401035753428,32.887540709172086
6.388793344,1.0001571205298052,32.720348823254085
6.391080448,1.0001639183314899,32.55292962885595
6.393367552,1.0001600244425697,32.38547294769666
6.395654656,1.0001456440363043,32.21811816512133
6.39794176,1.0001217369646747,32.05102504459782
6.400228864,1.000089749624256,31.884311371590442
6.402515968,1.0000517825087165,31.71806789979434
6.40480256,1.0000101909617194,31.55237319629095
6.407089664,0.9999676455123143,31.38725985497729
6.409376768,0.9999268070036893,31.22272244353011
6.411663872,0.9998902243875522,31.058733301638224
6.413950976,0.9998603010498793,30.895172136332025
6.41623808,0.999838795805895,30.731982749665114
6.418524672,0.9998272811913855,30.568970006933842
6.420811776,0.9998262847321713,30.4060633857018
6.42309888,0.9998358898968389,30.243045921925912
6.425385984,0.9998556537893262,30.079767007214052
6.427673088,0.9998841095035126,29.91612826615476
6.429960192,0.9999195884333256,29.75199437450858
6.432246784,0.9999598269662497,29.587262938797497
6.434533888,1.0000022111147275,29.42192442793404
6.436820992,1.0000441126519783,29.255930916547136
6.439108096,1.0000828249500073,29.08934299927427
6.4413952,1.0001159850461565,28.922157441115136
6.443682304,1.0001414246704188,28.75455997749613
6.445968896,1.0001575948831243,28.58661124995464
6.448256,1.0001634803536095,28.41846452637992
6.450543104,1.0001585542322176,28.25029897409922
6.452830208,1.0001433917363824,28.082248889759374
6.455117312,1.0001187506239113,27.9144425712754
6.457404416,1.0000862862276507,27.747021507664954
6.459691008,1.0000480653397033,27.580088180626724
6.461978112,1.00000641374869,27.41369585978399
6.464265216,0.9999641384470351,27.247894490357982
6.46655232,0.9999237194722235,27.082670403143297
6.468839424,0.9998878188286646,26.917941265385
6.471126528,0.9998586384642943,26.753678531046067
6.473413632,0.9998381054399803,26.589716108290254
6.475700224,0.9998274706054615,26.425968498545377
6.477987328,0.9998274630042876,26.262272952786088
6.480274432,0.999838007744151,26.09844695732553
6.482561536,0.9998584423311211,25.934367149029068
6.48484864,0.9998875038227649,25.769906195752938
6.487135744,0.9999233321409545,25.60492466537114
6.489422336,0.9999636006487588,25.439365384212568
6.49170944,1.0000058585977796,25.273177101523633
6.493996544,1.000047363302431,25.1063584279344
6.496283648,1.000085509826128,24.938898697020587
6.498570752,1.0001178620764988,24.77092020655865
6.500857856,1.0001424741589893,24.60248497124622
6.503144448,1.0001576460795367,24.43372754071657
6.505431552,1.0001624611453728,24.264784658676156
6.507718656,1.000156767895155,24.09581883016058
6.51000576,1.0001407136517655,23.926993322615942
6.512292864,1.0001154436103192,23.758419371566436
6.514579968,1.0000826100204299,23.590227414157383
6.51686656,1.000044130545957,23.42253619806347
6.519153664,1.0000026088470713,23.255370255913792
6.521440768,0.9999605481959306,23.08879535541025
6.523727872,0.9999206784923376,22.92277118415995
6.526014976,0.99988554999949,22.757260077147844
6.52830208,0.9998573086675945,22.59216930654215
6.530588672,0.9998376978879869,22.427402751854835
6.532875776,0.9998281481124257,22.262782817820398
6.53516288,0.999829081484253,22.098212447632154
6.537449984,0.9998404279607437,21.933521993426176
6.539737088,0.9998616538104137,21.768553178452418
6.542024192,0.9998911492664995,21.603172547244846
6.544310784,0.9999272278834991,21.437286472280835
6.546597888,0.9999674775447277,21.27082234074027
6.548884992,1.0000094692660864,21.103701158352123
6.551172096,1.0000504750483914,20.93594794117139
6.5534592,1.000087950567416,20.767585396874487
6.555746304,1.0001194489873395,20.59868882272665
6.558033408,1.000142984990849,20.429356242557667
6.56032,1.0001571567139016,20.259718825091152
6.562607104,1.0001609983342006,20.08990975036008
6.564894208,1.0001543098914725,19.920086793387693
6.567181312,1.000137511203273,19.750390521123986
6.569468416,1.0001117237593435,19.58097769888615
6.57175552,1.0000785259886664,19.411941684875035
6.574042112,1.0000400500105675,19.243408883213558
6.576329216,0.9999986957115937,19.075420058904886
6.57861632,0.9999570657390129,18.907979192480543
6.580903424,0.9999178652595271,18.7410882285245
6.583190528,0.999883523894216,18.574703996376964
6.585477632,0.9998562640820179,18.4087152808042
6.587764224,0.9998377357326181,18.24303977089514
6.590051328,0.9998292196847233,18.077506457496842
6.592338432,0.9998310823795982,17.91198789189931
6.594625536,0.9998433348909556,17.74633338800399
6.59691264,0.9998651842877614,17.580376986679763
6.599199744,0.9998950709866071,17.41401136252158
6.601486336,0.9999313173745081,17.24712530322019
6.60377344,0.9999714974732571,17.079648658891934
6.606060544,1.0000131295142778,16.911519811522204
6.608347648,1.000053532163208,16.742777197476823
6.610634752,1.000090100606376,16.573425685519776
6.612921856,1.00012064168363,16.40354859076692
6.615208448,1.0001431439050723,16.23325458954167
6.617495552,1.0001561957667666,16.062663753983628
6.619782656,1.0001591052781749,15.891907848044609
6.62206976,1.000151445759159,15.721140006630776
6.624356864,1.0001340423384075,15.550522715872225
6.626643968,1.0001076899980115,15.380194179865114
6.628931072,1.000074203167948,15.210253840207754
6.631217664,1.0000357781605704,15.040796211509104
6.633504768,0.9999947800770079,14.871891508399983
6.635791872,0.9999537123805321,14.70351042570804
6.638078976,0.9999153185833339,14.535690697675513
6.64036608,0.9998820109331715,14.368344461913704
6.642653184,0.9998558695034125,14.20138967716085
6.644939776,0.9998384492917645,14.03469184488769
6.64722688,0.9998310414694901,13.868163844911269
6.649513984,0.9998339237409805,13.701592322600993
6.651801088,0.9998469066979656,13.534890616817032
6.654088192,0.999869295905875,13.36786058864114
6.656375296,0.9998995456362755,13.200414760018209
6.658661888,0.9999357297648265,13.032456775553806
6.660948992,0.999975723305882,12.863895369538323
6.663236096,1.0000167833651745,12.694693331062407
6.6655232,1.0000563238814266,12.52488139612023
6.667810304,1.0000919123976053,12.354466399990862
6.670097408,1.000121297506663,12.183534188496033
6.672384,1.0001427638161249,12.012203275383772
6.674671104,1.0001546570966324,11.840581183680374
6.676958208,1.0001563616014915,11.668832302152628
6.679245312,1.0001479196094738,11.497075903814327
6.681532416,1.000129768786932,11.325464759580232
6.68381952,1.0001029653160542,11.154164612158896
6.686106112,1.00006941658157,10.983245144192145
6.688393216,1.0000311852055412,10.812792034659777
6.69068032,0.9999906542236876,10.64286618318373
6.692967424,0.9999504328214871,10.473510256187364
6.695254528,0.999913022806958,10.304661270354684
6.697541632,0.9998808138926975,10.136256628527608
6.699828224,0.9998558979140924,9.968252354673048
6.702115328,0.9998396714511454,9.800472474435479
6.704402432,0.999833402917775,9.632829296315705
6.706689536,0.9998373280008805,9.46514473573904
6.70897664,0.9998511037846404,9.297300298174267
6.711263744,0.9998739995965658,9.129137828813674
6.713550848,0.9999043794356118,8.960530521229163
6.71583744,0.9999405281298238,8.791400669988947
6.718124544,0.9999800041864069,8.62166205470123
6.720411648,1.000020265121638,8.451320170506799
6.722698752,1.0000588192468882,8.28035157984953
6.724985856,1.0000933207997185,8.108811881548773
6.72727296,1.0001214516973511,7.936771075585417
6.729559552,1.0001414241305568,7.764324268698941
6.731846656,1.0001521587226392,7.591619998545695
6.73413376,1.0001527764612457,7.4187758708105225
6.736420864,1.0001434234697488,7.245976070800938
6.738707968,1.0001246635316305,7.073310877686846
6.740995072,1.0000976744336514,6.900943542804151
6.743281664,1.0000642142872076,6.728987155000861
6.745568768,1.000026382393624,6.557469002916595
6.747855872,0.9999865761694774,6.386512125164126
6.750142976,0.9999473311018942,6.216043546121402
6.75243008,0.9999111451824391,6.046093248518181
6.754717184,0.999880365960769,5.876579193461453
6.757003776,0.9998568192104201,5.707421023630997
6.75929088,0.9998419567494551,5.5384855976449
6.761577984,0.9998368427455692,5.369642993153083
6.763865088,0.9998417090762565,5.200750486867623
6.766152192,0.9998562204010746,5.031666391774248
6.768439296,0.9998796470997079,4.862245306888138
6.770725888,0.9999100078871104,4.6924065030209965
6.773012992,0.9999457618287815,4.52202788515596
6.775300096,0.9999845181446896,4.351047081746989
6.7775872,1.0000238638105552,4.1794657174411025
6.779874304,1.0000611475784085,4.00728426198633
6.782161408,1.0000940721074707,3.8345483063197805
6.784448512,1.00012086644581,3.6613002659201777
6.786735104,1.000139338953516,3.48769945346562
6.789022208,1.0001485863899184,3.313853252240606
6.791309312,1.0001480475717504,3.1398757784205236
6.793596416,1.0001378562994132,2.9659506131214535
6.79588352,1.0001185816711193,2.792188306190133
6.798170624,1.0000914873580709,2.618703063792152
6.800457216,1.0000582415863584,2.4456256122437394
6.80274432,1.0000210899382262,2.2730145151644483
6.805031424,0.9999822346800652,2.100881935675541
6.807318528,0.9999443702843738,1.929271814423376
6.809605632,0.9999096725294339,1.758169363372075
6.811892736,0.9998804901060265,1.5874189153370621
6.814179328,0.9998585545738421,1.4170187284970235
6.816466432,0.9998453094927194,1.2468361128413865
6.818753536,0.9998415611576199,1.0767108274792914
6.82104064,0.9998475010223705,0.9065096082180149
6.823327744,0.9998627535112338,0.7361038262209889
6.825614848,0.999886195684387,0.5653667043281602
6.82790144,0.9999164963820569,0.39419831954338463
6.830188544,0.9999517487403805,0.22248270834866327
6.832475648,0.9999894164894871,0.050195040916949096
6.834762752,1.0000273272756288,-0.12270565138236443
6.837049856,1.000063072702809,-0.296187771801626
6.83933696,1.0000942362162175,-0.4702089267575542
6.841623552,1.0001192191023756,-0.6446886209676614
6.843910656,1.0001359220382067,-0.819521380739995
6.84619776,1.0001437076737656,-0.9945845935450609
6.848484864,1.0001420244935306,-1.1697371107261
6.850771968,1.000130885156004,-1.3448348839351392
6.853059072,1.000111240140536,-1.5197665964985139
6.855345664,1.0000841204724156,-1.6943924219480904
6.857632768,1.0000514155313238,-1.8686661078403368
6.859919872,1.0000153134501597,-2.042461570157321
6.862206976,0.9999778224319691,-2.2157779526861923
6.86449408,0.9999416174447673,-2.3886278304267
6.866781184,0.9999088914241648,-2.561012463323759
6.869068288,0.9998816567731019,-2.733000891298002
6.87135488,0.9998616978948441,-2.904723668581713
6.873641984,0.9998502100062759,-3.0762889329519467
6.875929088,0.9998479830850743,-3.2477936317958185
6.878216192,0.9998548718090421,-3.419390902648601
6.880503296,0.9998706669407664,-3.591200521941943
6.8827904,0.9998942707960257,-3.763378785520005
6.885076992,0.9999241440720325,-3.9359857447479873
6.887364096,0.9999583714258753,-4.109105725362786
6.8896512,0.9999946980803855,-4.2828250543379625
6.891938304,1.000030819868643,-4.457093636034403
6.894225408,1.0000645408980018,-4.631946836910787
6.896512512,1.000093568872396,-4.807309863632392
6.898799104,1.000116136985941,-4.983072176813394
6.901086208,1.0001309092924495,-5.159185182816418
6.903373312,1.0001369690791098,-5.335497801426664
6.905660416,1.0001338771394928,-5.511878256889142
6.90794752,1.0001219504590653,-5.6881987718081986
6.910234624,1.000101963716223,-5.864334922684959
6.912521216,1.0000751941524806,-6.040188986161304
6.91480832,1.0000433820792447,-6.215664869553051
6.917095424,1.0000086417301575,-6.39071380361416
6.919382528,0.9999731495297427,-6.565291897718525
6.921669632,0.9999391036016871,-6.739427007182989
6.923956736,0.9999087940814109,-6.913157738384982
6.926243328,0.9998840572310488,-7.086529547584023
6.928530432,0.9998665331317597,-7.259656115614458
6.930817536,0.9998570120867334,-7.432662115739655
