freq,mag,phase
6.0,1.0000175674172456,11.666984025331884
6.004626944,0.9998273457703591,11.529344169146752
6.009253888,0.9996476223803884,11.394224939953938
6.013880832,0.9994891076260489,11.26151574614959
6.018507776,0.9993614770301094,11.130802968271475
6.02313472,0.9992723559745088,11.001607210855568
6.027761664,0.9992271775758766,10.873390572800183
6.032388608,0.9992287208518258,10.745357824692777
6.037015552,0.9992767393916517,10.61704971784343
6.041642496,0.9993686080091236,10.487679420427703
6.04626944,0.9994986837391527,10.356727500503444
6.050896384,0.9996591600469912,10.223669367900436
6.055523328,0.9998404441775879,10.08821116891295
6.060150272,1.0000315235612702,9.950106419269249
6.064777216,1.0002210543015713,9.809217508438893
6.06940416,1.000397645636554,9.665801209277397
6.074031104,1.000550532651942,9.519983290282239
6.078658048,1.0006707370607875,9.372215090135578
6.083284992,1.000750975116641,9.22299203348967
6.087911936,1.0007862839805275,9.072997680560627
6.09253888,1.0007746598779834,8.922716937497231
6.097165824,1.0007167844773088,8.77294723919471
6.101792768,1.0006160541600355,8.624292651221166
6.106419712,1.0004783841988238,8.477235498022734
6.111046656,1.0003122411208665,8.332351369086659
6.1156736,1.0001273707582645,8.189907471614113
6.120300544,0.9999349969932666,8.050134647722901
6.124927488,0.9997466976594973,7.912983701521654
6.129554432,0.9995737596282511,7.77840992891824
6.134181376,0.9994264013685044,7.646066586450574
6.13880832,0.9993138839448941,7.515561028645194
6.143435264,0.9992426193909607,7.386305227674531
6.148062208,0.9992171291550879,7.257685471865384
6.152689664,0.999238935137067,7.129157130852226
6.157316608,0.9993067274618643,6.999935222927177
6.161943552,0.9994165237370564,6.869417239637175
6.166570496,0.9995615487097749,6.737081487819783
6.17119744,0.9997333035593552,6.602457033186758
6.175824384,0.9999213696490322,6.465330350365341
6.180451328,1.0001145216572251,6.325446736529384
6.185078272,1.0003010673416588,6.182842284261116
6.189705216,1.0004697802345675,6.037700473402439
6.19433216,1.0006105665633642,5.890375402593401
6.198959104,1.0007150078098934,5.741247050785285
6.203586048,1.0007768524313059,5.590980243324073
6.208212992,1.00079223588944,5.440087688212905
6.212839936,1.0007603987199805,5.289281834157696
6.21746688,1.0006830319682256,5.139242963760811
6.222093824,1.0005648020052773,4.990567837855865
6.226720768,1.000412960295548,4.843777137740168
6.231347712,1.0002363380037695,4.699269611849684
6.235974656,1.0000455711486975,4.557334212185661
6.2406016,0.9998523265888017,4.418089155336603
6.245228544,0.9996679046880191,4.281526921311574
6.249855488,0.9995037239018422,4.147355383555489
6.254482432,0.9993694503107664,4.0153258811877
6.259109376,0.9992732877432162,3.884880047385354
6.26373632,0.9992208751329096,3.7554377556963687
6.268363264,0.9992156424256345,3.6264452191136742
6.272990208,0.9992577260445249,3.4971464139208606
6.277617152,0.9993447148018378,3.3669201413332703
6.282244096,0.9994713019338279,3.2351331015831564
6.28687104,0.9996300493355458,3.101310090353997
6.291497984,0.999811355490808,2.9650634547681154
6.296124928,1.000004259448106,2.826142119009965
6.300751872,1.000197152534859,2.684457774375017
6.305378816,1.0003785663868145,2.540144223287804
6.31000576,1.000537620433546,2.393339053900648
6.314632704,1.000664618149622,2.244535963434718
6.319259648,1.0007520429106598,2.0941275627094234
6.323886592,1.0007945513959766,1.9428657305531813
6.328513536,1.0007898006547182,1.7912414342054677
6.33314048,1.0007376527284526,1.6400454007717928
6.337767424,1.000641524592878,1.489818839136826
6.342394368,1.0005070433581271,1.341215760677677
6.347021312,1.0003422782123015,1.1947222594537728
6.351648256,1.000157055271223,1.050624141007805
6.3562752,0.9999624838133637,0.9092792063589532
6.360902144,0.9997702697689391,0.7705311140719849
6.365529088,0.9995920761822881,0.6344564358703805
6.370156032,0.9994385361348205,0.5006781854535801
6.374782976,0.9993188010675631,0.36883131796100327
6.37940992,0.9992402821951344,0.23834295942711634
6.384036864,0.9992075646249794,0.1086489309175197
6.388663808,0.9992227625595115,-0.02093985319472082
6.393290752,0.9992848818503046,-0.15111183429480557
6.397917696,0.9993903525028578,-0.2825047110914156
6.40254464,0.9995326570782639,-0.41566230014955086
6.407171584,0.9997032716830296,-0.5510584606455226
6.411798528,0.9998921717395078,-0.6890071506414279
6.416425472,1.0000879356722971,-0.8297252002159126
6.421052416,1.000278524430986,-0.9732124930601365
6.42567936,1.000452916921287,-1.1192919358987807
6.430306304,1.000600373132785,-1.2676594493769295
6.434933248,1.0007119669121314,-1.4179160863238829
6.439560192,1.0007813294449144,-1.5694278757526727
6.444187136,1.0008037977140023,-1.7216286428183707
6.448814592,1.000778485640516,-1.8738625532201996
6.453441536,1.0007066212871651,-2.0254279926115832
6.45806848,1.0005924173713951,-2.1757339887539278
6.462695424,1.0004429367320549,-2.3241535436948215
6.467322368,1.0002668761801867,-2.470314137786739
6.471949312,1.0000750773671108,-2.613913298215797
6.476576256,0.9998787958734084,-2.7547659023308495
6.4812032,0.9996898690027489,-2.8929628985343467
6.485830144,0.9995197019683345,-3.0286142507242166
6.490457088,0.9993785891952192,-3.162070529167455
6.495084032,0.9992750006018416,-3.2938195637014664
6.499710976,0.9992152032174854,-3.424444014703886
6.50433792,0.99920262502929,-3.5545711485810387
6.508964864,0.9992383034091966,-3.684894693337478
6.513591808,0.9993200722112102,-3.816082297726172
6.518218752,0.9994429393755114,-3.9487469582685106
6.522845696,0.9995995917791458,-4.083381336945606
6.52747264,0.9997806514404609,-4.220436099501235
6.532099584,0.9999751506507433,-4.36018876297434
6.536726528,1.0001715548451813,-4.502731433990533
6.541353472,1.000357957105641,-4.6480100085425065
6.545980416,1.0005230627182282,-4.795784486184607
6.55060736,1.0006572402999845,-4.945680477330751
6.555234304,1.0007521448714818,-5.097275174639238
6.559861248,1.0008022749767098,-5.249882113513147
6.564488192,1.0008045998849915,-5.402905762681529
6.569115136,1.0007586653449585,-5.555608267010413
6.57374208,1.0006675057698373,-5.707442950018002
6.578369024,1.0005365247175249,-5.85770226725661
6.582995968,1.0003734354000948,-6.005893422403432
6.587622912,1.0001879864485999,-6.15169061880873
6.592249856,0.9999914484444319,-6.294770640888327
6.5968768,0.9997954829509492,-6.435119217233272
6.601503744,0.9996120309133271,-6.57279263886822
6.606130688,0.999451908929308,-6.708074600237432
6.610757632,0.9993248946085398,-6.8413239656926725
6.615384576,0.9992386547739853,-6.973086141641609
6.62001152,0.9991982084562194,-7.104024594037863
6.624638464,0.9992063561663879,-7.234699420095463
6.629265408,0.9992624297891174,-7.365876628330834
6.633892352,0.9993631441847678,-7.498175836035995
6.638519296,0.9995023546609484,-7.632237213628242
6.64314624,0.9996718401225868,-7.768468055089551
6.647773184,0.9998613605798798,-7.907235815375091
6.652400128,1.000059522456567,-8.048832459780089
6.657027072,1.0002543323925495,-8.193198434719086
6.661654016,1.000434278545193,-8.340305647292796
6.66628096,1.0005885576542652,-8.48973364158001
6.670907904,1.0007077737082288,-8.641103706972517
6.675534848,1.0007848735057026,-8.793953089240022
6.680161792,1.0008150921882313,-8.947546080391692
6.684788736,1.0007967003099332,-9.101270683112103
6.68941568,1.000730608765376,-9.254423776156603
6.694042624,1.0006209184040544,-9.406364162218528
6.698669568,1.000474159763751,-9.556513007580083
6.703296512,1.000298969118382,-9.70444005755229
6.707923456,1.0001060596893179,-9.849760568114997
6.7125504,0.9999069793402281,-9.992335641717524
6.717177344,0.999713405495241,-10.13220269850278
6.721804288,0.9995372468382921,-10.269423294295324
6.726431232,0.9993891234577155,-10.404420727136637
6.731058176,0.9992777003321925,-10.537585173798373
6.73568512,0.9992098880332287,-10.66950495698087
6.740312064,0.999189811922745,-10.800792382627895
6.74493952,0.9992186901245036,-10.932210348243268
6.749566464,0.9992947768699952,-11.06434584206381
6.754193408,0.999413519963994,-11.197896024723253
6.758820352,0.9995678058890591,-11.333454730319774
6.763447296,0.9997484487379066,-11.471365367046117
6.76807424,0.9999444098188925,-11.611950459320166
6.772701184,1.0001441135541962,-11.755406783286771
6.777328128,1.000335433269538,-11.901643811982677
6.781955072,1.000507096379259,-12.050450018892173
6.786582016,1.000648484864476,-12.201544499893005
6.79120896,1.0007514156707658,-12.354361150366074
6.795835904,1.000809429228152,-12.508306793462836
6.800462848,1.0008193427744756,-12.662799916122742
6.805089792,1.0007801229354725,-12.817122453983051
6.809716736,1.0006943484393145,-12.97057664379946
6.81434368,1.0005672268913757,-13.12255466247402
6.818970624,1.0004060006650999,-13.272564906454804
6.823597568,1.000220688365917,-13.420136445178825
6.828224512,1.000022208471357,-13.564980953921022
6.832851456,0.9998224989386095,-13.707067820874567
6.8374784,0.9996335340703482,-13.846438983436682
6.842105344,0.999466858775684,-13.98328220040601
6.846732288,0.9993320968211621,-14.11806118121816
6.851359232,0.9992378612992543,-14.251224436420616
6.855986176,0.9991894881551396,-14.383388306581631
6.86061312,0.9991901689331195,-14.515228275936204
6.865240064,0.9992396575298531,-14.647464363215862
6.869867008,0.9993351525967098,-14.780744729908916
6.874493952,0.9994709655060181,-14.915711247889316
6.879120896,0.999638772675361,-15.052831131606995
6.88374784,0.9998286934142081,-15.192516068450441
6.888374784,1.000029144120983,-15.334978680924626
6.893001728,1.0002283658528643,-15.480315600350957
6.897628672,1.0004140267949564,-15.628381090279076
6.902255616,1.0005752794884701,-15.778940057859925
6.90688256,1.0007024272175395,-15.931567653340334
6.911509504,1.0007876404461993,-16.085701733257764
6.916136448,1.0008258728637787,-16.24075527797545
6.920763392,1.0008148726261434,-16.396021210715254
6.925390336,1.0007551142526507,-16.55081828601532
6.93001728,1.0006502158019979,-16.70449578907078
6.934644224,1.0005066883587201,-16.85644064434455
6.939271168,1.0003326870950564,-17.0061774209486
6.943898112,1.0001390016897478,-17.15335917659608
6.948525056,0.9999370396496655,-17.297721812925563
6.953152,0.9997388918951291,-17.439342744239795
6.957778944,0.999556486664519,-17.578270712372948
6.962405888,0.9994009858025193,-17.71484565526962
6.967032832,0.9992815767084232,-17.849462810228854
6.971659776,0.999205497793848,-17.98273201366053
6.97628672,0.9991773336134051,-18.115304243103814
6.980913664,0.9991989481172927,-18.24783859432983
6.985540608,0.9992689861060946,-18.38101513712991
6.990167552,0.9993830583350594,-18.5155783532358
6.994794496,0.9995346324507575,-18.652038866689026
6.99942144,0.9997145223726974,-18.79081934462609
7.004048384,0.9999116975173575,-18.93235218061883
7.008675328,1.0001146382863102,-19.07670916950773
7.013302272,1.000311175165258,-19.223962148479995
7.017929216,1.0004892691152514,-19.37384788680669
7.02255616,1.000638369485151,-19.526061740745014
7.027183104,1.0007494269224162,-19.68020005312784
7.031810048,1.0008159348119925,-19.835566578595763
7.036436992,1.0008336489071306,-19.991586931181853
7.041064448,1.0008016901040986,-20.1475385612716
7.045691392,1.0007218197456704,-20.302746102690108
7.050318336,1.0005988366732201,-20.456530656697012
7.05494528,1.000440044193657,-20.608368176918233
7.059572224,1.0002550323004327,-20.75779085235849
7.064199168,1.0000547607868608,-20.90456123682289
7.068826112,0.9998513459895172,-21.04844148201588
7.073453056,0.9996569622798497,-21.18957816279435
7.07808,0.9994833409811952,-21.32810702842566
7.082706944,0.9993408963439523,-21.46444682055677
7.087333888,0.9992380229588995,-21.599060516535243
7.091960832,0.9991811998935316,-21.73257228872679
7.096587776,0.9991738235431357,-21.865634251150688
7.10121472,0.9992164833442937,-21.999021528736236
7.105841664,0.9993063460464338,-22.133316693878708
7.110468608,0.9994382280597305,-22.269247667265976
7.115095552,0.9996040171270805,-22.40731727878203
7.119722496,0.9997940431852194,-22.5478938005635
7.12434944,0.9999968842912167,-22.691286638319976
7.128976384,1.0002002290702634,-22.837602719187657
7.133603328,1.0003918338108548,-22.986699273233636
7.138230272,1.0005603524838735,-23.138433618462628
7.142857216,1.0006954885098438,-23.292294855917056
7.14748416,1.0007893177340348,-23.44781288360349
7.152111104,1.0008360946244295,-23.604334336023122
7.156738048,1.0008329864425825,-23.761215434802615
7.161364992,1.000780050337103,-23.917749040980908
7.165991936,1.0006805229844664,-24.0732345605076
7.17061888,1.0005406048284127,-24.22703875423581
7.175245824,1.0003681454413094,-24.378672818614948
7.179872768,1.0001737870872216,-24.527749086082576
7.184499712,0.9999690621254083,-24.674041168120823
7.189126656,0.9997663781724205,-24.81748512031022
7.1937536,0.9995778603404549,-24.958169728118758
7.198380544,0.9994146682570724,-25.096418682563296
7.203007488,0.9992868906237586,-25.23261263042294
7.207634432,0.999202111474579,-25.367310669506367
7.212261376,0.9991655543881018,-25.50120177344343
7.21688832,0.9991791874812798,-25.634964719996447
7.221515264,0.9992424702397394,-25.769256834926242
7.226142208,0.999351677895336,-25.904808177657255
7.230769152,0.9995000571529058,-26.04222175298151
7.235396096,0.999678881158251,-26.181985111260985
7.24002304,0.999877231066733,-26.324433608348663
7.244649984,1.0000834044513722,-26.469779920521667
7.249276928,1.000284914906163,-26.61801121611589
7.253903872,1.0004696234996862,-26.769039690524547
7.258530816,1.000626604573097,-26.922500927330756
7.26315776,1.0007464354309328,-27.07790587122556
7.267784704,1.000821686383552,-27.23478748382148
7.272411648,1.0008478294842922,-27.392383956331138
7.277038592,1.0008235277701505,-27.55000063150167
7.281665536,1.0007500253513686,-27.70701238687365
7.28629248,1.0006318406446992,-27.862649693796246
7.290919424,1.0004758536596847,-28.016445877130842
7.295546368,1.0002913854691453,-28.167809147364583
7.300173312,1.0000895339713838,-28.316521340250794
7.304800256,0.9998825985649951,-28.46237308361803
7.3094272,0.999682643140019,-28.605311390786287
7.314054144,0.9995019210833632,-28.745644379377275
7.318681088,0.9993512590844544,-28.883646495502838
7.323308032,0.9992395973536713,-29.019794887245766
7.327934976,0.9991739356399123,-29.1547191158481
7.33256192,0.999158083810093,-29.289092678358067
7.337189376,0.9991930767602653,-29.42362764455731
7.34181632,0.9992767031348472,-29.55904857360938
7.346443264,0.9994042284057607,-29.695952870776704
7.351070208,0.9995679091359246,-29.834965400896277
7.355697152,0.9997577490020509,-29.97653437585296
7.360324096,0.9999624953474068,-30.120898920158265
7.36495104,1.000169941389079,-30.268219221036603
7.369577984,1.000367643451944,-30.41840650205668
7.374204928,1.0005435210003133,-30.571268081366117
7.378831872,1.0006871223983473,-30.726451620636936
7.383458816,1.0007898920184857,-30.883393871827327
7.38808576,1.0008456716691605,-31.041471412222304
7.392712704,1.000850847803654,-31.200020776514542
7.397339648,1.000805410896156,-31.358318731942617
7.401966592,1.0007118522332752,-31.51567326947884
7.406593536,1.0005756842276112,-31.671423237796912
7.41122048,1.0004052095095153,-31.825068827235214
7.415847424,1.0002104956766948,-31.976158638822575
7.420474368,1.0000031862587633,-32.124404664960466
7.425101312,0.9997958993913522,-32.26978955014553
7.429728256,0.9996009592679613,-32.412331614903174
7.4343552,0.9994300905946181,-32.55232397265381
7.438982144,0.9992935513718544,-32.690170547238154
7.443609088,0.9991995742736673,-32.826392522789334
7.448236032,0.9991538805419163,-32.96168536612284
7.452862976,0.9991592613662363,-33.09668029181182
7.45748992,0.9992152714432438,-33.232144921182574
7.462116864,0.9993190222876748,-33.368772103188554
7.466743808,0.9994637454062144,-33.50720665277284
7.471370752,0.9996411510645464,-33.647900180526534
7.475997696,0.9998403063107965,-33.7913511625983
7.48062464,1.0000495178370357,-33.93768499552312
7.485251584,1.0002562402971535,-34.086977213231314
7.489878528,1.0004477248791888,-34.23914624081514
7.494505472,1.0006127939275866,-34.39384582906507
7.499132416,1.0007414588850825,-34.55064256624186
7.50375936,1.0008260604813286,-34.70898552329553
7.508386304,1.0008612648098274,-34.868236548109785
7.513013248,1.0008452302099677,-35.02762873952998
7.517640192,1.0007786530481766,-35.186454958415624
7.522267136,1.0006657168535296,-35.3440818477347
7.52689408,1.0005128793902802,-35.49987133555956
7.531521024,1.000329467579792,-35.65328451812628
7.536147968,1.0001263800389049,-35.804031054049474
7.540774912,0.9999158024490754,-35.95185487279443
7.545401856,0.9997103474225055,-36.09678976712325
7.5500288,0.9995225317680976,-36.23893450950771
7.554655744,0.999363239673099,-36.378701359124065
7.559282688,0.9992424209974508,-36.51647614568856
7.563909632,0.9991673129848176,-36.65289480890572
7.568536576,0.999142482794498,-36.78866208777858
7.57316352,0.9991693133338748,-36.92442190149668
7.577790464,0.999246324446061,-37.06097174964635
7.582417408,0.9993689605736553,-37.19895748928388
7.587044352,0.9995299101304004,-37.33898036418199
7.591671296,0.9997191920873317,-37.48152159092421
7.59629824,0.9999258692607388,-37.62687207272481
7.600925184,1.0001372479691826,-37.77522777488548
7.605552128,1.000340894519581,-37.926535663109206
7.610179072,1.0005245646862513,-38.08062048779183
7.614806016,1.0006768937628987,-38.23708305705071
7.61943296,1.000789086062981,-38.39546454692373
7.624059904,1.0008542665239055,-38.55515548377968
7.628686848,1.0008684652390134,-38.71543456858581
7.633314304,1.0008309389645327,-38.87557255069664
7.637941248,1.0007438466462775,-39.03486612242754
7.642568192,1.000612210486661,-39.19263736493176
7.647195136,1.0004440398575165,-39.348336125533315
7.65182208,1.0002492771143512,-39.501504936623604
7.656449024,1.0000398040132188,-39.6518672644793
7.661075968,0.9998278844274305,-39.79926955634064
7.665702912,0.999626541419797,-39.943758337434055
7.670329856,0.9994475147730951,-40.0856184334971
7.6749568,0.9993018726483748,-40.2251637008791
7.679583744,0.9991983424522004,-40.36299424601111
7.684210688,0.9991430526742253,-40.499766488032606
7.688837632,0.9991394573351154,-40.63609990618807
7.693464576,0.999187860760694,-40.7728092932785
7.69809152,0.9992853147363981,-40.91054737710548
7.702718464,0.9994260657481191,-41.05000491129139
7.707345408,0.9996014702315801,-41.19174013214728
7.711972352,0.9998013192622444,-41.33614467817337
7.716599296,1.000013241570383,-41.48353738782715
7.72122624,1.0002249320579177,-41.633915032887394
7.725853184,1.000423521991455,-41.787219556574364
7.730480128,1.0005970736980458,-41.94316953582222
7.735107072,1.0007350307413365,-42.101403981925344
7.739734016,1.000829326681279,-42.26128890351019
7.74436096,1.0008742343468993,-42.422178459470715
7.748987904,1.0008669561334695,-42.58340461414468
7.753614848,1.0008079827187444,-42.74417141801412
7.758241792,1.0007007702838804,-42.90380967288202
7.762868736,1.0005515773850842,-43.06167724732942
7.76749568,1.0003694709322972,-43.21724113426951
7.772122624,1.000165422223849,-43.37008822397241
7.776749568,0.9999514897688082,-43.52003150421382
7.781376512,0.9997404138623607,-43.666997972115205
7.786003456,0.9995451052774161,-43.811119784855265
7.7906304,0.9993771877253071,-43.952689622357106
7.795257344,0.9992467305087388,-44.09218350622253
7.799884288,0.9991617539796579,-44.23019164331501
7.804511232,0.9991272490093069,-44.36737088372347
7.809138176,0.9991453569720005,-44.50445154471548
7.81376512,0.999215053004806,-44.64218577212107
7.818392064,0.9993323247960113,-44.781276918609386
7.823019008,0.9994898281396025,-44.922347513748576
7.827645952,0.9996783889850235,-45.065883455136074
7.832272896,0.9998866417444391,-45.21226453088599
7.83689984,1.0001020944386438,-45.36167418312205
7.841526784,1.0003117200069356,-45.514112646079354
7.846153728,1.0005030164852728,-45.66943100284553
7.850780672,1.000664629788183,-45.82727282435277
