freq,mag,phase
6.0,1.0003252850077975,20.550431967332887
6.002285568,1.000305349423416,20.48190987309578
6.004571648,1.0002653171575464,20.413840418564362
6.006857216,1.000207919005928,20.346439429621295
6.009142784,1.0001367468675788,20.28001055376227
6.011428352,1.0000564832718597,20.21470585943351
6.013714432,0.9999721292155906,20.150551782445024
6.016,0.9998891693672133,20.0876023107301
6.018285568,0.9998128151996942,20.025880315659805
6.020571648,0.9997480755186868,19.96515792393491
6.022857216,0.9996991060120344,19.905220994583267
6.025142784,0.9996689199703163,19.84592383019001
6.027428352,0.9996595779981219,19.786887092802726
6.029714432,0.9996716704045414,19.72780621229995
6.032,0.9997044044763982,19.668425504469855
6.034285568,0.999755642316248,19.608391898268337
6.036571648,0.9998221439510051,19.54752713197583
6.038857216,0.9998996710223005,19.48561120802158
6.041142784,0.9999832783428703,19.42249035719632
6.043428352,1.000067520886837,19.358162954371053
6.045714432,1.0001471421920927,19.292584246118665
6.048,1.0002169264145477,19.225973150871766
6.050285568,1.0002724644556005,19.158391535663863
6.052571648,1.0003102709847331,19.090157954603022
6.054857216,1.0003277499295649,19.02149055495696
6.057142784,1.0003237959733258,18.95273222860539
6.059428352,1.0002988073013086,18.884197319230953
6.061714432,1.0002542489638162,18.816119470119066
6.064,1.000193041010971,18.7488754165313
6.066285568,1.0001190697253035,18.68256400455426
6.068571648,1.0000370417490154,18.61742600007247
6.070857216,0.999952221456306,18.553469114155558
6.073142784,0.9998699968928664,18.490734304397307
6.075428352,0.9997957639452881,18.429135896986708
6.077714432,0.9997341637351188,18.36854460847003
6.08,0.9996890603432869,18.308728380989436
6.082285568,0.9996635939646566,18.249403437357074
6.084571648,0.9996592750877927,18.190305160111325
6.086857216,0.9996763634620931,18.13114455670067
6.089142784,0.9997137652843681,18.071534448897335
6.091428352,0.999769149961313,18.01125115328477
6.093714432,0.9998388904403354,17.95009312473896
6.096,0.9999187017896257,17.887771822131015
6.098285568,1.0000031877759967,17.824320023600823
6.100571648,1.0000872747344498,17.759569594790054
6.102857216,1.000165199326252,17.693674040280193
6.105142784,1.0002323483356608,17.6267014319738
6.107428352,1.0002841079957656,17.55880976194457
6.109714432,1.0003174597650897,17.490334245632557
6.112,1.0003299796201195,17.42151745805774
6.114285568,1.0003210828237215,17.35267883730008
6.116571648,1.0002911909827574,17.28412102325808
6.118857216,1.0002421933906487,17.21611139122539
6.121142784,1.0001774038539424,17.14895489944687
6.123428352,1.0001006778750428,17.08279575858239
6.125714432,1.0000173307682647,17.017844604928367
6.128,0.9999322003434176,16.954062796803953
6.130285568,0.9998511008932921,16.89149062415302
6.132571648,0.9997791402214815,16.830107112610985
6.134857216,0.9997208553411385,16.769629464868395
6.137142784,0.9996801173816652,16.709846538006865
6.139428352,0.9996593431524635,16.650564302978562
6.141714432,0.999660037475471,16.5913751277816
6.144,0.9996821213037654,16.53205239224287
6.146285568,0.9997242104334181,16.47224583182008
6.148571648,0.9997834890864017,16.41172035714743
6.150857216,0.9998563593516795,16.35019325589504
6.153142784,0.9999379926251653,16.287537269528965
6.155428352,1.0000232299416905,16.22365461716881
6.157714432,1.0001066257738092,16.158559601899917
6.16,1.0001828730864937,16.092243265599553
6.162285568,1.0002469514805434,16.024949832414453
6.164571648,1.000294901895834,15.95681557081208
6.166857216,1.0003235872179872,15.88811816590614
6.169142784,1.0003310664765286,15.819155352670762
6.171428352,1.0003171578968426,15.750234468126079
6.173714432,1.000282495407996,15.681682958633148
6.176,1.000229226904398,15.613725852664347
6.178285568,1.0001609736648118,15.546641295808831
6.180571648,1.0000820195106899,15.480671117526725
6.182857216,0.9999972878135202,15.415886850173733
6.185142784,0.9999124311305443,15.352333906060267
6.187428352,0.9998326439957609,15.2899636253219
6.189714432,0.9997632256438463,15.228684576582241
6.192,0.9997084713630577,15.168323174031185
6.194285568,0.9996721587660615,15.108607060245106
6.196571648,0.9996562835963291,15.049327823167031
6.198857216,0.9996620384889837,14.990023004747774
6.201142784,0.9996889640391133,14.930570850355885
6.203428352,0.9997355715882522,14.870518954074967
6.205714432,0.9997986706769596,14.809720100690487
6.208,0.999874350878987,14.74778667563825
6.210285568,0.9999576575928809,14.684782448751072
6.212571648,1.00004323133661,14.620505983310778
6.214857216,1.000125764606707,14.555020392358086
6.217142784,1.0001998214893435,14.488373337391481
6.219428352,1.0002607056770267,14.420776292431057
6.221714432,1.0003045771688588,14.35234548608793
6.224,1.0003285842374625,14.283434208672126
6.226285568,1.0003310348331795,14.214330059348349
6.228571648,1.0003120052628356,14.14532241475877
6.230857216,1.0002726903346413,14.07677931120454
6.233142784,1.0002153105073666,14.008930947351134
6.235428352,1.0001438997854901,13.942005937781188
6.237714432,1.000062704672677,13.876173700242541
6.24,0.9999772252301556,13.811585306672566
6.242285568,0.999892633704373,13.748218472993758
6.244571648,0.9998145984260149,13.686038323718968
6.246857216,0.9997479544499226,13.62491490661266
6.249142784,0.99969701533597,13.564651169147824
6.251428352,0.9996651789490112,13.504975091455893
6.253714432,0.9996542444159437,13.445594521442375
6.256,0.9996652142443725,13.386242005449724
6.258285568,0.999697067018117,13.326556073989158
6.260571648,0.9997480170658601,13.26631036300316
6.262857216,0.9998147170713614,13.205131875631418
6.265142784,0.9998929145438291,13.142943559387815
6.267428352,0.9999775947033969,13.079553168835021
6.269714432,1.0000633059856294,13.014852158440531
6.272,1.0001446024546874,12.948973312012155
6.274285568,1.000216330917404,12.881970397954074
6.276571648,1.000273732935504,12.814011337859741
6.278857216,1.000313358269281,12.745396030085749
6.281142784,1.0003323751517215,12.676275915222003
6.283428352,1.0003298369571938,12.607084235162965
6.285714432,1.0003057587069923,12.53805498542173
6.288,1.0002616730430904,12.469488391592392
6.290285568,1.0002005927939484,12.40171168291384
6.292571648,1.000126084200019,12.334917338123837
6.294857216,1.0000431425629464,12.26930977058283
6.297142784,0.9999569255436133,12.2048995889334
6.299428352,0.9998731006858459,12.141737043012947
6.301714432,0.9997969851839551,12.07969907963423
6.304,0.999733446148959,12.018736749163443
6.306285568,0.9996865451106901,11.958516980863168
6.308571648,0.9996593255317249,11.89885456531274
6.310857216,0.9996534897581645,11.839444213780595
6.313142784,0.999669475761202,11.779995503400528
6.315428352,0.9997062070280593,11.72011340651309
6.317714432,0.999761425080986,11.659556570608274
6.32,0.999831473442366,11.598095513430014
6.322285568,0.9999120187452142,11.535509861775608
6.324571648,0.9999976832025802,11.47172481110778
6.326857216,1.0000832395895562,11.406670431701432
6.329142784,1.0001631533645339,11.3404114084215
6.331428352,1.000232137081846,11.273048073524778
6.333714432,1.0002858209195675,11.204823623974907
6.336,1.0003209410417562,11.13591852341262
6.338285568,1.0003351187245655,11.066633463857505
6.340571648,1.0003274219194567,10.997308528046277
6.342857216,1.0002984649961135,10.92828262156666
6.345142784,1.0002498483231583,10.859762922630415
6.347428352,1.000184914565119,10.792066538801475
6.349714432,1.0001076537789493,10.725440040922706
6.352,1.0000231745352175,10.6599790867063
6.354285568,0.9999367145690529,10.595748046717691
6.356571648,0.9998538036639542,10.532773065250849
6.358857216,0.9997799460700196,10.47090479064076
6.361142784,0.9997197547240956,10.410072394375137
6.363428352,0.9996770270158295,10.34994815816586
6.365714432,0.9996546276719694,10.290304520867942
6.368,0.9996538788070839,10.23080395021156
6.370285568,0.9996749473341552,10.171215909815096
6.372571648,0.9997164398724733,10.111114377638067
6.374857216,0.9997756818656948,10.050294591519622
6.377142784,0.9998488773278376,9.988456953261052
6.379428352,0.9999314335688491,9.925547686868093
6.381714432,1.0000179923319672,9.86133763934388
6.384,1.000103044435499,9.79592121541093
6.386285568,1.0001811182181652,9.7292644644013
6.388571648,1.0002471688584713,9.661555535151676
6.390857216,1.0002970178698034,9.593013240505448
6.393142784,1.0003275650308388,9.523899106758314
6.395428352,1.0003366780529575,9.454481557640205
6.397714432,1.000323891772046,9.385048697151683
6.4,1.000289887293878,9.316002046387501
6.402285568,1.0002370660423168,9.247553211863398
6.404571648,1.00016848823238,9.179940298751944
6.406857216,1.000088772650145,9.113470022392361
6.409142784,1.0000029924665934,9.048231739489449
6.411428352,0.9999164856213104,8.984173732976378
6.413714432,0.9998349466117976,8.921373888788246
6.416,0.9997635657914186,8.859683503858628
6.418285568,0.9997068976701923,8.798938347866297
6.420571648,0.9996685698146434,8.738872005321362
6.422857216,0.9996509979873265,8.679186401509472
6.425142784,0.9996555454401622,8.619656361240278
6.427428352,0.9996816095716473,8.55985301504264
6.429714432,0.9997276228703035,8.499520008944526
6.432,0.9997908621892203,8.438412425184536
6.434285568,0.9998670426229336,8.376255858557059
6.436571648,0.9999513508249037,8.312960809887368
6.438857216,1.0000383912427149,8.248369950605854
6.441142784,1.00012256415266,8.182525659779508
6.443428352,1.0001985880278235,8.115524828121092
6.445714432,1.000261498425311,8.0474964309137
6.448,1.0003072860325886,7.978667102283214
6.450285568,1.0003330457195556,7.909303285506426
6.452571648,1.0003370611952938,7.839748838240625
6.454857216,1.0003191028153018,7.770225844687903
6.457142784,1.0002803359401073,7.701198604097086
6.459428352,1.000223239978967,7.6328105646388815
6.461714432,1.000151391765669,7.565373189912645
6.464,1.0000694696139851,7.499061423791741
6.466285568,0.9999825959713848,7.433962067524864
6.468571648,0.9998965168158851,7.370149207765191
6.470857216,0.9998165321711641,7.307501091141224
6.473142784,0.9997479547292537,7.245952313744277
6.475428352,0.9996949646199859,7.185330726491561
6.477714432,0.9996612455200117,7.1252587246881385
6.48,0.9996486917419892,7.065602168167303
6.482285568,0.9996583586006884,7.005915339160739
6.484571648,0.9996894766876612,6.945952442654087
6.486857216,0.9997400089714578,6.885370218697666
6.489142784,0.9998068565069989,6.8239653754004745
6.491428352,0.9998857576055998,6.761428495073712
6.493714432,0.9999715174600388,6.697743270454344
6.496,1.0000588563967672,6.632760350615879
6.498285568,1.0001419091372146,6.566508754786736
6.500571648,1.0002155490236553,6.499146395554289
6.502857216,1.0002750748000604,6.430807975789117
6.505142784,1.0003165800684337,6.361701521897459
6.507428352,1.000337387526149,6.292120437532917
6.509714432,1.0003363367620592,6.222411187718239
6.512,1.0003132494281382,6.152884016417237
6.514285568,1.0002698117934035,6.083834605356429
6.516571648,1.0002086484499941,6.01556154028687
6.518857216,1.000133687675279,5.948237903245642
6.521142784,1.0000497080605901,5.882085225939041
6.523428352,0.9999621482444803,5.817168022640626
6.525714432,0.9998765948173072,5.753536395870952
6.528,0.9997985076846528,5.691067108177506
6.530285568,0.9997330292384108,5.6296911319500005
6.532571648,0.9996839960788289,5.569132571963123
6.534857216,0.999654906468984,5.509116177881696
6.537142784,0.9996475331908059,5.449397581510758
6.539428352,0.9996623490974605,5.389586787594307
6.541714432,0.9996982951110188,5.329401775995532
6.544,0.9997532340937088,5.2685841654436
6.546285568,0.9998236195325978,5.206804606625083
6.548571648,0.9999048564778291,5.1439636297483124
6.550857216,0.99999190087171,5.079819899927456
6.553142784,1.0000790239094015,5.014490968860035
6.555428352,1.0001607802977075,4.94785021308835
6.557714432,1.00023179681059,4.880090951525492
6.56,1.0002876933478566,4.811439461051221
6.562285568,1.0003246930604768,4.742095457948646
6.564571648,1.0003406322522426,4.67235176892829
6.566857216,1.0003342999247469,4.602515290273045
6.569142784,1.0003061132222966,4.532964671400731
6.571428352,1.0002580495488813,4.463931208987329
6.573714432,1.0001930439327253,4.395706752505835
6.576,1.00011522913658,4.328558690813404
6.578285568,1.0000295880931729,4.262552498728312
6.580571648,0.9999415985299834,4.197864686318213
6.582857216,0.9998569657989271,4.1344372815604205
6.585142784,0.9997810071285911,4.072137012864298
6.587428352,0.9997188002426229,4.010870960805377
6.589714432,0.9996740891152474,3.9503758885477365
6.592,0.9996497982852875,3.890386624022141
6.594285568,0.9996474836107524,3.8305750305796646
6.596571648,0.9996675306726833,3.7706135407979544
6.598857216,0.9997083213496628,3.7102301754609344
6.601142784,0.9997674593686141,3.6491328921312958
6.603428352,0.9998411546483487,3.5870449812450267
6.605714432,0.9999246024618017,3.5237802944281778
6.608,1.0000124548469294,3.4593010762558087
6.610285568,1.000099220750638,3.3934834371868616
6.612571648,1.0001792788698598,3.3264742490638044
6.614857216,1.00024744737424,3.258391027333499
6.617142784,1.0002993660423614,3.1894054605540743
6.619428352,1.0003318648801054,3.119823899644079
6.621714432,1.000342580802138,3.0498841919875908
6.624,1.0003310449775615,2.9799598304160853
6.626285568,1.0002980298820507,2.9103794455931493
6.628571648,1.0002454172475608,2.841406976648357
6.630857216,1.0001766230627724,2.773312724927567
6.633142784,1.0000961717249108,2.7062917345816317
6.635428352,1.0000091987964368,2.6405030733236177
6.637714432,0.999921045795694,2.576004369689703
6.64,0.9998376719666575,2.5127304670193724
6.642285568,0.9997641239418728,2.450585321657854
6.644571648,0.9997054368673065,2.3894465513099004
6.646857216,0.9996650882291376,2.329001030350101
6.649142784,0.9996457907420018,2.269003742970584
6.651428352,0.9996487734493862,2.2091056616682825
6.653714432,0.9996738246245481,2.1489958009700425
6.656,0.9997194523855473,2.088377431452548
6.658285568,0.9997825709891296,2.0269442405856832
6.660571648,0.9998592499285796,1.9645328464386427
6.662857216,0.9999446803314627,1.9008809696265623
6.665142784,1.0000331978356165,1.8359694586669415
6.667428352,1.0001192079569847,1.7697910598791624
6.669714432,1.0001972616601669,1.7023834315492778
6.672,1.0002622300549031,1.6339499606183263
6.674285568,1.0003102089101428,1.5646681396822768
6.676571648,1.00033776343511,1.4948599514402994
6.678857216,1.0003433805842041,1.4248032949058556
6.681142784,1.0003267237871674,1.3547945606204157
6.683428352,1.0002885821328187,1.285176918861648
6.685714432,1.000231672502713,1.2162658539352587
6.688,1.0001594884152278,1.1482872778252442
6.690285568,1.0000767409864828,1.0814192673821552
6.692571648,0.9999885471574378,1.0158482402426534
6.694857216,0.9999007140220332,0.9515163213154098
6.697142784,0.9998187677865489,0.8884085943546721
6.699428352,0.9997479837852647,0.8264520441045792
6.701714432,0.9996929430727427,0.7653801512350142
6.704,0.9996571841575139,0.70497222884842
6.706285568,0.9996428813812599,0.644957290415849
6.708571648,0.9996511922051853,0.58493168616972
6.710857216,0.9996813681859229,0.52468880574773
6.713142784,0.9997315181743808,0.46384127943313924
6.715428352,0.999798537288944,0.4020740720634242
6.717714432,0.9998780548675945,0.33927545280261984
6.72,0.9999651065550816,0.27524642240507297
6.722285568,1.0000539200150902,0.20993695876580065
6.724571648,1.0001389079272378,0.14331078834410932
6.726857216,1.0002147314379757,0.07556902277239427
6.729142784,1.0002763341514014,0.0067872086994604
6.731428352,1.0003199617652856,-0.06275845540477933
6.733714432,1.0003426730057061,-0.132827195186866
6.736,1.0003430455000122,-0.20301003640598297
6.738285568,1.0003211880838208,-0.2730973534640253
6.740571648,1.0002782436578235,-0.34268093890652057
6.742857216,1.000217130847828,-0.411529290556759
6.745142784,1.0001418142427392,-0.4793569154431822
6.747428352,1.0000567384238446,-0.5460339400895012
6.749714432,0.9999678411286397,-0.6114962748090996
6.752,0.9998804448105225,-0.6756037890195445
6.754285568,0.9998003469572205,-0.7385135819888674
6.756571648,0.9997325186399285,-0.8003593583676072
6.758857216,0.9996814782312088,-0.8613229890653455
6.761142784,0.9996503055217094,-0.9217182946176415
6.763428352,0.9996412446360827,-0.9817758040294537
6.765714432,0.9996547641675599,-1.0419000356271504
6.768,0.999689954878302,-1.1023867401159593
6.770285568,0.9997446156840073,-1.163525333417472
6.772571648,0.9998151927690463,-1.2255962235937865
6.774857216,0.9998973887706915,-1.2887528825820769
6.777142784,0.9999856834337505,-1.353189099939386
6.779428352,1.000074495286014,-1.4189197862140266
6.781714432,1.0001582205396604,-1.4859058374767502
6.784,1.0002314035849125,-1.5540484125580396
6.786285568,1.0002894871225179,-1.62315155422703
6.788571648,1.0003285943303644,-1.692982914936264
6.790857216,1.0003462632097733,-1.7632058311034857
6.793142784,1.0003414738254925,-1.8335551633937208
6.795428352,1.000314327904984,-1.9036829934683954
6.797714432,1.000266741798002,-1.9732341616109
6.8,1.0002016474762063,-2.0419997619102066
6.802285568,1.0001232345906101,-2.1097119414530914
6.804571648,1.0000364097574836,-2.176225522170921
6.806857216,0.9999468850165816,-2.2414533714370317
6.809142784,0.9998603585606837,-2.305379877462407
6.811428352,0.9997823844170141,-2.3681184331929255
6.813714432,0.9997178485587374,-2.4298321240811473
6.816,0.9996709123317195,-2.490732436187476
6.818285568,0.9996446855647398,-2.551114331041844
6.820571648,0.9996407796185965,-2.6112356929107587
6.822857216,0.99965956375212,-2.6714906012286606
6.825142784,0.9996997638344299,-2.7321993555214603
6.827428352,0.9997586505988262,-2.793627396423883
6.829714432,0.9998327815014586,-2.856020570011293
6.832,0.999917199076297,-2.919577759462715
6.834285568,1.0000064860978763,-2.9844345638432217
6.836571648,1.0000950492241234,-3.050589551322928
6.838857216,1.0001771538217399,-3.1179553774108384
6.841142784,1.0002475606862355,-3.1864705770801147
6.843428352,1.0003017915991173,-3.255883579489383
6.845714432,1.00033622762673,-3.3259874446775655
6.848,1.0003488282017177,-3.3963875510409225
6.850285568,1.000338688937735,-3.46683636094041
6.852571648,1.0003064281973228,-3.5369680427426595
6.854857216,1.000254209638108,-3.606546812332849
6.857142784,1.0001853069211117,-3.675172060895312
6.859428352,1.0001040306374098,-3.742751401901698
6.861714432,1.0000157946674906,-3.809066922319962
6.864,0.9999260798445405,-3.874121309292903
6.866285568,0.9998406045447435,-3.9378635027676587
6.868571648,0.9997649816039875,-4.000450267616166
6.870857216,0.9997038838006481,-4.06203922511177
6.873142784,0.999661402876503,-4.1228848844985535
6.875428352,0.9996402147829259,-4.183240045488986
6.877714432,0.9996416624299775,-4.243466752635881
6.88,0.9996655461159117,-4.303915108554129
6.882285568,0.9997105275241461,-4.36482382490137
6.884571648,0.9997737638528066,-4.426543954968357
6.886857216,0.9998510531780814,-4.489288143778293
6.889142784,0.9999374599657832,-4.553245960478777
6.891428352,1.0000274923414467,-4.618498977450733
6.893714432,1.0001154902452012,-4.685048738880384
6.896,1.0001957225024432,-4.752848116467453
6.898285568,1.000262874742005,-4.821730087024649
6.900571648,1.0003130065868828,-4.8914564646074465
6.902857216,1.0003427087616923,-4.961758868329776
6.905142784,1.0003501139415256,-5.032375808649535
6.907428352,1.0003346432498619,-5.102889300005204
6.909714432,1.0002973952629068,-5.173056874646313
6.912,1.0002406794225707,-5.242545210210231
6.914285568,1.000168112307,-5.311105246991458
6.916571648,1.0000844491053138,-5.37849981275489
6.918857216,0.9999948215666281,-5.4446557980068295
6.921142784,0.9999053218176918,-5.509502746336912
6.923428352,0.9998212594849777,-5.573074166127419
6.925714432,0.9997482037660707,-5.635481035592468
6.928,0.9996909591029461,-5.6969730664308385
6.930285568,0.9996530526917162,-5.757776800667549
6.932571648,0.9996368175132886,-5.8181779064092805
6.934857216,0.9996435668702982,-5.878515787541965
6.937142784,0.999672774318154,-5.939092575714063
