freq,mag,phase
6.0,1.0001873451139258,115.08042261187919
6.002287104,1.000206777431602,114.93207821225005
6.004574208,1.0002135852653182,114.78360683649397
6.006861312,1.0002072135340343,114.63515966030347
6.009147904,1.0001879332042405,114.48692902738007
6.011435008,1.0001569962504173,114.3391036172707
6.013722112,1.000116430224994,114.19185954283118
6.016009216,1.0000686398557181,114.04527585433455
6.01829632,1.0000168745351896,113.89945983295887
6.020583424,0.9999640918173023,113.75443432257524
6.022870016,0.9999138839453552,113.61019675547409
6.02515712,0.999869295619896,113.46669141923404
6.027444224,0.9998332575922306,113.32378744770425
6.029731328,0.9998078941793739,113.18138342535096
6.032018432,0.9997950855479373,113.03930014804195
6.034305536,0.9997954828636955,112.89736401931619
6.036592128,0.9998089822256986,112.75536513245704
6.038879232,0.9998350648645979,112.61310247077549
6.041166336,0.9998716993568152,112.47043732051085
6.04345344,0.9999168873418742,112.3272130325598
6.045740544,0.9999675792118122,112.18331919889546
6.048027648,1.0000206961518796,112.03872772111323
6.05031424,1.0000729323647293,111.89340302955237
6.052601344,1.0001208328393494,111.74737735653446
6.054888448,1.00016137613703,111.60074436302075
6.057175552,1.0001920167598917,111.45364898524511
6.059462656,1.0002109173031053,111.30621086028847
6.06174976,1.0002167439004177,111.15863569263891
6.064036352,1.0002090368842853,111.01111196280286
6.066323456,1.000188371104008,110.86384473244239
6.06861056,1.0001561324642574,110.71698454463139
6.070897664,1.000114300475336,110.57070957772783
6.073184768,1.0000653249777471,110.42511018041338
6.075471872,1.0000124406710253,110.28029400757289
6.077758464,0.9999589669554158,110.13629754969598
6.080045568,0.999908410450204,109.99306981694113
6.082332672,0.9998637459551175,109.85059664204391
6.084619776,0.999828055123192,109.70872011158134
6.08690688,0.999803395264198,109.56734897229936
6.089193984,0.999791394028913,109.42628984589193
6.091481088,0.9997929182056536,109.2853028603372
6.09376768,0.9998078054892721,109.14425309900066
6.096054784,0.9998352065855031,109.00292927852631
6.098341888,0.9998734122257059,108.8611805429911
6.100628992,0.9999198059813512,108.71884619212302
6.102916096,0.9999716047577996,108.57582728693684
6.1052032,1.0000256192440016,108.43210161367048
6.107489792,1.00007840187656,108.28762132240081
6.109776896,1.0001264571402397,108.142447219723
6.112064,1.000166832561433,107.99665824507825
6.114351104,1.0001971176677396,107.85038586476333
6.116638208,1.0002149891152528,107.70381359545809
6.118925312,1.0002196906825935,107.55709632149356
6.121211904,1.0002108392549798,107.41046175534409
6.123499008,1.0001888177615217,107.26406759184925
6.125786112,1.0001550762029185,107.1181131853593
6.128073216,1.0001118055103146,106.97276914818354
6.13036032,1.000061637035701,106.82813149936757
6.132647424,1.0000078362776879,106.68424389066946
6.134934016,0.9999536493299206,106.54122158535567
6.13722112,0.9999026333317396,106.39896791049136
6.139508224,0.99985811468351,106.25744929225421
6.141795328,0.9998225881377449,106.11657858435896
6.144082432,0.999798685649475,105.97614545473772
6.146369536,0.9997876648487094,105.83601899149426
6.148656128,0.9997903305110551,105.69597196467235
6.150943232,0.9998066659260294,105.55585515119446
6.153230336,0.9998353867164655,105.41541753729413
6.15551744,0.9998750487727752,105.27452037329114
6.157804544,0.9999227364163689,105.13304731780009
6.160091648,0.9999756847852581,104.99085543816625
6.162378752,1.0000305104087632,104.84791426978917
6.164665344,1.0000837867851815,104.70423450998511
6.166952448,1.0001320659114126,104.55983397558693
6.169239552,1.00017223257847,104.41481692966174
6.171526656,1.0002019553975492,104.26938328710699
6.17381376,1.000219076741702,104.12358328069628
6.176100864,1.000222738074947,103.97766797038962
6.178387456,1.000212399007815,103.8318581405768
6.18067456,1.0001889472806695,103.68630107391054
6.182961664,1.0001537883897145,103.54120118809941
6.185248768,1.0001091706556728,103.39673949545556
6.187535872,1.00005783203295,103.25297206678218
6.189822976,1.0000029412214513,103.1100348899525
6.192109568,0.9999481084046856,102.9678923584921
6.194396672,0.9998966867346805,102.82659845586367
6.196683776,0.9998522245574956,102.68601214959739
6.19897088,0.9998171056061269,102.546034047785
6.201257984,0.9997938679485051,102.40653811812749
6.203545088,0.9997839452546344,102.26729577958656
6.20583168,0.9997879211815712,102.12813473321705
6.208118784,0.9998056743352179,101.98884917257044
6.210405888,0.9998359242850124,101.84925633394421
6.212692992,0.999876857622137,101.70916814632083
6.214980096,0.9999260133520175,101.56847763373815
6.2172672,0.9999800164414522,101.4270533049674
6.219553792,1.0000357659121255,101.28485120730203
6.221840896,1.000089454265206,101.1419180858585
6.224128,1.0001378435028263,100.99825377804792
6.226415104,1.0001778964772228,100.85397048282584
6.228702208,1.0002068730294398,100.70923769068446
6.230989312,1.0002230425669485,100.56418868064664
6.233275904,1.0002254800394879,100.41904414160422
6.235563008,1.00021384475288,100.27401077689309
6.237850112,1.0001889643247601,100.12923507063421
6.240137216,1.0001522583108804,99.98494706108976
6.24242432,1.0001061374921167,99.84129897115146
6.244711424,1.000053531682049,99.69840450005574
6.246998528,0.9999977507129428,99.55630944382152
6.24928512,0.9999422533533646,99.41507389741614
6.251572224,0.9998906216668455,99.27461595599516
6.253859328,0.9998461092372933,99.13490559475179
6.256146432,0.9998115354634306,98.99582089801925
6.258433536,0.9997890587776996,98.8571680755791
6.26072064,0.9997802952729911,98.71876475081697
6.263007232,0.9997855378329388,98.58041868649366
6.265294336,0.9998047803267541,98.44194926819995
6.26758144,0.9998365296288823,98.30312387431034
6.269868544,0.9998790533131844,98.16381404999655
6.272155648,0.9999294528927184,98.02382327281326
6.274442752,0.9999845766565824,97.88313329261241
6.276729344,1.0000410909377473,97.7416204225717
6.279016448,1.0000953082835902,97.59935920489514
6.281303552,1.0001438479030333,97.4563774547617
6.283590656,1.0001835145797493,97.31275898658865
6.28587776,1.0002119107490197,97.16870933417042
6.288164864,1.000227062972047,97.02433944665741
6.290451456,1.0002282460752718,96.87990507656319
6.29273856,1.000215217048252,96.73556813854385
6.295025664,1.00018870554622,96.59157057227158
6.297312768,1.0001505446093306,96.44803654150918
6.299599872,1.0001030809646188,96.30515148881207
6.301886976,1.0000491742815873,96.16307357751607
6.304173568,0.9999924417624378,96.02180297958304
6.306460672,0.9999363268212734,95.88134513381304
6.308747776,0.9998844114452071,95.74175255845692
6.31103488,0.9998400169609142,95.60286242267162
6.313321984,0.9998058894229166,95.46458264960266
6.315609088,0.9997843917444855,95.32672444632568
6.317896192,0.999776714958328,95.1891335742018
6.320182784,0.9997833892252566,95.05156004389521
6.322469888,0.9998041307085466,94.91382138370953
6.324756992,0.9998374646019621,94.77571727867382
6.327044096,0.9998814140939074,94.63709025849195
6.3293312,0.9999331936261562,94.49778257528023
6.331618304,0.9999894203014772,94.35774944738992
6.333904896,1.0000468812490872,94.21688403001788
6.336192,1.000101511088476,94.07524170807577
6.338479104,1.0001499988698173,93.93286437848784
6.340766208,1.0001893814215495,93.78989202221447
6.343053312,1.0002170735262486,93.6464485460548
6.345340416,1.0002312697607822,93.50273580330791
6.347627008,1.0002310629307936,93.35893367013105
6.349914112,1.0002164831530642,93.21529679709059
6.352201216,1.0001884813318587,93.07196405838975
6.35448832,1.0001487588227949,92.92914102307998
6.356775424,1.0000997934753248,92.78700746662349
6.359062528,1.000044606005599,92.64564272166947
6.36134912,0.9999868714573599,92.50514310711124
6.363636224,0.9999300886203663,92.36546773324349
6.365923328,0.9998779216470348,92.22663459045405
6.368210432,0.9998337075197039,92.08852832252474
6.370497536,0.9998001442012308,91.95103027526731
6.37278464,0.9997795419873621,91.81393214604121
6.375071232,0.9997731267522771,91.67705277907348
6.377358336,0.9997811968704509,91.54020279692942
6.37964544,0.9998035308726143,91.40315725127697
6.381932544,0.9998385290786996,91.26572898613612
6.384219648,0.999883848755356,91.1277301396139
6.386506752,0.9999370287486311,90.98906505644261
6.388793344,0.9999944808403182,90.84959289426537
6.391080448,1.0000526098587892,90.70929989594326
6.393367552,1.0001075966585762,90.56823560286772
6.395654656,1.0001562126705383,90.42646582406056
6.39794176,1.000195158363617,90.28405003557154
6.400228864,1.000222023920553,90.14117994377278
6.402515968,1.0002350813004768,89.99804631292997
6.40480256,1.0002336408796235,89.8548577915905
6.407089664,1.0002175724703126,89.71181901757048
6.409376768,1.0001879028606953,89.56912627486255
6.411663872,1.0001465762525634,89.42698597373494
6.413950976,1.000096114235036,89.28552581433777
6.41623808,1.0000397395084466,89.1448446729552
6.418524672,0.9999810722800907,89.00505306836939
6.420811776,0.9999237059473995,88.8661152744731
6.42309888,0.999871417249651,88.72800304245612
6.425385984,0.999827360410438,88.59062510721199
6.427673088,0.999794500378881,88.45382123154093
6.429960192,0.9997748247670105,88.3174150595362
6.432246784,0.9997695682781519,88.18124482169785
6.434533888,0.9997792691057555,88.04506297463817
6.436820992,0.9998030629405962,87.90864201201038
6.439108096,0.9998397836398318,87.77181572450311
6.4413952,0.9998867475618021,87.63441001920168
6.443682304,0.9999412171173909,87.49628100856185
6.445968896,0.9999997564068008,87.357366467111
6.448256,1.000058674540757,87.21763486681215
6.450543104,1.0001141413127514,87.07708188290968
6.452830208,1.0001625532326999,86.93577926780411
6.455117312,1.0002010846567342,86.79390478544046
6.457404416,1.000227141832764,86.65155287467064
6.459691008,1.0002391078780284,86.50894903054609
6.461978112,1.0002361102815995,86.36631099812654
6.464265216,1.0002184629846387,86.22382984085355
6.46655232,1.0001871754318392,86.08173647176022
6.468839424,1.0001441943924283,85.94019666329865
6.471126528,1.0000922890398372,85.7993659695412
6.473413632,1.0000346854685949,85.65935232498052
6.475700224,0.9999751309317554,85.52022087034463
6.477987328,0.9999171939703412,85.38194602717311
6.480274432,0.9998647258474316,85.24451882021702
6.482561536,0.9998208947050878,85.1078304768571
6.48484864,0.99978872056501,84.9716877954815
6.487135744,0.9997700544230429,84.83594011998039
6.489422336,0.9997662127773148,84.70037690726215
6.49170944,0.9997773408815293,84.56479374997008
6.493996544,0.9998028817441842,84.42896162436229
6.496283648,0.9998411247448198,84.29271650301399
6.498570752,0.9998897042582606,84.15583968495048
6.500857856,0.9999455774270032,84.01820696667295
6.503144448,1.0000051911300725,83.87978455572906
6.505431552,1.0000647861575591,83.74052247873632
6.507718656,1.0001206521401693,83.60040971693803
6.51000576,1.0001690939133778,83.45957670531062
6.512292864,1.0002070323093708,83.31813321850645
6.514579968,1.000232154292972,83.17627124850432
6.51686656,1.000242883088631,83.03415840570443
6.519153664,1.000238481401236,82.89200368857071
6.521440768,1.0002191605132758,82.7500589783055
6.523727872,1.000186151842645,82.60847790626822
6.526014976,1.0001415617762217,82.46751898850249
6.52830208,1.0000881989828414,82.32725224870053
6.530588672,1.0000293337582287,82.18785304778801
6.532875776,0.9999688016038956,82.0493534219955
6.53516288,0.9999103875197842,81.9116845863707
6.537449984,0.9998578325072024,81.77489758779863
6.539737088,0.9998144804580014,81.63879799755995
6.542024192,0.9997830053948257,81.50327781480566
6.544310784,0.9997653328054866,81.36813309241367
6.546597888,0.9997628671385376,81.23316549566684
6.548884992,0.9997756775255847,81.0981262600497
6.551172096,0.9998028631529169,80.96282663474703
6.5534592,0.9998428540361438,80.8270475796509
6.555746304,0.999893155708562,80.6906519502765
6.558033408,0.9999503883865198,80.55350214841337
6.56032,1.0000110281765584,80.41549524003767
6.562607104,1.0000713160644545,80.27663128461381
6.564894208,1.000127404518381,80.13693766519096
6.567181312,1.0001757218100915,79.99652560406189
6.569468416,1.0002132169009252,79.85546727347105
6.57175552,1.0002373580707538,79.7140285590764
6.574042112,1.0002468359821013,79.57234312757011
6.576329216,1.0002408417123918,79.43062500031232
6.57861632,1.0002199103085279,79.28914699746211
6.580903424,1.0001851701455562,79.14806328396868
6.583190528,1.0001388921993588,79.007595649535
6.585477632,1.0000839976484617,78.86789061589705
6.587764224,1.0000239899537473,78.72904416703051
6.590051328,0.9999624814480411,78.59108433290493
6.592338432,0.999903593402057,78.45401669324598
6.594625536,0.9998509877105953,78.317773917031
6.59691264,0.9998078985188499,78.18226096193276
6.599199744,0.9997772250144806,78.04729819980025
6.601486336,0.9997608224744546,77.91270133639384
6.60377344,0.999759756756432,77.7782620148444
6.606060544,0.9997741910746798,77.6437143451227
6.608347648,0.9998031213959395,77.50886901010236
6.610634752,0.999844879701604,77.37355788972671
6.612921856,0.9998966033757488,77.23758125762396
6.615208448,0.9999552356902023,77.10081023403785
6.617495552,1.000017016463776,76.96318793539218
6.619782656,1.0000779440316574,76.82468711016915
6.62206976,1.0001343074041096,76.68534266656722
6.624356864,1.0001824122406873,76.54527019319025
6.626643968,1.0002192681191076,76.40458611740046
6.628931072,1.0002424218867552,76.26349022634581
6.631217664,1.000250546041666,76.122182315802
6.633504768,1.0002429578246446,75.98088869829641
6.635791872,1.0002202985980118,75.83980482050289
6.638078976,1.0001838148175906,75.6991763772918
6.64036608,1.0001358937941847,75.55917826268197
6.642653184,1.0000794189130817,75.41995229625499
6.644939776,1.0000181448829866,75.28159456505826
6.64722688,0.9999558248598366,75.1441602487914
6.649513984,0.9998965042076261,75.00762905681162
6.651801088,0.999843856069589,74.87191871649082
6.654088192,0.9998012125557394,74.73689381063463
6.656375296,0.9997714277419673,74.6024606142457
6.658661888,0.9997561788197932,74.4683519095387
6.660948992,0.9997566609354425,74.33437094256092
6.663236096,0.9997727729434834,74.20026454625979
6.6655232,0.9998035060977137,74.06585812674209
6.667810304,0.9998469575378398,73.93092580376054
6.670097408,0.9999004051040401,73.7953118259791
6.672384,0.9999603799641851,73.65888874176972
6.674671104,1.0000231966575153,73.52158552721089
6.676958208,1.0000847870635265,73.3833811843026
6.679245312,1.0001413826622028,73.24435024975145
6.681532416,1.0001892116283906,73.10456346322017
6.68381952,1.0002254037498872,72.9641750417622
6.686106112,1.0002475170534588,72.82339200350829
6.688393216,1.0002542540926451,72.68239807655524
6.69068032,1.0002450105875789,72.54143759458593
6.692967424,1.0002205283130765,72.40072962813218
6.695254528,1.0001822261704447,72.26048888483874
6.697541632,1.0001325472481253,72.12090929405129
6.699828224,1.00007463927434,71.98213356238945
6.702115328,1.0000121561550517,71.84422455617766
6.704402432,0.999949015151052,71.70725421110254
6.706689536,0.9998893009336454,71.57119027958767
6.70897664,0.9998366349112318,71.43595408508007
6.711263744,0.9997945427425204,71.30142349956232
6.713550848,0.9997656143807375,71.16743791108063
6.71583744,0.9997516879542577,71.03375770598254
6.718124544,0.9997537366009667,70.9001895389375
6.720411648,0.9997715129131198,70.766497450036
6.722698752,0.9998041404544127,70.63244097019565
6.724985856,0.9998493165702952,70.49785273149283
6.72727296,0.9999043577108652,70.36254856788845
6.729559552,0.9999657595004402,70.22639796119066
6.731846656,1.000029578593888,70.08935156986932
6.73413376,1.0000918187519348,69.95140748720623
6.736420864,1.0001484914723668,69.81261991730187
6.738707968,1.0001960862131274,69.67306385170227
6.740995072,1.0002314704103925,69.53292809390202
6.743281664,1.0002524978633112,69.3923996455668
6.745568768,1.000257749333402,69.25168435280108
6.747855872,1.0002468567882392,69.11103473520917
6.750142976,1.0002205229411956,68.9706416892018
6.75243008,1.0001803477143887,68.83075746260069
6.754717184,1.0001290127339983,68.69153580551395
6.757003776,1.0000696379550427,68.5531296687619
6.75929088,1.0000059005089599,68.41563726207147
6.761577984,0.9999419908618138,68.27908275205802
6.763865088,0.9998818422517202,68.14344632709917
6.766152192,0.9998292521582169,68.00863894109632
6.768439296,0.9997877273184338,67.87453510235662
6.770725888,0.99975968882611,67.74093168336866
6.773012992,0.9997471456099095,67.60764399235414
6.775300096,0.9997508177695763,67.4744477808903
6.7775872,0.9997704033331732,67.3411049543335
6.779874304,0.9998048933057849,67.20735561302551
6.782161408,0.9998518618238765,67.07303194258516
6.784448512,0.9999085482416359,66.93798758312404
6.786735104,0.9999712150467516,66.80206128923491
6.789022208,1.000036123414631,66.66522301023463
6.791309312,1.000098989453046,66.52747905625331
6.793596416,1.0001558057638507,66.3888738081478
6.79588352,1.000203004383477,66.2495184272349
6.798170624,1.0002376539420164,66.10958902752613
6.800457216,1.0002575316522084,65.96924894334137
6.80274432,1.0002612024474082,65.82877284936154
6.805031424,1.0002485858112873,65.6883397257483
6.807318528,1.000220452765433,65.5482152645429
6.809605632,1.000178433249703,65.40861801495402
6.811892736,1.0001252722468497,65.26973026396176
6.814179328,1.0000644059943686,65.13166289044715
6.816466432,0.9999994178701426,64.99454072722682
6.818753536,0.9999347631844099,64.85836563434441
6.82104064,0.9998742163486459,64.723104620016
6.823327744,0.9998218514670418,64.58865154013972
6.825614848,0.9997808479255079,64.45492473924311
6.82790144,0.999753913178805,64.3216735446585
6.830188544,0.9997427638628763,64.18873960199859
6.832475648,0.9997480651064896,64.0558347295717
6.834762752,0.9997695836886066,63.92276628472476
6.837049856,0.9998058577452211,63.78927170706094
6.83933696,0.9998548095201126,63.65519479249868
6.841623552,0.9999130797051731,63.52031424355932
6.843910656,0.9999772101988159,63.384590300491155
6.84619776,1.0000429958021855,63.24789262500755
6.848484864,1.0001064066268788,63.1102978708615
6.850771968,1.0001633146331694,62.971829981677615
6.853059072,1.0002101455131214,62.83259792805215
6.855345664,1.0002438875831845,62.69279301348286
6.857632768,1.0002624782459284,62.55262242053125
6.859919872,1.0002646325781714,62.412291404411754
6.862206976,1.0002502550313508,62.272083772176934
6.86449408,1.000220120368831,62.13218368070754
6.866781184,1.0001762875628952,61.99284487602683
6.869068288,1.00012134610505,61.85421020415173
6.87135488,1.0000589088546399,61.716435011412266
6.873641984,0.9999927687113859,61.57961905335112
6.875929088,0.9999272569575486,61.44374155520039
6.878216192,0.9998664844478884,61.308821864830904
6.880503296,0.999814309757241,61.17470213719098
6.8827904,0.9997740352777726,61.041293968931356
6.885076992,0.9997480973834288,60.908355542077516
6.887364096,0.9997384607938584,60.7756846924841
6.8896512,0.9997455016115007,60.64305739129056
6.891938304,0.9997688014588599,60.51020914082852
6.894225408,0.9998070557163179,60.37692748799217
6.896512512,0.9998578341961026,60.242998695375974
6.898799104,0.9999176962210585,60.10829152503772
6.901086208,0.9999831663018446,59.972651321272394
6.903373312,1.000049946415233,59.836086858254426
6.905660416,1.0001139168598205,59.69855318061252
6.90794752,1.0001708225498325,59.56015859317522
6.910234624,1.0002171792133723,59.42101977888155
6.912521216,1.0002500802165024,59.28130745087003
6.91480832,1.0002673374145281,59.14123209479002
6.917095424,1.0002678605380337,59.00105387554429
6.919382528,1.0002515506099887,58.86096047194273
6.921669632,1.0002196056705348,58.72123772388967
6.923956736,1.0001738184774303,58.58209870957891
6.926243328,1.0001171038557972,58.44368215081023
6.928530432,1.0000531451574692,58.30615248773277
6.930817536,0.9999859354779129,58.169599851592345
6.93310464,0.9999197111849327,58.034009101833554
6.935391744,0.9998586553895268,57.89935330270598
