freq,mag,phase
6.0,1.0004609819567212,-108.28786548606209
6.005677568,1.0004484625854286,-108.59270291692758
6.011355648,1.0004103668531112,-108.89722853331277
6.017033216,1.0003484451144704,-109.20114305500964
6.022711296,1.0002664065952613,-109.50406114503566
6.028388864,1.0001688093626664,-109.8058316078661
6.034066944,1.0000612193630511,-110.10622595110542
6.039744512,0.9999498754155355,-110.4051254600332
6.04542208,0.999841191427561,-110.70254312201475
6.05110016,0.9997414139131854,-110.99860127864001
6.056777728,0.999656217368433,-111.29339918779573
6.062455808,0.9995906259337325,-111.58722679619622
6.068133376,0.9995482970549617,-111.88033206563794
6.073811456,0.9995319156070464,-112.173044378675
6.079489024,0.9995421139577573,-112.46578211332539
6.085166592,0.9995786954502778,-112.75889935820082
6.090844672,0.9996392898951246,-113.05271925903892
6.09652224,0.9997206530084364,-113.3475736032664
6.10220032,0.999817996186679,-113.64370734008803
6.107877888,0.9999257888015932,-113.94129696928857
6.113555968,1.000037816532058,-114.24043825035045
6.119233536,1.000147653057094,-114.54118663583168
6.124911104,1.000248991320143,-114.84342239313
6.130589184,1.0003359767280187,-115.14702991462907
6.136266752,1.0004036505916745,-115.45172807561752
6.141944832,1.0004479681164062,-115.75726902167257
6.1476224,1.0004665821160532,-116.0632782905869
6.153299968,1.0004583055142675,-116.36941994292381
6.158978048,1.0004234847639335,-116.6752983733431
6.164655616,1.0003640962445357,-116.98059770241073
6.170333696,1.0002836766975225,-117.28495549984301
6.176011264,1.000186702815474,-117.5881303852694
6.181689344,1.000078866180532,-117.88994372736178
6.187366912,0.9999661293814477,-118.19027480817122
6.19304448,0.9998550480722077,-118.48910575210452
6.19872256,0.9997521395169371,-118.78652073199034
6.204400128,0.999663179994828,-119.08261476712191
6.210078208,0.9995934296377622,-119.37765646130138
6.215755776,0.9995467758844669,-119.6719326429983
6.221433856,0.9995260925954934,-119.96579211265397
6.227111424,0.9995324187240471,-120.25960436447487
6.232788992,0.9995654864411175,-120.55370507486225
6.238467072,0.9996235036264334,-120.84849849676931
6.24414464,0.9997030378065253,-121.14428717495919
6.24982272,0.9997997297908504,-121.4413259522896
6.255500288,0.9999078427095817,-121.7398226080057
6.261178368,1.000021206749001,-122.03989331978099
6.266855936,1.0001332957540199,-122.34155514257769
6.272533504,1.0002378053674885,-122.64478895780286
6.278211584,1.0003285557166128,-122.94937538878366
6.283889152,1.0004004347492716,-123.25516603404363
6.289567232,1.000449289714851,-123.56182898791596
6.2952448,1.00047224437571,-123.86900446955168
6.30092288,1.00046792732226,-124.1763840177795
6.306600448,1.0004366430050902,-124.48356963370456
6.312278016,1.0003801433019839,-124.7901573958411
6.317956096,1.0003014499315637,-125.09590481561345
6.323633664,1.0002053714757335,-125.4004636908268
6.329311744,1.0000972019773031,-125.70365176165255
6.334989312,0.9999832214465719,-126.00534577661654
6.340667392,0.9998699056548384,-126.3055315086206
6.34634496,0.9997637594570975,-126.60420650397644
6.352022528,0.9996710160799903,-126.90158990616872
6.357700608,0.9995969221705051,-127.19782400488243
6.363378176,0.9995458836496723,-127.49323056360002
6.369056256,0.9995206785169993,-127.78814754158843
6.374733824,0.9995228729452045,-128.0829392349487
6.380411392,0.9995524343522719,-128.3779856820073
6.386089472,0.9996075341770165,-128.67365940878526
6.39176704,0.9996852116365801,-128.9702884086533
6.39744512,0.9997809263313325,-129.26816027345077
6.403122688,0.9998891616092891,-129.56748193029085
6.408800768,1.0000038231009716,-129.86840047462587
6.414478336,1.0001182402595234,-130.17092681177814
6.420155904,1.0002257709934013,-130.47503424153976
6.425833984,1.0003204576010176,-130.78059362668424
6.431511552,1.0003966241907076,-131.08734932992428
6.437189632,1.0004499390745836,-131.39504867050795
6.4428672,1.0004773769042643,-131.70335021142304
6.44854528,1.000477330348138,-132.01188253819603
6.454222848,1.0004496754535543,-132.32029768438971
6.459900416,1.000396158723188,-132.62815598351276
6.465578496,1.000319609792353,-132.9351678261049
6.471256064,1.000224427490924,-133.2410476446238
6.476934144,1.000116142803731,-133.54555424234076
6.482611712,1.000000957049764,-133.8485488533282
6.488289792,0.9998854959960319,-134.1499963389676
6.49396736,0.9997763194386527,-134.44991846501668
6.499644928,0.9996796899467368,-134.74847618695102
6.505323008,0.9996012564071199,-135.04583739075298
6.511000576,0.9995454807790812,-135.3422989021183
6.516678656,0.9995157228483192,-135.63820374494333
6.522356224,0.9995135831769921,-135.9339289454967
6.528034304,0.9995393725562302,-136.22986100075428
6.533711872,0.9995914337119294,-136.52637949299168
6.53938944,0.9996668976989844,-136.82378370889256
6.54506752,0.9997615107662989,-137.12240840803122
6.550745088,0.9998697966860243,-137.4224805347231
6.556423168,0.9999855368710469,-137.72414879920092
6.562100736,1.0001021456917905,-138.02742812203726
6.567778816,1.0002128732784308,-138.33233738390962
6.573456384,1.000311370108162,-138.63872356925228
6.579133952,1.0003919742433618,-138.94639297144357
6.584812032,1.000449916716873,-139.2550898395769
6.5904896,1.000482118523472,-139.56439191927683
6.59616768,1.000486459283211,-139.87403795914562
6.601845248,1.0004627762534857,-140.18354796656482
6.607522816,1.00041233917197,-140.49262485583844
6.613200896,1.0003379953377836,-140.8008507994151
6.618878464,1.000244122285257,-141.10796134140747
6.624556544,1.0001358885116431,-141.41370968770647
6.630234112,1.0000196827659777,-141.71794528820857
6.635912192,0.9999019691523298,-142.02061069643332
6.64158976,0.9997896495745822,-142.32171243260032
6.647267328,0.9996892154122029,-142.62138080825972
6.652945408,0.99960639258892,-142.91980569274088
6.658622976,0.9995458842740201,-143.21725966408505
6.664301056,0.9995113297825406,-143.5141344982069
6.669978624,0.999504646563807,-143.8107266351726
6.675656704,0.9995263549713027,-144.10743213694533
6.681334272,0.9995751544470306,-144.40464543947235
6.68701184,0.9996482639837233,-144.70277587963395
6.69268992,0.9997415617206816,-145.0020842483984
6.698367488,0.9998497476089191,-145.3027979321008
6.704045568,0.999966491182408,-145.60512333259996
6.709723136,1.0000851655966028,-145.90911148090166
6.715401216,1.0001990037987427,-146.21473737192684
6.721078784,1.0003013580356301,-146.52188703672587
6.726756352,1.0003864349453995,-146.83037035816574
6.732434432,1.0004492654224286,-147.13988762883196
6.738112,1.0004862135540913,-147.45017440818705
6.74379008,1.0004952271566938,-147.7607859109836
6.749467648,1.000475675246279,-148.0713853279135
6.755145728,1.000428656588881,-148.3815219998532
6.760823296,1.0003567837354106,-148.69090655857522
6.766500864,1.0002642113395097,-148.99918766527762
6.772178944,1.0001563463443548,-149.30611527862501
6.777856512,1.000039126457778,-149.6115127689244
6.783534592,0.9999193634750575,-149.9153139355488
6.78921216,0.9998040355097921,-150.21753484706875
6.79489024,0.9996997043154608,-150.51825354853864
6.800567808,0.9996122426452709,-150.81765591329648
6.806245376,0.9995468829154323,-151.1160582121411
6.811923456,0.99950744368148,-151.41376734757876
6.817601024,0.9994960517685983,-151.71114827378233
6.823279104,0.9995135321041596,-152.00855825927013
6.828956672,0.9995587716748172,-152.30648412498886
6.83463424,0.9996293871779838,-152.60519566775005
6.84031232,0.9997211469026981,-152.90507896500654
6.845989888,0.9998290554897978,-153.20637814516436
6.851667968,0.9999466511190666,-153.50927773111792
6.857345536,1.0000673298244411,-153.81384037566656
6.863023616,1.0001842079276342,-154.1200715066274
6.868701184,1.0002904842105211,-154.42788899781542
6.874378752,1.0003801143570983,-154.73708409675433
6.880056832,1.0004478061199196,-155.0474103869235
6.8857344,1.0004897825058587,-155.3585093108698
6.89141248,1.0005036197498356,-155.67004547402257
6.897090048,1.0004884154462943,-155.98160004273765
6.902768128,1.0004449805779927,-156.29278214347843
6.908445696,1.0003758570342687,-156.6032167726804
6.914123264,1.0002849124074382,-156.9125800558647
6.919801344,1.0001773861305143,-157.22060309534638
6.925478912,1.0000593630717394,-157.5271287082364
6.931156992,0.9999376871902611,-157.8319851676736
6.93683456,0.9998193548387153,-158.1352362221795
6.94251264,0.9997111095451108,-158.4369306026313
6.948190208,0.9996190580826645,-158.73729020252048
6.953867776,0.9995487467058095,-159.03652083917706
6.959545856,0.9995040914670237,-159.33500382282892
6.965223424,0.9994878819417058,-159.63307601947847
6.970901504,0.999500821174376,-159.9311591923862
6.976579072,0.9995424747234178,-160.22965839511204
6.982257152,0.9996101961896993,-160.5289112394995
6.98793472,0.9997003310762734,-160.82927913201456
6.993612288,0.9998076094721285,-161.13105187131154
6.999290368,0.9999260383441516,-161.43442118422462
7.004967936,1.0000486191084361,-161.7394577653894
7.010646016,1.000168455580964,-162.04621722691166
7.016323584,1.0002786792075682,-162.35458304241482
7.022001664,1.000372882375572,-162.664401143058
7.027679232,1.0004456348354631,-162.9753905181205
7.0333568,1.0004928311204884,-163.2872771062865
7.03903488,1.0005116984050895,-163.59962096528977
7.044712448,1.00050099204816,-163.91204244278597
7.050390528,1.0004614380591235,-164.22417305496722
7.056068096,1.000395227744494,-164.53557857921027
7.061745664,1.000306113142089,-164.84593888361223
7.067423744,1.0001990613532665,-165.1549721441666
7.073101312,1.0000805300872404,-165.46251251980203
7.078779392,0.9999569711896614,-165.76837256458725
7.08445696,0.999835601358448,-166.0725892220252
7.09013504,0.9997233514338351,-166.37518884047577
7.095812608,0.999626800160808,-166.67639576507227
7.101490176,0.9995514309238058,-166.9763852555766
7.107168256,0.9995015629991195,-167.2755919829151
7.112845824,0.9994800335351803,-167.57428559437344
7.118523904,0.9994884016013482,-167.87292151989968
7.124201472,0.9995260463353116,-168.17189623213397
7.129879552,0.9995907136303157,-168.4715947026703
7.13555712,0.9996789845923036,-168.7723790908009
7.141234688,0.9997855487890454,-169.07453304307364
7.146912768,0.9999045132927863,-169.37828000699156
7.152590336,1.0000289696859164,-169.68372105058435
7.158268416,1.000151700344384,-169.99088338612285
7.163945984,1.0002658774522222,-170.29971785490685
7.169624064,1.0003647173186845,-170.61003763344402
7.175301632,1.00044263488926,-170.9216211166396
7.1809792,1.0004951203736843,-171.23413661887446
7.18665728,1.0005191575220382,-171.5471904114633
7.192334848,1.0005133135785769,-171.8604200513974
7.198012928,1.0004778269329313,-172.173360473203
7.203690496,1.0004146874055424,-172.48567194911976
7.209368576,1.0003276224920983,-172.79698002786986
7.215046144,1.000221445465159,-173.10697528202823
7.220723712,1.0001023972981025,-173.41540711584904
7.226401792,0.9999771022858296,-173.72220403458564
7.23207936,0.999852804524516,-174.02729248290095
7.23775744,0.9997367067786935,-174.3307364012216
7.243435008,0.9996353993112956,-174.63268770634608
7.249113088,0.9995547892228708,-174.93342152721308
7.254790656,0.9994995911835532,-175.23323351063925
7.260468224,0.9994729299068105,-175.53247755921694
7.266146304,0.9994763094858637,-175.83156671506137
7.271823872,0.9995097355040461,-176.1309459777608
7.277501952,0.999571179726471,-176.43099671021898
7.28317952,0.9996571694468571,-176.73207895883408
7.2888576,0.9997629794268642,-177.03450925849205
7.294535168,0.9998821664384323,-177.33852383135297
7.300212736,1.0000083973929565,-177.64425928731012
7.305890816,1.0001340353154868,-177.9517447566923
7.311568384,1.0002520402491368,-178.26093314501094
7.317246464,1.0003556465227859,-178.5716691523183
7.322924032,1.0004387803647987,-178.88370499854514
7.3286016,1.0004967059533676,-179.1967903701125
7.33427968,1.000526109654719,-179.51047723482182
7.339957248,1.000525287169452,-179.8243767433121
7.345635328,1.000494047240644,179.86192942471706
7.351312896,1.0004344245459447,179.5488016463063
7.356990976,1.0003496024759482,179.23668413564903
7.362668544,1.0002444375412858,178.92584491505454
7.368346112,1.0001250638998336,178.61652964979578
7.374024192,0.9999981074349024,178.30889418932608
7.37970176,0.999871014823041,178.00302842127485
7.38537984,0.9997511118132957,177.6988166610963
7.391057408,0.999644927469581,177.39615967117112
7.396735488,0.9995591177219394,177.09479974151054
7.402413056,0.9994983091483912,176.79446457516923
7.408090624,0.9994661742207851,176.49475921295567
7.413768704,0.9994644160274384,176.19526450175596
7.419446272,0.999493449845895,175.8955717962379
7.425124352,0.9995513883164437,175.59527678661937
7.43080192,0.9996350724439714,175.29396527094897
7.43648,0.9997396732783377,174.99135771492462
7.442157568,0.9998591237779659,174.68718698614325
7.447835136,0.9999868526064087,174.3812888837608
7.453513216,1.000115373751217,174.07356937373282
7.459190784,1.0002372077708723,173.76413086878475
7.464868864,1.0003454959448472,173.45306784610108
7.470546432,1.0004340110148167,173.1406345532395
7.476224512,1.0004976358023114,172.82715613869482
7.48190208,1.0005325474119926,172.5129602325544
7.487579648,1.0005368590817985,172.19846127339991
7.493257728,1.0005102602185325,171.88409736676564
7.498935296,1.0004541931335007,171.57028329105682
7.504613376,1.0003719063109608,171.2573978966683
7.510290944,1.0002680232361505,170.94579686348132
7.515969024,1.0001484445949533,170.63570666040232
7.521646592,1.0000200602721963,170.3273244415693
7.52732416,0.9998901727379972,170.02069738713948
7.53300224,0.9997663331702992,169.7158170687309
7.538679808,0.9996556867066358,169.41253156034955
7.544357888,0.9995644404287218,169.11065109219413
7.550035456,0.9994978730543799,168.809861065219
7.555713024,0.9994600336331119,168.509770408963
7.561391104,0.9994529195169645,168.20997796649746
7.567068672,0.9994771808855744,167.91002907421765
7.572746752,0.9995313936809096,167.60959387431316
7.57842432,0.9996123964336115,167.30816192248204
7.5841024,0.9997157469807968,167.0054635421843
7.589779968,0.9998353674707289,166.70121514645425
7.595457536,0.9999644768330587,166.39523139636367
7.601135616,1.000095700255636,166.087430501878
7.606813184,1.0002214312928037,165.77783727501603
7.612491264,1.000334436743243,165.46658700018756
7.618168832,1.0004283610339537,165.15388487964955
7.623846912,1.0004976177905218,164.84004864533014
7.62952448,1.0005383583910687,164.52543835900707
7.635202048,1.0005481155681304,164.21042638652384
7.640880128,1.0005264199416313,163.89552200536974
7.646557696,1.0004742899631938,163.58109864813892
7.652235776,1.0003947008150365,163.2675567396041
7.657913344,1.0002922647499515,162.9552680145982
7.663591424,1.0001728113477797,162.64448637330003
7.669268992,1.0000431204786056,162.33540838476767
7.67494656,0.9999105047697523,162.0281430721065
7.68062464,0.9997828321730895,161.72266185720744
7.686302208,0.9996672800465085,161.41885142850052
7.691980288,0.9995707436141376,161.11651429964522
7.697657856,0.9994983144775147,160.81531356703965
7.703335936,0.9994546228072393,160.5149319012816
7.709013504,0.9994420929594926,160.2149133515559
7.714691072,0.9994613576335604,159.9148638414197
7.720369152,0.9995114564384959,159.61430566716945
7.72604672,0.9995896721096144,159.31286066699116
7.7317248,0.9996914247612786,159.01018030472733
7.737402368,0.9998108236463139,158.70594439544197
7.743080448,0.9999411281336316,158.40000380716288
7.748758016,1.0000749834958853,158.0921965985546
7.754435584,1.0002045308692546,157.78256698053053
7.760113664,1.0003222601204391,157.47121494575043
7.765791232,1.0004217350687343,157.1583611540731
7.771469312,1.0004969096210918,156.84427567457598
7.77714688,1.0005436462346167,156.52933191182612
7.782824448,1.0005590133449034,156.2139671763745
7.788502528,1.000542273942715,155.89857073584122
7.794180096,1.0004942449889478,155.58363713253652
7.799858176,1.0004177140289043,155.26953129813649
7.805535744,1.0003169880374347,154.95661942697274
7.811213824,1.000197737510808,154.64524269619227
7.816891392,1.0000668488851765,154.33556537539152
7.82256896,0.9999318447022993,154.02772520522186
7.82824704,0.9998003815660512,153.72170917723756
7.833924608,0.9996801358964957,153.41745132545918
7.839602688,0.999577804609911,153.11469168809975
7.845280256,0.999499563137642,152.81321782626483
7.850958336,0.9994497477803499,152.51259222710303
7.856635904,0.999431428626502,152.2124649083727
7.862313472,0.9994456241972612,151.9123395228451
7.867991552,0.9994915039695932,151.61180754293653
7.87366912,0.9995665176848774,151.31044949257426
7.8793472,0.999666453916858,151.00786918661112
7.885024768,0.9997855390323093,150.70378474628123
7.890702848,0.9999169123021493,150.39791751616667
7.896380416,1.0000532552405308,150.0902356052514
7.902057984,1.0001865107390495,149.7806568908075
7.907736064,1.000309066039051,149.46932478785897
7.913413632,1.0004140957433418,149.15640541580822
7.919091712,1.0004952500864805,148.84219611738956
7.92476928,1.0005480608799595,148.52702766943233
7.93044736,1.0005693854880353,148.21136876162072
7.936124928,1.0005579823881476,147.89562173111844
7.941802496,1.0005142505113394,147.5802284762253
7.947480576,1.0004410084922415,147.26563372349193
7.953158144,1.0003422251670038,146.9522255204757
7.958836224,1.0002234760901945,146.64031246872867
7.964513792,1.0000915373974084,146.33009697026762
7.970191872,0.9999541670588584,146.02176128952843
7.97586944,0.9998189555637021,145.71531198919013
7.981547008,0.9996938880381391,145.41064813288168
7.987225088,0.9995860251714411,145.10760268784995
7.992902656,0.9995016753158291,144.80588807489806
7.998580736,0.9994457236798685,144.50512391640623
8.004258304,0.9994214268079191,144.204913004921
8.009935872,0.9994301358229601,143.90484383818784
8.015613952,0.9994714351158906,143.60440843243344
8.02129152,0.999543066761534,143.3032033820159
8.0269696,0.9996409826457725,143.00082865391525
8.032647168,0.9997594791847385,142.69694229309346
8.038325248,0.9998917517080054,142.39132651773102
8.044002816,1.000030417728776,142.0838208216872
8.049680384,1.0001674329463877,141.77445740852363
8.055358464,1.000294938730136,141.4632059148128
8.061036032,1.0004054921864662,141.15032923618878
8.066714112,1.00049280892656,140.8360729770509
8.07239168,1.00055186484622,140.52080012370652
8.07806976,1.0005792407481746,140.2049279510994
8.083747328,1.0005733550713678,139.88890765406978
8.089424896,1.0005343970446914,139.5731623553363
8.095102976,1.0004646780589486,139.25818797323728
8.100780544,1.0003679667558805,138.9443488300246
8.106458624,1.000249907698851,138.63197077129178
8.112136192,1.000117181136201,138.32132772220794
8.117814272,0.9999774643535567,138.01257097209353
8.12349184,0.9998386426170868,137.7057232415592
8.129169408,0.9997088267170879,137.40073211791136
8.134847488,0.9995952826627744,137.0974531954395
8.140525056,0.99950471937495,136.7955538963933
8.146203136,0.9994423451788235,136.49474844547908
8.151880704,0.9994117644757133,136.19456845169128
8.157558784,0.9994147917119212,135.89460720636026
8.163236352,0.9994513913377612,135.59433820386107
8.16891392,0.9995194207192757,135.29338795284664
8.174592,0.999614940869856,134.99127425045626
8.180269568,0.9997327427456879,134.68772251327795
8.185947648,0.9998657054723934,134.38243140443979
8.191625216,1.0000066584069653,134.07523816191917
8.197303296,1.000147221930115,133.7661120422414
8.202980864,1.0002793631048215,133.4551160143593
8.208658432,1.000395669525331,133.14236176865617
8.214336512,1.0004892614018184,132.82816740525533
8.22001408,1.0005548389101255,132.5128773775639
8.22569216,1.0005885569355322,132.1968937600187
8.231369728,1.0005884596457526,131.88067773950073
8.237047296,1.0005544558733603,131.5647069277093
8.242725376,1.0004883200375239,131.24939640281448
8.248402944,1.0003940593914116,130.93517105397908
8.254081024,1.0002769928205009,130.62246045198276
8.259758592,1.0001436650140307,130.31143660939736
8.265436672,1.000001790280306,130.00230095910618
8.27111424,0.9998594068815745,129.69514827751516
