freq,mag,phase
6.0,0.9999608498496547,21.292336257809556
6.040816128,0.9999483587915061,20.20696246877613
6.081632768,0.9999363505695675,19.12154090768695
6.122448896,0.9999250891136771,18.03607644495445
6.163265536,0.9999148675518559,16.950546884310974
6.204081664,0.9999058309958874,15.864970839408679
6.244897792,0.9998979417669346,14.779387047874536
6.285714432,0.9998915418684026,13.693690576043064
6.32653056,0.999886617207473,12.607918110610067
6.367346688,0.9998832266711984,11.52203837436957
6.408163328,0.9998814366729369,10.436048490110252
6.448979456,0.9998814409894526,9.349968983534557
6.489796096,0.9998829162860471,8.263771963138725
6.530612224,0.999886093054616,7.177391644311795
6.571428352,0.9998908192905684,6.090867910630393
6.612244992,0.9998970929884652,5.004179781387354
6.65306112,0.9999048748282943,3.917356378353516
6.69387776,0.9999140058017267,2.830339308436946
6.734693888,0.9999242995844877,1.7431087450811538
6.775510016,0.9999355967504792,0.6556810606961395
6.816326656,0.9999479500491475,-0.4319503953191762
6.857142784,0.9999609422000085,-1.519805998762463
6.897959424,0.9999745731519152,-2.6078835954740223
6.938775552,0.9999885072496343,-3.6961592606893716
6.97959168,1.0000026410559035,-4.784715849528429
7.02040832,1.000016789182252,-5.873435476719409
7.061224448,1.0000305306931654,-6.962450929825016
7.102040576,1.000043953906338,-8.051670316608835
7.142857216,1.0000567601509927,-9.141083601898186
7.183673344,1.0000687709568026,-10.230728223819215
7.224489984,1.0000796864437447,-11.320596972731405
7.265306112,1.0000897478080644,-12.410671786288567
7.30612224,1.000098225505709,-13.500959598536909
7.34693888,1.0001053509496358,-14.591425118683391
7.387755008,1.0001109890889819,-15.682045575803464
7.428571648,1.0001150137099408,-16.772867839913744
7.469387776,1.0001174203438308,-17.863829629730983
7.510203904,1.0001181153467382,-18.954964430176272
7.551020544,1.0001170462490458,-20.046247627281474
7.591836672,1.000114226080782,-21.137652193551357
7.632653312,1.0001098378856192,-22.229136315915163
7.67346944,1.0001038218992933,-23.32073733597802
7.714285568,1.0000962652704892,-24.412464754783095
7.755102208,1.0000872905931428,-25.504252023645346
7.795918336,1.0000768243876097,-26.596119709540865
7.836734464,1.0000652248457191,-27.688067106481395
7.877551104,1.0000528214350797,-28.780053951123985
7.918367232,1.0000395003732307,-29.87213011748903
7.959183872,1.0000254487466174,-30.964242051662023
8.0,1.0000110597113774,-32.05637351055855
8.040816128,0.9999963449892717,-33.14857449539486
8.081632768,0.9999817462789782,-34.24079739346854
8.122448896,0.9999670800443478,-35.33309426239028
8.163265536,0.9999529124722044,-36.425420237982486
8.204081664,0.9999393583719803,-37.517804431427344
8.244897792,0.999926645390722,-38.61025763498605
8.285714432,0.9999148102661306,-39.702731424776985
8.32653056,0.999904182228474,-40.79532501199923
8.367346688,0.9998946938204366,-41.88797795793506
8.408163328,0.9998867090889234,-42.98068514931727
8.448979456,0.9998804349662663,-44.073512727800086
8.489796096,0.9998756961283344,-45.16644421352474
8.530612224,0.9998726537510948,-46.259524218933066
8.571428352,0.9998714514443255,-47.35269305967108
8.61224448,0.999872008486391,-48.446036294878965
8.65306112,0.9998743685963717,-49.53955724295527
8.69387776,0.9998786204055827,-50.633210199556814
8.734693376,0.9998844545681125,-51.7270752147603
8.775510016,0.9998918626894153,-52.82110246887532
8.816326656,0.9999009896330334,-53.91535473505475
8.857143296,0.9999114463835418,-55.00983347794478
8.897958912,0.9999233148938659,-56.10450393839757
8.938775552,0.9999361690875821,-57.19944958882365
8.979592192,0.9999499826042083,-58.29462669604326
9.020407808,0.9999644669994854,-59.39007344119594
9.061224448,0.9999796163018386,-60.485724071480504
9.102041088,0.9999950991823914,-61.58165420286258
9.142856704,1.0000104738018014,-62.67788350315418
9.183673344,1.000025955410992,-63.77433801509651
9.224489984,1.0000410850801735,-64.87106213827344
9.265306624,1.0000556585445721,-65.96802732544042
9.30612224,1.0000694942955903,-67.06525052854207
9.34693888,1.000082210436115,-68.16270784506207
9.38775552,1.000093923414634,-69.26045081887419
9.428571136,1.000104286532153,-70.35840173342761
9.469387776,1.0001131537566146,-71.45654970154996
9.510204416,1.0001205188430722,-72.5549459937179
9.551020032,1.000125990568551,-73.65354657377732
9.591836672,1.0001297992505112,-74.75230687125853
9.632653312,1.0001316366893644,-75.85128724264888
9.673468928,1.0001317158661684,-76.95040698072361
9.714285568,1.0001297331389067,-78.04969110652884
9.755102208,1.0001259558544275,-79.14909142351105
9.795918848,1.0001203270908494,-80.24863950415639
9.836734464,1.000112861109269,-81.34830440867695
9.877551104,1.0001037892059,-82.4480656924896
9.918367744,1.0000932038447816,-83.54791853787263
9.95918336,1.000081131385555,-84.64784622161623
10.0,1.000067819764891,-85.74785972009362
10.04081664,1.0000534121855649,-86.84794890412866
10.081632256,1.000038136289314,-87.94810675583867
10.122448896,1.000022265947708,-89.04827359306448
10.163265536,1.0000059826148155,-90.14852746422211
10.204081152,0.9999894459429254,-91.24881769770525
10.244897792,0.9999728896532295,-92.3491495634752
10.285714432,0.9999566666251325,-93.44953700507516
10.326531072,0.9999410370379576,-94.54996756148458
10.367346688,0.9999260428467626,-95.65045907819596
10.408163328,0.9999120616776772,-96.75101321585203
10.448979968,0.9998990840845494,-97.85162463222981
10.489795584,0.9998875879636666,-98.95229746538469
10.530612224,0.9998775231998651,-100.053081131052
10.571428864,0.9998691332117443,-101.15395368907672
10.61224448,0.999862614709007,-102.25493928375165
10.65306112,0.9998579501768081,-103.35601932202698
10.69387776,0.9998552460588754,-104.45725192932895
10.734693376,0.9998545285509901,-105.55863890114999
10.775510016,0.9998558871177563,-106.66018369309614
10.816326656,0.9998592885410171,-107.7618908087494
10.857143296,0.9998646765875497,-108.86379330640622
10.897958912,0.9998720554552746,-109.96589842516812
10.938775552,0.9998811871828003,-111.06820577935086
10.979592192,0.9998920715128042,-112.1707597779958
11.020407808,0.9999044691275195,-113.2735315679752
11.061224448,0.9999183201668042,-114.37658824065846
11.102041088,0.9999335388555409,-115.47986500921941
11.142856704,0.9999495662766915,-116.58342218839964
11.183673344,0.9999665056933532,-117.68726905300386
11.224489984,0.9999839551544024,-118.79138258897487
11.265306624,1.000001659466056,-119.89578740128911
11.30612224,1.0000194898782309,-121.00045242916154
11.34693888,1.0000371063478246,-122.10541588217295
11.38775552,1.0000542907474668,-123.21065546915702
11.428571136,1.0000707287869697,-124.31618114715158
11.469387776,1.0000862248530706,-125.42196593684056
11.510204416,1.0001005936673062,-126.52802781265541
11.551020032,1.0001136676541564,-127.63434607148669
11.591836672,1.0001250732998184,-128.7408990613796
11.632653312,1.0001347481261942,-129.84771140991617
11.673468928,1.0001426156775062,-130.95473179174596
11.714285568,1.0001484329776764,-132.06195382498743
11.755102208,1.0001520937717738,-133.16938561169155
11.795918848,1.0001536226614016,-134.2769883967022
11.836734464,1.0001529378725817,-135.38477239720362
11.877551104,1.0001500604279294,-136.49270506804996
11.918367744,1.0001448899985401,-137.60078576725513
11.95918336,1.0001377262217952,-138.7089742095074
12.0,1.000128390006204,-139.81726957304286
12.04081664,1.000117210437388,-140.92565878506122
12.081632256,1.000104254366008,-142.03414073717423
12.122448896,1.0000896694397203,-143.1426687755056
12.163265536,1.0000736827643775,-144.25126685012208
12.204081152,1.00005639036905,-145.35991185081383
12.244897792,1.0000382604038789,-146.46860145538872
12.285714432,1.0000193997115834,-147.57733193271685
12.326531072,1.0000000269354046,-148.68606851373596
12.367346688,0.9999805162646933,-149.79485057184303
12.408163328,0.9999610443666037,-150.90365007297547
12.448979968,0.9999420699675122,-152.01248356203115
12.489795584,0.9999235750672916,-153.1213535239073
12.530612224,0.999906120485425,-154.23024092108892
12.571428864,0.9998897740995123,-155.33915731993446
12.61224448,0.9998749088378055,-156.4481435973122
12.65306112,0.9998615921412537,-157.5571896736618
12.69387776,0.9998500645515391,-158.66630385687515
12.734693376,0.9998405586936829,-159.77548536382417
12.775510016,0.9998333027365935,-160.8847734149295
12.816326656,0.9998283045454168,-161.9941645598134
12.857143296,0.9998256927740017,-163.1036889391367
12.897958912,0.999825467277729,-164.21334589831412
12.938775552,0.9998276822260135,-165.32316118391378
12.979592192,0.9998323759829827,-166.43316995364884
13.020407808,0.9998394077895149,-167.54335244731416
13.061224448,0.9998488283916686,-168.65374573172411
13.102041088,0.9998604455150728,-169.76436052566737
13.142856704,0.9998740781929847,-170.8752052091841
13.183673344,0.9998897254726782,-171.9863129292869
13.224489984,0.9999069667797283,-173.09767409243616
13.265306624,0.9999257151296758,-174.20931388868323
13.30612224,0.9999456525378221,-175.32122262881325
13.34693888,0.9999665080609431,-176.43343093101612
13.38775552,0.9999881040212064,-177.5459566271763
13.428571136,1.0000099406351448,-178.65874263624974
13.469387776,1.0000318882311299,-179.77186605401428
13.510204416,1.0000536261350366,179.11472539006002
13.551020032,1.000074663744191,178.00101200225203
13.591836672,1.000094882885795,176.8870229877321
13.632653312,1.0001140585513193,175.77272670366284
13.673468928,1.0001315902427002,174.6581476666717
13.714285568,1.0001475277285325,173.54331265352235
13.755102208,1.0001615402556678,172.42820329337977
13.795918848,1.0001732663731664,171.31285530834242
13.836734464,1.000182653165811,170.19729509661067
13.877551104,1.0001896060820241,169.08150557724466
13.918367744,1.0001938378175654,167.9655356827286
13.95918336,1.000195386897533,166.84937453165097
14.0,1.0001940089930985,165.7330578388708
