freq,mag,phase
6.0,1.0007648380432002,-67.78490030304765
6.002286592,1.000932412811156,-67.91819984668798
6.004572672,1.0010442332772593,-68.05358884213213
6.006859264,1.0010904584198252,-68.19014754063511
6.009145344,1.0010681311815515,-68.3268911336576
6.011431936,1.0009791656494933,-68.46284952133313
6.013718016,1.0008285969485395,-68.59711374428046
6.016004608,1.0006262347073231,-68.72882770615371
6.018290688,1.0003847764794156,-68.85735300323094
6.02057728,1.000120002536537,-68.98217900696314
6.022863872,0.9998479955343496,-69.10312311692296
6.025149952,0.9995867358395597,-69.22019672611998
6.027436544,0.9993525659632511,-69.33371221079253
6.029722624,0.9991604752274456,-69.44408359408014
6.032009216,0.9990228567479886,-69.5521092118279
6.034295296,0.9989483529905364,-69.65861041814529
6.036581888,0.9989420094151332,-69.76447852534315
6.03886848,0.9990039982480522,-69.8708276528081
6.04115456,0.9991304183953138,-69.9785669250429
6.043441152,0.9993132787418296,-70.08858058432764
6.045727232,0.9995409454049377,-70.20160835722126
6.048013824,0.9997987711858509,-70.31820461652896
6.050299904,1.0000705836269486,-70.43863915775162
6.052586496,1.0003389182277167,-70.56305855008814
6.054872576,1.000586750662736,-70.69127341131588
6.057159168,1.000798154716116,-70.82284770625877
6.05944576,1.000959792949857,-70.95715636385431
6.06173184,1.0010611879979403,-71.09341533024609
6.064018432,1.0010963341822623,-71.23066663561065
6.066304512,1.00106261730543,-71.36797265566318
6.068591104,1.0009622050320341,-71.50426162267581
6.070877184,1.0008014932364258,-71.63877197982114
6.073163776,1.000590795431122,-71.77058031913248
6.075450368,1.0003433255492524,-71.89904668952774
6.077736448,1.0000747204333142,-72.02378683769396
6.08002304,0.999802120752777,-72.14459955462813
6.08230912,0.9995431214887789,-72.2615829605471
6.084595712,0.9993139073831477,-72.3749963387192
6.086881792,0.9991294893427426,-72.48540529575804
6.089168384,0.9990012920150582,-72.59356179301015
6.091454464,0.9989377277514125,-72.70032831188874
6.093741056,0.9989428513437958,-72.80669983774497
6.096027648,0.9990162776748912,-72.91365008071887
6.098313728,0.9991533640532597,-73.02216863877807
6.10060032,0.9993455448875312,-73.13314166802485
6.1028864,0.999580414271321,-73.24716987340815
6.105172992,0.9998429392525509,-73.36490265341156
6.107459072,1.000116610551396,-73.48658011479503
6.109745664,1.0003838441132347,-73.61217291121135
6.112032256,1.000627482383352,-73.74150586374047
6.114318336,1.0008325102566347,-73.87420750632901
6.116604928,1.000985466854521,-74.00942181657155
6.118891008,1.0010766516389717,-74.14651549499129
6.1211776,1.0011004530532381,-74.28439931533362
6.12346368,1.0010550781522713,-74.42219506803205
6.125750272,1.0009438574493952,-74.558868171382
6.128036352,1.0007730348289925,-74.69351121790909
6.130322944,1.0005542370894978,-74.82533520046177
6.132609536,1.0003008889374772,-74.95373918000242
6.134895616,1.000029221024183,-75.0783541858812
6.137182208,0.9997564324978788,-75.19907716745216
6.139468288,0.9995000452221977,-75.31587367253958
6.14175488,0.9992765029987445,-75.42925347272667
6.14404096,0.999099794870674,-75.5396955169694
6.146327552,0.9989813577040917,-75.64800027724674
6.148614144,0.9989287040058246,-75.75507046775603
6.150900224,0.9989454568101301,-75.86189377555978
6.153186816,0.999030259208123,-75.96948717519483
6.155472896,0.999177932745509,-76.0787885672095
6.157759488,0.999378896270283,-76.19064855581861
6.160045568,0.9996206234419107,-76.3057907490795
6.16233216,0.9998874083295728,-76.42461819701282
6.16461824,1.0001623681938057,-76.54747241133241
6.166904832,1.0004280564372976,-76.67426255336896
6.169191424,1.0006675815229866,-76.80472681345226
6.171477504,1.000865601855401,-76.93838965886752
6.173764096,1.0010095559645338,-77.07454759787291
6.176050176,1.0010902232992303,-77.2123900932613
6.178336768,1.001102648370059,-77.35094111738742
6.180622848,1.0010457438031723,-77.48919527580662
6.18290944,1.0009233988638693,-77.62612579844858
6.18519552,1.0007431901040318,-77.7608913902734
6.187482112,1.0005165404895935,-77.89275364016505
6.189768704,1.0002577210574797,-78.0210881000541
6.192054784,0.9999834926062672,-78.14555514257037
6.194341376,0.9997110824661033,-78.26605261397123
6.196627456,0.9994579246969092,-78.38271725032504
6.198914048,0.9992400654220132,-78.49604417983977
6.201200128,0.9990715192123498,-78.60648297563999
6.20348672,0.9989630453548226,-78.71492715631734
6.205773312,0.9989216577219924,-78.82233169596472
6.208059392,0.9989499466821378,-78.92963032490044
6.210345984,0.9990461814248716,-79.03786735634434
6.212632064,0.9992039885265444,-79.14797460195493
6.214918656,0.9994136728715082,-79.26077322265232
6.217204736,0.999661705845023,-79.37692402888055
6.219491328,0.9999323193393233,-79.49688025869854
6.221777408,1.0002082849385798,-79.62084429499947
6.224064,1.0004720937109772,-79.74878481155439
6.226350592,1.0007067637472067,-79.88033921683484
6.228636672,1.0008974542874112,-80.01499497489488
6.230923264,1.0010321006877538,-80.15204686398641
6.233209344,1.001102124620258,-80.2906658216449
6.235495936,1.0011031842691671,-80.42973345247876
6.237782016,1.0010347690108727,-80.56837213503218
6.240068608,1.0009016075603814,-80.70557237687095
6.2423552,1.0007119615373583,-80.84044258822223
6.24464128,1.0004777483424994,-80.97225985810405
6.246927872,1.0002142117531234,-81.10049274707785
6.249213952,0.999937750743535,-81.2247713491111
6.251500544,0.999666049862008,-81.34507900933565
6.253786624,0.9994164962606489,-81.46162356883917
6.256073216,0.9992047888406139,-81.57480905645038
6.258359296,0.9990448177756951,-81.68527322622387
6.260645888,0.9989465496620321,-81.79390573436358
6.26293248,0.998916401403497,-81.90161733058622
6.26521856,0.9989562770486062,-82.0093905520257
6.267505152,0.9990636237226945,-82.11823790949016
6.269791232,0.9992316063149658,-82.22915840731913
6.272077824,0.999449520065151,-82.34291329466261
6.274363904,0.9997036786673624,-82.46009732440884
6.276650496,0.9999776195547726,-82.58114598643755
6.278937088,1.0002540877020223,-82.7062191794723
6.281223168,1.000515471261265,-82.83528277464794
6.28350976,1.0007449194813243,-82.9678798658416
6.28579584,1.000928019878559,-83.10354567141243
6.288082432,1.0010531893044408,-83.24141083989169
6.290368512,1.0011123532609052,-83.38067790824107
6.292655104,1.0011017784813445,-83.52032468750471
6.294941184,1.0010220047450753,-83.65932577981567
6.297227776,1.000878170987983,-83.79672939180672
6.299514368,1.0006792840675174,-83.93163783223181
6.301800448,1.0004382073060667,-84.06338537145335
6.30408704,1.000170039792642,-84.19143300351438
6.30637312,0.9998917775395495,-84.31554636326408
6.308659712,0.9996214168355565,-84.43565539197544
6.310945792,0.9993757834834159,-84.5519914860296
6.313232384,0.9991706735935795,-84.66510898213309
6.315518464,0.9990194889661183,-84.77561133724744
6.317805056,0.9989317446386641,-84.88438268497856
6.320091648,0.9989127994124397,-84.99240216666418
6.322377728,0.9989642917904257,-85.10066243752613
6.32466432,0.9990826613286035,-85.21020166458491
6.3269504,0.9992606386755577,-85.32186490322039
6.329236992,0.9994865516199313,-85.43652649360185
6.331523072,0.9997462862401884,-85.55475714962611
6.333809664,1.0000231997751923,-85.676901134049
6.336096256,1.0002996272669196,-85.80308637387775
6.338382336,1.000558097135219,-85.93322605996
6.340668928,1.0007819436631802,-86.06687159091183
6.342955008,1.0009572069365007,-86.20341370607227
6.3452416,1.0010725508547533,-86.34211891043668
6.34752768,1.001120672297664,-86.48200862551418
6.349814272,1.0010984281791464,-86.62208238995774
6.352100352,1.0010073984785555,-86.76140153098747
6.354386944,1.0008531615507539,-86.89898229569947
6.356673536,1.0006454502671231,-87.03387749576558
6.358959616,1.0003976841313456,-87.16552419436269
6.361246208,1.000125373154951,-87.29339208022678
6.363532288,0.9998458869070663,-87.41729256294175
6.36581888,0.9995769161525003,-87.53713636710998
6.36810496,0.9993358314385956,-87.65335971956675
6.370391552,0.9991379582999591,-87.76635176076755
6.372678144,0.9989957677788136,-87.87685956206428
6.374964224,0.9989185112808255,-87.98580130264416
6.377250816,0.9989111352836932,-88.09412333921054
6.379536896,0.9989741240100651,-88.20287485671504
6.381823488,0.9991035512852995,-88.31302554468702
6.384109568,0.999290940264259,-88.42548947078389
6.38639616,0.999524645128362,-88.54109457959774
6.38868224,0.9997895169470302,-88.6603608950233
6.390968832,1.000068853569346,-88.78357858072224
6.393255424,1.0003448800563053,-88.9108616453265
6.395541504,1.0005999970761692,-89.04205083784395
6.397828096,1.0008181161469145,-89.17663532332413
6.400114176,1.0009848698687338,-89.31409033123828
6.402400768,1.0010901632665306,-89.45353507313021
6.404686848,1.0011272214262186,-89.59402107253527
6.40697344,1.0010934014973452,-89.7345650889997
6.409260032,1.0009911378850538,-89.87411486833027
6.411546112,1.0008266183679153,-90.01178029602946
6.413832704,1.0006104116696717,-90.14667629152758
6.416118784,1.0003563032490723,-90.27815583447511
6.418405376,1.0000802738707837,-90.4057743691383
6.420691456,0.9997999116466535,-90.52942174778926
6.422978048,0.9995331170677886,-90.64906530295262
6.425264128,0.9992968810463381,-90.76506660725784
6.42755072,0.9991063964250381,-90.87794786067252
6.429837312,0.9989736144955647,-90.98847057893911
6.432123392,0.9989071450025572,-91.09758908365517
6.434409984,0.9989113573145679,-91.20620234789183
6.436696064,0.9989857606375886,-91.31542388277067
6.438982656,0.9991259839722381,-91.42628563660426
6.441268736,0.9993226741164182,-91.53957254669673
6.443555328,0.9995637747615755,-91.65604303482442
6.44584192,0.9998334986677827,-91.77629110835292
6.448128,1.0001148795787003,-91.90056163029651
6.450414592,1.00039006172767,-92.02893405232855
6.452700672,1.0006413630759725,-92.16108366686663
6.454987264,1.0008529763049316,-92.29670139663996
6.457273344,1.0010112218697362,-92.43495222079044
6.459559936,1.001106306299243,-92.57511442829406
6.461846016,1.0011320717168812,-92.71610927204092
6.464132608,1.0010866341097855,-92.8570492155446
6.4664192,1.000973140260502,-92.9968443180413
6.46870528,1.000798622720442,-93.1345418125546
6.470991872,1.000574197271606,-93.26936703759526
6.473277952,1.0003141141527516,-93.40068483994405
6.475564544,1.0000346723491371,-93.52806565956784
6.477850624,0.9997541409737132,-93.65138676007182
6.480137216,0.9994898096204339,-93.77075849138853
6.482423296,0.9992588965822136,-93.88654992233218
6.484709888,0.9990760109625454,-93.99933073360481
6.48699648,0.9989529795856464,-94.10985392693291
6.48928256,0.9988974307784173,-94.21909787850021
6.491569152,0.9989132384886845,-94.32808142584031
6.493855232,0.9989991474283323,-94.43781787414981
6.496141824,0.9991498523474306,-94.54927621638615
6.498427904,0.9993557142700558,-94.66335415307522
6.500714496,0.9996035994728447,-94.78076267087395
6.503001088,0.9998777747619376,-94.90200450289007
6.505287168,1.0001607919995295,-95.02731087048394
6.50757376,1.0004346344051658,-95.15667979772523
6.50985984,1.0006818232956678,-95.28984957498373
6.512146432,1.000886623642022,-95.42633752740694
6.514432512,1.0010360601279225,-95.56543312646232
6.516719104,1.0011206837814335,-95.70622080053148
6.519005184,1.0011349872558317,-95.84773698755278
6.521291776,1.0010781038653371,-95.98896376641342
6.523578368,1.0009534860884195,-96.12891594339897
6.525864448,1.0007692345473724,-96.2666164236499
6.52815104,1.0005367862623922,-96.40130700431885
6.53043712,1.0002711141541378,-96.53239961677953
6.532723712,0.9999891364271298,-96.65952739476035
6.535009792,0.9997084364638069,-96.78253993112094
6.537296384,0.9994471932272501,-96.9016487526679
6.539582976,0.9992220475745974,-97.01718668664006
6.541869056,0.9990471964573907,-97.12981893272584
6.544155648,0.998933915196723,-97.24038691901075
6.546441728,0.9988896380454677,-97.34981092591349
6.54872832,0.9989170081839066,-97.45909299197079
6.5510144,0.999014316046907,-97.56932127911969
6.553300992,0.9991754430464006,-97.68143648017332
6.555587072,0.9993901064397682,-97.7962946978461
6.557873664,0.9996447169912699,-97.91460496052261
6.560160256,0.9999229241410212,-98.03679404765677
6.562446336,1.000207018446157,-98.16313072384716
6.564732928,1.0004789729200947,-98.29350813884422
6.567019008,1.0007215195892551,-98.42763389536931
6.5693056,1.000919294944243,-98.56500033944211
6.57159168,1.0010595656344952,-98.70479079649587
6.573878272,1.0011334190026546,-98.8462093792141
6.576164864,1.0011361962753262,-98.98819860209306
6.578450944,1.0010677603000708,-99.12970312564978
6.580737536,1.0009322540617291,-99.26972937604788
6.583023616,1.000738304778673,-99.40738589928132
6.585310208,1.0004984352542146,-99.54193770257335
6.587596288,1.000227604263203,-99.67276718729774
6.58988288,0.9999431189390408,-99.79957421608219
6.59216896,0.99966288729932,-99.92223682336993
6.594455552,0.9994050507663891,-100.041033654859
6.596742144,0.9991859792572845,-100.1563677620371
6.599028224,0.9990195957007983,-100.26887453067242
6.601314816,0.9989165042939815,-100.37938611731222
6.603600896,0.9988834597136094,-100.48894791455258
6.605887488,0.9989224025807882,-100.59858920108337
6.608173568,0.9990310808372292,-100.7092939852621
6.61046016,0.9992025424472376,-100.82203428294919
6.612746752,0.9994256972209336,-100.93768600871618
6.615032832,0.9996863506684813,-101.05690988211421
6.617319424,0.9999682231699192,-101.18003558614669
6.619605504,1.000252995180428,-101.30737181071808
6.621892096,1.0005228179123924,-101.43871425601473
6.624178176,1.0007604793321105,-101.57374507283642
6.626464768,1.0009506180376402,-101.71195572786992
6.628750848,1.0010813650491763,-101.85245870788573
6.63103744,1.0011444967238088,-101.99441130788115
6.633324032,1.0011356282821837,-102.13680355791385
6.635610112,1.0010555969001689,-102.27849212580509
6.637896704,1.0009094371609997,-102.41858737314091
6.640182784,1.000706268549292,-102.55620205514614
6.642469376,1.0004590069690342,-102.6904973583176
6.644755456,1.0001833875542747,-102.8210451578221
6.647042048,0.9998967632698234,-102.94749000622566
6.649328128,0.9996176570268142,-103.06981102070958
6.65161472,0.9993636570198258,-103.18830060687165
6.653901312,0.9991511061737192,-103.3033287220822
6.656187392,0.9989933136948597,-103.4157220125164
6.658473984,0.9989007010282142,-103.52622792258832
6.660760064,0.9988789449268431,-103.63595153477831
6.663046656,0.9989296954267974,-103.74586538530988
6.665332736,0.9990495365575444,-103.85708858889052
6.667619328,0.999230889574669,-103.97046785188199
6.66990592,0.9994623698229536,-104.08689530841421
6.672192,0.9997290291146985,-104.20695833413917
6.674478592,1.0000139701244424,-104.3310668353772
6.676764672,1.0002990205763,-104.45932408836654
6.679051264,1.0005661882341468,-104.59164459425669
6.681337344,1.000798366235257,-104.7275814647659
6.683623936,1.0009806817833833,-104.86655488921227
6.685910016,1.0011016913126576,-105.00773147826554
6.688196608,1.0011537286490575,-105.15017372925227
6.6904832,1.001133344572967,-105.29283136457474
6.69276928,1.0010417874217263,-105.4347454720923
6.695055872,1.0008849614946573,-105.5748665449815
6.697341952,1.0006726912109143,-105.71228188042174
6.699628544,1.0004184986774283,-105.84636047264782
6.701914624,1.0001385208816245,-105.97654588055023
6.704201216,0.9998504552371249,-106.10260916090257
6.706487808,0.9995727925245834,-106.2245454469052
6.708773888,0.9993230045972488,-106.34266091760335
6.71106048,0.999117283777545,-106.45744081367728
6.71334656,0.998968667763876,-106.56966355295026
6.715633152,0.9988866319088797,-106.68020898004909
6.717919232,0.9988763024171474,-106.79007396987454
6.720205824,0.9989386655665018,-106.90030484573192
6.722491904,0.9990696335636882,-107.0119976199414
6.724778496,0.9992608825826917,-107.12604768826365
6.727065088,0.9995002212000165,-107.24322538808477
6.729351168,0.9997724388297381,-107.36413059582682
6.73163776,1.0000601074879496,-107.4891407132517
6.73392384,1.0003450118747315,-107.61835041905495
6.736210432,1.000609002077912,-107.75156746542726
6.738496512,1.0008352989940035,-107.88832259806141
6.740783104,1.0010093909911522,-108.02803818470174
6.743069696,1.0011204452631515,-108.16980783846542
6.745355776,1.001161264459293,-108.3127363529947
6.747642368,1.0011292056919592,-108.45568524293151
6.749928448,1.0010262506118572,-108.59770724565249
6.75221504,1.0008589292128043,-108.73777799601281
6.75450112,1.0006379310093088,-108.87500329595805
6.756787712,1.0003769981489194,-109.00882446654803
6.759073792,1.0000931215384359,-109.13860950810937
6.761360384,0.9998039936898206,-109.26422860764953
6.763646976,0.9995281583817945,-109.38576430187507
6.765933056,0.9992831865294907,-109.50351722944282
6.768219648,0.9990847454523986,-109.61801473554927
6.770505728,0.9989453871631255,-109.73007642150897
6.77279232,0.9988740169968977,-109.8405936470025
6.7750784,0.9988755387490986,-109.95058428829766
6.777364992,0.9989495124301566,-110.06115009184447
6.779651584,0.9990915193382625,-110.17332296728421
6.781937664,0.9992923580319258,-110.28794318690821
6.784224256,0.9995392283754487,-110.40593682119103
6.786510336,0.9998164611954641,-110.52769522211992
6.788796928,1.0001065254762234,-110.65357407693146
6.791083008,1.000390754119143,-110.78368769648115
6.7933696,1.000651144147169,-110.91775720468348
6.79565568,1.0008712900823096,-111.05536684053648
6.797942272,1.0010369142664135,-111.19572598161336
6.800228864,1.0011377474587058,-111.33807827147842
6.802514944,1.001167005255031,-111.48139876540421
6.804801536,1.0011233065009435,-111.6245845149407
6.807087616,1.0010090028643441,-111.76666396263107
6.809374208,1.0008314104030167,-111.90663534351111
6.811660288,1.0006018805394619,-112.04364055992878
6.81394688,1.00033483128861,-112.177064992248
6.81623296,1.0000472789347807,-112.30642637415524
6.818519552,0.999757494524171,-112.43163910844063
6.820806144,0.99948398318535,-112.55270238839562
6.823092224,0.9992441309568162,-112.67004487880135
6.825378816,0.9990532426997515,-112.78427900222627
6.827664896,0.9989235301301972,-112.89614062845178
6.829951488,0.9988633801738388,-113.00662613416897
6.832237568,0.9988764718899654,-113.1167919389277
6.83452416,0.9989621276065566,-113.22765500580508
6.836810752,0.999114892949236,-113.3403034653939
6.839096832,0.9993251967543024,-113.45557154156451
6.841383424,0.9995793157964655,-113.57427284655837
6.843669504,0.9998613199937639,-113.69684442665002
6.845956096,1.0001531410591618,-113.8236535880796
6.848242176,1.0004363255790236,-113.95459656669767
6.850528768,1.0006927687266431,-114.0895070950841
6.852814848,1.0009061771879106,-114.2278794226837
6.85510144,1.0010629660457382,-114.36890824723174
6.857388032,1.001153192098875,-114.5117777210862
6.859674112,1.0011711798082497,-114.65536979449378
6.861960704,1.001115599874526,-114.79875078184223
6.864246784,1.0009899633110997,-114.9408675419996
6.866533376,1.000802365663629,-115.08064362733104
6.868819456,1.0005645320452228,-115.21735583084987
6.871106048,1.000291578058414,-115.35041762449642
6.87339264,1.000000932617022,-115.47931491251829
6.87567872,0.9997110396700061,-115.60401638264347
6.877965312,0.9994402109119725,-115.7246767208932
6.880251392,0.999205883557044,-115.8415928009381
6.882537984,0.9990230557699051,-115.9555021631661
6.884824064,0.9989032312056779,-116.06719620268363
6.887110656,0.998854232651856,-116.17766270366718
6.889396736,0.9988791378464241,-116.28792973953618
6.891683328,0.9989763887421861,-116.39911047046058
6.89396992,0.9991399703525691,-116.51220929478632
6.896256,0.9993591966940735,-116.62812384483765
6.898542592,0.9996203960865996,-116.74749132710302
6.900828672,0.9999066909182703,-116.87090458779082
6.903115264,1.0002000134127296,-116.99854719907448
6.905401344,1.0004815393653308,-117.13036466911426
6.907687936,1.0007336394482453,-117.26606466247597
6.909974528,1.0009399797460903,-117.40514147738149
6.912260608,1.001087640117389,-117.54677451426446
6.9145472,1.0011671505337834,-117.69007321370492
