freq,mag,phase
6.0,0.9994367908610186,177.31355507578996
6.002287104,0.999455165397446,177.17088397550816
6.004574208,0.9995081354691032,177.0277043488705
6.006861312,0.9995924974083977,176.8836396258732
6.009147904,0.999702939447064,176.73815848006805
6.011435008,0.9998324696835801,176.59100035046913
6.013722112,0.9999728526560229,176.44188233554172
6.016009216,1.0001152031214113,176.29077067394303
6.01829632,1.0002505886096333,176.1376752011044
6.020583424,1.000370343280964,175.98277424882696
6.022870016,1.000466814896878,175.8263590601802
6.02515712,1.0005339618885838,175.66881320050325
6.027444224,1.0005675320014318,175.5105530966339
6.029731328,1.0005652972017893,175.35206792962697
6.032018432,1.0005274672448519,175.19399370891063
6.034305536,1.0004563978466703,175.0366927380701
6.036592128,1.000356556028706,174.880702627583
6.038879232,1.0002343015846544,174.7263660396112
6.041166336,1.000097278073817,174.57393958025463
6.04345344,0.999954161454575,174.42361459266567
6.045740544,0.9998141592646755,174.2754027934219
6.048027648,0.9996860223885042,174.12914274976046
6.05031424,0.9995779782050351,173.98465450761427
6.052601344,0.9994966871830824,173.8416264768914
6.054888448,0.9994476185925595,173.6995893119508
6.057175552,0.999433795110544,173.55802104710986
6.059462656,0.9994560746344798,173.4164491584461
6.06174976,0.9995130920144817,173.27435551989527
6.064036352,0.9996011601901937,173.13125552264543
6.066323456,0.9997148137783111,172.98672017534693
6.06861056,0.9998467947289015,172.84045871117735
6.070897664,0.9999888151285757,172.6922317122739
6.073184768,1.0001317613008611,172.54196672820336
6.075471872,1.000266628089011,172.3897273328886
6.077758464,1.0003848789991587,172.2357250336137
6.080045568,1.0004789500717104,172.08019618708644
6.082332672,1.0005429970602546,171.9235596287872
6.084619776,1.0005727905015753,171.7662985018666
6.08690688,1.0005664513422143,171.6089033147509
6.089193984,1.0005245032010268,171.4519219166376
6.091481088,1.0004494622947255,171.29579410571776
6.09376768,1.0003461118490764,171.141028313904
6.096054784,1.0002209424063373,170.98794275562386
6.098341888,1.0000817661122163,170.83684168020432
6.100628992,0.9999377242349358,170.6878467404926
6.102916096,0.9997976549305012,170.5409336688403
6.1052032,0.9996705039335018,170.39604976979876
6.107489792,0.9995645620786181,170.2528860938017
6.109776896,0.9994862630517329,170.11109131435978
6.112064,0.9994408007737682,169.97028866195646
6.114351104,0.9994309271673351,169.82989948843266
6.116638208,0.9994573539706422,169.68944842406938
6.118925312,0.9995184739849567,169.54839693762665
6.121211904,0.9996104083904571,169.40628037975122
6.123499008,0.9997273597550651,169.26268696736685
6.125786112,0.9998617394053906,169.11732400218904
6.128073216,1.0000052410942462,168.9699791147681
6.13036032,1.0001486137942714,168.82059808639897
6.132647424,1.0002829006278846,168.66921490518922
6.134934016,1.0003995055154906,168.5160642285606
6.13722112,1.0004909671882722,168.36145430443804
6.139508224,1.0005517292650297,168.2057850411995
6.141795328,1.0005775525252616,168.0495042854232
6.144082432,1.000567130421356,167.89317871677594
6.146369536,1.0005208714590685,167.73731126739534
6.148656128,1.000441759894227,167.58239266155027
6.150943232,1.0003349238834285,167.42885868195725
6.153230336,1.000206978779345,167.27707622929637
6.15551744,1.0000659390967328,167.1272791244398
6.157804544,0.9999209345242864,166.97963229157884
6.160091648,0.9997810427523566,166.83407267832385
6.162378752,0.9996551460660373,166.69048966600832
6.164665344,0.99955117468346,166.54865887308296
6.166952448,0.9994759370802347,166.40817093071365
6.169239552,0.9994342593602494,166.268555168206
6.171526656,0.9994285628142742,166.12933634643272
6.17381376,0.9994594203532414,165.98997589571383
6.176100864,0.9995245788597563,165.84999829249227
6.178387456,0.9996204616862029,165.7088835252827
6.18067456,0.9997404701957847,165.5662139125371
6.182961664,0.9998772703887693,165.4217742279199
6.185248768,1.0000221707747199,165.27526064055903
6.187535872,1.0001658886853033,165.12674408064777
6.189822976,1.000299445070418,164.97624959456323
6.192109568,1.000414151467555,164.82395680159047
6.194396672,1.0005029674009622,164.67025715831284
6.196683776,1.0005601176731886,164.51555502956163
6.19897088,1.0005820963041494,164.36029021787786
6.201257984,1.0005672515786366,164.2050343819521
6.203545088,1.0005167532516324,164.05029248978164
6.20583168,1.0004335339883288,163.8965460783893
6.208118784,1.0003231532243617,163.74428154943624
6.210405888,1.0001923190750481,163.59379649963327
6.212692992,1.000049300064122,163.4453456696271
6.214980096,0.9999035573486229,163.29901244607953
6.2172672,0.9997639613620741,163.15481880006348
6.219553792,0.9996393548402311,163.01262170803432
6.221840896,0.9995378177911426,162.8720706361935
6.224128,0.9994658091323064,162.73285371090876
6.226415104,0.9994279903833646,162.5944643696299
6.228702208,0.9994264537500197,162.45643807022
6.230989312,0.9994616771076502,162.31819970045555
6.233275904,0.9995312532160676,162.17924874570232
6.235563008,0.9996308277417121,162.03909969420735
6.237850112,0.9997540980053524,161.897379599841
6.240137216,0.9998933165900096,161.75380062053517
6.24242432,1.0000394160606954,161.60819933200634
6.244711424,1.0001833968077032,161.4605086725244
6.246998528,1.0003160418455996,161.3108769585132
6.24928512,1.0004288827758385,161.159454600285
6.251572224,1.0005147542278536,161.0066690220023
6.253859328,1.0005681648206746,160.85290359372544
6.256146432,1.0005859770961143,160.6986679773878
6.258433536,1.0005667751017315,160.54450284386746
6.26072064,1.0005118757742544,160.39089894800154
6.263007232,1.0004246100565783,160.23833518065913
6.265294336,1.0003105113580695,160.08733131038775
6.26758144,1.000176969448767,159.93814462363406
6.269868544,1.0000322341645733,159.79105451348028
6.272155648,0.9998857213821667,159.6461091238555
6.274442752,0.9997464810758759,159.50326150223322
6.276729344,0.9996234627676589,159.36237069914188
6.279016448,0.999524508543851,159.2231736457582
6.281303552,0.9994559361159716,159.0852452498335
6.283590656,0.9994220171766878,158.9480893764826
6.28587776,0.9994249493056958,158.81120986758384
6.288164864,0.9994646470005897,158.674045896486
6.290451456,0.9995385395825901,158.5361327581589
6.29273856,0.999642008794642,158.39696916440062
6.295025664,0.999768477996398,158.25616117927035
6.297312768,0.9999097884856452,158.11345569270873
6.299599872,1.0000573469568397,157.96869085608114
6.301886976,1.0002012902142854,157.82186497713866
6.304173568,1.0003328875994104,157.6730468440765
6.306460672,1.0004436164294916,157.52253768838904
6.308747776,1.0005264739567519,157.3706744412904
6.31103488,1.0005761059761342,157.21784714983636
6.313321984,1.0005896147816573,157.0646517699907
6.315609088,1.0005657351816073,156.911552345636
6.317896192,1.0005062393066149,156.75910573703777
6.320182784,1.0004149089874845,156.60777930546186
6.322469888,1.0002974074468662,156.45800654853943
6.324756992,1.000161103966575,156.3101447810492
6.327044096,1.0000147213697577,156.16439785931848
6.3293312,0.9998675736542928,156.0207853891322
6.331618304,0.9997288297991932,155.87933435587968
6.333904896,0.9996075510917457,155.7397912643222
6.336192,0.9995112672217714,155.60190018959085
6.338479104,0.9994461802692749,155.4652360509948
6.340766208,0.9994163858684375,155.32929691450056
6.343053312,0.9994238876109758,155.19355155116617
6.345340416,0.999468207977915,155.05750300619147
6.347627008,0.9995464950289021,154.92058448283046
6.349914112,0.9996538986366591,154.78235454629097
6.352201216,0.9997834706178836,154.6424729280015
6.35448832,0.9999269757863105,154.50063087439045
6.356775424,1.0000756129907011,154.35671592278942
6.359062528,1.0002195979352833,154.2106908277567
6.36134912,1.000349871972262,154.06276403525587
6.363636224,1.0004584577857754,153.91310877652694
6.365923328,1.0005379979635955,153.76211886076715
6.368210432,1.0005836958419432,153.610301821836
6.370497536,1.0005926193577517,153.45809015203022
6.37278464,1.0005642801972159,153.30609788453907
6.375071232,1.000500288824642,153.154763871959
6.377358336,1.0004047532454154,153.0046743134688
6.37964544,1.0002836193685631,152.85619346224834
6.381932544,1.0001446574292243,152.70964359638714
6.384219648,0.9999966688686912,152.56522464777436
6.386506752,0.9998489918040724,152.42298366134216
6.388793344,0.9997109703918373,152.28290591995616
6.391080448,0.9995915167377831,152.14470780236823
6.393367552,0.9994980943807225,152.0081265807591
6.395654656,0.9994367127182194,151.8727236630572
6.39794176,0.9994113130680097,151.73795277252302
6.400228864,0.9994235995965517,151.60337998362692
6.402515968,0.9994724377102424,151.46837846607184
6.40480256,0.9995552155194365,151.33245829875295
6.407089664,0.99966647031312,151.195186089471
6.409376768,0.9997991955117674,151.05618771797722
6.411663872,0.9999449422735175,150.91519182102215
6.413950976,1.000094429632793,150.77208989133007
6.41623808,1.0002381737892283,150.6269234835526
6.418524672,1.0003671135108758,150.47978939163428
6.420811776,1.0004730882776742,150.33099720805805
6.42309888,1.0005492051138978,150.1809457537078
6.425385984,1.0005908711145588,150.03004654934372
6.427673088,1.000595194309809,149.87887951566057
6.429960192,1.0005621161921958,149.72793722045907
6.432246784,1.0004933971978591,149.57780225527912
6.434533888,1.0003936647186524,149.42893122538763
6.436820992,1.0002691338045608,149.28170972725977
6.439108096,1.0001274624416765,149.13647581203344
6.4413952,0.999977970197246,148.99342844273218
6.443682304,0.9998300097815798,148.85253501431544
6.445968896,0.9996929815183092,148.71379758457394
6.448256,0.9995755008075374,148.5769435479785
6.450543104,0.9994851498916287,148.44164259862504
6.452830208,0.9994276414231174,148.30750002656254
6.455117312,0.9994066785356043,148.17393340332293
6.457404416,0.9994237307375469,148.040460018506
6.459691008,0.9994774304600259,147.90651728488004
6.461978112,0.9995647111275759,147.77160251722484
6.464265216,0.9996798209851167,147.63523243749242
6.46655232,0.9998155717868277,147.49710857783307
6.468839424,0.9999632967892943,147.35694560317154
6.471126528,1.0001135805236088,147.214663654418
6.473413632,1.0002569545041824,147.07029693972538
6.475700224,1.0003843816964109,146.92397983927717
6.477987328,1.000487644178434,146.77604808994417
6.480274432,1.0005603039669781,146.62686468127907
6.482561536,1.000597635064935,146.47694993147948
6.48484864,1.000597146560691,146.32674997510134
6.487135744,1.0005591816271417,146.17693217158381
6.489422336,1.0004858466104631,146.02794887905856
6.49170944,1.0003818054149263,145.8802863792594
6.493996544,1.0002537961041817,145.7343615381362
6.496283648,1.0001097097646858,145.5904326882211
6.498570752,0.9999587305880533,145.44871217849035
6.500857856,0.9998105446528228,145.30918155229995
6.503144448,0.999674590090183,145.1718010121276
6.505431552,0.999559390964045,145.03627784869286
6.507718656,0.9994722266660224,144.90226311143098
6.51000576,0.9994188385083392,144.76936348133032
6.512292864,0.9994025689325865,144.63696243487544
6.514579968,0.9994244451437956,144.50459810678694
6.51686656,0.9994830588347724,144.37166398865028
6.519153664,0.9995748120023813,144.23769432857077
6.521440768,0.9996939023876771,144.10224518567526
6.523727872,0.9998324563156942,143.96495776506382
6.526014976,0.999982026488223,143.82561184957
6.52830208,1.0001332531765572,143.6841205508386
6.530588672,1.0002760403087279,143.54054226117196
6.532875776,1.0004018335725438,143.39505052068384
6.53516288,1.0005021753432646,143.24794666724728
6.537449984,1.000571082273378,143.09965231736732
6.539737088,1.0006039091850625,142.95067616342868
6.542024192,1.0005985527102914,142.80152265350853
6.544310784,1.000555691870926,142.65276042345806
6.546597888,1.000477503176832,142.50493438041266
6.548884992,1.0003693335887922,142.35847681658413
6.551172096,1.0002377119800692,142.213797440731
6.5534592,1.0000911888435597,142.0712175213959
6.555746304,0.9999390222546592,141.93084185102472
6.558033408,0.9997909063975021,141.79267057497515
6.56032,0.9996562333318492,141.65662133034655
6.562607104,0.9995432764095104,141.52242968540872
6.564894208,0.9994597208650632,141.3896838675138
6.567181312,0.9994104726168976,141.2579937747673
6.569468416,0.9993989421500807,141.12677224248284
6.57175552,0.999425831302906,140.9954530788128
6.574042112,0.9994894085772899,140.8635509647647
6.576329216,0.9995857064971281,140.73051550949836
6.57861632,0.9997085918597287,140.59593591154822
6.580903424,0.9998501162496638,140.4594864410723
6.583190528,1.0000016750599312,140.32091880885298
6.585477632,1.00015327456365,140.18019615311607
6.587764224,1.0002955457160676,140.037372244454
6.590051328,1.0004192149578164,139.89264744976776
6.592338432,1.0005165334779875,139.74638580616258
6.594625536,1.000581417332943,139.59897230644427
6.59691264,1.000609552295274,139.45092742946238
6.599199744,1.0005994118938724,139.3028072282763
6.601486336,1.0005513306429514,139.15511506051553
6.60377344,1.0004683360303146,139.0084208787205
6.606060544,1.0003559752726328,138.86319227871593
6.608347648,1.0002210226424237,138.7197892321962
6.610634752,1.000072139115104,138.57854250083182
6.612921856,0.9999188945471911,138.43945827080586
6.615208448,0.9997707895329274,138.3026863785081
6.617495552,0.9996375489772208,138.167936047415
6.619782656,0.9995272050814122,138.03504296136506
6.62206976,0.9994472275436145,137.90355825356582
6.624356864,0.9994025230515089,137.77306091211764
6.626643968,0.9993959466530491,137.64296127200143
6.628931072,0.999427951452496,137.51271602411657
6.631217664,0.9994965074492188,137.38178588635142
6.633504768,0.9995973368764878,137.24966987945993
6.635791872,0.9997241855479025,137.1159420270943
6.638078976,0.9998685596000978,136.98025534658532
6.64036608,1.00002172196117,136.84246695852767
6.642653184,1.000173684535455,136.70248223845635
6.644939776,1.0003150572768071,136.56043916462562
6.64722688,1.0004366937423068,136.41649390363128
6.649513984,1.0005307828755967,136.27104152673985
6.651801088,1.000591476424675,136.12449395203151
6.654088192,1.0006149488208502,135.97736102023262
6.656375296,1.0005995775786818,135.8302253958432
6.658661888,1.00054640373339,135.68360892862415
6.660948992,1.0004585321103536,135.5380886180287
6.663236096,1.0003418926146732,135.3940590539798
6.6655232,1.0002035697347345,135.251935303657
6.667810304,1.0000525108106935,135.11196774725036
6.670097408,0.999898214872908,134.97425763627027
6.672384,0.9997504273291341,134.8387812867023
6.674671104,0.9996187031903098,134.70538739206955
6.676958208,0.9995114271142815,134.57375269564727
6.679245312,0.9994351914964559,134.4435183619056
6.681532416,0.9993950336869314,134.31418983507092
6.68381952,0.9993935651698659,134.1851810467594
6.686106112,0.9994308186254027,134.055965081618
6.688393216,0.9995045175962068,133.92598598958244
6.69068032,0.9996099651312016,133.79474914099555
6.692967424,0.999740405428747,133.66183712859933
6.695254528,0.9998876690453806,133.52694315902502
6.697541632,1.0000423904843185,133.38989930506116
6.699828224,1.0001946672327007,133.25065245464157
6.702115328,1.000334926226767,133.10932811408227
6.704402432,1.0004540166950053,132.96615328515338
6.706689536,1.0005447931780325,132.82145039661665
6.70897664,1.0006012051128839,132.67575977324987
6.711263744,1.0006196288020845,132.5295733101245
6.713550848,1.0005989547111387,132.38339703454992
6.71583744,1.0005405744016398,132.23786428526384
6.718124544,1.0004478658993439,132.0934777935998
6.720411648,1.0003268924386155,131.95066408783958
6.722698752,1.0001854275275446,131.8097989032649
6.724985856,1.0000321558194396,131.67113549802224
6.72727296,0.9998771591013141,131.53473167724604
6.729559552,0.9997299330639089,131.40060285055645
6.731846656,0.9996000130489887,131.26847675449318
6.73413376,0.9994956249960493,131.13812668639684
6.736420864,0.9994234876754208,131.00910820251806
6.738707968,0.999388068655226,130.88094617760865
6.740995072,0.99939183542632,130.75300848243396
6.743281664,0.9994344663921746,130.62480176581448
6.745568768,0.9995133672807497,130.49575900510132
6.747855872,0.9996233618839866,130.36534821196207
6.750142976,0.999757607277125,130.2332230894367
6.75243008,0.9999074840113488,130.09907358118917
6.754717184,1.0000634881923685,129.96272847259917
6.757003776,1.0002159059643523,129.82416541209295
6.75929088,1.0003548798144926,129.68355458956705
6.761577984,1.0004715678400844,129.54112181535461
6.763865088,1.0005585179881202,129.39721915472435
6.766152192,1.0006104849025745,129.25237436360925
6.768439296,1.0006237230334702,129.10705082439745
6.770725888,1.0005976980074514,128.96189936969992
6.773012992,1.000533947480587,128.81739962649291
6.775300096,1.0004363906696812,128.6741597240899
6.7775872,1.0003112326938892,128.53254608330369
6.779874304,1.0001665535580253,128.39291524914313
6.782161408,1.0000113900517327,128.25554812646064
6.784448512,0.9998555152576735,128.12046149615452
6.786735104,0.9997090416899105,127.98761910198286
6.789022208,0.9995811473326657,127.85678116546515
6.791309312,0.9994799763626,127.72769973009498
6.793596416,0.9994120633646182,127.59988453867258
6.79588352,0.9993816016333229,127.47284706632949
6.798170624,0.9993907671808095,127.34596022502309
6.800457216,0.9994389027528215,127.21872135612341
6.80274432,0.9995229208663701,127.0905393344647
6.805031424,0.9996374962461797,126.96099078782672
6.807318528,0.9997754301520769,126.82962668278451
6.809605632,0.9999278968527142,126.6961781169649
6.811892736,1.000085221141036,126.56053747683696
6.814179328,1.0002374683886655,126.42265060598461
6.816466432,1.0003749702198304,126.28271400348233
6.818753536,1.0004888542242398,126.14095999241748
6.82104064,1.0005719966708946,125.99784913091744
6.823327744,1.0006191061751808,125.85382570986367
6.825614848,1.0006270201305232,125.70939530661855
6.82790144,1.000595619092176,125.56521851691014
6.830188544,1.0005263281511294,125.4217835235627
6.832475648,1.000423958807407,125.27964795515368
6.834762752,1.0002946732960891,125.13920574164189
6.837049856,1.0001468380501346,125.00086791710633
6.83933696,0.9999897554216229,124.86475677186205
6.841623552,0.9998334159433508,124.73098028803598
6.843910656,0.9996878946937975,124.59940740440253
6.84619776,0.9995621725648929,124.46986101887403
6.848484864,0.9994645657909701,124.34198884329476
6.850771968,0.9994009905272786,124.21536892296245
6.853059072,0.9993756699873635,124.0893779647351
6.855345664,0.9993903914382947,123.96354599100542
6.857632768,0.9994440816423676,123.83723279897531
6.859919872,0.9995333211553112,123.7099078264676
6.862206976,0.9996525392848383,123.58114879863828
6.86449408,0.9997940372689902,123.45050772725838
6.866781184,0.9999489096535281,123.31775708896605
6.869068288,1.0001074041960791,123.18274307301282
6.87135488,1.0002593282225256,123.045515705001
6.873641984,1.0003952009762185,122.90623913826731
6.875929088,1.0005060276198317,122.76519926395719
6.878216192,1.000585146792294,122.6228323744817
6.880503296,1.0006273586923362,122.47957520546598
6.8827904,1.0006299242865044,122.33608427272601
6.885076992,1.0005927778487387,122.1928452537253
6.887364096,1.0005180306635342,122.05044796686899
6.8896512,1.000410699663502,121.90942470242946
6.891938304,1.0002773533476634,121.7702166434115
6.894225408,1.000126488249261,121.63305818606473
6.896512512,0.9999676216686345,121.49821579389524
6.898799104,0.9998110384354006,121.36570922539664
6.901086208,0.9996666566291896,121.2354367603536
6.903373312,0.9995434378172946,121.1071559850635
6.905660416,0.9994494241006372,120.98047061057432
6.90794752,0.999390586304438,120.85496967014689
6.910234624,0.9993706318146934,120.73007380374594
6.912521216,0.9993909133833897,120.60521675088899
6.91480832,0.9994502900393051,120.47979711735415
6.917095424,0.9995447270951017,120.3533332313668
6.919382528,0.999668387288018,120.22528586178949
6.921669632,0.9998134969580079,120.09534235824412
6.923956736,0.9999706528115194,119.96322427877062
6.926243328,1.000130085604786,119.82887472104419
