freq,mag,phase
6.0,1.0000119219051742,141.2882549133302
6.002287104,1.0000186468519483,141.12601381666727
6.004574208,1.0000242517470057,140.96366822719654
6.006861312,1.0000282554640139,140.8012944372429
6.009147904,1.0000305288575968,140.63886200180698
6.011435008,1.0000308762174928,140.4764742097109
6.013722112,1.000029546805865,140.3140255959562
6.016009216,1.0000261581993797,140.15169548007975
6.01829632,1.0000213533711724,139.98941522631992
6.020583424,1.0000151320519157,139.82718765476068
6.022870016,1.0000079938789492,139.6651295442262
6.02515712,1.0000004536150764,139.50313982111962
6.027444224,0.9999926999716068,139.34130331397512
6.029731328,0.9999856760354098,139.17958068365982
6.032018432,0.9999796835047678,139.01795518665952
6.034305536,0.9999748652836652,138.8564520516619
6.036592128,0.999971576268468,138.69498932364544
6.038879232,0.9999702519072304,138.53358425420151
6.041166336,0.9999707945102204,138.37219085022983
6.04345344,0.9999732326751724,138.21079654386907
6.045740544,0.999977424663906,138.049384477476
6.048027648,0.9999830739515491,137.88790189036658
6.05031424,0.9999899264983959,137.72633442600272
6.052601344,0.9999973465083196,137.5646612967518
6.054888448,1.0000051077879588,137.40289658045097
6.057175552,1.0000125329180982,137.2410769584062
6.059462656,1.0000191571229227,137.07911980722477
6.06174976,1.0000247555255424,136.91710848679492
6.064036352,1.0000287492156126,136.75504706876492
6.066323456,1.000030974996855,136.5929289197139
6.06861056,1.0000313519198694,136.43083655553485
6.070897664,1.0000296891264986,136.26871970937592
6.073184768,1.0000263203478679,136.10667958155236
6.075471872,1.0000213213615907,135.94472362292342
6.077758464,1.000014975320833,135.78285192924278
6.080045568,1.0000075707020584,135.62109376046558
6.082332672,0.9999998931338855,135.45945901788218
6.084619776,0.9999923038420437,135.29794858297112
6.08690688,0.9999851219654692,135.1365708268791
6.089193984,0.9999789604670375,134.97526913790577
6.091481088,0.9999741015673387,134.8140693486846
6.09376768,0.9999708683775308,134.65296126856535
6.096054784,0.9999697165581694,134.4919084204344
6.098341888,0.9999703988905935,134.33084275365326
6.100628992,0.9999729173061291,134.16976388218401
6.102916096,0.9999772680031348,134.00869073701907
6.1052032,0.9999830712710664,133.84750172522274
6.107489792,0.9999901017893216,133.68627567227918
6.109776896,0.9999976350482486,133.52494801336564
6.112064,1.0000054383193047,133.3635076496266
6.114351104,1.0000130532117106,133.20197432594625
6.116638208,1.0000196948503737,133.0403426903194
6.118925312,1.0000252345297476,132.87863726627108
6.121211904,1.0000292320646706,132.71689870442526
6.123499008,1.0000314507358314,132.55510987590932
6.125786112,1.0000316761034538,132.3933357335157
6.128073216,1.00002996658728,132.23155242880324
6.13036032,1.000026410161187,132.06984986825358
6.132647424,1.0000211951366251,131.9081926291116
6.134934016,1.0000147035670226,131.74665486487893
6.13722112,1.0000072989591855,131.58523355490345
6.139508224,0.9999995188136644,131.4239217018458
6.141795328,0.9999917290289658,131.26275315405744
6.144082432,0.9999844024696339,131.10170193360435
6.146369536,0.9999782573548753,130.94075303443492
6.148656128,0.999973350200339,130.77991574402031
6.150943232,0.9999702589634014,130.61912418363494
6.153230336,0.9999691115652478,130.45840279988744
6.15551744,0.9999698471504203,130.29766864070754
6.157804544,0.9999726383117895,130.13694884153992
6.160091648,0.9999771134612668,129.97618066175556
6.162378752,0.9999831500342524,129.815338727337
6.164665344,0.9999902476361099,129.6544246372264
6.166952448,0.9999979596692676,129.49343268586645
6.169239552,1.0000058483463576,129.33230353390954
6.171526656,1.000013617490105,129.17109483234904
6.17381376,1.0000203106196157,129.00980185746593
6.176100864,1.0000259120933783,128.84841535379985
6.178387456,1.000029868756027,128.68700766594682
6.18067456,1.000031934500037,128.52553135084148
6.182961664,1.0000321410061177,128.36405728648043
6.185248768,1.0000304082928848,128.20262165428895
6.187535872,1.0000265797722523,128.04123333958236
6.189822976,1.0000212497506267,127.8799065165362
6.192109568,1.0000145148710746,127.71872515709181
6.194396672,1.0000070588787948,127.55763900464326
6.196683776,0.999999026392642,127.396669576167
6.19897088,0.9999911632420384,127.23581640820679
6.201257984,0.9999838126391455,127.07512263655553
6.203545088,0.9999775341071722,126.91450661800047
6.20583168,0.9999727441354449,126.7540004411143
6.208118784,0.9999696686926326,126.59355922958123
6.210405888,0.9999684752047752,126.43319628740086
6.212692992,0.9999694335754177,126.27280623543128
6.214980096,0.9999722940318634,126.11240368917987
6.2172672,0.99997695828926,125.95196293986692
6.219553792,0.9999830992575285,125.79148050800383
6.221840896,0.9999902508291353,125.6309122217611
6.224128,0.9999982953606034,125.47019973838269
6.226415104,1.000006346297627,125.30944603856715
6.228702208,1.0000140936901172,125.14857073641146
6.230989312,1.000020945322371,124.98757605862184
6.233275904,1.0000265106258468,124.82652234935506
6.235563008,1.0000304366114074,124.66541375450282
6.237850112,1.0000324951705533,124.50429481793716
6.240137216,1.0000326519596736,124.34314823169146
6.24242432,1.0000306404126507,124.18204013305647
6.244711424,1.000026752640942,124.02096904777845
6.246998528,1.000021251490556,123.86000473409118
6.24928512,1.000014336149348,123.69913282538327
6.251572224,1.0000066700949495,123.53836662703654
6.253859328,0.9999985147085849,123.37774722007356
6.256146432,0.999990498382552,123.21723647062953
6.258433536,0.999983025366277,123.05688270789078
6.26072064,0.9999767674416578,122.89661443980032
6.263007232,0.9999719626979577,122.73647860099501
6.265294336,0.9999690227399616,122.5763737458369
6.26758144,0.9999679565789934,122.41630711587834
6.269868544,0.9999688594360324,122.2562747150135
6.272155648,0.9999719086107848,122.09624146931426
6.274442752,0.999976701689912,121.93612495715428
6.276729344,0.9999829689326953,121.77598298857863
6.279016448,0.9999904484635964,121.6157121075037
6.281303552,0.999998640136071,121.45539390437037
6.283590656,1.0000067860908266,121.29494221215685
6.28587776,1.0000145702888221,121.13438334276232
6.288164864,1.0000214465868849,120.97373520022416
6.290451456,1.0000271625502724,120.81299722039309
6.29273856,1.000031070768726,120.65223765848852
6.295025664,1.0000331290306725,120.49141628716635
6.297312768,1.0000330652798597,120.33061159798285
6.299599872,1.0000309970523098,120.16983310965333
6.301886976,1.0000268770056575,120.00908791895641
6.304173568,1.0000212135691238,119.84847304732278
6.306460672,1.0000140923830354,119.68791427130628
6.308747776,1.0000063570846953,119.52749580127333
6.31103488,0.9999980000685799,119.36723133695048
6.313321984,0.9999897399786638,119.20706232293823
6.315609088,0.999982283385002,119.0470407979128
6.317896192,0.9999759541284471,118.88714522328468
6.320182784,0.9999710601194884,118.72732374884028
6.322469888,0.9999681421653522,118.5675838819419
6.324756992,0.9999671526983213,118.4078856603882
6.327044096,0.9999682298611777,118.2481719878816
6.3293312,0.9999714322214291,118.08847766927894
6.331618304,0.99997643853941,117.92870972332332
6.333904896,0.9999830210934126,117.76890778203743
6.336192,0.9999906163386205,117.60900168666613
6.338479104,0.999998796666051,117.44897885557646
6.340766208,1.0000072479186288,117.28884620530974
6.343053312,1.0000151688028254,117.12865348451467
6.345340416,1.0000221447433202,116.96831383286317
6.347627008,1.0000277261147692,116.80793867929118
6.349914112,1.0000317165553045,116.64744975340655
6.352201216,1.0000336630608195,116.4869900852877
6.35448832,1.0000335792068697,116.3264978732975
6.356775424,1.0000312598030303,116.16605479756986
6.359062528,1.0000270570797083,116.00566177822105
6.36134912,1.0000212349198794,115.84535655763544
6.363636224,1.0000140429085418,115.68515260585032
6.365923328,1.0000059333406117,115.52508821198863
6.368210432,0.9999974610186775,115.36511960181753
6.370497536,0.9999891481009343,115.20533469060489
6.37278464,0.9999815843779757,115.04563852121055
6.375071232,0.9999751667439143,114.88608896224542
6.377358336,0.9999703032877493,114.72663262895189
6.37964544,0.9999673489675487,114.56723308648046
6.381932544,0.9999665203281348,114.4078522876321
6.384219648,0.9999677088748454,114.24852645558722
6.386506752,0.9999711153034426,114.08917328496894
6.388793344,0.9999762661143217,113.92973936163712
6.391080448,0.9999829345473403,113.77026949558899
6.393367552,0.9999907509352778,113.61070548544687
6.395654656,0.9999991665640353,113.45100665643633
6.39794176,1.000007635973739,113.2912436386618
6.400228864,1.0000158144026468,113.13133291132775
6.402515968,1.000022902034034,112.97132829083216
6.40480256,1.0000285945496237,112.81127272995214
6.407089664,1.0000324615738128,112.6511396332771
6.409376768,1.0000343193357524,112.49099804085284
6.411663872,1.000034065889952,112.33082232711939
6.413950976,1.0000317944244288,112.17070405018269
6.41623808,1.000027419044868,112.0106391023727
6.418524672,1.0000212314992638,111.8506680136548
6.420811776,1.0000139481554284,111.69080142969587
6.42309888,1.0000056506286612,111.53107026493794
6.425385984,0.9999969936087595,111.37147783695686
6.427673088,0.999988544775356,111.2120151531244
6.429960192,0.9999807750367663,111.05266844163252
6.432246784,0.999974402385034,110.8934609284105
6.434533888,0.9999695028250718,110.73436804884969
6.436820992,0.9999665369424418,110.57529693256532
6.439108096,0.9999658446013178,110.41630008687001
6.4413952,0.999967139055579,110.25730493676964
6.443682304,0.9999706023434355,110.0982801099537
6.445968896,0.9999760254425518,109.93919170770957
6.448256,0.9999829129508853,109.78004984367905
6.450543104,0.9999908981544057,109.6208344532023
6.452830208,0.9999995684020387,109.46148640379707
6.455117312,1.000008136016845,109.30201737923839
6.457404416,1.000016420213159,109.1424662035406
6.459691008,1.0000235673072098,108.98278176455194
6.461978112,1.0000292950469456,108.8230385378052
6.464265216,1.0000332727149437,108.6632303623748
6.46655232,1.0000351526602564,108.50339082062499
6.468839424,1.0000347397028402,108.34359161970274
6.471126528,1.0000321911750423,108.18379319965851
6.473413632,1.0000277256766248,108.02405386050485
6.475700224,1.0000213784709544,107.86439036533172
6.477987328,1.0000137462838847,107.70486473674538
6.480274432,1.0000052517173574,107.54547605532217
6.482561536,0.9999965360632854,107.38621796686694
6.48484864,0.9999879089951711,107.22709223182719
6.487135744,0.9999800609032702,107.06811375810126
6.489422336,0.9999734675558634,106.90924625841797
6.49170944,0.9999686178259622,106.75047861408737
6.493996544,0.9999657061662127,106.59179082984159
6.496283648,0.9999650228574375,106.43312053622087
6.498570752,0.9999665891684023,106.27446006274765
6.500857856,0.9999701644643183,106.11577412034241
6.503144448,0.9999757853122447,105.95706901654727
6.505431552,0.9999827627428092,105.79825457255176
6.507718656,0.9999911024746755,105.6393534384266
6.51000576,0.9999998478545864,105.48033081952582
6.512292864,1.0000088002542415,105.32120502527916
6.514579968,1.000017018481623,105.16196855458213
6.51686656,1.0000244269457776,105.00262654939085
6.519153664,1.0000301965115506,104.84318139140933
6.521440768,1.0000340887483383,104.68373725492098
6.523727872,1.0000358732502332,104.52420018036393
6.526014976,1.0000353565752111,104.36470051650267
6.52830208,1.0000327389601495,104.2052267794127
6.530588672,1.0000279951530004,104.0458139997049
6.532875776,1.000021533100837,103.88651382506471
6.53516288,1.0000137050391145,103.72732431505506
6.537449984,1.000004999784918,103.5682761274271
6.539737088,0.9999959715232463,103.40932904539969
6.542024192,0.9999871108149359,103.25055995485148
6.544310784,0.9999792503927769,103.09192296325485
6.546597888,0.9999725813983573,102.9333935358833
6.548884992,0.9999676409602242,102.77497172155397
6.551172096,0.9999648392583748,102.61662541913803
6.5534592,0.9999641920469109,102.45831387277089
6.555746304,0.999965819312371,102.30000562284827
6.558033408,0.9999697011206776,102.14164663455995
6.56032,0.9999753484837797,101.9832672477418
6.562607104,0.9999827596923486,101.82479911061675
6.564894208,0.9999911700963214,101.66621182443404
6.567181312,1.000000189412252,101.50752683941897
6.569468416,1.0000092357551305,101.34872919274704
6.57175552,1.0000177445833724,101.18980773598581
6.574042112,1.0000252090211694,101.03078512944083
6.576329216,1.0000310175309848,100.87169002239351
6.57861632,1.0000349383617053,100.71252042422537
6.580903424,1.0000366530096594,100.55332201668479
6.583190528,1.0000361620526277,100.39414810954783
6.585477632,1.0000333050530257,100.23498503153272
6.587764224,1.0000284846807508,100.07592169349726
6.590051328,1.000021696437523,99.91693936348896
6.592338432,1.0000136372042585,99.75807047730163
6.594625536,1.0000046439445758,99.59933056264008
6.59691264,0.999995415378519,99.44075699084118
6.599199744,0.9999864206488891,99.28233083731014
6.601486336,0.9999783794911764,99.1240139144308
6.60377344,0.9999716105168129,98.96586121734887
6.606060544,0.9999666767884898,98.80775461286322
6.608347648,0.9999638305966942,98.64974591727982
6.610634752,0.9999633031808991,98.49176720791051
6.612921856,0.9999651059872814,98.33380099099004
6.615208448,0.9999691228284913,98.17580153302606
6.617495552,0.9999749803599917,98.01773724735699
6.619782656,0.9999825924281457,97.85961804474067
6.62206976,0.9999912139086851,97.70135376054452
6.624356864,1.0000005795566533,97.54300182840664
6.626643968,1.000009817070028,97.38451545623971
6.628931072,1.0000184796431177,97.22592688905871
6.631217664,1.0000259950269679,97.06721300811203
6.633504768,1.0000319136512275,96.90843464497411
6.635791872,1.0000358975302708,96.7495668191117
6.638078976,1.0000376279618004,96.59071057051669
6.64036608,1.000036877346347,96.43180964906458
6.642653184,1.0000338763826264,96.27300968666869
6.644939776,1.0000288296149002,96.11423320168399
6.64722688,1.000021798325507,95.95557933246933
6.649513984,1.0000134688037128,95.79703753009757
6.651801088,1.0000043578475681,95.6386372632947
6.654088192,0.9999949415905857,95.48038751280018
6.656375296,0.9999857371144746,95.3222870498223
6.658661888,0.9999774676088008,95.16431376711212
6.660948992,0.9999706266590113,95.00648876176673
6.663236096,0.9999655797246081,94.848749648879
6.6655232,0.9999627438746254,94.69106193529241
6.667810304,0.9999622828365203,94.5334195546681
6.670097408,0.9999642159659001,94.37579706093062
6.672384,0.999968420720801,94.218147811923
6.674671104,0.9999745951834464,94.06041772553063
6.676958208,0.9999824431836317,93.90259876095479
6.679245312,0.9999913639956125,93.7446761356127
6.681532416,1.0000008945985184,93.5866487432932
6.68381952,1.000010356717719,93.42848042574263
6.686106112,1.000019316643356,93.2701932478492
6.688393216,1.0000269564192517,93.11178602141177
6.69068032,1.0000329401998882,92.9533282741394
6.692967424,1.0000368849585874,92.7947797832191
6.695254528,1.0000385028710013,92.63620903086252
6.697541632,1.000037761009592,92.47764455012214
6.699828224,1.0000345064812208,92.31912195242664
6.702115328,1.0000292327093792,92.16067256389037
6.704402432,1.0000220099138208,92.00232886147332
6.706689536,1.0000134912883767,91.84411096604715
6.70897664,1.000003970777293,91.68604439471214
6.711263744,0.9999942581100357,91.5281208591904
6.713550848,0.9999849303069286,91.37034283897134
6.71583744,0.9999764435694374,91.21271034109967
6.718124544,0.9999694874060879,91.05520772884064
6.720411648,0.9999644501103578,90.89779734310345
6.722698752,0.9999616730435998,90.74046588270993
6.724985856,0.9999612564239334,90.58317046850941
6.72727296,0.9999632491861539,90.4258687401547
6.729559552,0.9999677104258997,90.26854273034768
6.731846656,0.9999741655353851,90.11115217044356
6.73413376,0.9999822074956716,89.95364254282802
6.736420864,0.99999149448063,89.79603832729292
6.738707968,1.000001267143393,89.63832393175194
6.740995072,1.0000110691147548,89.48047112448899
6.743281664,1.0000200833554607,89.32249225076652
6.745568768,1.0000279069522366,89.16440206844369
6.747855872,1.0000340096258256,89.00623232066141
6.750142976,1.0000379233698817,88.8479891361863
6.75243008,1.000039571888289,88.68973927568881
6.754717184,1.0000386673505495,88.53146006965486
6.757003776,1.0000353529737265,88.37322992931362
6.75929088,1.0000297744342197,88.21509471529143
6.761577984,1.0000222653687785,88.05706990718238
6.763865088,1.0000133398187863,87.89916400482242
6.766152192,1.0000036848332925,87.74139189463602
6.768439296,0.9999936576694108,87.58380763543227
6.770725888,0.9999840488838089,87.42635619851865
6.773012992,0.9999754868479086,87.26904712312555
6.775300096,0.9999683079385602,87.11188096186757
6.7775872,0.9999631959040869,86.95480567758939
6.779874304,0.9999603987444011,86.79779816897671
6.782161408,0.9999601192374856,86.64082570473838
6.784448512,0.9999623120486645,86.48387018552945
6.786735104,0.9999669336354926,86.32686171752461
6.789022208,0.9999735856036646,86.16978993949844
6.791309312,0.999981952047385,86.0126272288209
6.793596416,0.9999914926792925,85.85533838968789
6.79588352,1.0000015754390335,85.69791742665805
6.798170624,1.0000116207522651,85.54036416525598
6.800457216,1.0000209056586342,85.38269495522088
6.80274432,1.000028906405415,85.22490994558035
6.805031424,1.0000351540397112,85.0670122193854
6.807318528,1.0000391358116791,84.90907076384548
6.809605632,1.000040717085835,84.75109671008191
6.811892736,1.000039657357727,84.59312755269666
6.814179328,1.0000361370135558,84.43519530288079
6.816466432,1.000030370707648,84.27737736572266
6.818753536,1.0000226318180094,84.11964357853631
6.82104064,1.0000134068866153,83.96204634528591
6.823327744,1.0000033832315505,83.80459031474959
6.825614848,0.9999930660306041,83.64731206442575
6.82790144,0.9999832204836583,83.49017462288721
6.830188544,0.9999743559550096,83.3332115235582
6.832475648,0.9999670252051974,83.1763752777611
6.834762752,0.9999618963155422,83.01959713031975
6.837049856,0.9999591167922403,82.86294302662908
6.83933696,0.999958874546204,82.70629389701188
6.841623552,0.9999612231294063,82.54965232212415
6.843910656,0.9999660336813254,82.39296999416842
6.84619776,0.999972981270246,82.2362089864557
6.848484864,0.9999817297918652,82.07933877999888
6.850771968,0.999991530427204,81.92237611790877
6.853059072,1.0000019604738664,81.76525459437863
6.855345664,1.000012290021433,81.60800839425688
6.857632768,1.000021945669015,81.45063206136967
6.859919872,1.0000300965286624,81.29310368546582
6.862206976,1.000036369178376,81.13552239006302
6.86449408,1.0000404108688887,80.97786379965135
6.866781184,1.0000419911019427,80.82019002003433
6.869068288,1.0000408310761304,80.66251248328325
6.87135488,1.0000371344742507,80.50486267159543
6.873641984,1.0000310675594162,80.34730306800837
6.875929088,1.0000229628289443,80.18987723637572
6.878216192,1.0000134416049573,80.03259120841055
6.880503296,1.0000029766970167,79.87544036802204
6.8827904,0.9999923991634007,79.71846056281474
6.885076992,0.9999821775615287,79.56164795401612
6.887364096,0.9999731288788106,79.40498535906481
6.8896512,0.9999657051419939,79.24843907175527
6.891938304,0.99996044101523,79.09202520854042
6.894225408,0.9999576133145955,78.93567472119781
6.896512512,0.9999573670750677,78.77936061411803
6.898799104,0.9999599759831519,78.62302082962226
6.901086208,0.9999650456771871,78.46666483196013
6.903373312,0.9999722666277567,78.31021044431185
6.905660416,0.9999812663550173,78.15366333603676
6.90794752,0.9999915099986479,77.99699031371972
6.910234624,1.0000022929085925,77.84017226638005
6.912521216,1.0000129479358772,77.68321278095121
6.91480832,1.000022778276561,77.52612252122123
6.917095424,1.00003125074379,77.36888496062913
6.919382528,1.0000377181244222,77.21157450646423
6.921669632,1.0000418606894512,77.05419518981921
6.923956736,1.00004331112811,76.89677738703075
6.926243328,1.000042027059808,76.73937500332349
6.928530432,1.0000381476156766,76.5820252301628
