freq,mag,phase
6.0,1.000267150665214,-0.3582504218493367
6.009950208,1.0003067267223658,-0.668421630439174
6.019900416,1.0003303320490409,-0.9790365607644184
6.029850624,1.0003368141375935,-1.2898861748250385
6.039800832,1.000326010431316,-1.6007616528322883
6.04975104,1.0002982518484043,-1.91142023970992
6.059701248,1.0002550301578292,-2.221624712012615
6.069651968,1.000198434363137,-2.5312578266388783
6.079602176,1.0001314235999046,-2.8400879186200627
6.089552384,1.0000575488828027,-3.1480923573679322
6.099502592,0.9999802663264948,-3.455107387573821
6.1094528,0.9999038793545268,-3.761133152388202
6.119403008,0.9998321587817632,-4.066265394021207
6.129353216,0.9997689765711355,-4.3705098290543765
6.139303424,0.9997175339012152,-4.674024094402791
6.149253632,0.9996805182776853,-4.977017871118322
6.15920384,0.9996597830811008,-5.279688206351928
6.169154048,0.9996567031776816,-5.582186612369314
6.179104256,0.9996711501709806,-5.884794466649659
6.189054976,0.9997027771799271,-6.187780221298882
6.199005184,0.9997496817438785,-6.4912730805025385
6.208955392,0.99980961080945,-6.795558209362023
6.2189056,0.9998795667031456,-7.100641718246143
6.228855808,0.9999558985204916,-7.406773407334442
6.238806016,1.0000346427950813,-7.713933300380046
6.248756224,1.0001118340434647,-8.022181429309406
6.258706432,1.0001833916004306,-8.331434356053013
6.26865664,1.0002455504380439,-8.641608326565205
6.278606848,1.0002952094449973,-8.952526635752555
6.288557056,1.000329774962521,-9.264091741517069
6.298507264,1.000347365040961,-9.575972053055207
6.308457472,1.0003469450090174,-9.888020241420481
6.318408192,1.0003287688165348,-10.200018359764186
6.3283584,1.0002934233476206,-10.511728087583355
6.338308608,1.0002428613053518,-10.822856963728224
6.348258816,1.000179543183529,-11.133326530240264
6.358209024,1.000106804007469,-11.4429505128255
6.368159232,1.0000281668155584,-11.751610181557492
6.37810944,0.999948102811661,-12.059301897640706
6.388059648,0.9998703188513524,-12.365928868997408
6.398009856,0.9997990061014467,-12.671693577952608
6.407960064,0.9997378484208558,-12.976572231165823
6.417910272,0.9996900091545312,-13.280768886393556
6.42786048,0.999658182253565,-13.584514090831197
6.4378112,0.999643814387633,-13.887967750490962
6.447761408,0.9996478071987679,-14.191387494974322
6.457711616,0.9996698857577279,-14.494965757982156
6.467661824,0.9997091202308089,-14.799058223067002
6.477612032,0.9997634700380383,-15.103783472509363
6.48756224,0.9998301229255288,-15.409259555669513
6.497512448,0.9999056696997904,-15.715792199680495
6.507462656,0.9999863758451509,-16.023355664596103
6.517412864,1.0000679374824808,-16.332025570689925
6.527363072,1.000146117315913,-16.64174693439673
6.53731328,1.00021696704839,-16.952516610517588
6.547263488,1.0002768744754609,-17.264157183185077
6.557213696,1.0003224598420948,-17.576606962779614
6.567164416,1.0003516071560046,-17.889537359881793
6.577114624,1.0003627432408004,-18.202728646542198
6.587064832,1.0003549448589024,-18.516057074094604
6.59701504,1.000328871999419,-18.829198669814993
6.606965248,1.0002857505400824,-19.141943138199533
6.616915456,1.0002277700473603,-19.454053735563445
6.626865664,1.0001578049449094,-19.765374571946882
6.636815872,1.0000795130511333,-20.075759170143293
6.64676608,0.9999968512605678,-20.385101511517377
6.656716288,0.9999142050719252,-20.69343909119113
6.666666496,0.9998356634806415,-21.000757574143062
6.676616704,0.9997653028809789,-21.307158589015234
6.686566912,0.9997068079183024,-21.612713511312577
6.696517632,0.9996633771862184,-21.917672198165153
6.70646784,0.9996370921917845,-22.22215575506569
6.716418048,0.9996295827162527,-22.526481332320863
6.726368256,0.9996409039880856,-22.830891859114722
6.736318464,0.9996710285526317,-23.135580565801323
6.746268672,0.9997180244983251,-23.44081404080136
6.75621888,0.9997798970532009,-23.74678881689094
6.766169088,0.9998531951682452,-24.053666351339707
6.776119296,0.9999341036141178,-24.361632803276752
6.786069504,1.0000186513865994,-24.67071971129005
6.796019712,1.0001024979156017,-24.980956950694832
6.80596992,1.0001812969307005,-25.292289825705133
6.81592064,1.0002507877541489,-25.60462664437852
6.825870848,1.0003076423879251,-25.91783918644863
6.835821056,1.0003485971104387,-26.23172432852066
6.845771264,1.0003718941133128,-26.546089451519947
6.855721472,1.0003758928662247,-26.860683229035438
6.86567168,1.000360514243674,-27.17523262605032
6.875621888,1.0003265085023945,-27.489531075677824
6.885572096,1.0002754908699922,-27.803305708387438
6.895522304,1.0002100703633443,-28.116385187730554
6.905472512,1.0001337020331187,-28.428562460452465
6.91542272,1.000050077787326,-28.739744437777176
6.925372928,0.9999635670583419,-29.04984365144849
6.935323136,0.9998789059292111,-29.358877498546494
6.945273856,0.9998001120909444,-29.66685346475651
6.955224064,0.9997313588805379,-29.97394634110417
6.965174272,0.9996763231016847,-30.280229801375643
6.97512448,0.9996377323249207,-30.585966791271844
6.985074688,0.9996176492254614,-30.891323647183714
6.995024896,0.9996173977908591,-31.196605824365772
7.004975104,0.999636752391548,-31.50205940180684
7.014925312,0.9996748833437286,-31.807879117893904
7.02487552,0.9997300474339574,-32.114356743391475
7.034825728,0.999799050733597,-32.42172158552997
7.044775936,0.9998786450900977,-32.73007406770986
7.054726144,0.9999647708892303,-33.039562637896765
7.064676864,1.0000529600829455,-33.35021943992854
7.074627072,1.0001384449025477,-33.66204917769354
7.08457728,1.0002171332351284,-33.975003811588564
7.094527488,1.0002848879724149,-34.288983888922225
7.104477696,1.000337981226428,-34.603782350024545
7.114427904,1.0003738828569269,-34.91921261835192
7.124378112,1.00039047765027,-35.23504250515845
7.13432832,1.000387067652646,-35.550993464682314
7.144278528,1.0003635766853325,-35.866846044043996
7.154228736,1.000321216007902,-36.182297856370816
7.164178944,1.0002622938813062,-36.497133445457486
7.174129152,1.0001896034187194,-36.81116094914343
7.18407936,1.0001068294201434,-37.12422414115366
7.19403008,1.0000182745571702,-37.4362353139074
7.203980288,0.9999285939138559,-37.74707962774103
7.213930496,0.9998422823318861,-38.05681058486326
7.223880704,0.999763811894558,-38.36553887454777
7.233830912,0.9996973336012512,-38.67331618489137
7.24378112,0.9996461844117424,-38.98041227573087
7.253731328,0.9996131706933183,-39.286945870469204
7.263681536,0.9995999026080599,-39.59324628018329
7.273631744,0.9996073575799312,-39.89955686571171
7.283581952,0.9996349686445163,-40.206082772756346
7.29353216,0.9996815849043644,-40.51317461242052
7.303482368,0.9997445816796314,-40.82102015352717
7.313433088,0.9998208810501302,-41.129791378675534
7.323383296,0.9999068995288738,-41.43964750552222
7.333333504,0.9999978048869836,-41.750755215309326
7.343283712,1.000088940828811,-42.06307000107735
7.35323392,1.0001758020682487,-42.37660942783327
7.363184128,1.0002537805868201,-42.69125413183038
7.373134336,1.000318937163394,-43.00689470527174
7.383084544,1.0003677648642921,-43.32332156016313
7.393034752,1.0003978494397678,-43.640341118234204
7.40298496,1.0004073283607937,-43.957638229653625
7.412935168,1.0003959170158645,-44.27501016470911
7.422885376,1.0003640195119508,-44.592148727526315
7.432835584,1.0003132642036507,-44.908764624873456
7.442786304,1.0002461406534349,-45.22468444941215
7.452736512,1.0001662388373238,-45.5396776995967
7.46268672,1.0000773800759433,-45.85361748895088
7.472636928,0.9999842754518922,-46.16640941251664
7.482587136,0.9998917240677943,-46.47804452924705
7.492537344,0.9998043709186445,-46.78854179622006
7.502487552,0.9997268833767172,-47.098003623947065
7.51243776,0.9996632018714435,-47.40657430243807
7.522387968,0.9996166887282485,-47.7144940499207
7.532338176,0.9995898854055079,-48.02192423197595
7.542288384,0.9995839288900772,-48.32919974766171
7.552238592,0.9995995011236148,-48.63654722541211
7.5621888,0.9996357839527606,-48.944312482308995
7.57213952,0.9996909734496154,-49.25269683370507
7.582089728,0.9997620016206678,-49.561941413202405
7.592039936,0.9998456836264262,-49.87226304053575
7.601990144,0.9999375006466382,-50.18376133069649
7.611940352,1.0000326986927057,-50.49652857858166
7.62189056,1.0001265960708352,-50.810563451253714
7.631840768,1.0002141784002576,-51.125850923164194
7.641790976,1.0002907761954272,-51.442258827743366
7.651741184,1.0003527738806746,-51.75964159403898
7.661691392,1.000396698084787,-52.07775499078717
7.6716416,1.0004203773988292,-52.39633938762698
7.681591808,1.0004222223468906,-52.715176683202245
7.691542528,1.0004025604001126,-53.03393234460764
7.701492736,1.0003618522656401,-53.352359488395535
7.711442944,1.0003024451371947,-53.67018833397025
7.721393152,1.0002272606559999,-53.987161756113544
7.73134336,1.0001400598242656,-54.303154184951765
7.741293568,1.000045457152457,-54.61797970759958
7.751243776,0.9999481267304571,-54.931601875300984
7.761193984,0.999853141329089,-55.24402782874481
7.771144192,0.9997654173767367,-55.55530161966333
7.7810944,0.9996896302420117,-55.865537644362924
7.791044608,0.9996293895604084,-56.17490866408222
7.800994816,0.9995881783769329,-56.48367389615348
7.810945024,0.9995680270106401,-56.792099373300616
7.820895744,0.9995700997277782,-57.10040858789525
7.830845952,0.9995942529864688,-57.408954917625806
7.84079616,0.9996393282482846,-57.71795317167942
7.850746368,0.9997032668549168,-58.02776151101245
7.860696576,0.9997826140838489,-58.33850570785641
7.870646784,0.999873177593463,-58.65041628492071
7.880596992,0.9999707772328299,-58.96359075296026
7.8905472,1.0000700461541414,-59.278129917406034
7.900497408,1.0001660483706243,-59.593968518161944
7.910447616,1.00025357989946,-59.91105154905733
7.920397824,1.0003284513533304,-60.22928224655874
7.930348032,1.0003864495601633,-60.54840141847414
7.940298752,1.0004248921689656,-60.86823317671218
7.95024896,1.000441279585733,-61.18848676227795
7.960199168,1.0004352380049808,-61.50882418805832
7.970149376,1.0004065692827717,-61.829004786479864
7.980099584,1.0003568516539334,-62.14873099309854
7.990049792,1.0002886085749414,-62.46774842771291
8.0,1.0002053473072672,-62.78582747396856
8.009950208,1.0001111566674423,-63.102785923043136
8.019900416,1.0000109313735897,-63.418533831859726
8.029850624,0.9999098385629767,-63.733000656933605
8.039800832,0.999812949013781,-64.04624203468332
8.04975104,0.9997254946021137,-64.35832983750394
8.059701248,0.9996517475641828,-64.66936103909755
8.069651968,0.9995958599642278,-64.97960014948417
8.079602176,0.9995604792393769,-65.28931861708946
8.089552384,0.9995476884863888,-65.59872026014249
8.099502592,0.9995581438602729,-65.90814917526315
8.1094528,0.9995913206198714,-66.21794151881085
8.119403008,0.9996457275182312,-66.5283042854039
8.129353216,0.9997184186193508,-66.83957393364355
8.139303424,0.9998057965386875,-67.15190664058976
8.149253632,0.9999035344969454,-67.46549231063123
8.15920384,1.0000065171444719,-67.78044888403726
8.169154048,1.0001092376182763,-68.09680792241514
8.179104256,1.0002068601998468,-68.41449454400954
8.189054976,1.0002939641051867,-68.73348469440707
8.199005184,1.0003662024212152,-69.05354222044049
8.208955392,1.000419814136611,-69.37447895172926
8.2189056,1.000451909836994,-69.69605372730233
8.228855808,1.0004608105426762,-70.01795314052816
8.238806016,1.0004459565214898,-70.33985904840783
8.248756224,1.0004080698780968,-70.66146078366722
8.258706432,1.0003491659859385,-70.98251446302893
8.26865664,1.0002719542637455,-71.30273479782005
8.278606848,1.0001805654101834,-71.62189261122832
8.288557056,1.000079406855063,-71.93985342703053
8.298507264,0.9999739145166581,-72.25651821384544
8.308457472,0.999869390719051,-72.57184349796512
8.318408192,0.9997713219106392,-72.88590392414869
8.3283584,0.9996845884195151,-73.19881672695486
8.338308608,0.9996138521158348,-73.51070800879492
8.348258816,0.9995628143482332,-73.82186081330957
8.358209024,0.9995340740274206,-74.13253554790592
8.368159232,0.9995291488838486,-74.44302899004106
8.37810944,0.999548500944652,-74.75363538239633
8.388059648,0.9995911786817607,-75.06471158285767
8.398009856,0.9996548824650071,-75.37652267193575
8.407960064,0.9997367549021338,-75.68934710381893
8.417910272,0.9998322329063272,-76.00334760713153
8.42786048,0.9999366825839844,-76.31869601431328
8.4378112,1.0000447644155743,-76.63549105847527
8.447761408,1.0001507169716382,-76.95374111371481
8.457711616,1.000249276208389,-77.27339938790801
8.467661824,1.000335278427025,-77.59428432305756
8.477612032,1.0004042486114895,-77.91629531385637
8.48756224,1.0004525355567573,-78.23908321461683
8.497512448,1.0004777721952713,-78.56241715176452
8.507462656,1.0004784525406605,-78.88598555020502
8.517412864,1.0004544872489667,-79.20945238345996
8.527363072,1.000407019362646,-79.53252665703783
8.53731328,1.0003383658128002,-79.8548891841128
8.547263488,1.0002520801782173,-80.17632555549368
8.557213696,1.000152696285978,-80.49656097239306
8.567164416,1.0000449164259686,-80.81551509485277
8.577114624,0.9999344879228123,-81.13310397867703
8.587064832,0.9998270208319926,-81.4493215268477
8.597014528,0.999728070929125,-81.76419873562143
8.606964736,0.9996429050076806,-82.07798292732082
8.616914944,0.9995756971744558,-82.3907798009164
8.626866176,0.9995301371048172,-82.70287189237266
8.636816384,0.9995086242802241,-83.0145741465436
8.646766592,0.9995123697549563,-83.32619396918751
8.6567168,0.9995411303878013,-83.63807568660012
8.666667008,0.9995935943790153,-83.9505337608269
8.676617216,0.9996670873782827,-84.2638434429073
8.686567424,0.9997581167996389,-84.57830093075903
8.696517632,0.9998616506362705,-84.89404135862583
8.70646784,0.9999725777118326,-85.21125787182993
8.716418048,1.0000853536069843,-85.52999930391968
8.726368256,1.000194116230275,-85.85021252405058
8.736318464,1.0002930367973446,-86.1718588549993
8.746268672,1.0003772209346822,-86.49474621402865
8.75621888,1.0004423112256786,-86.81867244025553
8.766169088,1.0004848257468157,-87.14336984102098
8.776119296,1.0005023571606941,-87.46851007048998
8.786069504,1.0004942006039446,-87.79378547939676
8.796019712,1.000460505638058,-88.11884072774866
8.80596992,1.0004030437499887,-88.4433626149786
8.815920128,1.000324584297527,-88.7670490424753
8.825870336,1.0002292420376109,-89.08966784826161
8.835820544,1.00012162338734,-89.41103022710428
8.845770752,1.0000075055538598,-89.7309883473197
8.85572096,0.9998924292255383,-90.04950550334314
8.865671168,0.9997827018599529,-90.36659723621597
8.8756224,0.999683527764524,-90.68238110969406
8.885572608,0.9996004667395499,-90.99700311150687
8.895522816,0.9995375750272635,-91.31072270038918
8.905473024,0.9994983142957743,-91.6238327864266
8.915423232,0.9994846990765888,-91.93660281055709
8.92537344,0.9994975700182706,-92.24943395895606
8.935323648,0.9995362037317852,-92.56266228086312
8.945273856,0.9995988825206679,-92.87656501315819
8.955224064,0.9996824936522181,-93.19146966967222
8.965174272,0.9997825295328041,-93.50762180157949
8.97512448,0.9998941465611499,-93.82520688210002
8.985074688,1.0000115468480886,-94.14435792767428
8.995024896,1.0001286373001095,-94.4650896834117
9.004975104,1.0002394138735216,-94.78735714261758
9.014925312,1.0003382854285943,-95.11105308099391
9.02487552,1.0004200661525067,-95.43598677914596
9.034825728,1.000480435083671,-95.76193111859682
9.044775936,1.0005162750053647,-96.08855672667887
9.054726144,1.0005256513221994,-96.41553792268682
9.064676352,1.0005081008227312,-96.74251600009303
9.07462656,1.0004642487401663,-97.06917747340756
9.084576768,1.000396317018296,-97.39514822807436
9.094526976,1.0003078014243854,-97.72019713116953
9.104477184,1.000203109240171,-98.04400891048172
9.114427392,1.0000876358642767,-98.36646244938318
9.1243776,0.9999672112207867,-98.68743022309951
9.134328832,0.9998479947944533,-99.00689269840113
9.14427904,0.9997362316817955,-99.32487581441063
9.154229248,0.999637595903295,-99.64154768085189
9.164179456,0.9995573288015465,-99.95710359756383
9.174129664,0.9994994400554567,-100.2717778893554
9.184079872,0.99946713692843,-100.58589714720725
9.19403008,0.9994621118498497,-100.89983682198793
9.203980288,0.9994847153997947,-101.213926133391
9.213930496,0.9995339256928145,-101.5285331297543
9.223880704,0.9996072859057555,-101.84397793929678
9.233830912,0.9997008514258997,-102.16057565682418
9.24378112,0.999810285128298,-102.47854351155588
9.253731328,0.999929747767275,-102.79805750931463
9.263681536,1.0000532318920479,-103.11918167121301
9.273631744,1.0001742813305,-103.44199096253706
9.283581952,1.0002868017182722,-103.76638769843267
9.29353216,1.0003849098703677,-104.0922129752753
9.303482368,1.0004634796423315,-104.41925198321977
9.313432576,1.0005184995374865,-104.7472234046228
9.323382784,1.0005469964527038,-105.07582146207632
9.333332992,1.0005474237070344,-105.40465639358904
9.3432832,1.00051982584415,-105.73338243350462
9.353233408,1.0004652404332406,-106.06165811593836
9.363183616,1.0003865632337277,-106.38910677416231
9.373133824,1.0002877217734691,-106.71549120356939
9.383085056,1.0001736714451988,-107.0405114141016
9.393035264,1.0000504315475693,-107.36406646771046
9.402985472,0.9999239430311428,-107.68604072283715
9.41293568,0.9998009708905994,-108.00643077684369
9.422885888,0.9996878143243912,-108.32531765517116
9.432836096,0.9995902585804431,-108.6429163309708
9.442786304,0.9995134796639703,-108.95939200481959
9.452736512,0.9994613102357044,-109.27506545483071
9.46268672,0.9994367527389563,-109.59029205414873
9.472636928,0.9994409688828753,-109.90542085096811
9.482587136,0.9994739984824683,-110.22084052256437
9.492537344,0.9995341306737474,-110.53691114442606
9.502487552,0.9996184027825484,-110.85399602731356
9.51243776,0.9997226056053353,-111.17233179205333
9.522387968,0.9998412521308907,-111.49218402305767
9.532338176,0.9999685317480566,-111.81367149403607
9.542288384,1.000097857833172,-112.13694906472814
9.552238592,1.0002224502751356,-112.4618853028867
9.5621888,1.0003360854968497,-112.78845824713753
9.572139008,1.0004327050998876,-113.11647767467554
9.582089216,1.000507513658284,-113.4456727789086
9.592039424,1.0005563332164682,-113.77573884785527
9.601989632,1.000576769781336,-114.1063375345886
9.61193984,1.0005675552462352,-114.43707100786759
9.621890048,1.000529223592901,-114.76755140265942
9.63184128,1.0004634608045395,-115.09743023036768
9.641791488,1.0003736714910587,-115.42635870463612
9.651741696,1.0002642301200488,-115.7540528361917
9.661691904,1.0001409262539134,-116.08030872729015
9.671642112,1.0000097833906518,-116.40494353383815
9.68159232,0.9998776118333766,-116.7279248477625
9.691542528,0.9997513364365055,-117.04926297707745
9.701492736,0.9996372936947346,-117.36909398519552
9.711442944,0.9995414686666835,-117.68760418786152
9.721393152,0.9994689137694082,-118.00504547279593
9.73134336,0.9994233174965186,-118.32176674532035
9.741293568,0.9994071464360786,-118.63813337667072
9.751243776,0.9994214484881132,-118.95452200787696
9.761193984,0.9994654741279599,-119.2713253730515
9.771144192,0.9995371366781024,-119.58893847687811
9.7810944,0.9996327898250459,-119.90771098400518
9.791044608,0.9997475607333771,-120.22789644148456
9.800994816,0.9998757343392932,-120.54972312111818
9.810945024,1.0000106559038908,-120.87332083745731
9.820895232,1.0001455158110901,-121.19873568654344
9.83084544,1.000273294945258,-121.52592291956796
9.840795648,1.0003874368011165,-121.85476207723234
9.850745856,1.000481937579779,-122.1850234266305
9.860696064,1.0005520752225594,-122.51643150303849
9.870646272,1.0005941098138604,-122.84863242226115
9.880597504,1.00060567864751,-123.18124916135343
9.890547712,1.000586243704319,-123.51390659869855
9.90049792,1.0005364436577524,-123.84616680781022
9.910448128,1.0004589946904605,-124.17768449695654
9.920398336,1.0003574886426287,-124.50809925311852
9.930348544,1.0002374428561545,-124.83712078269484
9.940298752,1.0001045237862793,-125.16457379604611
9.95024896,0.9999657518680771,-125.49031326932932
9.960199168,0.9998282570357638,-125.81429133201642
9.970149376,0.9996990239191694,-126.13659116240032
