freq,mag,phase
6.0,1.0001989299909302,-163.83993836955347
6.002285568,1.000111243286463,-163.9905359988076
6.004571648,1.0000161443393814,-164.139786265878
6.006857216,0.9999195989438728,-164.28761314475938
6.009142784,0.9998276760874563,-164.43401504586603
6.011428352,0.9997464225016948,-164.5791458732246
6.013714432,0.9996806645962467,-164.72313298095025
6.016,0.9996347529775739,-164.8662985422487
6.018285568,0.9996115838570883,-165.00891615501874
6.020571648,0.9996127566797306,-165.15134872825104
6.022857216,0.9996380805024803,-165.2939056573848
6.025142784,0.9996860838057793,-165.43697358405754
6.027428352,0.9997536085634594,-165.5808646277779
6.029714432,0.9998364914179593,-165.7258268712306
6.032,0.9999293460218288,-165.87197966490683
6.034285568,1.0000264921246662,-166.01950424728102
6.036571648,1.0001214740013815,-166.16840227152
6.038857216,1.0002085476993312,-166.31855564689633
6.041142784,1.0002820764279141,-166.46987796643273
6.043428352,1.0003374485026955,-166.62206544793636
6.045714432,1.0003709453071625,-166.77486955715213
6.048,1.0003805961624594,-166.92796379315257
6.050285568,1.0003657386165519,-167.08100155446544
6.052571648,1.000327393021684,-167.2335963324912
6.054857216,1.0002678100640023,-167.38546506737913
6.057142784,1.000190816005765,-167.53629658156507
6.059428352,1.0001013696604661,-167.68588117174556
6.061714432,1.0000049377497868,-167.83408780493858
6.064,0.9999078406473603,-167.98082502818013
6.066285568,0.9998160317844823,-168.12619314769773
6.068571648,0.9997356157689589,-168.27021905692794
6.070857216,0.9996714285775878,-168.41318056954634
6.073142784,0.9996277024617064,-168.55533132081905
6.075428352,0.9996072245703864,-168.69696653711105
6.077714432,0.9996113637228394,-168.83843643625985
6.08,0.9996396852691575,-168.98012099598597
6.082285568,0.9996905793277139,-169.12233625758864
6.084571648,0.9997607852117593,-169.26538312545782
6.086857216,0.9998458645755655,-169.40953277604177
6.089142784,0.9999403827938317,-169.55495049826527
6.091428352,1.0000383525912322,-169.70172133292633
6.093714432,1.0001336357665047,-169.84987137609636
6.096,1.0002200392477167,-169.99931277560427
6.098285568,1.0002922896071604,-170.14987291881883
6.100571648,1.000345614988778,-170.30130551354435
6.102857216,1.0003766601310506,-170.45330181700518
6.105142784,1.0003836161388773,-170.6055229093376
6.107428352,1.000365681717987,-170.75767908765266
6.109714432,1.0003242326409705,-170.90933044598071
6.112,1.0002618888534824,-171.06021224525307
6.114285568,1.000182467697115,-171.2100206664312
6.116571648,1.0000909892467054,-171.35854322465048
6.118857216,0.9999933378662935,-171.50565741648518
6.121142784,0.999895751050338,-171.65134985775825
6.123428352,0.999804305483973,-171.795595226499
6.125714432,0.9997248813399625,-171.9385649233614
6.128,0.999662431002201,-172.08045045368465
6.130285568,0.9996210055613801,-172.22155569242406
6.132571648,0.9996032660662939,-172.36218244300414
6.134857216,0.9996103446910705,-172.50269151158898
6.137142784,0.9996416914109635,-172.64344393711383
6.139428352,0.9996956494512744,-172.78478648439764
6.141714432,0.9997684842689016,-172.92700031183213
6.144,0.9998556850391994,-173.0703335443405
6.146285568,0.9999517670849579,-173.2149782020899
6.148571648,1.0000505979278163,-173.36099330382586
6.150857216,1.0001459710147056,-173.50839447781212
6.153142784,1.000231715124355,-173.6570617042476
6.155428352,1.0003024678436432,-173.80685260512362
6.157714432,1.0003537403333327,-173.95746629102987
6.16,1.0003822759525887,-174.10865529223256
6.162285568,1.0003861257215179,-174.26001736406704
6.164571648,1.0003652473444198,-174.4112535267681
6.166857216,1.0003207268556624,-174.56192851735975
6.169142784,1.0002554883077293,-174.7118264715507
6.171428352,1.0001735658220876,-174.86056882978602
6.173714432,1.0000803335338373,-175.00802779611632
6.176,0.9999814880755954,-175.15404132963926
6.178285568,0.9998834112629628,-175.29857233244786
6.180571648,0.9997922929727986,-175.44171443144185
6.182857216,0.9997140679561771,-175.5835830690613
6.185142784,0.9996533661676,-175.7243909019476
6.187428352,0.9996143449291368,-175.86442132777992
6.189714432,0.9995994611653224,-176.0040187222691
6.192,0.9996096110027074,-176.1435832390019
6.194285568,0.9996442036722848,-176.28341158427008
6.196571648,0.9997009447001802,-176.42382203414414
6.198857216,0.9997765078029441,-176.5652029997952
6.201142784,0.9998659454669941,-176.70772453800117
6.203428352,0.999963487668949,-176.8515782988626
6.205714432,1.0000631553420725,-176.99683530263994
6.208,1.0001584911344574,-177.14345088675805
6.210285568,1.0002434054204992,-177.29136519604515
6.212571648,1.0003126570993224,-177.44034041340612
6.214857216,1.000361720176305,-177.5901667348291
6.217142784,1.0003875076047803,-177.74048472026956
6.219428352,1.0003884067586646,-177.89095257554874
6.221714432,1.000364295086073,-178.0412244718001
6.224,1.0003166651509514,-178.190936950076
6.226285568,1.000248651219828,-178.3397657195206
6.228571648,1.0001643138581753,-178.48744525769564
6.230857216,1.0000692962557558,-178.63380143875077
6.233142784,0.999969313291298,-178.77870297608035
6.235428352,0.999870921864682,-178.9221076368538
6.237714432,0.9997802856259372,-179.06407446441182
6.24,0.9997031199410765,-179.20483731703928
6.242285568,0.9996444866260001,-179.3445272415782
6.244571648,0.9996079411878334,-179.4835268835596
6.246857216,0.9995959909659566,-179.6220578940198
6.249142784,0.9996092539559136,-179.76062006800663
6.251428352,0.9996470097591849,-179.89948779024104
6.253714432,0.9997069177434628,179.9609489447483
6.256,0.9997850878531421,179.82043750438018
6.258285568,0.9998766017732548,179.6787244697573
6.260571648,0.9999756738933914,179.53568689348555
6.262857216,1.000076003221724,179.39121170821798
6.265142784,1.0001711502592552,179.24536219998458
6.267428352,1.0002552490952716,179.09824596455886
6.269714432,1.0003228051970947,178.9500547854371
6.272,1.0003695637606136,178.80108116380427
6.274285568,1.0003925093612627,178.65166179725304
6.276571648,1.0003902477959505,178.50210173144578
6.278857216,1.0003628980111778,178.35278540578523
6.281142784,1.0003121223788762,178.2040894975036
6.283428352,1.000241169948347,178.05631497456727
6.285714432,1.0001545075124165,177.90973385402225
6.288,1.000057653726835,177.76449456828712
6.290285568,0.9999566381201691,177.62074980039688
6.292571648,0.9998578833010777,177.47849965151042
6.294857216,0.9997678844743803,177.33766070946197
6.297142784,0.9996921594290641,177.1980589142673
6.299428352,0.9996354778940374,177.05946060643984
6.301714432,0.9996017304962054,176.92159739020482
6.304,0.999592670979929,176.78405494342243
6.306285568,0.9996093039758152,176.64652063113837
6.308571648,0.9996502323066803,176.50857647407213
6.310857216,0.9997132121058624,176.36993163892544
6.313142784,0.9997940124635863,176.23029976401975
6.315428352,0.9998875094307921,176.0894318229877
6.317714432,0.9999880469819756,175.94715588839617
6.32,1.0000890239002838,175.80349995367447
6.322285568,1.000183946412774,175.6584501339137
6.324571648,1.0002669605389642,175.51213581978027
6.326857216,1.0003326354451993,175.36479104676496
6.329142784,1.0003771294604773,175.2166358355439
6.331428352,1.0003971445575992,175.0680962116478
6.333714432,1.0003917438826855,174.91945129141712
6.336,1.000361048260134,174.77114695599246
6.338285568,1.0003071285062917,174.62348587205977
6.340571648,1.0002333197247135,174.476770814566
6.342857216,1.00014426926432,174.3312784738288
6.345142784,1.0000455802323254,174.18719523182006
6.347428352,0.9999437199399416,174.04464673049227
6.349714432,0.9998448522838443,173.90356062497685
6.352,0.9997554737459305,173.76388982335567
6.354285568,0.9996812809433755,173.62545245335355
6.356571648,0.9996267990169148,173.4880115295227
6.358857216,0.9995956417689044,173.3511811757254
6.361142784,0.999589920714545,173.2147253944042
6.363428352,0.9996098338518723,173.0781694193819
6.365714432,0.9996541188842258,172.9411955246569
6.368,0.9997201301815727,172.80345605627912
6.370285568,0.9998035143170543,172.66466652152945
6.372571648,0.9998992069714396,172.52463608849249
6.374857216,1.0000009847426663,172.38319308854562
6.377142784,1.0001024220728896,172.2403113738394
6.379428352,1.0001969699204034,172.09608933211948
6.381714432,1.000278741005208,171.9505665875014
6.384,1.000342720402553,171.80402873465044
6.386285568,1.0003845116769796,171.65677934046278
6.388571648,1.0004015859836723,171.5090985191776
6.390857216,1.0003927963095984,171.36142916275247
6.393142784,1.000358835434212,171.21410523605425
6.395428352,1.0003015680825118,171.06749561644983
6.397714432,1.0002249461851436,170.92189075827096
6.4,1.0001335164404637,170.77754727835125
6.402285568,1.000033212884841,170.6346049404117
6.404571648,0.9999304756286268,170.49319139320207
6.406857216,0.9998315288449328,170.35330017924446
6.409142784,0.999743031315048,170.2148251693831
6.411428352,0.9996703769118485,170.0775495480529
6.413714432,0.9996183832376944,169.9412426910315
6.416,0.9995900503374641,169.8055349720988
6.418285568,0.99958750453161,169.67010494696075
6.420571648,0.9996107277029518,169.53456211035163
6.422857216,0.9996584692153572,169.39854204083366
6.425142784,0.9997274578775595,169.26174057692634
6.427428352,0.9998135997863044,169.123823166903
6.429714432,0.9999111478626228,168.984599393012
6.432,1.0000141459975909,168.84398179767115
6.434285568,1.0001159627075016,168.7018864967275
6.436571648,1.0002101908375762,168.55844247856967
6.438857216,1.000290683923421,168.41373029088035
6.441142784,1.0003524472120446,168.26804283911392
6.443428352,1.0003916348160857,168.12165818195186
6.445714432,1.0004056160735175,167.97492147396161
6.448,1.0003934004600106,167.8282260509957
6.450285568,1.0003559570516745,167.68192803068223
6.452571648,1.0002954859729982,167.53634901868458
6.454857216,1.0002159519190703,167.39184592246102
6.457142784,1.0001222500785718,167.24861952232482
6.459428352,1.000020361548299,167.10691459941853
6.461714432,0.9999167201896949,166.96669075056678
6.464,0.999818042607943,166.8279640459056
6.466285568,0.9997305169791937,166.69068924537908
6.468571648,0.9996595063274181,166.55458383465574
6.470857216,0.9996099257981816,166.4193840541845
6.473142784,0.9995845915326436,166.28478461994087
6.475428352,0.9995854361781646,166.15044207098668
6.477714432,0.9996121672503563,166.01590304077618
6.48,0.9996632565508885,165.88081670720896
6.482285568,0.9997353317556831,165.74491398904877
6.484571648,0.999824089518747,165.6078674473079
6.486857216,0.9999237220596334,165.4694883674087
6.489142784,1.0000277833736413,165.3296781270779
6.491428352,1.0001299018072425,165.18837600473805
6.493714432,1.0002235441840381,165.04572702899233
6.496,1.000302670017344,164.90184141669562
6.498285568,1.0003621963112943,164.75698425671789
6.500571648,1.0003985180484574,164.61147336082044
6.502857216,1.000409211376903,164.4657006509711
6.505142784,1.0003935751771713,164.31995594156592
6.507428352,1.0003526945277526,164.1746578374922
6.509714432,1.000288987978586,164.03017952605808
6.512,1.0002065409494827,163.8867858714981
6.514285568,1.0001104582688154,163.74473010469373
6.516571648,1.0000070833558508,163.60417629933806
6.518857216,0.9999027744111123,163.4651522689315
6.521142784,0.9998043603394392,163.32765836289775
6.523428352,0.9997177487150628,163.19156674653502
6.525714432,0.9996488636248043,163.05661332889923
6.528,0.9996017728325283,162.92258937637993
6.530285568,0.9995795609220449,162.78908414135432
6.532571648,0.9995837715992999,162.65575448152435
6.534857216,0.9996140184592947,162.52223295017262
6.537142784,0.9996685554475213,162.3881261182926
6.539428352,0.9997438919846058,162.25312852098506
6.541714432,0.9998351581588533,162.11694241832356
6.544,0.9999365867310296,161.9793684496514
6.546285568,1.0000417438190095,161.84037071800424
6.548571648,1.0001440898449345,161.69988602637943
6.550857216,1.000236937648605,161.5580369585562
6.553142784,1.0003144456745954,161.41498761753354
6.555428352,1.0003717743619682,161.27097983173925
6.557714432,1.0004051490122379,161.12636248403408
6.56,1.000412415831791,160.98145392332907
6.562285568,1.0003931760765292,160.83673009677568
6.564571648,1.0003486938938475,160.692473923328
6.566857216,1.0002816901049385,160.54906301720825
6.569142784,1.0001964355835529,160.40681006205637
6.571428352,1.0000982585866018,160.26591359957936
6.573714432,0.9999932780427032,160.12654526234942
6.576,0.9998885130959584,159.9887542574258
6.578285568,0.9997902971983016,159.8524321138766
6.580571648,0.9997049826561124,159.71754296060288
6.582857216,0.9996379455131051,159.5837945341294
6.585142784,0.9995937112932405,159.45088890963459
6.587428352,0.9995748781011329,159.31851139631885
6.589714432,0.9995825666601844,159.18623303584425
6.592,0.9996165632256877,159.05367329643127
6.594285568,0.9996745374261796,158.9205096537256
6.596571648,0.9997529235027025,158.7863916471939
6.598857216,0.9998467887883549,158.6510635261802
6.601142784,0.9999500896988477,158.51434193529764
6.603428352,1.0000562338624492,158.37613366246208
6.605714432,1.0001584600899298,158.23645158834586
6.608,1.000250635756284,158.09537993964219
6.610285568,1.000326471018344,157.9531562023295
6.612571648,1.0003812307074786,157.81000706854473
6.614857216,1.0004114699418376,157.6662853882387
6.617142784,1.0004153890672551,157.52232874482172
6.619428352,1.0003924579929608,157.3785571094385
6.621714432,1.0003443524407831,157.23535243161993
6.624,1.0002740153497458,157.0930133163637
6.626285568,1.0001858708151996,156.95191287597004
6.628571648,1.0000854639772019,156.81219046898892
6.630857216,0.9999792744989934,156.67402543382775
6.633142784,0.9998740440091136,156.53744242096113
6.635428352,0.9997762107874855,156.40237283773538
6.637714432,0.9996922674366593,156.2686443622226
6.64,0.9996275258882231,156.13607602320985
6.642285568,0.9995860541116268,156.00429246232218
6.644571648,0.9995704526525807,155.8729989962149
6.646857216,0.9995819365594205,155.7417602712873
6.649142784,0.9996195502975821,155.61020150240373
6.651428352,0.999681151051109,155.47795616119086
6.653714432,0.9997626119443278,155.3447645958842
6.656,0.9998589093878576,155.21025371095652
6.658285568,0.9999639774681126,155.07437062453192
6.660571648,1.0000709543508497,154.93695655345547
6.662857216,1.0001732419204932,154.7980289211428
6.665142784,1.0002642217645046,154.6577633117882
6.667428352,1.0003381234330089,154.51636099637184
6.669714432,1.0003904734680868,154.37405821482733
6.672,1.0004174167145397,154.23122228389713
6.674285568,1.0004176570403716,154.08820574756385
6.676571648,1.000391115170052,153.94544365538653
6.678857216,1.0003393977826818,153.80328186010155
6.681142784,1.0002657421904084,153.66204857192255
6.683428352,1.0001746213838671,153.52206325452394
6.685714432,1.0000722284583132,153.38354439421235
6.688,0.9999646360282534,153.24656445526816
6.690285568,0.9998590668590506,153.11118906006243
6.692571648,0.9997618764251796,152.97733619205076
6.694857216,0.9996794536625888,152.84482790455118
6.697142784,0.9996171295994368,152.71340928604457
6.699428352,0.999578635598588,152.58278695341326
6.701714432,0.999566622753496,152.45256432276582
6.704,0.9995816791464612,152.32232847180438
6.706285568,0.9996231053569998,152.19179196425503
6.708571648,0.999688216949408,152.06045645376543
6.710857216,0.9997728818132766,151.92810280412345
6.713142784,0.999871563376643,151.79443261778883
6.715428352,0.9999782528047524,151.65932259110468
6.717714432,1.0000859061876646,151.52272217171307
6.72,1.000187989844634,151.38461007364674
6.722285568,1.000278002141565,151.2451218235579
6.724571648,1.0003498049856139,151.10450463250376
6.726857216,1.0003992773022325,150.96304989748975
6.729142784,1.0004229546220866,150.8211140275184
6.731428352,1.0004195635543462,150.67903765182098
6.733714432,1.000389162106367,150.53726248490116
6.736,1.0003336131010687,150.39615808995532
6.738285568,1.000256607659404,150.25604316356922
6.740571648,1.0001627736030323,150.11722211567997
6.742857216,1.0000582968987435,149.97985630079316
6.745142784,0.9999495455420667,149.84410378509665
6.747428352,0.9998438262088813,149.70993698747577
6.749714432,0.9997473997820889,149.57727309901034
6.752,0.9996666379513196,149.4459763053216
6.754285568,0.9996066315937803,149.31571869951875
6.756571648,0.9995714638093777,149.186210182654
6.758857216,0.999562913130252,149.05708183840844
6.761142784,0.9995820329892963,148.92787470204922
6.763428352,0.9996272010234392,148.79825863841882
6.765714432,0.9996959315070192,148.66787080389628
6.768,0.9997835567793111,148.53636076871064
6.770285568,0.9998847022037249,148.40352534864496
6.772571648,0.999992964290761,148.2692052955078
6.774857216,1.000101435806084,148.13335175727843
6.777142784,1.000203182200747,147.99599934833947
6.779428352,1.0002917458981084,147.85732105875454
6.781714432,1.0003614665470786,147.71751997504597
6.784,1.0004079820221545,147.57690490881126
6.786285568,1.0004283203015887,147.43584287470486
6.788571648,1.0004210502015243,147.2947012707031
6.790857216,1.000386668037539,147.15394060264936
6.793142784,1.0003275249408985,147.0138698223138
6.795428352,1.0002470383613666,146.8748697623016
6.797714432,1.0001505617498208,146.7371985036677
6.8,1.0000440090440204,146.6010215031711
6.802285568,0.9999343413934759,146.4664828604237
6.804571648,0.9998283313706315,146.33351080617413
6.806857216,0.9997329790595173,146.20207415938887
6.809142784,0.9996540157632126,146.0719603144876
6.811428352,0.9995967084030474,145.9428494115663
6.813714432,0.9995647003535131,145.81446217482284
6.816,0.9995600536723317,145.68637886734655
6.818285568,0.9995829052195448,145.55821432294192
6.820571648,0.9996321090786515,145.42953871151803
6.822857216,0.9997042917613232,145.3000217795022
6.825142784,0.9997949673623077,145.16935596682467
6.827428352,0.9998986176350082,145.03733821819702
6.829714432,1.0000082789927753,144.90378243709753
6.832,1.000117240378707,144.7687001091785
6.834285568,1.0002183694953717,144.63211539837715
6.836571648,1.0003054688890978,144.49417900504199
6.838857216,1.0003729021659948,144.35516704494833
6.841142784,1.0004163622404973,144.2154006100234
6.843428352,1.000432965452525,144.07523842803775
6.845714432,1.0004218737038202,143.9350747004469
6.848,1.0003835580814215,143.7952762733831
6.850285568,1.0003205105399897,143.65627275446016
6.852571648,1.0002368152661054,143.5183663244645
6.854857216,1.0001375309475724,143.38186278030108
6.857142784,1.0000291248425963,143.24685633724724
6.859428352,0.99991855054865,143.11349203001683
6.861714432,0.9998126635545299,142.98176572103858
6.864,0.9997181928925114,142.851517004909
6.866285568,0.9996413106194315,142.7225934382909
6.868571648,0.9995868222168491,142.5946125575212
6.870857216,0.9995582185680318,142.46733610105096
6.873142784,0.999557356186825,142.3402938011226
6.875428352,0.9995843429238226,142.2130952634284
6.877714432,0.9996373927929073,142.08534952924933
6.88,0.9997133674195406,141.95671856697362
6.882285568,0.9998070367255377,141.82689224814234
6.884571648,0.9999128222517841,141.69565303391312
6.886857216,1.0000239309376762,141.5628545047426
6.889142784,1.0001331913304954,141.42852913925677
6.891428352,1.0002337553537768,141.2926767254019
6.893714432,1.000319293593646,141.15554497842828
6.896,1.0003841315271156,141.0173178782255
6.898285568,1.0004243611135315,140.8783741365041
6.900571648,1.0004373059648828,140.73908018978972
6.902857216,1.0004221497822137,140.5998604001177
6.905142784,1.0003798289665897,140.4610656276013
6.907428352,1.0003129316054231,140.3231109598913
6.909714432,1.0002258912386461,140.18631348237184
6.912,1.0001239529200625,140.05094981735746
6.914285568,1.0000137654608225,139.9171374503804
6.916571648,0.9999023415922871,139.7849982123078
6.918857216,0.9997966481742833,139.6544591996711
6.921142784,0.9997034447511406,139.52541337294812
6.923428352,0.9996287665480831,139.39764408095348
6.925714432,0.9995773181494709,139.27082959703964
6.928,0.9995522238986552,139.14459664183238
6.930285568,0.9995554112710816,139.01858330213994
