freq,mag,phase
6.0,0.9997570633846383,-129.18666231983383
6.002285568,0.9997038449069038,-129.3305299230958
6.004571648,0.9996691686505678,-129.47375900159628
6.006857216,0.999655510903249,-129.61666441393274
6.009142784,0.9996637027797661,-129.7594852055151
6.011428352,0.9996932617719586,-129.9025427433599
6.013714432,0.9997422908759788,-130.04618039418617
6.016,0.9998077343082236,-130.19062269473213
6.018285568,0.9998854848536164,-130.33609072650563
6.020571648,0.9999706324398028,-130.48271439466376
6.022857216,1.0000576904154448,-130.6306019897445
6.025142784,1.0001414122253312,-130.7797279517889
6.027428352,1.0002161574431072,-130.9299763523503
6.029714432,1.00027734389643,-131.08118094261434
6.032,1.000321166257147,-131.23313790143834
6.034285568,1.0003447972682895,-131.3855673120585
6.036571648,1.0003465594665681,-131.53821220210835
6.038857216,1.000326476549202,-131.69067256068695
6.041142784,1.0002857884675502,-131.84269748859688
6.043428352,1.0002270478252,-131.99397889444418
6.045714432,1.0001538003292572,-132.1443091023947
6.048,1.000070820505705,-132.2934767301197
6.050285568,0.9999834357717047,-132.44137524033775
6.052571648,0.9998969033756685,-132.5880228031744
6.054857216,0.9998169803894845,-132.73345007902398
6.057142784,0.9997485258822761,-132.87777913527196
6.059428352,0.999695994652275,-133.02120819973078
6.061714432,0.9996627251334936,-133.16395749193805
6.064,0.9996507974075889,-133.30639061950492
6.066285568,0.9996610847973669,-133.44879316005282
6.068571648,0.9996929343602572,-133.5914890380003
6.070857216,0.9997441658645428,-133.73475698572898
6.073142784,0.9998118340909534,-133.87891703264367
6.075428352,0.9998915031182664,-134.02411050238376
6.077714432,0.9999782248953973,-134.1704445290308
6.08,1.00006647308124,-134.31807214590202
6.082285568,1.0001506157797617,-134.46694188849946
6.084571648,1.0002253997247084,-134.61694552084037
6.086857216,1.0002860192099055,-134.76794199090543
6.089142784,1.0003286586698388,-134.91963406336595
6.091428352,1.0003505873352945,-135.0718065720317
6.093714432,1.0003503731920405,-135.22410581593599
6.096,1.0003281683573604,-135.3762387543321
6.098285568,1.0002851607531322,-135.52788268175112
6.100571648,1.0002241299155041,-135.67875399120254
6.102857216,1.000148790889069,-135.82864127456412
6.105142784,1.000064119942552,-135.97730771350913
6.107428352,0.9999753006073895,-136.1247497637113
6.109714432,0.9998880710961304,-136.27086822809105
6.112,0.999807808971606,-136.41573974541535
6.114285568,0.9997397795803873,-136.5595250355112
6.116571648,0.999688123273082,-136.7024321528554
6.118857216,0.9996563112250778,-136.8446850903538
6.121142784,0.9996462224553535,-136.98666629726168
6.123428352,0.9996586608021517,-137.12862183677504
6.125714432,0.9996927514088683,-137.27086890709487
6.128,0.9997463929168633,-137.41375965842988
6.130285568,0.9998163023044029,-137.5575126862359
6.132571648,0.9998978969125947,-137.70236164602005
6.134857216,0.999986147083451,-137.84841597269372
6.137142784,1.000075455398213,-137.99574380860432
6.139428352,1.0001600479442674,-138.1443059621433
6.141714432,1.0002347449534295,-138.2940333427242
6.144,1.0002946939248232,-138.44474041652023
6.146285568,1.0003361151192312,-138.5961367601324
6.148571648,1.0003564251647126,-138.74795633239862
6.150857216,1.0003541788368695,-138.89990352261486
6.153142784,1.0003296867783749,-139.0516109554742
6.155428352,1.0002841901435928,-139.2028641626982
6.157714432,1.00022094150742,-139.35327423507727
6.16,1.000143547832304,-139.50263710664814
6.162285568,1.0000571029791991,-139.65080710417715
6.164571648,0.9999670007795012,-139.79765561542146
6.166857216,0.9998789989848719,-139.9431942620816
6.169142784,0.9997986192422857,-140.08752220868337
6.171428352,0.9997309436456934,-140.23068692113267
6.173714432,0.9996803024831495,-140.37304281255294
6.176,0.9996499282601473,-140.514780902495
6.178285568,0.9996417648935536,-140.65618291635082
6.180571648,0.9996563911226948,-140.79763972897464
6.182857216,0.9996928567574257,-140.93943237822302
6.185142784,0.9997488914043818,-141.08185801724267
6.187428352,0.9998209929334031,-141.22520842153367
6.189714432,0.999904565613017,-141.369667913392
6.192,0.9999942546542077,-141.51538723187682
6.194285568,1.0000845144466144,-141.66237091063073
6.196571648,1.0001696583070616,-141.81059857633397
6.198857216,1.0002441830261366,-141.9600009345705
6.201142784,1.0003034112967284,-142.11031150542942
6.203428352,1.0003434995785228,-142.26135771988592
6.205714432,1.0003620125324775,-142.41281756183355
6.208,1.000357688997683,-142.56433443962666
6.210285568,1.0003308474380688,-142.71563723324294
6.212571648,1.0002830608474949,-142.8663784574029
6.214857216,1.0002172788903796,-143.0162418105077
6.217142784,1.0001379087747186,-143.16507220034273
6.219428352,1.000049683856581,-143.31265020644713
6.221714432,0.9999583624967432,-143.45890061608273
6.224,0.9998695693231281,-143.603811736578
6.226285568,0.9997891206699218,-143.7475037187667
6.228571648,0.9997219744336806,-143.89009885505183
6.230857216,0.9996724289634666,-144.03179382077678
6.233142784,0.999643623608598,-144.17288942791973
6.235428352,0.9996375212038653,-144.3137477579389
6.237714432,0.9996544363542741,-144.45462614983197
6.24,0.9996932642543811,-144.59589392804637
6.242285568,0.999751759638584,-144.73784701957499
6.244571648,0.9998260740378045,-144.88078676332051
6.246857216,0.9999115524622982,-145.02480698554294
6.249142784,1.000002826047849,-145.17011223040208
6.251428352,1.0000940354479955,-145.31668978989677
6.253714432,1.0001795109240117,-145.46456279330008
6.256,1.000253754508169,-145.61359881303386
6.258285568,1.0003121630955332,-145.7635187986628
6.260571648,1.0003508959342526,-145.91416060364733
6.262857216,1.0003675816151414,-146.0652124694656
6.265142784,1.0003610666330027,-146.2162611040808
6.267428352,1.0003318263502652,-146.3670737491405
6.269714432,1.0002815059128976,-146.5172627149858
6.272,1.0002134952334159,-146.66657300361746
6.274285568,1.0001318857172052,-146.81477544756837
6.276571648,1.0000420364924096,-146.961735910595
6.278857216,0.999949357077493,-147.10734814642566
6.281142784,0.9998599910692355,-147.25158719589118
6.283428352,0.9997793911359124,-147.3945939152042
6.285714432,0.9997128622947478,-147.53648355330364
6.288,0.9996644983165078,-147.67750563139478
6.290285568,0.9996373782049731,-147.81797824968572
6.292571648,0.9996332718893,-147.95820114701397
6.294857216,0.9996525865249571,-148.0984870044964
6.297142784,0.9996939252162599,-148.23922293099778
6.299428352,0.9997548851033179,-148.3806425121894
6.301714432,0.9998313690975267,-148.5230318218635
6.304,0.9999188376512939,-148.66661391441338
6.306285568,1.000011514714765,-148.8114582457903
6.308571648,1.0001037202132168,-148.95763641929008
6.310857216,1.0001895610558011,-149.10509221675977
6.313142784,1.0002635181361665,-149.25368274589187
6.315428352,1.000320980937315,-149.40320498190306
6.317714432,1.000358241903927,-149.55338750957438
6.32,1.000373028058043,-149.70397144060087
6.322285568,1.0003641658405402,-149.85450461499536
6.324571648,1.0003324878495714,-150.00475843621308
6.326857216,1.0002797046501157,-150.15437066234134
6.329142784,1.0002093170770063,-150.30307392414426
6.331428352,1.000125600711314,-150.4506469155812
6.333714432,1.0000339859015397,-150.59690416806168
6.336,0.9999402365535655,-150.741780163844
6.338285568,0.9998502461224711,-150.8853179115361
6.340571648,0.9997696805524997,-151.0275885496451
6.342857216,0.9997037358814855,-151.16878123706294
6.345142784,0.9996566097031264,-151.3090907897799
6.347428352,0.9996312426433925,-151.44883866579548
6.349714432,0.9996293480121028,-151.5884448052078
6.352,0.9996509975583988,-151.72808530733047
6.354285568,0.9996949317734631,-151.8682198714937
6.356571648,0.9997582293881423,-152.00908165528924
6.358857216,0.9998370656780581,-152.15093468477255
6.361142784,0.9999264130589306,-152.29399774925687
6.363428352,1.0000205650111944,-152.43840155144875
6.365714432,1.0001136679796154,-152.58412105061188
6.368,1.0001997391339221,-152.73110403999405
6.370285568,1.0002732970004118,-152.87920755083812
6.372571648,1.000329820477638,-153.0283015900631
6.374857216,1.0003655199252994,-153.17798441336254
6.377142784,1.0003782071563267,-153.3279927865618
6.379428352,1.0003671507684093,-153.47802970452418
6.381714432,1.0003328084895302,-153.62765486625244
6.384,1.0002774852584995,-153.7766437653668
6.386285568,1.0002047265807121,-153.9246979883484
6.388571648,1.0001188684936007,-154.0715422461854
6.390857216,1.0000256634219695,-154.21706228970584
6.393142784,0.9999306661177153,-154.36121690578867
6.395428352,0.9998400863466429,-154.5039853197537
6.397714432,0.9997596651363794,-154.64548736571135
6.4,0.9996944993823572,-154.78590475998712
6.402285568,0.9996486447830895,-154.92545931192174
6.404571648,0.999625194672098,-155.06450221693757
6.406857216,0.999625525501318,-155.2033510144822
6.409142784,0.99964961275208,-155.3423650215288
6.411428352,0.9996961463655226,-155.48181761043827
6.413714432,0.9997620109380512,-155.62208468398973
6.416,0.9998431989104377,-155.76341600782604
6.418285568,0.9999344161156766,-155.90590775857703
6.420571648,1.000030012158888,-156.04979151300154
6.422857216,1.0001239605854388,-156.1950264362309
6.425142784,1.0002101537962165,-156.34147457106698
6.427428352,1.0002832852217296,-156.4891413607847
6.429714432,1.000338682267467,-156.63768483963364
6.432,1.0003727454440248,-156.78683105434644
6.434285568,1.0003833901160433,-156.93629828493454
6.436571648,1.000369809194184,-157.0857049164373
6.438857216,1.0003329714894469,-157.23475307725155
6.441142784,1.0002750469528643,-157.3830780540294
6.443428352,1.0001997952391977,-157.53038801779306
6.445714432,1.0001118914696976,-157.67649638264092
6.448,1.0000168927349908,-157.8212479041345
6.450285568,0.9999208855737474,-157.9646055306758
6.452571648,0.9998297731551814,-158.10657237757692
6.454857216,0.9997495290507749,-158.247267429942
6.457142784,0.9996851666769816,-158.38685571276537
6.459428352,0.9996407808227792,-158.5256470351164
6.461714432,0.9996192620582585,-158.66389887366867
6.464,0.9996218314809892,-158.80199763859628
6.466285568,0.9996486380004656,-158.94028931727266
6.468571648,0.9996977150648766,-159.0791013702729
6.470857216,0.9997662214395823,-159.21875842512395
6.473142784,0.9998496665576262,-159.35945846390248
6.475428352,0.9999428007218881,-159.50143588529212
6.477714432,1.0000397832037564,-159.64472142212256
6.48,1.0001344659223852,-159.7894080031506
6.482285568,1.0002208010434177,-159.93537029372888
6.484571648,1.0002934022772079,-160.08247900853672
6.486857216,1.0003476146338148,-160.23044776956272
6.489142784,1.000379895259623,-160.3790604047663
6.491428352,1.0003883334211237,-160.5279141658489
6.493714432,1.0003722514016309,-160.67672422433057
6.496,1.0003326980953584,-160.82504822118307
6.498285568,1.0002722249897047,-160.97265130454713
6.500571648,1.000194464026762,-161.11921431843055
6.502857216,1.0001044028761206,-161.26452794101036
6.505142784,1.0000078639583492,-161.40848841101246
6.507428352,0.9999106242121539,-161.55100412127663
6.509714432,0.9998192043303425,-161.69208798148136
6.512,0.9997392387048002,-161.83192659945811
6.514285568,0.9996757731330241,-161.97070268132418
6.516571648,0.9996329432151528,-162.10865238211576
6.518857216,0.9996133674384512,-162.2461317482297
6.521142784,0.9996185211562262,-162.38343053517934
6.523428352,0.9996477983712861,-162.5209980293545
6.525714432,0.999699671086564,-162.65908875695925
6.528,0.9997706838124041,-162.7980803423569
6.530285568,0.9998564576053994,-162.938129317734
6.532571648,0.9999515128267029,-163.07950159486793
6.534857216,1.0000498779023868,-163.22223735867786
6.537142784,1.000145195799144,-163.36634849377316
6.539428352,1.0002315702856412,-163.51176220714817
6.541714432,1.0003035259872697,-163.65828844532393
6.544,1.0003563929791552,-163.80569762458748
6.546285568,1.0003869854043121,-163.9536940970724
6.548571648,1.0003930697088117,-164.1019066086349
6.550857216,1.0003744031003314,-164.25002516899562
6.553142784,1.000332142691382,-164.39765688759763
6.555428352,1.0002688904525154,-164.54452950473808
6.557714432,1.0001886690388546,-164.6903071514
6.56,1.000096537689799,-164.83478514936996
6.562285568,0.9999983078504245,-164.97787740591517
6.564571648,0.9999001191467205,-165.1195136975716
6.566857216,0.9998083177051662,-165.2597206280225
6.569142784,0.999728720201497,-165.39865266931108
6.571428352,0.9996663075808405,-165.53654362511028
6.573714432,0.9996250620809946,-165.67360944727477
6.576,0.9996076497134124,-165.81025934973943
6.578285568,0.9996151978994492,-165.94679092743337
6.580571648,0.9996473361275753,-166.08356100713698
6.582857216,0.9997019760254068,-166.22092617553534
6.585142784,0.9997756209081261,-166.35919987048226
6.587428352,0.9998636796636504,-166.4986349464665
6.589714432,0.9999605934459519,-166.63936142854791
6.592,1.0000602713286502,-166.78149875452993
6.594285568,1.0001562683649874,-166.92500614903793
6.596571648,1.000242692558483,-167.06982943437936
6.598857216,1.0003138359452475,-167.21577693902398
6.601142784,1.0003654021156858,-167.36257236814185
6.603428352,1.0003938953056508,-167.50991185144204
6.605714432,1.0003976836451427,-167.65747060471298
6.608,1.0003763576435045,-167.80487613459778
6.610285568,1.000331229075757,-167.95176669412157
6.612571648,1.0002652476590255,-168.09781329498102
6.614857216,1.000182535183429,-168.2427651002739
6.617142784,1.000088276888763,-168.38639913534155
6.619428352,0.9999884450744321,-168.52858245613373
6.621714432,0.9998893403284684,-168.6692870770351
6.624,0.9997972732430337,-168.80860079584392
6.626285568,0.9997181031518734,-168.94660267203173
6.628571648,0.9996568291007351,-169.08357462598377
6.630857216,0.999617271882757,-169.2197451902247
6.633142784,0.9996021201847929,-169.3555316633676
6.635428352,0.999612363809894,-169.4912034463619
6.637714432,0.9996472378749224,-169.62719459308482
6.64,0.9997045788464817,-169.76381056293675
6.642285568,0.9997809801114667,-169.9013654627592
6.644571648,0.9998713723350268,-170.04012314234575
6.646857216,0.9999700948228262,-170.18020079898398
6.649142784,1.0000710865175675,-170.32169813622224
6.651428352,1.0001676885918374,-170.4645989280101
6.653714432,1.0002538661253075,-170.60877908807905
6.656,1.000324278110547,-170.75410061865546
6.658285568,1.000374248041921,-170.90024756459053
6.660571648,1.000400792102638,-171.04695120791934
6.662857216,1.0004019818023286,-171.1938042562828
6.665142784,1.00037791662691,-171.34044916852045
6.667428352,1.000329899317018,-171.48655040023962
6.669714432,1.0002611110919288,-171.63176714835677
6.672,1.0001759880873387,-171.77587956966627
6.674285568,1.0000795906712636,-171.91859197345588
6.676571648,0.9999781452905314,-172.0598721444221
6.678857216,0.9998781541263748,-172.19961747155406
6.681142784,0.9997858705984692,-172.33794901196808
6.683428352,0.9997071833065558,-172.47502195441655
6.685714432,0.9996471766037255,-172.61103728005313
6.688,0.9996095105979426,-172.74630923988892
6.690285568,0.9995967202036731,-172.8811671751943
6.692571648,0.999609638297872,-173.0159745414074
6.694857216,0.9996474129464649,-173.1511537162744
6.697142784,0.9997076897542334,-173.28698740523257
6.699428352,0.999786770307766,-173.42382504690892
6.701714432,0.9998794715397954,-173.56182746855623
6.704,0.9999800528972951,-173.7012447142603
6.706285568,1.0000822186625316,-173.8421072246237
6.708571648,1.0001793610141962,-173.9843620874282
6.710857216,1.0002653478429728,-174.12792490829602
6.713142784,1.0003347616593066,-174.27260720936303
6.715428352,1.0003831167534858,-174.4180800435581
6.717714432,1.0004074184281269,-174.5640578788267
6.72,1.0004060768759144,-174.71017094681872
6.722285568,1.000379167163092,-174.85605297004088
6.724571648,1.0003282929842896,-175.00135113957964
6.726857216,1.000256664600935,-175.14571498278482
6.729142784,1.000168920321637,-175.28887864083867
6.731428352,1.00007032984737,-175.4306877958291
6.733714432,0.9999675142849085,-175.57098334363246
6.736,0.9998666610975462,-175.70977693672046
6.738285568,0.9997742713548474,-175.84711527470122
6.740571648,0.9996961918732017,-175.9831933632279
6.742857216,0.9996374277339728,-176.11823653274743
6.745142784,0.9996018000711212,-176.252544257212
6.747428352,0.9995914179158575,-176.38649584003136
6.749714432,0.9996071157405249,-176.52043554287752
6.752,0.9996479370924396,-176.65476278328137
6.754285568,0.9997112032775376,-176.78981389826424
6.756571648,0.9997928515095683,-176.92587140824688
6.758857216,0.9998879497095522,-177.0631782672455
6.761142784,0.9999904311101154,-177.2018909822849
6.763428352,1.0000936712773592,-177.34208294852493
6.765714432,1.000191244807059,-177.48366896232378
6.768,1.0002769575196415,-177.62656025222935
6.770285568,1.0003452303850973,-177.770536062126
6.772571648,1.0003919502857772,-177.91535914320892
6.774857216,1.0004139671605277,-178.06060848939552
6.777142784,1.0004099102131876,-178.20596382139632
6.779428352,1.0003799943284284,-178.3510393624965
6.781714432,1.0003261935476362,-178.49549277678648
6.784,1.000251675237366,-178.6389747772591
6.786285568,1.0001613531482505,-178.78124285093108
6.788571648,1.0000607541617077,-178.92205429100474
6.790857216,0.9999563863990559,-179.0613422557536
6.793142784,0.9998547271960836,-179.19912259250498
6.795428352,0.9997623700933487,-179.33544507965868
6.797714432,0.9996850605086195,-179.47050434854722
6.8,0.9996277961137875,-179.60454841925574
6.802285568,0.9995942403691235,-179.73788990421767
6.804571648,0.9995864374006174,-179.8709006011845
6.806857216,0.9996050619900294,179.99605761227755
6.809142784,0.9996488225418713,179.86260613282636
6.811428352,0.9997151185850878,179.72837107521008
6.813714432,0.999799553198706,179.59306646880069
6.816,0.9998969866022533,179.45650546877388
6.818285568,1.0000011768039927,179.3185116803542
6.820571648,1.0001055282895803,179.17901649502107
6.822857216,1.000203409782726,179.03811746696178
6.825142784,1.0002888402661714,178.89588090095688
6.827428352,1.0003559323019984,178.75256772164656
6.829714432,1.000400757988966,178.6084893074438
6.832,1.000420396476551,178.46397935349887
6.834285568,1.0004135092052795,178.3194244628506
6.836571648,1.000380684836605,178.17515952823945
6.838857216,1.0003235937453034,178.03160514652606
6.841142784,1.0002462622416908,177.88902131188203
6.843428352,1.0001533266834455,177.74775839978184
6.845714432,1.0000506123774486,177.60792979315693
6.848,0.9999448537255017,177.46961044382272
6.850285568,0.999842519840427,177.33289835508958
6.852571648,0.9997503085997329,177.1976106839881
6.854857216,0.9996738040481256,177.06358165466182
6.857142784,0.9996181315861158,176.93059534512162
6.859428352,0.9995867115338284,176.79820443778743
6.861714432,0.999581681855053,176.66618101821115
6.864,0.9996032692028455,176.53405168209372
6.866285568,0.9996501455943076,176.40146952797286
6.868571648,0.9997194323507318,176.26803013527152
6.870857216,0.9998066714921953,176.13355866619068
6.873142784,0.9999064135914268,175.99773612975753
6.875428352,1.000012311137752,175.86047479082634
6.877714432,1.0001177053620793,175.72166025479487
6.88,1.0002158827341399,175.58145277766687
6.882285568,1.0003006934324745,175.43992918293296
6.884571648,1.0003665723658701,175.29733030271296
6.886857216,1.0004094139945703,175.15401133756572
6.889142784,1.0004264847369662,175.01024771238156
6.891428352,1.0004166719023087,174.8665076809555
6.893714432,1.0003806917805622,174.7231125290297
6.896,1.0003205959637624,174.5804108900286
6.898285568,1.0002402899056508,174.43882388860868
6.900571648,1.0001447769514467,174.2985158885562
6.902857216,1.0000400655248793,174.15971354574674
6.905142784,0.9999329260276284,174.02243940046486
6.907428352,0.9998299752992785,173.8868009019846
6.909714432,0.9997378334655811,173.75258540416803
6.912,0.9996624273365381,173.6196198607324
6.914285568,0.9996084283393575,173.48762656131285
6.916571648,0.9995794383876669,173.3562590393351
6.918857216,0.9995770564258543,173.22521062612157
6.921142784,0.9996018157352734,173.09402144165273
