freq,mag,phase
6.0,0.999487094155231,131.83325865302288
6.002285568,0.9995978342536378,131.70074634886913
6.004571648,0.9997347698694671,131.5664967046824
6.006857216,0.9998891158282619,131.43021468483317
6.009142784,1.0000513288603095,131.29164620754543
6.011428352,1.000211047089393,131.15083853551934
6.013714432,1.0003580465473183,131.00782146325466
6.016,1.000483263379995,130.862904241396
6.018285568,1.0005784168553467,130.71639882470245
6.020571648,1.0006375684719224,130.5688717951323
6.022857216,1.0006570023967893,130.42082623594388
6.025142784,1.0006354319321493,130.27283284166344
6.027428352,1.0005741391928074,130.12548427745236
6.029714432,1.000476898632746,129.97933398636903
6.032,1.0003498805175313,129.83488554846883
6.034285568,1.0002012710055292,129.6924978557191
6.036571648,1.0000400617001006,129.55239662820267
6.038857216,0.9998769870022279,129.41468954478393
6.041142784,0.999721866520066,129.27940028486657
6.043428352,0.9995847597086005,129.14628242591567
6.045714432,0.9994745063228092,129.0150214657441
6.048,0.9993980742757507,128.88518115767937
6.050285568,0.9993604526436036,128.756225709922
6.052571648,0.9993638314691567,128.6275788531624
6.054857216,0.999408137921339,128.49865484794745
6.057142784,0.9994907305953236,128.36886247933387
6.059428352,0.9996062301303344,128.23770702391596
6.061714432,0.9997474269154888,128.10471220091247
6.064,0.999905462798018,127.9696100513222
6.066285568,1.0000702990030965,127.8322044992518
6.068571648,1.0002312381263545,127.69251052649113
6.070857216,1.0003781992573875,127.55062197913192
6.073142784,1.0005021956871436,127.40675446129056
6.075428352,1.0005949154096416,127.26146447281931
6.077714432,1.0006505573828046,127.11510454037825
6.08,1.0006655181204003,126.96826345213755
6.082285568,1.0006389596036824,126.82160490885256
6.084571648,1.0005724480688323,126.67563768586528
6.086857216,1.000470097448933,126.53093816848641
6.089142784,1.0003383767433454,126.38799461874196
6.091428352,1.0001858019509966,126.24718891953648
6.093714432,1.000021597120778,126.10871970385756
6.096,0.9998563471092444,125.97272062987892
6.098285568,0.999700775211406,125.83906364308609
6.100571648,0.9995645553930663,125.70759912256389
6.102857216,0.9994563490873624,125.5780107654105
6.105142784,0.9993830692108342,125.44977054116069
6.107428352,0.9993494951175516,125.32238091241635
6.109714432,0.999357759128632,125.1952434988495
6.112,0.9994073330647336,125.06773820018789
6.114285568,0.999495207398166,124.93928975376711
6.116571648,0.9996157559930311,124.80937972326787
6.118857216,0.9997613674373524,124.6775859328132
6.121142784,0.9999229131960626,124.5436034063549
6.123428352,1.0000899849815896,124.40729504440351
6.125714432,1.0002521709292016,124.26861861520032
6.128,1.0003992225482892,124.12778824676198
6.130285568,1.000521406222977,123.9850278637797
6.132571648,1.0006113274664494,123.84078884154067
6.134857216,1.000663167307474,123.69553668667518
6.137142784,1.0006735123584205,123.54992940145279
6.139428352,1.000641884630117,123.40449113972768
6.141714432,1.0005699613132437,123.25986133565829
6.144,1.0004623270339383,123.11660860222841
6.146285568,1.0003259182083752,122.97513222336862
6.148571648,1.0001691691363095,122.83585530790741
6.150857216,1.0000021666526913,122.6989806203711
6.153142784,0.9998351833528953,122.56457117328185
6.155428352,0.99967916477879,122.43256574631877
6.157714432,0.9995440095709116,122.30276139110615
6.16,0.9994379436330126,122.17475930115332
6.162285568,0.9993682031155331,122.04809353398768
6.164571648,0.9993390875170851,121.92221172208045
6.166857216,0.9993523852737849,121.79647883851749
6.169142784,0.9994074038109079,121.67033991602474
6.171428352,0.9995007045726462,121.54311899201333
6.173714432,0.9996262249316579,121.41442654638637
6.176,0.9997763806122398,121.28375372062442
6.178285568,0.9999413457695254,121.15083644316054
6.180571648,1.0001107211317823,121.01553873229719
6.182857216,1.0002737537983566,120.87785550356226
6.185142784,1.0004203150953674,120.7380087824235
6.187428352,1.0005408847141315,120.59623643760838
6.189714432,1.0006278165538616,120.45303075740998
6.192,1.0006756110174126,120.30886769464082
6.194285568,1.0006810919179676,120.16436847970645
6.196571648,1.000643996828694,120.02015868276678
6.198857216,1.0005664864495847,119.87683553969602
6.201142784,1.0004536325205768,119.73492868514771
6.203428352,1.0003123115627774,119.59488591486546
6.205714432,1.0001515982729023,119.4571192717095
6.208,0.9999816502603038,119.32179400033468
6.210285568,0.9998133121082149,119.18895089950655
6.212571648,0.9996570044131456,119.05857196820978
6.214857216,0.9995229507022972,118.93034073986331
6.217142784,0.9994196038067521,118.80389010156647
6.219428352,0.9993534667718592,118.67871732029029
6.221714432,0.9993288876821761,118.55424441720226
6.224,0.9993475098185258,118.429929622411
6.226285568,0.999408132751054,118.30504289334324
6.228571648,0.9995070002175015,118.17906759135883
6.230857216,0.9996377727511346,118.05146051675206
6.233142784,0.9997922103060899,117.92183281168825
6.235428352,0.9999606768088038,117.78991125928445
6.237714432,1.0001322483477788,117.65556599141738
6.24,1.0002961667279764,117.51881700876118
6.242285568,1.0004419801378837,117.37988261549967
6.244571648,1.000560617954144,117.23904264473455
6.246857216,1.0006441741991832,117.0967965816345
6.249142784,1.0006876214081926,116.95367893089123
6.251428352,1.0006880429350073,116.81028907145458
6.253714432,1.0006452283866816,116.66722579133047
6.256,1.0005622462243737,116.5251246450037
6.258285568,1.0004437901243701,116.38455494414987
6.260571648,1.0002976691560046,116.24594520593715
6.262857216,1.000133050135341,116.1096165464392
6.265142784,0.9999603874001783,115.9757956135011
6.267428352,0.9997905482171274,115.8445091281886
6.269714432,0.9996342717154196,115.71567186644198
6.272,0.9995016664773538,115.58896803558832
6.274285568,0.9994012009786991,115.46400984933435
6.276571648,0.9993389970294123,115.34029726973088
6.278857216,0.999319398236232,115.21724327546731
6.281142784,0.9993435538863423,115.09418302674227
6.283428352,0.9994098304208977,114.97054246521871
6.285714432,0.9995144158064058,114.84566970290383
6.288,0.9996504028571753,114.71911801859356
6.290285568,0.999809363274661,114.5904926457292
6.292571648,0.9999810217546502,114.45950863430498
6.294857216,1.0001546872603804,114.32603236205568
6.297142784,1.0003190936691522,114.19013098982184
6.299428352,1.0004642395795202,114.05205343552532
6.301714432,1.0005804302402956,113.9121123279593
6.304,1.0006604947335438,113.77078810309332
6.306285568,1.000699393993765,113.62863340986162
6.308571648,1.0006942907343748,113.48629490701678
6.310857216,1.0006459566452914,113.34435154206528
6.313142784,1.000556881433023,113.2034700114312
6.315428352,1.0004329197936694,113.0641857592834
6.317714432,1.0002820297144757,112.92691451365782
6.32,1.0001134005560093,112.79201610235866
6.322285568,0.9999381309111254,112.65966456160413
6.324571648,0.9997671308314531,112.5298924694833
6.326857216,0.99961118487816,112.40253236064763
6.329142784,0.9994802846262023,112.2773066694475
6.331428352,0.9993826734770598,112.15381651716417
6.333714432,0.9993248647009227,112.0314944729304
6.336,0.9993103805754427,111.90974007710888
6.338285568,0.9993402773255563,111.78794674859748
6.340571648,0.9994126724300214,111.66544143376821
6.342857216,0.9995229431954492,111.54165887210334
6.345142784,0.9996641031793857,111.41607610001813
6.347428352,0.9998273924068409,111.28836449387856
6.349714432,1.000002387278357,111.1582112434471
6.352,1.0001779163881683,111.02555942793038
6.354285568,1.000342880769285,110.89046008834575
6.356571648,1.0004866177257543,110.75317850071356
6.358857216,1.0006004629215595,110.6140318190013
6.361142784,1.000676636521325,110.47359234871156
6.363428352,1.0007106878205083,110.33236752703726
6.365714432,1.0007000592355833,110.1910220242424
6.368,1.000645534101498,110.05017397910608
6.370285568,1.000550680185474,109.91045841930669
6.372571648,1.0004211231062552,109.77239386850268
6.374857216,1.0002653109580182,109.63644131030243
6.377142784,1.0000929410206445,109.50293328068653
6.379428352,0.9999151022881899,109.37204144546598
6.381714432,0.999742957028502,109.24367939805545
6.384,0.9995874143113094,109.11781526756847
6.386285568,0.9994584363043889,108.99400056834213
6.388571648,0.9993643305162847,108.87191362616524
6.390857216,0.9993109767308596,108.75093460230664
6.393142784,0.9993019636906886,108.63043632448829
6.395428352,0.9993376663789467,108.50981883188899
6.397714432,0.9994162039051632,108.38838128436834
6.4,0.9995323033276565,108.26562159423875
6.402285568,0.9996789356459224,108.1409891165147
6.404571648,0.9998465868674372,108.01407343745717
6.406857216,1.0000246758733735,107.88471409385761
6.409142784,1.0002018719108348,107.75278481516885
6.411428352,1.0003669237933805,107.61843362644697
6.413714432,1.000509404441005,107.4818872130208
6.416,1.0006204763987732,107.34350334404904
6.418285568,1.000692588718205,107.20387130587272
6.420571648,1.0007213083274173,107.06352443538253
6.422857216,1.0007048459856582,106.92313286806429
6.425142784,1.00064428095562,106.78331769736462
6.427428352,1.0005432194306734,106.64472879138276
6.429714432,1.0004080589407636,106.5078945187047
6.432,1.0002474195135134,106.37322846924427
6.434285568,1.0000714226706697,106.24109137887883
6.436571648,0.9998910781933328,106.1115321492022
6.438857216,0.9997180079062483,105.98461686504281
6.441142784,0.9995632555572648,105.8601392373722
6.443428352,0.9994365451995902,105.73773553163753
6.445714432,0.999346039914378,105.61695521433239
6.448,0.9992974880449863,105.4972595281317
6.450285568,0.9992940874042603,105.37798879656759
6.452571648,0.9993360644943252,105.25847604582776
6.454857216,0.9994208547982922,105.13808342736728
6.457142784,0.9995429651918912,105.01623819806959
6.459428352,0.9996948050408613,104.89241293704686
6.461714432,0.9998667224326662,104.76628080325095
6.464,1.0000479031810068,104.63764878978462
6.466285568,1.0002267066929997,104.50640014816639
6.468571648,1.0003917522732941,104.37272577388987
6.470857216,1.0005325590729395,104.23686623181153
6.473142784,1.000640323586871,104.09922216914471
6.475428352,1.0007080364187433,103.96030564290237
6.477714432,1.0007315714753144,103.82081529615495
6.48,1.0007090244636474,103.68131968371624
6.482285568,1.0006421249802844,103.54251559090324
6.484571648,1.0005347477194513,103.40499734931932
6.486857216,1.000393919567747,103.2693338194576
6.489142784,1.0002283176856666,103.13591029720263
6.491428352,1.000048674836427,103.00508061658026
6.493714432,0.9998661867031516,102.87690463796669
6.496,0.9996925624101373,102.75134692000685
6.498285568,0.9995387256250554,102.62820517442276
6.500571648,0.9994145413328273,102.50715700623051
6.502857216,0.9993279411994105,102.38768457325925
6.505142784,0.999284499060189,102.26922591437649
6.507428352,0.9992869109375583,102.15108225749208
6.509714432,0.9993353118940513,102.0325937833876
6.512,0.9994265049390343,101.91316246070467
6.514285568,0.9995547399107961,101.79214920313545
6.516571648,0.9997118988587164,101.66914076671792
6.518857216,0.9998880439234835,101.54370334004506
6.521142784,1.0000719922455705,101.41569784387566
6.523428352,1.0002520566213915,101.28508847508552
6.525714432,1.0004168491464918,101.15200487505678
6.528,1.0005558501539276,101.01675864470384
6.530285568,1.000660227515504,100.87975595286537
6.532571648,1.000723295250054,100.74158886884659
6.534857216,1.000741116891103,100.60286331496943
6.537142784,1.0007123129412279,100.46423703275748
6.539428352,1.0006387552750755,100.3263770165988
6.541714432,1.0005251592744788,100.18992899680615
6.544,1.000378684683106,100.05538855065828
6.546285568,1.0002082362923377,99.92321931871321
6.548571648,1.0000250150338394,99.79363217455077
6.550857216,0.9998405134539298,99.66674846638
6.553142784,0.9996664233160089,99.54254116101481
6.555428352,0.9995138847381067,99.42071120425813
6.557714432,0.9993924759609466,99.30097109024517
6.56,0.9993101791373371,99.18271170849586
6.562285568,0.9992720089227033,99.06539933238398
6.564571648,0.999280732511221,98.94833644566694
6.566857216,0.9993356274156817,98.83085959896957
6.569142784,0.9994333077364472,98.71228797447478
6.571428352,0.9995676426485878,98.59211803977573
6.573714432,0.9997301331353119,98.4697378336399
6.576,0.9999104456063557,98.34497795599022
6.578285568,1.000097067415959,98.21754225539695
6.580571648,1.0002783151163408,98.08747568657509
6.582857216,1.0004426030154883,97.95495580231812
6.585142784,1.0005793518904915,97.82025663480657
6.587428352,1.000680069533203,97.68388522431717
6.589714432,1.0007380899459288,97.5463624298616
6.592,1.0007499432488456,97.40838009982905
6.594285568,1.000714672725724,97.27059492870805
6.596571648,1.0006345459449373,97.13367793492104
6.598857216,1.0005145109617646,96.99820432100348
6.601142784,1.0003621278494625,96.86478376964523
6.603428352,1.000187046065043,96.7337813458891
6.605714432,1.000000504168458,96.60543102394081
6.608,0.9998140784879034,96.47982624448095
6.610285568,0.9996398542153969,96.35690032613122
6.612571648,0.9994887738794221,96.2363616734852
6.614857216,0.999370513874727,96.11782942015373
6.617142784,0.9992926081943322,96.00077169600074
6.619428352,0.9992601522357673,95.88455903506188
6.621714432,0.9992751959297891,95.76848387202732
6.624,0.999336832083345,95.65194147791776
6.626285568,0.9994411565309842,95.53420288135898
6.628571648,0.9995815978756942,95.41470689279225
6.630857216,0.9997494965647133,95.29302658212413
6.633142784,0.9999338093959889,95.16880842317106
6.635428352,1.0001230705961468,95.04188572667034
6.637714432,1.0003050750375853,94.91232898691523
6.64,1.0004685258995063,94.78029459231107
6.642285568,1.000602814769803,94.64609406258603
6.644571648,1.0006995174071451,94.5102630452887
6.646857216,1.0007524110854682,94.37334418650991
6.649142784,1.0007581230087614,94.23606993681709
6.651428352,1.0007161454729574,94.09907586621088
6.653714432,1.0006290922895391,93.96304913733616
6.656,1.0005024863483791,93.8285572863772
6.658285568,1.0003445053502724,93.69622458599468
6.660571648,1.000164773917238,93.566344380607
6.662857216,0.9999749346402281,93.43918737720136
6.665142784,0.9997869414060914,93.31484286001243
6.667428352,0.9996126608081357,93.19313939181343
6.669714432,0.9994634987282888,93.07383094267273
6.672,0.9993486348269947,92.95647773314971
6.674285568,0.9992756141518861,92.84053868971846
6.676571648,0.9992489869268315,92.72536632830237
6.678857216,0.9992706334326927,92.61029225998088
6.681142784,0.999339231239348,92.49454901476844
6.683428352,0.9994504470848058,92.37759065883097
6.685714432,0.9995970785932655,92.25874497679759
6.688,0.9997700690352034,92.13763159040175
6.690285568,0.9999583065654154,92.01391608226785
6.692571648,1.0001498947821934,91.88745469430887
6.694857216,1.0003327310605752,91.75832546383009
6.697142784,1.0004949792129922,91.6266667533499
6.699428352,1.0006264924774129,91.49295137549002
6.701714432,1.0007188874991626,91.35761718796397
6.704,1.0007662944837905,91.22131112848787
6.706285568,1.0007655938700495,91.08466450063027
6.708571648,1.0007165729448089,90.94841926271882
6.710857216,1.0006226863013647,90.81322474525899
6.713142784,1.0004894257653298,90.67972935232191
6.715428352,1.0003257258986296,90.54841319605485
6.717714432,1.0001413855720123,90.41964433738823
6.72,0.9999484010355908,90.29363610380814
6.722285568,0.9997590322411288,90.1704611235573
6.724571648,0.9995851739523018,90.04995360671302
6.726857216,0.9994379796621666,89.93184396881338
6.729142784,0.9993268727160517,89.81563462958952
6.731428352,0.9992590318639465,89.70077773850369
6.733714432,0.999238515370365,89.58658109006642
6.736,0.9992670864929736,89.47240896881097
6.738285568,0.9993426954246531,89.3574655336987
6.740571648,0.999460735923298,89.24115571665405
6.742857216,0.9996136336023858,89.12293806952432
6.745142784,0.9997917441294986,89.00228723687589
6.747428352,0.9999838445718742,88.8790006651218
6.749714432,1.0001775892239653,88.75294282541314
6.752,1.000360759694291,88.62416260480626
6.754285568,1.0005216895760767,88.492927605288
6.756571648,1.0006501894418796,88.35957178349297
6.758857216,1.000737951379966,88.22471026273743
6.761142784,1.0007794693364,88.08888696096706
6.763428352,1.0007719710624217,87.95289580728198
6.765714432,1.0007160111330278,87.81734965484344
6.768,1.0006148640193253,87.68300374230246
6.770285568,1.000475184753778,87.55039595428458
6.772571648,1.0003056230276202,87.42007784386563
6.774857216,1.0001168899879445,87.29239183853527
6.777142784,0.9999210486401345,87.16751628867955
6.779428352,0.9997303853457489,87.04549751737353
6.781714432,0.9995571605339653,86.92616118586893
6.784,0.9994123874706223,86.80918109715003
6.786285568,0.9993053320178185,86.69406674372618
6.788571648,0.9992427945904258,86.5801890989839
6.790857216,0.9992288283174471,86.46695024554643
6.793142784,0.9992644327392415,86.35356775316556
6.795428352,0.9993472944687004,86.2393791266852
6.797714432,0.9994722647168611,86.12367215297651
6.8,0.999631384494837,86.00596632840515
6.802285568,0.9998146357849469,85.88576286513899
6.804571648,1.000010335452459,85.76284466707726
6.806857216,1.000206087182466,85.63710581643814
6.809142784,1.0003893644611643,85.50863386660002
6.811428352,1.0005485134362067,85.37769179092243
6.813714432,1.000673615517602,85.24471642584132
6.816,1.0007564611187765,85.1102312496575
6.818285568,1.00079193014612,84.97494793823635
6.820571648,1.0007774467239037,84.83951891239793
6.822857216,1.000714192101865,84.70464731678862
6.825142784,1.0006059712897686,84.57108124948185
6.827428352,1.0004596284114566,84.43936744820195
6.829714432,1.0002843500197243,84.31000354143633
6.832,1.0000912815652607,84.18335957711545
6.834285568,0.9998926006902185,84.05957802352879
6.836571648,0.9997011063476792,83.93869093814432
6.838857216,0.9995287722306657,83.82047674130274
6.841142784,0.9993867648970303,83.7045668754681
6.843428352,0.999284127596616,83.59048624161866
6.845714432,0.9992272762776624,83.47761189251473
6.848,0.9992199830048718,83.3652207980382
6.850285568,0.9992628522750149,83.25260453613724
6.852571648,0.9993531604113983,83.13905727010584
6.854857216,0.9994851399310569,83.02391014415855
6.857142784,0.9996504897716072,82.90665259335084
6.859428352,0.9998387699144757,82.78682236808746
6.861714432,1.0000379278708615,82.66419524475603
6.864,1.0002354180409574,82.53869626249039
6.866285568,1.000418500033283,82.41046554248986
6.868571648,1.0005757474703194,82.27981196298019
6.870857216,1.0006969569708581,82.14713653627996
6.873142784,1.0007747657601544,82.01302546919757
6.875428352,1.0008036893845809,81.87813853473256
6.877714432,1.0007821859049444,81.74326838354624
6.88,1.0007113993076626,81.60907191116772
6.882285568,1.0005958248099143,81.47624353824882
6.884571648,1.000442730629486,81.34537034977478
6.886857216,1.0002619194888225,81.2169869729917
6.889142784,1.0000645834736595,81.09133949378611
6.891428352,0.9998633317234488,80.96861472867036
6.893714432,0.9996711680874353,80.84881524726568
6.896,0.9995000794251885,80.73165205862969
6.898285568,0.9993610711556882,80.61680046949276
6.900571648,0.9992630418318734,80.50370652326559
6.902857216,0.9992122535447187,80.39171619619367
6.905142784,0.9992119775831649,80.28015709111007
6.907428352,0.9992623215231546,80.16823470104404
6.909714432,0.9993601063861989,80.05527589091935
6.912,0.9994991842737796,79.94059885438787
6.914285568,0.9996708029402154,79.82372531217734
6.916571648,0.9998638975804984,79.70419998257519
6.918857216,1.0000663136862566,79.58181199282214
6.921142784,1.0002653404209971,79.45654686265492
6.923428352,1.0004480302371366,79.32849565675394
6.925714432,1.0006029245503032,79.19804024386205
6.928,1.0007202069344414,79.06557460764864
6.930285568,1.0007923740162956,78.93180548512318
6.932571648,1.0008146606803585,78.79734813738382
6.934857216,1.0007856677395395,78.66298782817994
6.937142784,1.0007073686184809,78.5294130981758
6.939428352,1.0005843706239432,78.3972774040755
6.941714432,1.000424608908984,78.2672642032018
