freq,mag,phase
6.0,0.9993487974978024,-28.354548135985713
6.003881472,0.9993823981290587,-28.496580428786924
6.007763456,0.9994512355868826,-28.639418091146
6.011644928,0.9995540831129999,-28.783404425055284
6.0155264,0.9996843257987498,-28.929186527754993
6.019407872,0.9998342163699713,-29.0769133530087
6.023289856,0.9999945396475484,-29.226962319913714
6.027171328,1.0001553013660356,-29.37928117813312
6.0310528,1.0003072298302818,-29.533904242274975
6.034934272,1.0004404637991653,-29.69056323147498
6.038816256,1.000547348393229,-29.84895391171294
6.042697728,1.0006209651681195,-30.00870584061813
6.0465792,1.0006571043690347,-30.169224745099203
6.050461184,1.0006533761863945,-30.330000836217472
6.054342656,1.000609990912064,-30.490506201845598
6.058224128,1.0005296346159525,-30.65016082614489
6.0621056,1.0004170826204066,-30.808474312575775
6.065987584,1.0002794275386602,-30.96497734185526
6.069869056,1.0001246714881271,-31.11954795779872
6.073750528,0.9999626401260454,-31.27177892382168
6.077632,0.9998031028795789,-31.421808374848244
6.081513984,0.999655777967765,-31.569663139151466
6.085395456,0.9995294079081355,-31.715571938504755
6.089276928,0.9994322489829954,-31.85991031782754
6.093158912,0.9993699226960767,-32.0031946293264
6.097040384,0.9993462618034928,-32.145824461822734
6.100921856,0.9993628824157929,-32.288482385217705
6.104803328,0.9994184740208806,-32.43164521098469
6.108685312,0.9995101282806208,-32.57592491913765
6.112566784,0.9996318923151593,-32.721754486686216
6.116448256,0.9997765902658164,-32.86949210640175
6.120329728,0.9999351211650409,-33.019386672693166
6.124211712,1.0000978877404805,-33.171700485029184
6.128093184,1.000255229875138,-33.32626870165198
6.131974656,1.0003971572876722,-33.48304245529953
6.135856128,1.0005151677647215,-33.641639638561315
6.139738112,1.000602179207165,-33.801774770975854
6.143619584,1.0006525694074906,-33.962886773807725
6.147501056,1.0006634954361615,-34.1245167584538
6.15138304,1.0006342835944613,-34.286003975446185
6.155264512,1.000566544361954,-34.44684152213195
6.159145984,1.0004644892842969,-34.60654714308909
6.163027456,1.0003343186161366,-34.764585878111944
6.16690944,1.000183887634575,-34.92065195518696
6.170790912,1.0000223892601303,-35.07452415994476
6.174672384,0.9998598779606827,-35.226131141183046
6.178553856,0.9997060108539616,-35.375540928029565
6.18243584,0.9995700875748201,-35.52285629770088
6.186317312,0.9994607570525498,-35.668484213191604
6.190198784,0.9993847391064369,-35.81279610984802
6.194080768,0.9993463325921129,-35.95636468936319
6.19796224,0.9993481575811363,-36.09967838422963
6.201843712,0.9993900368313622,-36.24328183675647
6.205725184,0.9994696220636027,-36.38781970696635
6.209607168,0.9995817036776361,-36.53378768234759
6.21348864,0.9997197775287276,-36.681525959906985
6.217370112,0.9998752821358139,-36.831426585557516
6.221251584,1.000038852046678,-36.9835865832696
6.225133568,1.0002001244384697,-37.1381614083833
6.22901504,1.0003496012061992,-37.29490764797174
6.232896512,1.0004782843506521,-37.453684841525245
6.236778496,1.0005778691116929,-37.614154660163294
6.240659968,1.0006425426545018,-37.775828021065394
6.24454144,1.0006683395346652,-37.938146322765654
6.248422912,1.0006537466359913,-38.10058619420236
6.252304896,1.0005994405929148,-38.26258252783479
6.256186368,1.000508823575703,-38.42357134633817
6.26006784,1.0003871851578103,-38.58306940794453
6.263949312,1.0002422377806943,-38.7407365287051
6.267831296,1.0000828764208953,-38.89621777516122
6.271712768,0.9999184771468442,-39.04943465683664
6.27559424,0.9997591744849018,-39.200394558911256
6.279476224,0.9996148929786592,-39.34922368394095
6.283357696,0.999494251276381,-39.49618072087079
6.287239168,0.9994047984775526,-39.641634886593124
6.29112064,0.999351693779181,-39.78616655431556
6.295002624,0.9993386303060746,-39.93019257613989
6.298884096,0.9993662354772911,-40.074359669282956
6.302765568,0.9994328231215113,-40.219239422054706
6.30664704,0.999534202912209,-40.365333836004325
6.310529024,0.9996645108461304,-40.51317051354146
6.314410496,0.9998156292617597,-40.66298153716454
6.318291968,0.9999783351462654,-40.81507858803991
6.322173952,1.0001427322374326,-40.96955298686739
6.326055424,1.0002986982913602,-41.12631969512158
6.329936896,1.000436719533925,-41.285200957467325
6.333818368,1.0005485685961635,-41.44594066691296
6.337700352,1.0006273040941076,-41.60806092934298
6.341581824,1.0006678697487108,-41.77105175919872
6.345463296,1.000668142948357,-41.93436540542991
6.349344768,1.0006279136238723,-42.09741080244628
6.353226752,1.0005496504849842,-42.25968192546477
6.357108224,1.0004381488420453,-42.420640867157445
6.360989696,1.0003000134280353,-42.57977976467585
6.364871168,1.0001436882967165,-42.736957609784206
6.368753152,0.9999789331200806,-42.89177918368003
6.372634624,0.9998155443582724,-43.04436977663147
6.376516096,0.9996638089165303,-43.194697220731165
6.38039808,0.9995325419660718,-43.34304700935114
6.384279552,0.9994300802315764,-43.489761704271935
6.388161024,0.999362717490449,-43.63528035154237
6.392042496,0.999334642305277,-43.780135069297934
6.39592448,0.9993473246859861,-43.92495422070581
6.399805952,0.9994001967235381,-44.07021831231743
6.403687424,0.9994899195779045,-44.21654832347975
6.407568896,0.9996111863569033,-44.364430166639615
6.41145088,0.9997565655487638,-44.51422815168636
6.415332352,0.9999173542249545,-44.666247364212055
6.419213824,1.0000830650396604,-44.82064779133041
6.423095808,1.0002443862100334,-44.977366438184234
6.42697728,1.0003911571277109,-45.1363609063515
6.430858752,1.0005144057238624,-45.29725969035374
6.434740224,1.0006064883659487,-45.45974763605416
6.438622208,1.0006620703961002,-45.623342226973136
6.44250368,1.0006774263045721,-45.78746942233969
6.446385152,1.0006517002156399,-45.95153332968745
6.450266624,1.0005866251244437,-46.11497422750706
6.454148608,1.0004860286183301,-46.27727165681233
6.45803008,1.0003559559513413,-46.43800514230773
6.461911552,1.0002043010406694,-46.596732214694015
6.465793536,1.000040560306068,-46.75324100564583
6.469675008,0.9998744695150736,-46.90742632526978
6.47355648,0.9997160609966671,-47.05933803515363
6.477437952,0.9995753780152311,-47.20914077596213
6.481319936,0.9994607530660903,-47.357147391457275
6.485201408,0.9993792176572576,-47.50381705377976
6.48908288,0.9993359127394694,-47.6495620104601
6.492964352,0.9993334941959443,-47.79505536803716
6.496846336,0.9993719778540472,-47.940807524185225
6.500727808,0.99944915683348,-48.087425435989644
6.50460928,0.9995602465096887,-48.235402317513845
6.508491264,0.9996985096764395,-48.38521650531737
6.512372736,0.9998555594423851,-48.537184227137224
6.516254208,1.0000219913096262,-48.691453771047954
6.52013568,1.0001870713689822,-48.84813348579285
6.524017664,1.000341362225861,-49.00709861362169
6.527899136,1.000474991603908,-49.16816950122732
6.531780608,1.0005802905410914,-49.33097722308517
6.53566208,1.0006502331930325,-49.49503172044616
6.539544064,1.0006810028371913,-49.65988346046995
6.543425536,1.0006705149278894,-49.8248880500199
6.547307008,1.0006193033484914,-49.989485737059866
6.551188992,1.0005307411250555,-50.15311070783555
6.555070464,1.0004098621898034,-50.31532327652168
6.558951936,1.0002642200534937,-50.47564384147129
6.562833408,1.0001028602569932,-50.633794325161254
6.566715392,0.9999352258372316,-50.78964803467727
6.570596864,0.9997717553119518,-50.9431413026379
6.574478336,0.9996225177929285,-51.0944417934646
6.578359808,0.9994964791034352,-51.24382529887311
6.582241792,0.9994013209398905,-51.39168054274987
6.586123264,0.9993430603164578,-51.538435085669335
6.590004736,0.9993251302824969,-51.68468441673443
6.593886208,0.9993486013138995,-51.83099776438562
6.597768192,0.9994123144043745,-51.977964914386355
6.601649664,0.9995122747613031,-52.12613142010024
6.605531136,0.9996422696607663,-52.27597651133913
6.60941312,0.9997943242961241,-52.42784060295204
6.613294592,0.9999594399482996,-52.582037878650944
6.617176064,1.0001274684659895,-52.73857310308695
6.621057536,1.0002880131706855,-52.89752767558913
6.62493952,1.000431480318622,-53.05868595661248
6.628820992,1.0005488076089477,-53.22172690801661
6.632702464,1.0006330212857024,-53.3862275311791
6.636583936,1.0006789643322567,-53.551714539851744
6.64046592,1.000683859084829,-53.71756002583065
6.644347392,1.0006474567041437,-53.883236477148664
6.648228864,1.0005717210253846,-54.0481611166943
6.652110848,1.0004613562835287,-54.211779248964014
6.65599232,1.0003231208852699,-54.373646680986084
6.659873792,1.0001653592736528,-54.53346219290974
6.663755264,0.9999977901626637,-54.69096839797138
6.667637248,0.9998304605608205,-54.84613786135449
6.67151872,0.9996737633846894,-54.998979846382426
6.675400192,0.9995370662470462,-55.14979746696892
6.679281664,0.9994288998318993,-55.298902713784834
6.683163648,0.9993559566061513,-55.446718707447694
6.68704512,0.9993223299355183,-55.593816575002734
6.690926592,0.999330583432432,-55.74075105368077
6.694808576,0.999379933700123,-55.88814787452962
6.698690048,0.9994675221498477,-56.03651965551608
6.70257152,0.9995879716578578,-56.18641983096456
6.706452992,0.9997338759044744,-56.33828618142064
6.710334976,0.9998964142657134,-56.49234383417349
6.714216448,1.0000657512136082,-56.64877888415765
6.71809792,1.000231200846594,-56.807680630031
6.721979392,1.0003832007165687,-56.96886042443544
6.725861376,1.0005121379909474,-57.13206232153273
6.729742848,1.0006100562999138,-57.29692942419244
6.73362432,1.00067117274692,-57.46295372059257
6.737506304,1.0006917858528888,-57.62959361513426
6.741387776,1.0006704107140858,-57.79626515522321
6.745269248,1.0006086956722124,-57.96237720850954
6.74915072,1.0005097160110583,-58.12735629719651
6.753032704,1.0003801514205646,-58.29076213973127
6.756914176,1.0002276328883515,-58.45217005168811
6.760795648,1.0000613170776,-58.61136602056731
6.76467712,0.9998914819720034,-58.76819801217906
6.768559104,0.999728477341719,-58.92267011997166
6.772440576,0.9995822519750798,-59.074965152298624
6.776322048,0.9994616477877639,-59.22542374418714
6.780204032,0.9993743160797814,-59.374382545542744
6.784085504,0.9993253274915376,-59.52239797903318
6.787966976,0.9993178644350938,-59.67003614705622
6.791848448,0.9993521893656099,-59.81791473473382
6.795730432,0.9994265240817244,-59.96659161913763
6.799611904,0.9995361776937502,-60.1166108083613
6.803493376,0.9996744912297735,-60.26842334736945
6.807374848,0.999833033373308,-60.42240173303257
6.811256832,1.0000022256289558,-60.57874844986423
6.815138304,1.0001715341862574,-60.73750852427818
6.819019776,1.0003309016560789,-60.89863705546354
6.82290176,1.000470291225651,-61.06195229340688
6.826783232,1.0005814756801417,-61.2270803842473
6.830664704,1.0006575157043147,-61.39358905414059
6.834546176,1.000693946524194,-61.560909376905606
6.83842816,1.0006881990018626,-61.728477707317715
6.842309632,1.0006409426190486,-61.89571299940248
6.846191104,1.000554693726621,-62.06204702686044
6.850072576,1.0004349163464032,-62.22694986643408
6.85395456,1.0002890548725962,-62.38994612230184
6.857836032,1.0001254743721055,-62.55079864173939
6.861717504,0.9999546985124083,-62.70931028863427
6.865598976,0.9997866720917742,-62.86542016716814
6.86948096,0.9996320005113984,-63.01926449924784
6.873362432,0.9994997912578809,-63.17108575863527
6.877243904,0.9993985293390604,-63.32128153781566
6.881125888,0.9993342714667316,-63.47032577832444
6.88500736,0.999310794941044,-63.61876292301719
6.888888832,0.9993296366377862,-63.76718350759622
6.892770304,0.9993897534959099,-63.91620440466562
6.896652288,0.9994875681031749,-64.0663956255601
6.90053376,0.9996169839038483,-64.2182163562912
6.904415232,0.9997701723002127,-64.3721016736083
6.908296704,0.9999376748174094,-64.52826064418873
6.912178688,1.0001092819361894,-64.68691659496625
6.91606016,1.0002747913261965,-64.84801514726706
6.919941632,1.0004238325324246,-65.01133484153759
6.923823616,1.0005474734610615,-65.17668175198948
6.927705088,1.0006381007238998,-65.34356032937914
6.93158656,1.000690130125817,-65.51149307928581
6.935468032,1.0007002404540934,-65.67988990774079
6.939350016,1.0006683093282067,-65.8481811592318
6.943231488,1.0005956993833462,-66.01575032157724
6.94711296,1.000487123127087,-66.18206945230924
6.950994432,1.0003489439953235,-66.34664924482655
6.954876416,1.000189776143069,-66.5091657433174
6.958757888,1.0000192329512811,-66.669363405784
6.96263936,0.9998477670909701,-66.82713925836771
6.966521344,0.9996856883004168,-66.98254925674011
6.970402816,0.99954306569537,-67.1358536741397
6.974284288,0.999428478502676,-67.28732353279361
6.97816576,0.999348897833934,-67.4374721642865
6.982047744,0.999309541141529,-67.58676161547015
6.985929216,0.9993125217596339,-67.73582727443782
6.989810688,0.9993577379842717,-67.88526927684528
6.99369216,0.9994425996438799,-68.03565518099474
6.997574144,0.9995617562625814,-68.18751373508557
7.001455616,0.9997080863840603,-68.34134118412489
7.005337088,0.9998725067858335,-68.49738737220875
7.009219072,1.000045076117074,-68.65588156164546
7.013100544,1.0002153600842714,-68.81681816665868
7.016982016,1.0003730062612517,-68.9801489041847
7.020863488,1.000508114374312,-69.14561053990151
7.024745472,1.000612580455469,-69.31277337992867
7.028626944,1.0006801967931933,-69.48124163093846
7.032508416,1.0007066165537277,-69.65038332207801
7.036389888,1.0006903187480771,-69.81959382946059
7.040271872,1.0006321601246222,-69.98837452941753
7.044153344,1.0005358383048082,-70.15604017300471
7.048034816,1.0004071085793944,-70.32216874703533
7.0519168,1.0002536644305904,-70.4863133686334
7.055798272,1.0000849773321951,-70.64819111352854
7.059679744,0.999911216901038,-70.80764852915921
7.063561216,0.9997431699118197,-70.9647223406483
7.0674432,0.9995909370509373,-71.11951721196107
7.071324672,0.999464011348327,-71.27235570182458
7.075206144,0.999369760411729,-71.42363886989124
7.079087616,0.9993143669192847,-71.57389445264101
7.0829696,0.9993012761582354,-71.72364884480714
7.086851072,0.9993309093430107,-71.87359985098894
7.090732544,0.999401576929346,-72.02426494258454
7.094614016,0.9995093728713461,-72.17623992233891
7.098496,0.9996473410277311,-72.33001631739096
7.102377472,0.999807229942014,-72.48593349547616
7.106258944,0.9999792667968502,-72.64422653093901
7.110140928,1.0001530014171807,-72.80502876605699
7.1140224,1.0003177883549095,-72.96827803561145
7.117903872,1.0004635863959956,-73.13375696737397
7.121785344,1.0005814142420997,-73.30117618083372
7.125667328,1.0006643043272727,-73.47003349400009
7.1295488,1.0007068973519166,-73.63983764374514
7.133430272,1.0007067563392273,-73.80994559472212
7.137311744,1.0006638945540132,-73.97979417087409
7.141193728,1.0005809065432492,-74.14876288198595
7.1450752,1.0004626742827756,-74.31635484618577
7.148956672,1.0003163815826446,-74.48210937981412
7.152838656,1.0001510379759422,-74.64566316273849
7.156720128,0.9999766974032149,-74.8068282784973
7.1606016,0.9998040949952365,-74.96553409173235
7.164483072,0.9996434345631672,-75.12190885968161
7.168365056,0.9995048044166928,-75.27614654192743
7.172246528,0.9993965802338837,-75.42868613544475
7.176128,0.9993254601919563,-75.57995709294198
7.180009472,0.9992956479402364,-75.73053622833562
7.183891456,0.9993092571828028,-75.88102272120778
7.187772928,0.9993652392505569,-76.03203293849909
7.1916544,0.9994603901322926,-76.18416923266369
7.195536384,0.9995886460375802,-76.33791228687099
7.199417856,0.9997425209503786,-76.4936689288172
7.203299328,0.9999124852725791,-76.65183090322769
7.2071808,1.0000881499546157,-76.8124269195577
7.211062784,1.0002587431538164,-76.97555979968242
7.214944256,1.0004140628048745,-77.14101916756293
7.218825728,1.0005445158281705,-77.30854630144002
7.2227072,1.000641982321684,-77.47773311796419
7.226589184,1.000700828014903,-77.64808055371469
7.230470656,1.0007173172174315,-77.81898334323061
7.234352128,1.0006903280186998,-77.98983931475864
7.238234112,1.0006216071618368,-78.16006037883261
7.242115584,1.0005152348247635,-78.32908432294163
7.245997056,1.0003775113216318,-78.49635550655394
7.249878528,1.0002171993677906,-78.66155018637338
7.253760512,1.0000437202579342,-78.82441080778743
7.257641984,0.9998676986243165,-78.98480544448694
7.261523456,0.9997001048641607,-79.14277562039845
7.265404928,0.9995507637791254,-79.29850503507559
7.269286912,0.999429143239151,-79.45234970482016
7.273168384,0.9993425868300624,-79.60472133655266
7.277049856,0.9992963885208642,-79.75618430995
7.28093184,0.999293355114342,-79.90729703746622
7.284813312,0.9993338678105742,-80.05873141422381
7.288694784,0.9994151322857171,-80.21105000541534
7.292576256,0.9995326442064447,-80.36479731733105
7.29645824,0.9996789521485421,-80.52050995972719
7.300339712,0.9998452581005985,-80.67843455870076
7.304221184,1.0000213057483085,-80.8388236630928
7.308102656,1.0001963977692905,-81.001766558717
7.31198464,1.0003600415659064,-81.16713741959995
7.315866112,1.0005019905695323,-81.33474058480478
7.319747584,1.0006139091932853,-81.5041498905373
7.323629056,1.0006887351188978,-81.67495596584038
7.32751104,1.0007218013641965,-81.84653382037854
7.331392512,1.0007112275019017,-82.0182992783616
7.335273984,1.000657616757014,-82.18966078308834
7.339155968,1.0005641305755855,-82.36003563135203
7.34303744,1.0004365309566627,-82.52883059584595
7.346918912,1.0002825289864383,-82.69562318685072
7.350800384,1.000111569982018,-82.8601698076161
7.354682368,0.999933838493016,-83.02227422877243
7.35856384,0.9997604488583474,-83.18187529141977
7.362445312,0.999601721531234,-83.33917320283642
7.366326784,0.9994674851734167,-83.49435962576979
7.370208768,0.9993659308878231,-83.64792901148256
7.37409024,0.999303466433625,-83.80031909171488
7.377971712,0.9992835707230185,-83.95216737365531
7.381853696,0.9993077507712169,-84.10410648728
7.385735168,0.999374491782983,-84.2566460802466
7.38961664,0.9994796263812858,-84.4104685882982
7.393498112,0.9996170704771862,-84.56604914091815
7.397380096,0.999778023648403,-84.72382722905394
7.401261568,0.9999529728116491,-84.88399508067616
7.40514304,1.0001311873521401,-85.04671449054707
7.409024512,1.000301893651793,-85.21192376598381
7.412906496,1.000454430827184,-85.37948434553513
7.416787968,1.0005797274666677,-85.54909054609946
7.42066944,1.0006699393572782,-85.7202363230329
7.424551424,1.0007197461380497,-85.89237512165838
7.428432896,1.0007260893154128,-86.06497516293373
7.432314368,1.0006884277142134,-86.2374006386333
7.43619584,1.0006090386945405,-86.40899034700715
7.440077824,1.0004927648757471,-86.57923489832818
7.443959296,1.0003467523685183,-86.7476588300061
7.447840768,1.0001796567287602,-86.91385007200871
7.45172224,1.000001902332026,-87.07765842806174
7.455604224,0.9998240049258593,-87.23892870486291
7.459485696,0.9996572503050983,-87.39777472818753
7.463367168,0.9995114224904728,-87.55443412282607
7.467249152,0.999395655830926,-87.70920179670026
7.471130624,0.9993168144948377,-87.86264855983529
7.475012096,0.9992801123747657,-88.01529366467526
7.478893568,0.9992873996419094,-88.16776717271547
7.482775552,0.9993386271750816,-88.32068002275152
7.486657024,0.9994304234093223,-88.47459959614574
7.490538496,0.9995573572977368,-88.63014772756954
7.494419968,0.999711647843236,-88.7876997093511
7.498301952,0.999883981812278,-88.94763418549731
7.502183424,1.0000635823798585,-89.11009202837647
7.506064896,1.0002399130204247,-89.27509978669022
7.50994688,1.0004018700108679,-89.44259162873139
7.513828352,1.0005396851790724,-89.61224142257502
7.517709824,1.0006451442533175,-89.78361388461784
7.521591296,1.0007114944210684,-89.95624521551409
7.52547328,1.000734742807643,-90.12958155233544
7.529354752,1.0007136264593164,-90.30293375896817
7.533236224,1.000649371678667,-90.47571356839623
7.537117696,1.0005457028046483,-90.64733940248782
7.54099968,1.0004089832614467,-90.81730792841381
7.544881152,1.0002476254126977,-90.9851351659994
7.548762624,1.0000712317608074,-91.15060179051288
7.552644096,0.9998907164582579,-91.31358339310609
7.55652608,0.9997169018545229,-91.47405379395374
