freq,mag,phase
6.0,0.9999637284942732,117.1746484217816
6.004119552,0.9999674329044969,116.89477987182754
6.008239104,0.9999731241152875,116.61490436290627
6.012358144,0.9999804622822784,116.3349618241128
6.016477696,0.9999890242879093,116.05495743118244
6.020597248,0.999998503318007,115.77484709201218
6.0247168,1.0000081953955908,115.49466382888953
6.028836352,1.0000175274115741,115.21438505310788
6.032955904,1.0000259384435746,114.93400433878595
6.037074944,1.0000329091079596,114.65356053540533
6.041194496,1.0000381478406635,114.37308936459908
6.045314048,1.0000411912854021,114.0925891282241
6.0494336,1.0000419801057714,113.81208470980368
6.053553152,1.000040360506812,113.53164960129735
6.057672704,1.000036511672351,113.25129252901456
6.061791744,1.0000305423714246,112.97102219112644
6.065911296,1.0000230443850486,112.69088757703996
6.070030848,1.0000141345720062,112.4109196046675
6.0741504,1.0000045351939655,112.13111838218002
6.078269952,0.999994868000392,111.85147978236259
6.082389504,0.9999855756561346,111.57203935843344
6.086508544,0.999977236540658,111.29273273467969
6.090628096,0.9999704176676091,111.01358656430372
6.094747648,0.9999655091310498,110.73456422525433
6.0988672,0.9999627181097119,110.45561914091782
6.102986752,0.9999622696760107,110.1767449579144
6.107106304,0.9999641980748006,109.897905076492
6.111225344,0.9999684157760597,109.61903123879064
6.115344896,0.9999746038168723,109.34015793924817
6.119464448,0.9999824260357003,109.06119294869997
6.123584,0.9999914494167291,108.78217061214565
6.127703552,1.0000011990230473,108.50304432153148
6.131823104,1.0000109202361125,108.2238138495795
6.135942144,1.0000200941066244,107.94447552685317
6.140061696,1.0000283510797576,107.66507434386945
6.144181248,1.000034963826511,107.38560373519456
6.1483008,1.000039671130456,107.10607313304247
6.152420352,1.000042112310578,106.82653256461353
6.156539904,1.0000421860197768,106.54702514181146
6.160658944,1.000039926641526,106.26755042009862
6.164778496,1.00003538503171,105.98817343443079
6.168898048,1.0000288472085288,105.7088983593632
6.1730176,1.000020814863869,105.42974928413703
6.177137152,1.00001157086144,105.15077181776871
6.181256192,1.0000017895929991,104.87196683064208
6.185375744,0.9999920665946385,104.59334595356856
6.189495296,0.9999828037209761,104.31486523342478
6.193614848,0.9999747966736514,104.03655408154238
6.1977344,0.9999683522121103,103.75837393017238
6.201853952,0.999964024909356,103.48032812474985
6.205972992,0.9999618706312567,103.20232910556075
6.210092544,0.9999619926947937,102.92438551887831
6.214212096,0.9999647123928403,102.64645341111833
6.218331648,0.9999695569414322,102.36850110511189
6.2224512,0.9999763013903208,102.09051095277262
6.226570752,0.9999846651324449,101.81246491781404
6.230689792,0.9999940057179785,101.53430973544512
6.234809344,1.0000038465170682,101.25605154117822
6.238928896,1.0000136328987188,100.97769154547616
6.243048448,1.000022720375388,100.69922173211253
6.247168,1.0000305771631453,100.42066777868283
6.251287552,1.0000368644011566,100.14206135153587
6.255406592,1.0000409866917264,99.86339283803636
6.259526144,1.0000426994418439,99.58472910580501
6.263645696,1.0000421733037392,99.30607897925375
6.267765248,1.0000391551181118,99.02749592416937
6.2718848,1.000033986717771,98.74899229505557
6.276004352,1.000026906973995,98.47061274587918
6.280123392,1.000018300414378,98.19237068485116
6.284242944,1.0000088377345056,97.91430091783437
6.288362496,0.9999988552758379,97.63637860531908
6.292482048,0.9999891605887954,97.35862494709916
6.2966016,0.9999801274166433,97.0810595003877
6.300721152,0.9999724749912396,96.80361214495517
6.304840192,0.9999664967629153,96.52631922353703
6.308959744,0.9999626133246974,96.24910230685438
6.313079296,0.999961135489815,95.9719731210329
6.317198848,0.9999620174359608,95.69484451056343
6.3213184,0.9999653292941041,95.41775402863387
6.32543744,0.9999709286911892,95.14061217400484
6.329556992,0.9999782312884747,94.86341428888284
6.333676544,0.9999870497672552,94.58613868167419
6.337796096,0.9999967188380248,94.30875826328344
6.341915648,1.000006649911009,94.03125177118945
6.3460352,1.0000164357585135,93.75364538921725
6.35015424,1.000025328462018,93.47593390692647
6.354273792,1.000032741516575,93.19815308203293
6.358393344,1.0000385088082373,92.92028822311246
6.362512896,1.0000420438156878,92.64238987893673
6.366632448,1.0000432141219031,92.36450061880524
6.370752,1.0000419117958361,92.08663159218773
6.37487104,1.0000382227288684,91.80882934504695
6.378990592,1.0000324360713129,91.53110068379502
6.383110144,1.000024858918237,91.25350811981785
6.387229696,1.000015818419407,90.97605545003101
6.391349248,1.0000060623484017,90.69877244103081
6.3954688,0.999995964164453,90.42164415726573
6.39958784,0.9999862607699314,90.14468822666716
6.403707392,0.9999775051308936,89.8678875122179
6.407826944,0.9999701369203716,89.59122042142046
6.411946496,0.9999647782895016,89.31468125261912
6.416066048,0.9999614702551375,89.03821913783389
6.4201856,0.9999606756462727,88.7618161331805
6.42430464,0.9999623382893436,88.48542911956967
6.428424192,0.9999662943108252,88.2090199926311
6.432543744,0.999972427384303,87.9325897370118
6.436663296,0.9999803195269108,87.65605967131856
6.440782848,0.9999895025774452,87.37944639236456
6.4449024,0.9999994625702392,87.10274362165653
6.44902144,1.0000096136798404,86.82589723754813
6.453140992,1.0000191891212806,86.54892789706642
6.457260544,1.0000278529585558,86.2718901743196
6.461380096,1.0000349469468488,85.9947441738627
6.465499648,1.0000401985372407,85.71752984023388
6.4696192,1.0000430093507902,85.44029586419497
6.47373824,1.0000434805525116,85.16305046681414
6.477857792,1.0000414445293584,84.88585676144842
6.481977344,1.000037165533538,84.60872009913902
6.486096896,1.0000307371686246,84.33167391740211
6.490216448,1.0000225241898852,84.054760751967
6.494335488,1.00001312496793,83.7779873218574
6.49845504,1.0000031501721016,83.5013834699896
6.502574592,0.9999929350986073,83.22493365496338
6.506694144,0.9999834301094732,82.94864598313926
6.510813696,0.9999749547492572,82.67251467903422
6.514933248,0.9999679876650192,82.3965183198267
6.519052288,0.9999630825409145,82.12063269450485
6.52317184,0.9999605366818914,81.8447953945299
6.527291392,0.9999604365477606,81.56901057722442
6.531410944,0.9999627894871082,81.29324381552698
6.535530496,0.9999674864559931,81.01744138950475
6.539650048,0.9999741998527724,80.74156888341811
6.543769088,0.9999825784413552,80.46562407952516
6.54788864,0.9999921609755035,80.18956081218354
6.552008192,1.0000023474900372,79.91338199464998
6.556127744,1.0000124834405462,79.63708756676523
6.560247296,1.0000220200488061,79.36068134580756
6.564366848,1.000030320731179,79.08415601036207
6.568485888,1.0000370299302308,78.80754584633928
6.57260544,1.0000416046023837,78.53088268858755
6.576724992,1.0000437752321834,78.25418632690804
6.580844544,1.000043530784622,77.97750305641354
6.584964096,1.0000407928211235,77.70084443875007
6.589083648,1.0000357585923534,77.42427539426566
6.593202688,1.0000287249992676,77.14779961461824
6.59732224,1.0000201310151626,76.87144585329399
6.601441792,1.0000103636455242,76.5952533286538
6.605561344,1.000000133797787,76.31921105802722
6.609680896,0.9999899573465977,76.04334035760301
6.613800448,0.9999805512186495,75.76761596135714
6.617919488,0.9999723775829467,75.4920306886224
6.62203904,0.9999660000423911,75.2165696782351
6.626158592,0.9999617261225361,74.94120850047919
6.630278144,0.9999597854992629,74.66590225649347
6.634397696,0.999960399875007,74.39062368024314
6.638517248,0.9999634969207397,74.11534436917421
6.642636288,0.9999688269451413,73.8400114121423
6.64675584,0.9999761944253824,73.56460073059223
6.650875392,0.9999851062351564,73.28909881666588
6.654994944,0.9999950030876282,73.01348144920384
6.659114496,1.0000052843441982,72.73774436110082
6.663233536,1.0000153953485174,72.46187446631367
6.667353088,1.0000247621368035,72.18588452479631
6.67147264,1.000032681099154,71.90976454681208
6.675592192,1.0000388679584196,71.63359443172205
6.679711744,1.0000429040257302,71.35735436598881
6.683831296,1.0000444604155743,71.08109430296278
6.687950336,1.000043374277893,70.80484397885488
6.692069888,1.000040010848362,70.52862756359204
6.69618944,1.0000342645548514,70.25249278920782
6.700308992,1.000026624201015,69.97647096125749
6.704428544,1.0000175733083407,69.70058314322097
6.708548096,1.0000075073218528,69.42484375244216
6.712667136,0.9999971662049216,69.14925337530778
6.716786688,0.9999870489367425,68.87383008673564
6.72090624,0.9999777978640915,68.5985518832494
6.725025792,0.9999699958035226,68.32339781683584
6.729145344,0.9999641430425463,68.04836027084195
6.733264896,0.9999603908590171,67.77340921422197
6.737383936,0.999959257464574,67.49850109490944
6.741503488,0.9999605731095025,67.22360938442746
6.74562304,0.9999644381601582,66.94868962251523
6.749742592,0.9999704740723308,66.67371130286769
6.753862144,0.9999783619432223,66.39865405991704
6.757981696,0.9999876496604589,66.1234730837994
6.762100736,0.9999977994348334,65.84818597707257
6.766220288,1.0000082744165253,65.57275928164238
6.77033984,1.000018386702409,65.29717910243428
6.774459392,1.0000274029436365,65.02149348676456
6.778578944,1.0000350466127663,64.7457001421978
6.782698496,1.0000406358929481,64.46982131434216
6.786817536,1.0000439767215938,64.19389032074062
6.790937088,1.0000448248406957,63.91795248602552
6.79505664,1.0000431174252682,63.64201463347353
6.799176192,1.0000389343135412,63.366120178570554
6.803295744,1.0000325373636272,63.09033560052043
6.807414784,1.0000243809860379,62.814643803625955
6.811534336,1.0000148665754374,62.53909383773648
6.815653888,1.0000045167250258,62.26368343265622
6.81977344,0.9999940438216857,61.98843410545703
6.823892992,0.9999840452891813,61.71334354477632
6.828012544,0.9999751327008255,61.43838722285758
6.832131584,0.9999677490730818,61.16354549097357
6.836251136,0.9999624359224873,60.88881778665049
6.840370688,0.999959381178239,60.61414963752164
6.84449024,0.9999588950495635,60.33951770883344
6.848609792,0.9999609556628278,60.06489174917473
6.852729344,0.9999655849839967,59.79021100457218
6.856848384,0.9999722597280833,59.51546305031425
6.860967936,0.9999806392733205,59.2406310369717
6.865087488,0.9999904096164375,58.96566259334341
6.86920704,1.0000008493250778,58.690558147693835
6.873326592,1.000011279419399,58.41530679964164
6.877446144,1.0000212281151344,58.139936310660346
6.881565184,1.0000300636797463,57.86443623262801
6.885684736,1.00003719887571,57.58881714090722
6.889804288,1.0000422400051812,57.31314084515755
6.89392384,1.000044890670259,57.03740799090816
6.898043392,1.0000449393598199,56.76164252776506
6.902162944,1.0000424819364804,56.4859088333589
6.906281984,1.0000377083138243,56.21024298119528
6.910401536,1.0000306152887994,55.93466603573773
6.914521088,1.0000219553179492,55.65918346199327
6.91864064,1.0000120835382682,55.38385235526297
6.922760192,1.0000015577717,55.10866416610412
6.926879744,0.9999910387723673,54.83364429204663
6.930998784,0.9999811418634867,54.558762903145094
6.935118336,0.9999725326165979,54.284005168739505
6.939237888,0.9999656927732551,54.00936605436977
6.94335744,0.999960897217905,53.73481114104276
6.947476992,0.9999585988122924,53.46030490663635
6.951596544,0.9999588571525471,53.18583763364329
6.955715584,0.9999616084124111,52.91132997765544
6.959835136,0.999966910817919,52.63677976789935
6.963954688,0.9999742135303656,52.36214070613237
6.96807424,0.9999831949377562,52.0874057326333
6.972193792,0.9999932681769885,51.812520612990895
6.976312832,1.000003905315703,51.53749338666236
6.980432384,1.0000143802305432,51.262318142336525
6.984551936,1.0000241249077308,50.98700420554145
6.988671488,1.0000326306097194,50.71157202752995
6.99279104,1.0000392353072551,50.43603014372809
6.996910592,1.0000436471618779,50.160408653111425
7.001029632,1.0000456546169372,49.884741714753964
7.005149184,1.0000449633425166,49.609073255977734
7.009268736,1.0000417613456383,49.333439865433164
7.013388288,1.0000362266949483,49.05784685358677
7.01750784,1.0000286126316422,48.78236719833633
7.021627392,1.0000194354127352,48.506988473103696
7.025746432,1.0000091430356302,48.23175469748349
7.029865984,0.99999846122543,47.95666116986161
7.033985536,0.9999879678966924,47.6817285818758
7.038105088,0.9999782822597262,47.406929821977464
7.04222464,0.9999700509047704,47.13226744003424
7.046344192,0.9999636798210783,46.857694418428125
7.050463232,0.9999595633972244,46.583195653045195
7.054582784,0.9999579695681582,46.30874457850042
7.058702336,0.9999589987576447,46.03429096292543
7.062821888,0.9999625196152572,45.75980420333134
7.06694144,0.9999684137225032,45.485272872799804
7.071060992,0.9999763921429251,45.21059851090906
7.075180032,0.9999858165153844,44.93582962506231
7.079299584,0.9999962958931957,44.66090783243824
7.083419136,1.0000069846152209,44.3858295657846
7.087538688,1.0000174553897225,44.11060516839362
7.09165824,1.000026939893783,43.83524409731788
7.095777792,1.0000350421504403,43.55976272938292
7.099896832,1.0000411965882017,43.284167039508255
7.104016384,1.0000449422683313,43.00849398449891
7.108135936,1.0000462295372918,42.73277612260944
7.112255488,1.0000447658432468,42.45707194372469
7.11637504,1.0000408164559031,42.18140497234527
7.12049408,1.000034544542284,41.90580841090543
7.124613632,1.0000264230021458,41.630290123635255
7.128733184,1.000016710100705,41.354896450688265
7.132852736,1.0000061419879576,41.07964934332411
7.136972288,0.9999953729966469,40.804530108831166
7.14109184,0.9999849389128177,40.5295807951305
7.14521088,0.9999755142835173,40.254738165496235
7.149330432,0.9999676924844986,39.98003377996841
7.153449984,0.9999618446407792,39.70542113308055
7.157569536,0.9999584164772796,39.4308690359529
7.161689088,0.9999574875129653,39.15632031925562
7.16580864,0.9999592998249716,38.881777083994045
7.16992768,0.9999636489906722,38.607165935543385
7.174047232,0.9999702603814542,38.33252203768785
7.178166784,0.9999787285354521,38.0577164190164
7.182286336,0.9999885818104003,37.782784399255014
7.186405888,0.9999992792677436,37.507711611092375
7.19052544,1.0000101288433045,37.232476985429344
7.19464448,1.0000204460894784,36.95709282372177
7.198764032,1.0000297819623816,36.681543374300055
7.202883584,1.0000373365080537,36.405882555358815
7.207003136,1.0000428855909143,36.13011736693786
7.211122688,1.0000459685288654,35.854276849100906
7.21524224,1.0000464955629658,35.578420067501675
7.21936128,1.0000443259703669,35.30254443496502
7.223480832,1.0000396615579612,35.02671685558615
7.227600384,1.000032736739353,34.750973130998524
7.231719936,1.0000239974021445,34.47531978730538
7.235839488,1.0000139079076618,34.19979604845822
7.23995904,1.0000030823407822,33.92441889261051
7.24407808,0.9999923108498396,33.64915390524901
7.248197632,0.9999819575449418,33.37404130655545
7.252317184,0.9999728740699382,33.099090769527706
7.256436736,0.999965439930834,32.82420831334732
7.260556288,0.9999602239331605,32.54941616113261
7.26467584,0.9999574847677805,32.27467136310046
7.26879488,0.9999573120423334,31.999933799957976
7.272914432,0.999959921987146,31.725167472840894
7.277033984,0.9999649098200845,31.450342788953776
7.281153536,0.9999721449586112,31.175408567710353
7.285273088,0.9999811960685638,30.900356217294398
7.289392128,0.9999914408374326,30.625171321055873
7.29351168,1.0000023806718423,30.349803107372242
7.297631232,1.0000131944768762,30.074282530533942
7.301750784,1.0000234343389727,29.798609304762987
7.305870336,1.0000325041469054,29.52278153653638
7.309989888,1.0000395374186692,29.2468248979283
7.314108928,1.0000445006830165,28.97076663747648
7.31822848,1.0000468799356308,28.69464870190584
7.322348032,1.0000465742607387,28.418514714664106
7.326467584,1.0000437256757762,28.142363462731772
7.330587136,1.0000383151632042,27.866293390717473
7.334706688,1.0000307455534982,27.590283307303835
7.338825728,1.0000214756335755,27.314355207380867
7.34294528,1.0000110449366257,27.03859417857765
7.347064832,1.0000000358553394,26.762957609250766
7.351184384,0.9999891629288507,26.487463127461904
7.355303936,0.9999790197791318,26.212077196095976
7.359423488,0.9999702801913924,25.936821982023314
7.363542528,0.9999633261318512,25.661686545893343
7.36766208,0.9999588185454924,25.386598076554414
7.371781632,0.9999567146763743,25.111532340416133
7.375901184,0.9999573838348588,24.83648257101455
7.380020736,0.9999606770920528,24.561377181000914
7.384140288,0.9999664620925167,24.286193322526618
7.388259328,0.9999742991822962,24.010901076862115
7.39237888,0.9999838185664366,23.73547784928528
7.396498432,0.9999944251726063,23.45987848898704
7.400617984,1.0000055619663568,23.18413834039638
7.404737536,1.0000164005898462,22.908213108547518
7.408857088,1.0000264025895014,22.63213978748321
7.412976128,1.0000350041166937,22.355881189139666
7.41709568,1.0000416521663191,22.079517434764345
7.421215232,1.0000459099252081,21.803075049889525
7.425334784,1.000047597931097,21.52656301043457
7.429454336,1.0000465035113044,21.250032870822597
7.433573888,1.0000428882848995,20.973514147835388
7.437692928,1.0000367768575338,20.69705066483827
7.44181248,1.0000285977207632,20.42066274798111
7.445932032,1.0000188388175837,20.14439161800115
7.450051584,1.0000080402555758,19.86825950504788
7.454171136,0.9999969132981325,19.59223665687665
7.458290176,0.9999860665903983,19.316368751223543
7.462409728,0.9999761798524593,19.040611916867512
7.46652928,0.999967735211998,18.76497226361196
7.470648832,0.9999614380837406,18.48943051528007
7.474768384,0.9999575406418297,18.21393190715336
7.478887936,0.9999561122725049,17.938441847740357
7.483006976,0.9999576327550966,17.662952599367575
7.487126528,0.9999616626523635,17.38739117882135
7.49124608,0.999968076303151,17.11173798012839
7.495365632,0.9999766110916213,16.835957896335373
7.499485184,0.9999865806055243,16.560051443785728
7.503604736,0.99999748836665,16.28395825413293
7.507723776,1.0000086954369336,16.00768402087935
7.511843328,1.0000195024362963,15.731247061673603
7.51596288,1.0000293061124697,15.454634921068767
7.520082432,1.0000374952480378,15.177884171286859
7.524201984,1.0000434995549468,14.901015721962388
7.528321536,1.0000471522053085,14.624045445048594
7.532440576,1.0000481109462407,14.34703378647642
7.536560128,1.0000463335193972,14.070001855837862
7.54067968,1.0000418975154368,13.793000556599663
7.544799232,1.000035090471633,13.516032951630912
7.548918784,1.0000262286416868,13.239184456875591
7.553038336,1.0000160553937356,12.962426184065503
7.557157376,1.0000050188788707,12.68579264132268
7.561276928,0.9999937594808287,12.409292662838437
7.56539648,0.9999830680573534,12.13294438977617
7.569516032,0.9999733794130017,11.856704755139868
7.573635584,0.999965404301227,11.580553392799969
7.577755136,0.9999595997622536,11.304500707730448
7.581874176,0.999956387935732,11.028477069225254
7.585993728,0.9999558791020271,10.75245868874266
7.59011328,0.9999580009805438,10.476400477777572
7.594232832,0.9999629086217212,10.200286313087142
7.598352384,0.9999700618453761,9.924049187537916
7.602471424,0.9999790464704691,9.64767677943714
7.606590976,0.9999894425711134,9.371152924737412
7.610710528,1.0000006446995489,9.094435923739884
7.61483008,1.0000119517019157,8.817554344798607
7.618949632,1.0000226942626294,8.540482926935937
7.623069184,1.0000321498199005,8.263242741722339
7.627188224,1.0000398552950716,7.985864813514777
7.631307776,1.0000453415425403,7.708356324158284
7.635427328,1.0000481490718678,7.43078236219626
7.63954688,1.0000483431138385,7.153155791026508
7.643666432,1.0000457941890915,6.875513631701412
7.647785984,1.0000406201919716,6.597903055447799
7.651905024,1.0000331723974223,6.320345721487529
7.656024576,1.0000238628415399,6.04290103982358
7.660144128,1.000013255610714,5.765557091028247
7.66426368,1.0000018762875735,5.488349143708791
7.668383232,0.9999906280748413,5.211257441616408
7.672502784,0.9999799677343936,4.934320332656737
7.676621824,0.9999706668074475,4.657471073982163
7.680741376,0.9999632766656376,4.380730920729301
