freq,mag,phase
6.0,0.999993853671606,-15.058561480126931
6.011396096,0.9999135638626995,-15.454319372853064
6.022792192,0.9998371532307188,-15.849228438879207
6.034188288,0.9997683780288382,-16.24332203419252
6.045583872,0.9997103695544066,-16.636814829171897
6.056979968,0.9996662214273659,-17.029738433727584
6.068376064,0.9996381882944784,-17.422385485342843
6.07977216,0.9996273918144821,-17.81490695035021
6.091168256,0.9996348157338368,-18.207524297213318
6.102564352,0.9996602165838184,-18.60050837740356
6.113959936,0.999702052030058,-18.994080933996422
6.125356032,0.9997587315261223,-19.3884095642071
6.136752128,0.9998274000470176,-19.783641393462258
6.148148224,0.9999047777157746,-20.180018715315995
6.15954432,0.999987165343495,-20.57751253733376
6.170940416,1.0000705052491374,-20.976200920240558
6.182336,1.000150859454006,-21.376143028576706
6.193732096,1.000224143323707,-21.7771770489296
6.205128192,1.0002867429957927,-22.17922565177994
6.216524288,1.0003356254784275,-22.58217888999871
6.227920384,1.0003684112259537,-22.985818408397098
6.23931648,1.0003831103135163,-23.38989345961348
6.250712064,1.0003794341137804,-23.794200105898323
6.26210816,1.0003569381247905,-24.19854564639729
6.273504256,1.0003169867255257,-24.60264111109812
6.284900352,1.000261351520659,-25.00631226242024
6.296296448,1.0001924576462342,-25.409304844789368
6.307692544,1.0001137728719505,-25.81158586253372
6.319088128,1.000029081407953,-26.212939441714738
6.330484224,0.9999425405577167,-26.61340448783711
6.34188032,0.9998585081554934,-27.012905950554728
6.353276416,0.9997806800084873,-27.4115301206331
6.364672512,0.9997130678302203,-27.80937973167137
6.376068608,0.9996591342532999,-28.20666043253043
6.387464192,0.9996214244288341,-28.603436691905987
6.398860288,0.9996020141379554,-29.000026960830642
6.410256384,0.9996019437531644,-29.39661809031724
6.42165248,0.9996211501749294,-29.793467944002735
6.433048576,0.9996588805021206,-30.190855759801725
6.444444672,0.9997133901868248,-30.5889791902056
6.455840256,0.9997821905910768,-30.98799799784553
6.467236352,0.9998617358531663,-31.388165813038263
6.478632448,0.9999484892052841,-31.789517186189606
6.490028544,1.00003800671731,-32.19213007101867
6.50142464,1.0001262079860216,-32.59606180297802
6.512820736,1.0002085725307108,-33.00124754363843
6.52421632,1.000280948417912,-33.407578274614174
6.535612416,1.0003402654689233,-33.81488389656623
6.547008512,1.0003828919168243,-34.223038870056904
6.558404608,1.0004072336273484,-34.631828276651
6.569800704,1.0004117314352194,-35.04087993596172
6.5811968,1.0003959483689229,-35.450118681943536
6.592592384,1.0003608357183167,-35.85918755026776
6.60398848,1.0003080300117018,-36.267848086543964
6.615384576,1.0002395968429283,-36.67592471394227
6.626780672,1.0001592100775605,-37.083220160818165
6.638176768,1.0000707085145142,-37.48963522658687
6.649572864,0.9999781215715313,-37.89504887756382
6.660968448,0.9998861016494724,-38.29943267599285
6.672364544,0.9997990903811812,-38.702894912899744
6.68376064,0.9997214531600638,-39.10541912651389
6.695156736,0.9996567859182088,-39.50720793792862
6.706552832,0.9996084925886076,-39.9084007178817
6.717948928,0.9995791195426618,-40.30930623425249
6.729344512,0.9995699194362918,-40.710075033426754
6.740740608,0.9995816735442717,-41.111032627234096
6.752136704,0.9996137505072927,-41.51239602094789
6.7635328,0.9996647580224549,-41.91450146451312
6.774928896,0.9997321904281941,-42.31744939151958
6.786324992,0.9998131582536998,-42.72154884069715
6.797720576,0.9999033780682388,-43.126873846955924
6.809116672,0.9999988010136469,-43.53354214820055
6.820512768,1.0000946749915338,-43.94156402099214
6.831908864,1.0001862487472146,-44.3509868602164
6.84330496,1.0002691445526932,-44.761692522234846
6.854701056,1.0003393428668967,-45.1735222471037
6.86609664,1.0003932068209795,-45.58633623744511
6.877492736,1.0004280046213683,-45.99989882000301
6.888888832,1.0004423708151031,-46.413919244928465
6.900284928,1.0004349150321583,-46.828191251963155
6.911681024,1.0004062677898171,-47.24242417150444
6.92307712,1.000357712923258,-47.656336310804576
6.934472704,1.0002912785942715,-48.06969906222468
6.9458688,1.0002104140437038,-48.48230391737204
6.957264896,1.0001187143806936,-48.89397652804336
6.968660992,1.0000206665271465,-49.304643422195255
6.980057088,0.9999211775930819,-49.71419213344821
6.991453184,0.9998247848201791,-50.12270949966885
7.002848768,0.9997366318835884,-50.53020839358895
7.014244864,0.9996605329501289,-50.93679812562473
7.02564096,0.9996005802470638,-51.34267494012392
7.037037056,0.9995597636290231,-51.74810450944485
7.048433152,0.999540123930011,-52.153299293510884
7.059829248,0.9995426674210028,-52.55852576856801
7.071224832,0.9995674594880541,-52.964113418867655
7.082620928,0.9996133170530037,-53.37027161173879
7.094017024,0.9996782785048297,-53.77730990490572
7.10541312,0.9997590230738641,-54.18545721042007
7.116809216,0.9998519293761766,-54.59486381101704
7.128205312,0.9999523369672066,-55.00562873627911
7.139600896,1.0000554744820707,-55.417914685041836
7.150996992,1.0001564774933684,-55.83163389758679
7.162393088,1.0002501395318364,-56.246769672608536
7.173789184,1.0003321608563167,-56.66322229576642
7.18518528,1.0003982066940706,-57.08076627085126
7.196581376,1.0004451482462429,-57.49923635258808
7.20797696,1.000470602572413,-57.91835804605995
7.219373056,1.0004732103945078,-58.337830509077804
7.230769152,1.0004528377555373,-58.7573757847396
7.242165248,1.0004101485803174,-59.17670503437627
7.253561344,1.000347254797598,-59.59559415094367
7.26495744,1.000267179482982,-60.01370570269471
7.276353024,1.0001734355682574,-60.43094053671286
7.28774912,1.0000708472178892,-60.84708065002313
7.299145216,0.9999642184574881,-61.26209544808608
7.310541312,0.999858749007664,-61.67591612937418
7.321937408,0.9997596109498604,-62.08860243710116
7.333333504,0.9996714413484675,-62.50031167379415
7.3447296,0.9995986880867503,-62.911118228071416
7.356125184,0.999545242552599,-63.3213318373584
7.36752128,0.9995136461832461,-63.73109873186574
7.378917376,0.9995053227136879,-64.1408352324505
7.390313472,0.9995209355587401,-64.55076216835285
7.401709568,0.999559982192463,-64.96118370883113
7.413105664,0.999620535571587,-65.3724139523385
7.424501248,0.9996997778897672,-65.78469614575945
7.435897344,0.9997938430698297,-66.19824476769006
7.44729344,0.9998982920751259,-66.61323403636682
7.458689536,1.0000084069614066,-67.02973844005457
7.470085632,1.0001182758890566,-67.44786860997992
7.481481728,1.0002230130530776,-67.86748235544114
7.492877312,1.000317342371816,-68.28856585246318
7.504273408,1.0003965302212532,-68.71095850151475
7.515669504,1.0004567594478573,-69.13441518504364
7.5270656,1.0004951006539087,-69.55864863728279
7.538461696,1.0005094649486825,-69.98347964464499
7.549857792,1.0004990216238685,-70.4084834882374
7.561253376,1.000464281334672,-70.83341479590416
7.572649472,1.000406727647701,-71.25793542843921
7.584045568,1.0003289426709987,-71.68178652687288
7.595441664,1.000234910253381,-72.10476368910852
7.60683776,1.0001287389675437,-72.52666868434274
7.618233856,1.0000156509793838,-72.94733527482047
7.62962944,0.9999013485454106,-73.3667528042242
7.641025536,0.999791147582063,-73.784901450683
7.652421632,0.999690426059813,-74.20195034558738
7.663817728,0.999604195524658,-74.61790870588773
7.675213824,0.9995367441220533,-75.03307895830068
7.68660992,0.9994914158606809,-75.44771335904177
7.698005504,0.9994704483979633,-75.86208816382393
7.7094016,0.9994749486730584,-76.2765300520783
7.720797696,0.9995052006958582,-76.69133712024035
7.732193792,0.9995593197993893,-77.10686840728826
7.743589888,0.9996352416919335,-77.52335974907001
7.754985984,0.9997289929828698,-77.94115477120488
7.766381568,0.9998364240839263,-78.36034757069682
7.777777664,0.9999522496288301,-78.78115476325925
7.78917376,1.0000708238249265,-79.20361699710924
7.800569856,1.0001864400296698,-79.62777361782655
7.811965952,1.000293534359647,-80.05353589043273
7.823362048,1.0003867037642902,-80.48073376784728
7.834757632,1.0004617015513615,-80.90921428002477
7.846153728,1.0005144201370044,-81.3386574264624
7.857549824,1.000542242787171,-81.76885440649129
7.86894592,1.0005440354006132,-82.19943484109885
7.880342016,1.0005192116437596,-82.63001648152174
7.891738112,1.0004689912455884,-83.06037030085486
7.903133696,1.0003956421303095,-83.49015431483538
7.914529792,1.0003027325201272,-83.91905857987057
7.925925888,1.000194529538254,-84.3468861214664
7.937321984,1.0000763087355886,-84.77344278844936
7.94871808,0.9999535943566159,-85.1986894232126
7.960114176,0.9998325461587033,-85.62257431046642
7.97150976,0.999718887041257,-86.0451243825663
7.982905856,0.999618279975762,-86.46647924622859
7.994301952,0.9995355960265927,-86.88686132443132
8.005698048,0.9994750235207467,-87.3065123754803
8.017094144,0.9994394870737746,-87.72569347523557
8.02849024,0.9994310176066477,-88.14479697230205
8.039885824,0.9994499221680082,-88.56412375192691
8.05128192,0.9994957580553515,-88.98402259987945
8.062678016,0.9995660628440269,-89.40483634214858
8.074074112,0.9996577859294057,-89.8268317325588
8.085470208,0.9997663534238665,-90.25030609785635
8.096866304,0.9998868977747283,-90.6753880277391
8.108261888,1.0000134308051063,-91.10221295099876
8.119657984,1.000139700380751,-91.53083919058169
8.13105408,1.0002598196511796,-91.961193046382
8.142450176,1.0003677970722094,-92.39320188442844
8.153846272,1.0004584451563705,-92.82667542719616
8.165242368,1.0005270856037627,-93.26133023409136
8.176637952,1.0005706368252487,-93.69691094089802
8.188034048,1.0005864779655766,-94.1330799210613
8.199430144,1.0005739159712088,-94.56948016320928
8.21082624,1.0005333762750426,-95.00572019871608
8.222222336,1.0004666557861546,-95.44150163341996
8.233618432,1.0003769704744931,-95.8764743754613
8.245014016,1.0002684134508986,-96.31040440121619
8.256410112,1.000146272889653,-96.74308365652445
8.267806208,1.0000162983725083,-97.17433968228111
8.279202304,0.9998847825643233,-97.60410952812995
8.2905984,0.9997581003908094,-98.03244080420474
8.301994496,0.9996425319021034,-98.45941735375219
8.31339008,0.9995435174933665,-98.88520842765335
8.324786176,0.9994661158717888,-99.31004131846748
8.336182272,0.9994141519356097,-99.73422754245479
8.347578368,0.9993903530727978,-100.15811354539174
8.358974464,0.9993958413061348,-100.58203147331358
8.37037056,0.9994306214078439,-101.00637721679425
8.381766144,0.9994931105636197,-101.43150200421627
8.39316224,0.9995804540219366,-101.8577432047041
8.404558336,0.9996884107211231,-102.2854153890115
8.415954432,0.9998119923647578,-102.7147157306308
8.427350528,0.9999452454464418,-103.1458566731359
8.438746624,1.0000817367524206,-103.57886134649148
8.450142208,1.0002147425756216,-104.0137645769274
8.461538304,1.0003379927611913,-104.450490802023
8.4729344,1.0004454355757348,-104.88885924181584
8.484330496,1.0005316749521158,-105.32869052919797
8.495726592,1.0005924267471578,-105.76962222711663
8.507122688,1.0006247722563901,-106.21136480288875
8.518518272,1.000626939984,-106.65354074394196
8.529914368,1.0005986466560817,-107.0957335974981
8.541310464,1.000541162403955,-107.53759182660461
8.55270656,1.000457042923284,-107.97875902822403
8.564102656,1.000350306072269,-108.41894474389646
8.575498752,1.0002258825090498,-108.85783162970831
8.586894336,1.0000898828373421,-109.29528468439557
8.598290432,0.9999488464505761,-109.73115800098444
8.609686528,0.9998094277909136,-110.16547321284754
8.621082624,0.9996783342931589,-110.59820784536426
8.63247872,0.9995621336551949,-111.02958450107147
8.643874816,0.9994665296103641,-111.45978296656602
8.655270912,0.9993961858166573,-111.88908565201301
8.666667008,0.999354713438188,-112.31785048605767
8.678063104,0.9993442908320467,-112.74643658103885
8.6894592,0.9993653994892467,-113.17528458631834
8.700854272,0.999417339129111,-113.60475037221785
8.712250368,0.9994978187634096,-114.03522155004976
8.723646464,0.9996028101576017,-114.46705030724927
8.73504256,0.9997275425869465,-114.9004963832586
8.746438656,0.9998659930555979,-115.33578646339294
8.757834752,1.0000115906280416,-115.77308564484622
8.769230848,1.0001571978911254,-116.2123935721381
8.780626944,1.0002958409101854,-116.65370325422734
8.79202304,1.000420907654308,-117.09688166865409
8.803419136,1.000526074152162,-117.54167832947871
8.814815232,1.000606155121239,-117.98788371830696
8.826211328,1.0006572142746,-118.43510654665012
8.8376064,1.0006767413553361,-118.88301457554189
8.849002496,1.0006634156445389,-119.33115000381382
8.860398592,1.000617921643203,-119.7791131446839
8.871794688,1.0005421103447163,-120.22652554841154
8.883190784,1.000439699924952,-120.67301961629461
8.89458688,1.0003153760605257,-121.11825357396779
8.905982976,1.0001750102880806,-121.5620383600702
8.917379072,1.00002544191782,-122.00416330147237
8.928775168,0.9998737397710307,-122.44457019550244
8.940171264,0.9997272481866175,-122.88326565506419
8.95156736,0.9995932178682191,-123.32035269443521
8.962963456,0.9994780310054175,-123.75602642276462
8.974358528,0.9993875359009486,-124.19061105256122
8.985754624,0.9993260233828519,-124.62437268803875
8.99715072,0.9992968449425701,-125.05774287365128
9.008546816,0.9993014392193397,-125.49109222211935
9.019942912,0.9993398636690262,-125.9248671654835
9.031339008,0.9994104072185793,-126.35950120093906
9.042735104,0.9995097028798394,-126.79538812543488
9.0541312,0.9996331520463437,-127.23285765354318
9.065527296,0.9997749289701527,-127.67217627244148
9.076923392,0.999928309232542,-128.1135552252521
9.088319488,1.0000856707626193,-128.55706800953968
9.099715584,1.0002397020337153,-129.00275043958953
9.111110656,1.0003828558419434,-129.45050517269556
9.122506752,1.0005080948617018,-129.90016014773147
9.133902848,1.0006092639686175,-130.3514332509992
9.145298944,1.0006814265733033,-130.80399987421254
9.15669504,1.0007209867698093,-131.25750027049475
9.168091136,1.0007257424156404,-131.71145435732348
9.179487232,1.0006953958669755,-132.16549428249232
9.190883328,1.0006311271735493,-132.6191217445613
9.202279424,1.000535940235172,-133.07196588464478
9.21367552,1.0004143591481116,-133.5236212161305
9.225071616,1.000271856404391,-133.97378817036292
9.236467712,1.0001153922158295,-134.4222782539302
9.247862784,0.9999524865921012,-134.86893323476193
9.25925888,0.9997909178476794,-135.31372545016163
9.270654976,0.9996385490189036,-135.7566947462789
9.282051072,0.9995027681722831,-136.19800960501837
9.293447168,0.999390254125406,-136.63790850635036
9.304843264,0.9993065144486144,-137.07675837211949
9.31623936,0.9992558336646793,-137.51487382776995
9.327635456,0.9992408156681809,-137.95275118526862
9.339031552,0.9992623518095604,-138.39084030583498
9.350427648,0.9993196926797431,-138.82956263716696
9.361823744,0.9994100905812608,-139.2694108925376
9.37321984,0.9995294264638679,-139.71070837485337
9.384614912,0.9996721162374347,-140.1538669162255
9.396011008,0.9998312345304659,-140.59910594003415
9.407407104,0.9999992186026339,-141.04658686486863
9.4188032,1.0001680561940698,-141.49635990552986
9.430199296,1.0003295891289392,-141.9484260295965
9.441595392,1.0004758934723503,-142.40262248510285
9.452991488,1.0005999005681239,-142.85875317391253
9.464387584,1.0006955019192822,-143.31643929855343
9.47578368,1.0007578434847526,-143.775355136312
9.487179776,1.000783856615639,-144.23500997398372
9.498575872,1.0007721459970798,-144.69496152315037
9.509971968,1.0007227973488249,-145.15474032751732
9.52136704,1.0006383899717757,-145.61388636944218
9.532763136,1.000522465963031,-146.07194534917718
9.544159232,1.0003806037610492,-146.5285964781445
9.555555328,1.000219592342259,-146.9835032727588
9.566951424,1.0000469309408537,-147.43650725434236
9.57834752,0.9998709501497612,-147.88747282912828
9.589743616,0.9997002295368481,-148.33643269833917
9.601139712,0.9995430016096444,-148.7834707155771
9.612535808,0.9994068914712129,-149.22883193850714
9.623931904,0.9992986810414706,-149.67280957726973
9.635328,0.9992236571970466,-150.1157539842585
9.646724096,0.999185719563835,-150.55815285249514
9.658119168,0.9991868122305928,-151.0004491938387
9.669515264,0.999227188145821,-151.44317944584228
9.68091136,0.9993051079583296,-151.8867917020233
9.692307456,0.9994169243483263,-152.33178193186896
9.703703552,0.9995573142615711,-152.7785044050065
9.715099648,0.9997198525405802,-153.22733482608004
9.726495744,0.9998966900523012,-153.67845775067582
9.73789184,1.0000793356772337,-154.13203618040066
9.749287936,1.0002590022602926,-154.5880739554151
9.760684032,1.0004270277916758,-155.04650463973726
9.772080128,1.0005752699092123,-155.5071432502861
9.783476224,1.0006964340190505,-155.9696567512232
9.794871296,1.00078450313428,-156.43368740704443
9.806267392,1.0008351655010261,-156.8987976143407
9.817663488,1.0008456002396038,-157.36449532204398
9.829059584,1.000815225147528,-157.83028174808703
9.84045568,1.0007453009645437,-158.29562761879748
9.851851776,1.0006388586125223,-158.76006057638907
9.863247872,1.0005008679855427,-159.22314140479452
9.874643968,1.0003379378877555,-159.68451954135827
9.886040064,1.0001575737551505,-160.14392680213942
9.89743616,0.9999687044296085,-160.60117187695687
9.908832256,0.9997799970939675,-161.0562075044639
9.920228352,0.9996008415147729,-161.50906701012693
9.931623424,0.999439854506264,-161.95992726851603
9.94301952,0.9993050081506222,-162.4090950459406
9.954415616,0.9992027425459521,-162.85688945895487
9.965811712,0.9991385459825035,-163.30377494521127
9.977207808,0.9991153894957401,-163.75023955726306
9.988603904,0.9991347221919024,-164.1968538693165
10.0,0.9991959310493681,-164.64408958123113
10.011396096,0.9992961693201968,-165.0925065938213
10.022792192,0.9994309666926707,-165.54254033338466
10.034188288,0.999593853472773,-165.99464329338727
10.045584384,0.9997770117051832,-166.44906495342462
10.05698048,0.9999719131103098,-166.9060402600063
10.068376576,1.0001690840661124,-167.36566102833623
10.079771648,1.0003592647577841,-167.82793181677735
10.091167744,1.0005328543427727,-168.29266908304402
10.10256384,1.000681594044443,-168.7596249395572
10.113959936,1.0007982254531145,-169.22844279910535
10.125356032,1.000876881934445,-169.6986764658212
10.136752128,1.0009135997826368,-170.16987380624556
10.148148224,1.0009064326270185,-170.64142346955484
10.15954432,1.0008552541886713,-171.11284335623995
10.170940416,1.0007625492363847,-171.5835280601383
10.182336512,1.0006323771013264,-172.05300764412033
10.193732608,1.0004709264248437,-172.52082374525986
10.205128704,1.0002857019087958,-172.9866572513705
10.216523776,1.0000855857250415,-173.45022722130852
10.227919872,0.9998800055258579,-173.9113986851725
10.239315968,0.9996789493825438,-174.37016724723316
10.250712064,0.9994921429762926,-174.8266348354273
10.26210816,0.9993286919066902,-175.28102396982268
10.273504256,0.9991965493675692,-175.73369740686374
10.284900352,0.9991023067279562,-176.1850682259587
10.296296448,0.9990508538111292,-176.63562197900217
10.307692544,0.9990447197617514,-177.0859827813701
10.31908864,0.9990847188292534,-177.5366649478377
10.330484736,0.9991689260094742,-177.9882664285239
10.341880832,0.9992936976600857,-178.4413347625123
10.353275904,0.999453056262563,-178.89632878774046
10.364672,0.9996396938196982,-179.3536708329366
10.376068096,0.9998446552046137,-179.81362485563648
10.387464192,1.0000580086239477,179.72360432922912
10.398860288,1.0002698439239408,179.2579987437631
10.410256384,1.0004696376805855,178.78961912941276
10.42165248,1.0006478900128637,178.318660536499
10.433048576,1.000795717164088,177.84546067963274
10.444444672,1.0009059537099492,177.37047531207526
10.455840768,1.000973079175119,176.89413374352569
10.467236864,1.0009935945174488,176.41705512525857
10.47863296,1.0009662570922504,175.93984414470864
10.490028032,1.000892022793877,175.46305725412162
10.501424128,1.000774306658457,174.9872949555679
10.512820224,1.0006184003079623,174.51307348255133
10.52421632,1.0004317745107372,174.0408312161239
10.535612416,1.000222928551338,173.5709104679448
