freq,mag,phase
6.0,1.000407611406909,-41.57466556463787
6.005843456,1.0005517699760957,-41.821635433415544
6.011687424,1.000664276078862,-42.0704361957908
6.01753088,1.0007382551806143,-42.320580599143504
6.023374848,1.000769692172128,-42.57156970049372
6.029218304,1.0007564438549608,-42.822713060408695
6.035062272,1.000699650364684,-43.07346694803872
6.040905728,1.0006021806590133,-43.32319779046227
6.046749696,1.000470044237839,-43.5714448774456
6.052593152,1.0003103874876307,-43.81769895146754
6.058436608,1.0001323153286743,-44.06172019432902
6.064280576,0.9999464209639497,-44.303262742474956
6.070124032,0.9997631924287594,-44.54232594070334
6.075968,0.9995930273503253,-44.7790534131778
6.081811456,0.9994458641297442,-45.0135644089847
6.087655424,0.9993304042478424,-45.246367970180515
6.09349888,0.9992528730841724,-45.47787959499729
6.099342336,0.9992182235425483,-45.70868910019548
6.105186304,0.9992280717379994,-45.93935375411364
6.11102976,0.999282125302423,-46.17053808350138
6.116873728,0.999377101431029,-46.40286033437633
6.122717184,0.9995079400448865,-46.63673671025067
6.128561152,0.9996666247011512,-46.8727312521497
6.134404608,0.9998443077973216,-47.11110534023009
6.140248576,1.0000307961721209,-47.35207629134222
6.146092032,1.0002153970306393,-47.59562853094997
6.151935488,1.0003874838432187,-47.841732812890335
6.157779456,1.0005370034082068,-48.090175643457535
6.163622912,1.0006554532191454,-48.34047082860209
6.16946688,1.000736100955328,-48.59223377268372
6.175310336,1.0007742239672854,-48.84488568185201
6.181154304,1.0007677436430733,-49.0978487451057
6.18699776,1.0007166886277477,-49.35042619815576
6.192841728,1.0006242034023254,-49.602128499484245
6.198685184,1.0004955602856873,-49.8523763655706
6.20452864,1.0003380692345492,-50.100677452659234
6.210372608,1.0001607995640274,-50.34674180372863
6.216216064,0.9999737373200452,-50.590361261292216
6.222060032,0.9997877833708695,-50.8314597541216
6.227903488,0.9996136670421796,-51.07011889893539
6.233747456,0.9994613349090699,-51.30660471809966
6.239590912,0.9993395348180615,-51.54123346088025
6.245434368,0.9992555261563234,-51.77451158024691
6.251278336,0.9992138313286848,-52.00693988959922
6.257121792,0.9992171339723879,-52.239212338788334
6.26296576,0.9992651838524642,-52.47189525825462
6.268809216,0.9993550914716566,-52.705574320428035
6.274653184,0.9994820780228433,-52.94081251375082
6.28049664,0.9996385144681419,-53.178077192208015
6.286340608,0.999815594032417,-53.417743769037806
6.292184064,1.0000030002430058,-53.65993633503791
6.29802752,1.0001902719531537,-53.904844392410624
6.303871488,1.0003661841248652,-54.15234287579469
6.309714944,1.0005210366506425,-54.40211765621756
6.315558912,1.000645693986078,-54.65394188305733
6.321402368,1.0007330866487139,-54.90728824042038
6.327246336,1.000778275079664,-55.1616040276685
6.333089792,1.0007783869593068,-55.41630628548757
6.33893376,1.0007336439043708,-55.670782343888476
6.344777216,1.000646239654407,-55.92440022127435
6.350620672,1.0005215363674862,-56.17660529423433
6.35646464,1.000366527837386,-56.42695882238157
6.362308096,1.0001900169239148,-56.67511209253486
6.368152064,1.0000022411069307,-56.92080921250675
6.37399552,0.9998137575425008,-57.163899789578515
6.379839488,0.9996355217027115,-57.404595628949885
6.385682944,0.9994780043888485,-57.643001035768094
6.391526912,0.9993501232610268,-57.87948403423213
6.397370368,0.9992589791347145,-58.11453692367426
6.403213824,0.9992101944366181,-58.34864038855698
6.409057792,0.9992066969273168,-58.58245105049383
6.414901248,0.9992483460466077,-58.81660158336617
6.420745216,0.9993331003575467,-59.05166485281189
6.426588672,0.9994556564455946,-59.2882653656273
6.43243264,0.9996095585402278,-59.52683236995204
6.438276096,0.999785706211184,-59.76772783305932
6.444119552,0.9999740134889473,-60.011198984888466
6.44996352,1.000163611176106,-60.25737607029574
6.455806976,1.0003436449248284,-60.506167669592365
6.461650944,1.000503668024301,-60.75734501036115
6.4674944,1.0006347652340972,-61.01062410222343
6.473338368,1.0007289295474224,-61.265499241828785
6.479181824,1.0007813604005154,-61.52149082328493
6.485025792,1.0007884102341755,-61.77794219947398
6.490869248,1.000750003469331,-62.03427328508734
6.496712704,1.0006683132935563,-62.28980001239148
6.502556672,1.0005477435634142,-62.54399515824543
6.508400128,1.0003956124469497,-62.79637876877691
6.514244096,1.0002200198612572,-63.04658373333932
6.520087552,1.000031453837321,-63.29435964468209
6.52593152,0.9998408374805634,-63.539516779976644
6.531774976,0.9996588095513548,-63.78218276635001
6.537618944,0.9994959556459558,-64.02253289678862
6.5434624,0.9993616519948789,-64.2608908107476
6.549305856,0.9992635869511592,-64.49769104127446
6.555149824,0.9992076829881856,-64.73348742278367
6.56099328,0.9991967456480215,-64.96888392030803
6.566837248,0.9992318512649806,-65.20448223256821
6.572680704,0.9993109882670618,-65.44093074102885
6.578524672,0.9994293650116229,-65.67882485643266
6.584368128,0.999580242678047,-65.9186347345186
6.590211584,0.9997552149931667,-66.1607756637085
6.596055552,0.9999440028626924,-66.40550681424988
6.601899008,1.0001357884152255,-66.65289579997604
6.607742976,1.0003196632527014,-66.90295876548531
6.613586432,1.0004850962979308,-67.1555152409794
6.6194304,1.0006223920191202,-67.4102119860782
6.625273856,1.0007237085306597,-67.66663082626307
6.631117824,1.000783396564494,-67.92424330761929
6.63696128,1.0007978416427619,-68.18237764818782
6.642804736,1.0007660895820965,-68.4404973152884
6.648648704,1.0006902910533548,-68.69794224001294
6.65449216,1.0005743198605848,-68.95414187844594
6.660336128,1.0004250902786516,-69.20856384637827
6.666179584,1.000251082768669,-69.46080178071189
6.672023552,1.0000621609257354,-69.71059022844751
6.677867008,0.9998692570101454,-69.95783168824236
6.683710976,0.9996833898190487,-70.20251046024268
6.689554432,0.9995152939544363,-70.44479887379318
6.695397888,0.9993746515191804,-70.68498867400845
6.701241856,0.9992695558995949,-70.92356786153454
6.707085312,0.9992060134588285,-71.16102205664245
6.71292928,0.999187793873909,-71.39796935563975
6.718772736,0.999215984492289,-71.63502024749769
6.724616704,0.9992890701838166,-71.87285409607708
6.73046016,0.9994027203269539,-72.11203088314548
6.736303616,0.9995503902403459,-72.35308155472195
6.742147584,0.9997237796423748,-72.5964367501576
6.74799104,0.9999128080179405,-72.84233460010513
6.753835008,1.0001068695636681,-73.09093744061848
6.759678464,1.0002944069184008,-73.3422779230357
6.765522432,1.0004649567829553,-73.59608251761685
6.771365888,1.0006087656761689,-73.85217850023038
6.777209856,1.0007172033808664,-74.1100930045124
6.783053312,1.0007844541691744,-74.36926334213003
6.788896768,1.0008064237125935,-74.62909803949273
6.794740736,1.000781813216425,-74.88900526363183
6.800584192,1.0007119891929157,-75.14832331280935
6.80642816,1.0006010897283748,-75.40642277109379
6.812271616,1.0004552655884347,-75.66286211719842
6.818115584,1.0002829050959663,-75.91712666886825
6.82395904,1.0000937709023685,-76.16902081553928
6.829803008,0.9998988838764696,-76.41824422780273
6.835646464,0.9997093350461895,-76.6649355842167
6.84148992,0.9995360475166272,-76.9091546740633
6.847333888,0.999389058608396,-77.15119451924865
6.853177344,0.999276709937777,-77.39149953643023
6.859021312,0.9992055158312954,-77.6306208210042
6.864864768,0.9991797550316882,-77.86910973842228
6.870708736,0.9992007028055844,-78.10761340009203
6.876552192,0.9992674255719267,-78.3467684067153
6.88239616,0.9993758716335311,-78.58721897093298
6.888239616,0.9995200532397029,-78.82947277634254
6.894083072,0.9996916413563265,-79.07397338205035
6.89992704,0.9998808146985756,-79.32104139188023
6.905770496,1.0000765326038878,-79.57079665422964
6.911614464,1.0002678502342577,-79.8232960145212
6.91745792,1.0004435398798248,-80.07843128386416
6.923301888,1.0005936448600194,-80.33583247765941
6.929145344,1.0007094393655067,-80.5951776760556
6.9349888,1.000784531486689,-80.85584718232305
6.940832768,1.0008142378407072,-81.11734771437449
6.946676224,1.0007969506417052,-81.37899342308347
6.952520192,1.0007336096251587,-81.64014693748467
6.958363648,1.0006280052637158,-81.90017396537158
6.964207616,1.00048588016265,-82.15856388418968
6.970051072,1.0003154298320174,-82.41486327257375
6.97589504,1.0001265266329495,-82.66873562648094
6.981738496,0.9999298407742642,-82.92002760154004
6.987581952,0.9997368398444602,-83.16868912929537
6.99342592,0.9995583998025552,-83.41479813349106
6.999269376,0.999404945521132,-83.65870061209597
7.005113344,0.999285178217329,-83.90075100983577
7.0109568,0.9992061054375675,-84.14150016330652
7.016800768,0.9991723488313964,-84.38151410673655
7.022644224,0.999186057674908,-84.62143258382848
7.028488192,0.9992459974063612,-84.86192154172028
7.034331648,0.9993490959282771,-85.10357007796905
7.040175104,0.9994892772191786,-85.34702137290704
7.046019072,0.9996587139817074,-85.59263946345206
7.051862528,0.9998475055362421,-85.84077922107996
7.057706496,1.0000450525141356,-86.09163663618008
7.063549952,1.0002398098247014,-86.3453106305392
7.06939392,1.0004206172663812,-86.60157874293517
7.075237376,1.0005772043414374,-86.86029577194634
7.081080832,1.0007004527162702,-87.1209883122645
7.0869248,1.0007832645724457,-87.38316662290052
7.092768256,1.0008210976126197,-87.64622559979249
7.098612224,1.0008113853515934,-87.90952351977327
7.10445568,1.0007550706578316,-88.17248601552143
7.110299648,1.0006548844998115,-88.43438963733011
7.116143104,1.0005168646931981,-88.69474189538474
7.121987072,1.0003488098445608,-88.95300028520614
7.127830528,1.0001603009342663,-89.20891102287897
7.133673984,0.9999621617164107,-89.46214862047795
7.139517952,0.9997656805018572,-89.71276680798697
7.145361408,0.9995822267223925,-89.96078740714594
7.151205376,0.9994223642535938,-90.20648003554973
7.157048832,0.9992951587252353,-90.45027907469353
7.1628928,0.999208086144391,-90.69262942082507
7.168736256,0.9991662423114527,-90.93413202777394
7.174580224,0.999171877044221,-91.1754189655106
7.18042368,0.9992248459009686,-91.41721000288199
7.186267136,0.999322159126832,-91.66006527347406
7.192111104,0.9994581599803861,-91.90458934372221
7.19795456,0.9996250260345263,-92.15126057349555
7.203798528,0.999813380680513,-92.40043430001847
7.209641984,1.0000122747960427,-92.65237791515571
7.215485952,1.0002102980082686,-92.90708261703784
7.221329408,1.0003961123560603,-93.16455834901917
7.227172864,1.0005591284489306,-93.4244476826043
7.233016832,1.0006898842387513,-93.68644154516907
7.238860288,1.0007807773328348,-93.95003080117068
7.244704256,1.0008267883353412,-94.21462105326228
7.250547712,1.0008252491190364,-94.47956259423577
7.25639168,1.0007759346049248,-94.74422746791423
7.262235136,1.000681864220148,-95.00797698288733
7.268079104,1.0005483751100426,-95.27021545157238
7.27392256,1.0003829016443564,-95.5304216096018
7.279766016,1.0001951039769854,-95.78826701808794
7.285609984,0.9999957343528494,-96.04350779399009
7.29145344,0.9997960368793606,-96.29602612792065
7.297297408,0.9996076650599959,-96.54591257788094
7.303140864,0.9994413901041206,-96.79341174729569
7.308984832,0.9993066591104325,-97.03888642860157
7.314828288,0.999211392843293,-97.28278986095373
7.320672256,0.9991611301970456,-97.52577787697295
7.326515712,0.9991586656056708,-97.76840171060154
7.332359168,0.9992042979356583,-98.01140010250185
7.338203136,0.9992954326750727,-98.25539819675042
7.344046592,0.9994266525743271,-98.50099983464975
7.34989056,0.9995907133748327,-98.74871470719172
7.355734016,0.9997781937678486,-98.99884602138225
7.361577984,0.9999782524865091,-99.25174446461158
7.36742144,1.000179309702258,-99.50749921106078
7.373265408,1.0003701080017928,-99.76598433964705
7.379108864,1.000539426830352,-100.02702996031267
7.38495232,1.0006778267773282,-100.29025322749605
7.390796288,1.0007770300367358,-100.55517302536
7.396639744,1.0008315291130476,-100.82119468086393
7.402483712,1.0008381284057115,-101.08771759119598
7.408327168,1.0007963821373447,-101.35406751480936
7.414171136,1.0007087222882574,-101.6195367611246
7.420014592,1.0005801693017984,-101.88361953323033
7.425858048,1.0004177214977032,-102.14572612020066
7.431702016,1.000231048120332,-102.40547944579512
7.437545472,1.0000305461560177,-102.66266085812921
7.44338944,0.9998279477136262,-102.91705428943548
7.449232896,0.9996346174629106,-103.1688062805722
7.455076864,0.9994619667747142,-103.41803603287649
7.46092032,0.99931971028801,-103.66514996241138
7.466764288,0.9992160884336448,-103.91060049991155
7.472607744,0.9991571538000201,-104.15498759214059
7.4784512,0.9991463843547408,-104.39896288981683
7.484295168,0.9991842126307193,-104.64312527885963
7.490138624,0.9992686799075409,-104.88820955548819
7.495982592,0.999394952432221,-105.13480536122502
7.501826048,0.999555890184662,-105.38346431768484
7.507670016,0.9997420446475984,-105.63451477472476
7.513513472,0.9999428889875086,-105.88832951491409
7.51935744,1.0001468815742842,-106.14499243701378
7.525200896,1.0003423814493717,-106.40445223513323
7.531044352,1.0005181634034204,-106.6665488646281
7.53688832,1.0006640739313148,-106.93089947021132
7.542731776,1.000771691273935,-107.1970714816617
7.548575744,1.0008350444204506,-107.46445423217297
7.5544192,1.0008500718522364,-107.73248616013629
7.560263168,1.0008162448831825,-108.00040493645803
7.566106624,1.000735410205782,-108.26760038004143
7.57195008,1.0006119315110036,-108.53342034474079
7.577794048,1.0004530469219248,-108.7973778745029
7.583637504,1.0002677990939688,-109.0590000532564
7.589481472,1.0000665481699211,-109.31804363857405
7.595324928,0.9998612106089089,-109.57428227231996
7.601168896,0.9996633209111181,-109.82779922096607
7.607012352,0.999484162951503,-110.07876087614463
7.61285632,0.9993343248703391,-110.32747133447823
7.618699776,0.9992222591739512,-110.57445683449113
7.624543232,0.999154503889824,-110.82019135231042
7.6303872,0.9991348751993995,-111.06540020547453
7.636230656,0.9991646659134962,-111.31073072601137
7.642074624,0.9992422012081544,-111.55683441324193
7.64791808,0.9993630296186431,-111.80434215783336
7.653762048,0.9995203040608652,-112.0538585810384
7.659605504,0.9997049188161303,-112.30575116265884
7.665449472,0.999906273856773,-112.56039573662972
7.671292928,1.0001130500498503,-112.81787851240942
7.677136384,1.0003130663400122,-113.0782637249501
7.682980352,1.0004952015460975,-113.34130017502893
7.688823808,1.0006487301082068,-113.60671690961773
7.694667776,1.000764894232429,-113.87403159025209
7.700511232,1.0008371548426143,-114.14271686910286
7.7063552,1.0008611617982413,-114.4121056145969
7.712198656,1.00083562849117,-114.68156958601102
7.718042112,1.0007618125034852,-114.95035216980726
7.72388608,1.0006440234278522,-115.21792092657505
7.729729536,1.0004888685160447,-115.48362332501102
7.735573504,1.000305366362046,-115.74706367867934
7.74141696,1.0001038668110604,-116.00787487952061
7.747260928,0.9998959290954978,-116.265916812614
7.753104384,0.9996934837167881,-116.52118350265957
7.758948352,0.9995081814843142,-116.77380627313138
7.764791808,0.9993507070057966,-117.02409155637251
7.770635264,0.999229908182458,-117.27250022787335
7.776479232,0.999153068707008,-117.51956277663601
7.782322688,0.9991244761571095,-117.7659793615509
7.788166656,0.9991458582955235,-118.0123506871466
7.794010112,0.9992160119222021,-118.25941246895331
7.79985408,0.9993309902051203,-118.50781679673689
7.805697536,0.999484179932709,-118.75807556777569
7.811541504,0.9996668184548912,-119.01073531575665
7.81738496,0.9998684219697446,-119.26608679690803
7.823228416,1.0000776067003132,-119.52435766853873
7.829072384,1.0002821575128897,-119.78546907712459
7.83491584,1.0004704620311589,-120.04940978701087
7.840759808,1.0006316956007122,-120.31575781230177
7.846603264,1.0007564872398553,-120.5841768721636
7.852447232,1.00083788768963,-120.85401862727798
7.858290688,1.0008710052946679,-121.12472002572312
7.864134656,1.0008540112489572,-121.39559023113162
7.869978112,1.0007877549046844,-121.66593797748412
7.875821568,1.000676066163949,-121.93508881972386
7.881665536,1.0005253105829652,-122.20250595422097
7.887508992,1.0003438366127841,-122.46765515143868
7.89335296,1.000142360742433,-122.73023155599205
7.899196416,0.9999321319450991,-122.98999251467619
7.905040384,0.9997253520295255,-123.24692217559225
7.91088384,0.9995339323356037,-123.50117081270268
7.916727296,0.9993686982511472,-123.75294483762343
7.922571264,0.9992392523601008,-124.00274553265287
7.92841472,0.9991531268958574,-124.25107756748446
7.934258688,0.9991152524417732,-124.49864262630793
7.940102144,0.9991278266600069,-124.74601375739196
7.945946112,0.9991902220332042,-124.99394493360735
7.951789568,0.9992988756688118,-125.24313465948269
7.957633536,0.9994476669373352,-125.49410834791921
7.963476992,0.9996279559560163,-125.74741103173301
7.969320448,0.9998295109065276,-126.0034330823645
7.975164416,1.0000407092474781,-126.26230009568815
7.981007872,1.0002495048398723,-126.52411879880856
7.98685184,1.0004438654772032,-126.78876707677718
7.992695296,1.0006127313060174,-127.05596877111473
7.998539264,1.0007463926658038,-127.32532055349449
8.00438272,1.0008370792690426,-127.59624886941175
8.010226688,1.0008797102507838,-127.8681736826292
8.016070144,1.0008716132912359,-128.14035196881198
8.0219136,1.000813355626443,-128.4121422948965
8.027757568,1.0007081512818996,-128.68284538217668
8.033601024,1.000562020055164,-128.9518540450071
8.039444992,1.0003832199712965,-129.21868196572643
8.045288448,1.0001819626476083,-129.48291022823383
8.051132416,0.9999698551556219,-129.74434173840496
8.056975872,0.9997589938455282,-130.00287838640412
8.062819328,0.9995614514754348,-130.2586417988022
8.068663296,0.9993885463931323,-130.51189265442738
8.074506752,0.9992502961157003,-130.76303919730805
8.08035072,0.9991547714148523,-131.0125564135033
8.086194176,0.9991072949931772,-131.26115745193513
8.092038144,0.9991107613354395,-131.50946122166764
8.0978816,0.9991649813608289,-131.75823773381168
8.103725568,0.999266928857776,-132.0080661794468
8.109569024,0.9994108886482056,-132.25968251522028
8.11541248,0.9995883980195736,-132.5135301267282
8.121256448,0.9997893683359521,-132.77006129929003
8.127099904,1.0000024533410607,-133.02948649876276
8.132943872,1.0002152873763397,-133.2918665446706
8.138787328,1.0004157084935017,-133.55716706153999
8.144631296,1.0005921425405353,-133.82513125370755
8.150474752,1.000734606726651,-134.09527096902147
8.15631872,1.000834882654314,-134.36719316822635
8.162162176,1.0008871032343627,-134.6401681190499
8.168005632,1.0008883122519234,-134.913591768883
8.1738496,1.0008383711669866,-135.18670385498854
8.179693056,1.0007401392410455,-135.4588368134276
8.185537024,1.0005990426407856,-135.72938019170059
8.19138048,1.0004232653160177,-135.99776217814644
8.197224448,1.000222686668066,-136.2635895448217
8.203067904,1.0000088936357945,-136.5265948779134
8.20891136,0.9997941697536983,-136.786689672568
8.214755328,0.9995906751506074,-137.0439487942273
8.220598784,0.9994101592912968,-137.29852731020944
8.226442752,0.9992630976382544,-137.55092011764197
8.232286208,0.9991578755180838,-137.80159643026676
8.238130176,0.9991005752596818,-138.05114834129307
8.243973632,0.9990945859738007,-138.3003217640426
8.2498176,0.9991402770090064,-138.54978124435723
8.255661056,0.9992351015860975,-138.80026561529814
8.261504512,0.9993737070182952,-139.0523827476018
8.26734848,0.9995479683783974,-139.3067072087113
8.273191936,0.999748135049292,-139.56364285383964
8.279035904,0.9999626833410048,-139.8234838421262
8.28487936,1.0001793003928119,-140.08631518582936
8.290723328,1.0003855472842322,-140.35216073388185
8.296566784,1.0005696921045366,-140.62067097090355
8.302410752,1.0007210482763846,-140.8915856054885
8.308254208,1.0008310045199524,-141.16434017430106
8.314097664,1.0008931137071932,-141.43828291816553
8.319941632,1.0009040091702837,-141.71282788304796
8.325785088,1.0008627987803702,-141.98713626503542
8.331629056,1.0007718408018436,-142.26060470410076
