freq,mag,phase
6.0,0.9998221022777146,-95.67492069700877
6.002285056,1.0000152811266412,-95.8102846912491
6.004570112,1.0002077566704384,-95.94850085073864
6.006855168,1.0003873670851524,-96.08940905367481
6.009140224,1.0005429529810692,-96.23273239435142
6.01142528,1.0006645513427304,-96.37812904514936
6.013710336,1.0007443973419947,-96.52501100054278
6.015995392,1.0007775242144838,-96.67268843153312
6.018280448,1.0007617017008366,-96.82049394452466
6.020565504,1.0006980186619068,-96.96777014517535
6.02285056,1.0005903266211709,-97.1138033305611
6.025135616,1.0004457109592428,-97.25801073271683
6.027420672,1.0002729447237104,-97.39998422767538
6.029705728,1.0000832449378485,-97.53925217806567
6.031990784,0.9998884473585172,-97.67575880440008
6.03427584,0.9997009473582926,-97.8095509407376
6.036560896,0.999532709173345,-97.9406835493696
6.038845952,0.9993943515151648,-98.06965316257052
6.041131008,0.9992946003142819,-98.1968598023023
6.043416064,0.9992399279569533,-98.32299445895978
6.04570112,0.9992337686060074,-98.44869347457173
6.047986176,0.9992766474750971,-98.57461676461776
6.050271232,0.9993656177569038,-98.70153040232151
6.052556288,0.9994953484593239,-98.83007855536763
6.054841344,0.9996574419503742,-98.96071996624684
6.0571264,0.9998416267566652,-99.09386669377676
6.059411456,1.0000363436053978,-99.22981773311317
6.061696512,1.0002290129548272,-99.3686087312948
6.063981568,1.0004076535836937,-99.51002753052833
6.066266624,1.0005609246153744,-99.65397255998614
6.06855168,1.0006788434133569,-99.79988115219503
6.070836736,1.0007543631342801,-99.94715986062137
6.073121792,1.0007824024118959,-100.09522404208175
6.075406848,1.0007613431478781,-100.2433376195693
6.077691904,1.0006922567451508,-100.39081482151582
6.07997696,1.000579665407554,-100.53698727603219
6.082262016,1.0004304716010095,-100.6812979134002
6.084547072,1.0002543863745985,-100.8232191428047
6.086832128,1.0000625510859256,-100.96250453652965
6.089117184,0.9998668003717915,-101.09895446393512
6.09140224,0.9996798117767906,-101.23266602129029
6.093687296,0.999513380884628,-101.36380098175357
6.095972352,0.9993780287511731,-101.49276407728132
6.098257408,0.9992824328953602,-101.62003262263563
6.100542464,0.9992325404913689,-101.74621212769999
6.10282752,0.999231713725985,-101.87207139629807
6.105112576,0.9992798568369644,-101.99825093096793
6.107397632,0.9993741921322712,-102.1255110095431
6.1096832,0.9995084938182058,-102.2544116093018
6.111968256,0.9996744772989018,-102.38552747903495
6.114253312,0.9998613179242927,-102.51919761448113
6.116538368,1.0000574873843688,-102.65569560893785
6.118823424,1.00025026460311,-102.79500210737346
6.12110848,1.0004277653293068,-102.93703794923275
6.123393536,1.0005784548704197,-103.08142673087161
6.125678592,1.0006929255040096,-103.22778044719536
6.127963648,1.000763907630946,-103.37545138606457
6.130248704,1.000786791492978,-103.5238445376633
6.13253376,1.0007602727103546,-103.67221860068271
6.134818816,1.0006858947090391,-103.819856067662
6.137103872,1.0005683280900035,-103.96612366620813
6.139388928,1.0004150514553494,-104.11044830132599
6.141673984,1.0002357316972097,-104.25236555065702
6.14395904,1.0000416475750973,-104.39154823108889
6.146244096,0.999845286985206,-104.52791348002694
6.148529152,0.9996588315206533,-104.66150826131488
6.150814208,0.9994941847839213,-104.792577160828
6.153099264,0.9993621439204388,-104.9214560368163
6.15538432,0.9992705178547483,-105.04874735536058
6.157669376,0.9992256372358388,-105.17503039095779
6.159954432,0.9992301697432017,-105.30098832055468
6.162239488,0.9992838147243298,-105.42743505150422
6.164524544,0.9993831913620053,-105.55495711857664
6.1668096,0.9995222124300401,-105.68424060840238
6.169094656,0.9996918001662211,-105.81574744387973
6.171379712,0.9998813268282156,-105.94990283837973
6.173664768,1.0000787816544463,-106.0868964465805
6.175949824,1.00027163330886,-106.22669178759479
6.17823488,1.0004478688379024,-106.36920279601783
6.180519936,1.0005958687727006,-106.51406791267328
6.182804992,1.0007065741646992,-106.66081508073891
6.185090048,1.0007729846033275,-106.80886462317025
6.187375104,1.000790612832186,-106.9575245777382
6.18966016,1.000758749745234,-107.10610146446582
6.191945216,1.0006790544625477,-107.2538560449839
6.194230272,1.0005564718241475,-107.40017053216185
6.196515328,1.000399037107284,-107.54447124792372
6.198800384,1.0002167074393538,-107.68628369717986
6.20108544,1.0000206844527033,-107.82536263497526
6.203370496,0.9998235019252232,-107.9615760357404
6.205655552,0.999637822856097,-108.09503004457285
6.207940608,0.9994753360462788,-108.22596710384674
6.210225664,0.9993463299722338,-108.3547756077329
6.21251072,0.9992590226472917,-108.48201164457866
6.214795776,0.9992191628525807,-108.60830590708154
6.217080832,0.9992289816206648,-108.73440921231405
6.219365888,0.9992880890218266,-108.86103465524472
6.221650944,0.9993926267691264,-108.98879242362555
6.223936,0.9995361636343862,-109.11841593803602
6.226221056,0.9997094931553949,-109.25033184041237
6.228506112,0.9999015969116815,-109.38486960203969
6.230791168,1.0001003824559738,-109.52232375887264
6.233076224,1.000293056159385,-109.66263001916647
6.23536128,1.0004676669227508,-109.80554349464589
6.237646336,1.0006130424894468,-109.95083510759322
6.239931392,1.0007199852935822,-110.0979518664439
6.242216448,1.0007815767733554,-110.24631133309708
6.244501504,1.0007940940976978,-110.3951781327357
6.24678656,1.0007567108199207,-110.543854599786
6.249071616,1.0006716006739387,-110.69172176334695
6.251356672,1.000544272872147,-110.83802537979825
6.253641728,1.0003827256151983,-110.98222747639461
6.255926784,1.000197148871455,-111.12392442468352
6.25821184,0.9999993648614568,-111.2628807453243
6.260496896,0.9998017555465147,-111.39888454217342
6.262781952,0.9996168598417892,-111.53216258102862
6.265067008,0.999456619981857,-111.66290745396977
6.267352064,0.9993310777232891,-111.79158949802702
6.26963712,0.9992480887277224,-111.91878196199131
6.271922176,0.9992132892297229,-112.04507326554248
6.274207232,0.9992284424059716,-112.17121579271507
6.276492288,0.9992929838665912,-112.29797053939572
6.278777344,0.9994028371805759,-112.42597921982218
6.2810624,0.9995506165683138,-112.55592191657692
6.283347456,0.9997275484668406,-112.68813449231314
6.285632512,0.9999221081843258,-112.82313765482564
6.287917568,1.000121933967899,-112.96095549277103
6.290202624,1.0003143941145596,-113.10163314118152
6.29248768,1.000487441631965,-113.24505664630436
6.294772736,1.0006298899006296,-113.3906589888475
6.297057792,1.0007328119911096,-113.53810461648689
6.299342848,1.0007897661644864,-113.68669073707318
6.301627904,1.0007970396752854,-113.83573441604432
6.30391296,1.0007540987607566,-113.98456067295761
6.306198016,1.0006637242973822,-114.1324084104833
6.308483072,1.000531515103884,-114.27867393524481
6.310768128,1.0003659539277983,-114.42276362014785
6.313053184,1.0001774097270804,-114.56429444254276
6.31533824,0.9999777946113357,-114.70296227014548
6.317623296,0.9997798775971053,-114.83881955079589
6.319908352,0.9995960918956809,-114.97181177401575
6.322193408,0.9994380200331807,-115.10237799616894
6.324478976,0.9993159941726594,-115.23087046521117
6.326764032,0.9992374367874466,-115.35795561467907
6.329049088,0.9992076957030415,-115.48420102237883
6.331334144,0.9992284467485111,-115.61040980475585
6.3336192,0.9992984545287721,-115.73726706854981
6.335904256,0.9994133211878591,-115.86547885860226
6.338189312,0.9995657203928513,-115.99561360241938
6.340474368,0.9997460838802532,-116.12817152432078
6.342759424,0.9999429839634486,-116.26351609391087
6.34504448,1.000143742642946,-116.40171844212011
6.347329536,1.000335929165857,-116.54279859349475
6.349614592,1.0005070198760653,-116.68648303612798
6.351899648,1.000646566491032,-116.83247339797694
6.354184704,1.0007455240200298,-116.98015239506799
6.35646976,1.0007975426946651,-117.12893778736981
6.358754816,1.0007994414203876,-117.27816843173116
6.361039872,1.000751001017801,-117.42699952171999
6.363324928,1.0006552836429552,-117.57483767205396
6.365609984,1.00051821474911,-117.72097080741703
6.36789504,1.0003487393245298,-117.86488466858897
6.370180096,1.0001573461777857,-118.00616205756512
6.372465152,0.9999561871947698,-118.14462233697225
6.374750208,0.9997579627913495,-118.28015310556695
6.377035264,0.9995752505210884,-118.41291024232972
6.37932032,0.9994197578225705,-118.5432268935196
6.381605376,0.9993012745016576,-118.67152955512238
6.383890432,0.9992272811677209,-118.79844595229181
6.386175488,0.9992026942230922,-118.9246420056442
6.388460544,0.9992290001487908,-119.05081777187533
6.3907456,0.9993043936104674,-119.17775792454358
6.393030656,0.999424354916614,-119.30612540715617
6.395315712,0.999581249300075,-119.43648702652118
6.397600768,0.9997649826754393,-119.56933484676964
6.399885824,0.9999640487420286,-119.70495307898834
6.40217088,1.000165750147388,-119.84350733046581
6.404455936,1.0003572807799341,-119.98490292758243
6.406740992,1.0005265516980593,-120.12893388901006
6.409026048,1.0006630391721283,-120.27515874334593
6.411311104,1.000757611351154,-120.42311737692529
6.41359616,1.000804816358809,-120.57202249834106
6.415881216,1.0008012004064786,-120.721303568662
6.418166272,1.0007472899850116,-120.87014513576744
6.420451328,1.0006462656840516,-121.01792540526588
6.422736384,1.0005044256167812,-121.16386442326639
6.42502144,1.0003310482674026,-121.3075765112975
6.427306496,1.0001368413874852,-121.44861353317955
6.429591552,0.9999341259769853,-121.58672975776243
6.431876608,0.9997358030881737,-121.72194352679462
6.434161664,0.9995544063332574,-121.85438013836789
6.43644672,0.9994013645944269,-121.98439640461226
6.438731776,0.9992867019004013,-122.11247316711761
6.441016832,0.9992174205694137,-122.2391827106464
6.443301888,0.9991980909760001,-122.36524262332492
6.445586944,0.9992300040419255,-122.4914193702427
6.447872,0.9993108850979349,-122.6183704493669
6.450157056,0.999435905995525,-122.74685209738074
6.452442112,0.9995970945175029,-122.87738938931486
6.454727168,0.9997841981185405,-123.01045237615159
6.457012224,0.999985346165599,-123.14640411154872
6.45929728,1.0001877119552047,-123.28520690876971
6.461582336,1.0003786797829226,-123.42690414142739
6.463867392,1.0005459915529458,-123.57123037728758
6.466152448,1.0006790002394168,-123.71767603429886
6.468437504,1.0007695868415365,-123.86579015180278
6.47072256,1.0008116059633076,-124.01482562717555
6.473007616,1.000802475440446,-124.16412675622323
6.475292672,1.0007429765614442,-124.31293230840078
6.477577728,1.0006366201888772,-124.46052074623343
6.479862784,1.0004902738631254,-124.60628302583933
6.48214784,1.000312956932964,-124.74969003154499
6.484432896,1.0001160731805594,-124.8904158169097
6.486717952,0.9999120209502115,-125.02817708470107
6.489003008,0.9997137024463456,-125.16301220658538
6.491288064,0.9995336338984411,-125.29511529239934
6.49357312,0.9993835209696706,-125.42478841708136
6.495858176,0.9992726232515339,-125.55255653731727
6.498143232,0.9992080610761451,-125.6790615688022
6.500428288,0.9991941683138428,-125.80495221845442
6.502713344,0.9992315927075995,-125.93107062166598
6.5049984,0.9993181396696259,-126.05803593047565
6.507283456,0.9994481171804573,-126.18661454034796
6.509568512,0.9996135605712886,-126.31729013041284
6.511853568,0.9998039131345432,-126.45057808420476
6.514138624,1.0000069579587156,-126.58670311079305
6.51642368,1.0002100275576167,-126.72578959546169
6.518708736,1.000400090930872,-126.8677340245408
6.520993792,1.0005653512533692,-127.01226295021361
6.523278848,1.0006950735376514,-127.1589168790251
6.525563904,1.0007810636097692,-127.3071248482522
6.52784896,1.0008179493918565,-127.45627060691781
6.530134016,1.0008034126868215,-127.60550720126714
6.532419072,1.0007382806043799,-127.75420536876086
6.534704128,1.0006265359105018,-127.90163683457449
6.536989184,1.0004754294185332,-128.04710868310195
6.53927424,1.0002944159939828,-128.190191657501
6.541559808,1.0000949087198798,-128.3305367992847
6.543844864,0.9998895914757588,-128.46788910138545
6.54612992,0.999691376587451,-128.602328106401
6.548414976,0.999512938638991,-128.73401714891276
6.550700032,0.9993656972846456,-128.8633482458078
6.552985088,0.9992587842318902,-128.99079102271818
6.555270144,0.9991991957510346,-129.11702875435898
6.5575552,0.9991905761980401,-129.24275809185778
6.559840256,0.9992337814557778,-129.36870866872806
6.562125312,0.9993257079415216,-129.49566472643932
6.564410368,0.9994608651262727,-129.62426455787644
6.566695424,0.9996306007464043,-129.7550731756385
6.56898048,0.9998239879335681,-129.8884968405653
6.571265536,1.0000290137878636,-130.02484668222522
6.573550592,1.0002325104604017,-130.1641457339266
6.575835648,1.000421683909501,-130.3062904632255
6.578120704,1.0005845723695141,-130.45100480163833
6.58040576,1.000710710657943,-130.59778741745055
6.582690816,1.0007921634419628,-130.74608246634514
6.584975872,1.000823851902599,-130.8952064991161
6.587260928,1.0008036652209122,-131.0444023040894
6.589545984,1.0007328070144719,-131.19292233171552
6.59183104,1.0006158855319045,-131.34009867469973
6.594116096,1.0004600857822952,-131.48526471943012
6.596401152,1.000275410778681,-131.62801503645727
6.598686208,1.0000733444274934,-131.76790882692205
6.600971264,0.9998669583458601,-131.9048442550733
6.60325632,0.9996690764282367,-132.0387886846068
6.605541376,0.9994923181914627,-132.1700406284791
6.607826432,0.9993480517118312,-132.29894204369077
6.610111488,0.9992452913514352,-132.4260023409515
6.612396544,0.9991906739671881,-132.55197247930764
6.6146816,0.9991875634331693,-132.67744510377526
6.616966656,0.9992363403988392,-132.80325851967626
6.619251712,0.9993339267527803,-132.9301900019911
6.621536768,0.9994740526791323,-133.05877448073417
6.623821824,0.9996478493403214,-133.18967992778454
6.62610688,0.9998443399168497,-133.32321917285086
6.628391936,1.0000510866956727,-133.45971282775966
6.630676992,1.0002550482475243,-133.59917058024848
6.632962048,1.000443056519739,-133.7415271948489
6.635247104,1.0006034197781928,-133.8863407195015
6.63753216,1.0007259628686558,-134.03322170736706
6.639817216,1.0008027768658185,-134.18156249534556
6.642102272,1.0008291173879058,-134.3306254572384
6.644387328,1.0008032656811796,-134.4796802757848
6.646672384,1.000726776968866,-134.62804480976675
6.64895744,1.00060454645887,-134.774901284352
6.651242496,1.000444096706585,-134.9197278183836
6.653527552,1.0002558102271006,-135.0620212971318
6.655812608,1.0000514293402374,-135.20144054885694
6.658097664,0.99984401546972,-135.33785406692223
6.66038272,0.9996466051452012,-135.47134271594288
6.662667776,0.9994717289720483,-135.6020943359905
6.664952832,0.9993305727033197,-135.7305187236714
6.667237888,0.9992321220092665,-135.85720372378407
6.669522944,0.9991826167888835,-135.98281821190793
6.671808,0.9991851201472539,-136.10804650228982
6.674093056,0.9992397267532134,-136.23369133763057
6.676378112,0.9993427863876393,-136.36047584174977
6.678663168,0.9994879103831116,-136.4890634271668
6.680948224,0.9996658453550105,-136.6199919259152
6.68323328,0.9998653502018722,-136.75362081730518
6.685518336,1.0000737490390212,-136.8902719189382
6.687803392,1.0002777623948043,-137.02987874821233
6.690088448,1.0004646031459696,-137.17230160664087
6.692373504,1.0006223863722,-137.3172759516454
6.69465856,1.000741064023499,-137.46418029241622
6.696943616,1.0008130908842858,-137.61249934698722
6.699228672,1.0008339623637832,-137.76148481659519
6.701513728,1.0008023829958212,-137.91035758415535
6.703798784,1.0007202378064646,-138.0584185316939
6.70608384,1.0005925661298987,-138.20495650049156
6.708368896,1.0004276202675175,-138.3493856775784
6.710653952,1.0002357862997227,-138.49119143633865
6.712939008,1.000029185989203,-138.63008527585967
6.715224064,0.9998208151210526,-138.7659808609257
6.71750912,0.9996240135175964,-138.89890178404613
6.719794176,0.9994512069493118,-139.02910811679092
6.722079232,0.9993134330782647,-139.15705368248663
6.724364288,0.9992193780277028,-139.2833018988054
6.726649344,0.999175065076211,-139.4085021296592
6.7289344,0.9991832778757067,-139.53348361132356
6.731219456,0.9992436594798254,-139.65894648968805
6.733504512,0.999352317696118,-139.78555739767413
6.735789568,0.9995024402016249,-139.91411084345748
6.738074624,0.9996843608910857,-140.04503347111228
6.74035968,0.9998866561929899,-140.17874880546435
6.742644736,1.000096589485777,-140.31545558465464
6.744929792,1.0003007581034833,-140.45518849310972
6.747214848,1.000486111659563,-140.59769202923493
6.749499904,1.0006411521901406,-140.74268283941788
6.75178496,1.000755877077014,-140.88958715602047
6.754070016,1.0008229730116587,-141.03787925461103
6.756355072,1.0008383615425154,-141.18671435916656
6.75864064,1.0008008907630552,-141.33539598661488
6.760925696,1.000712915233282,-141.48311478049806
6.763210752,1.0005800553552289,-141.62923602209136
6.765495808,1.0004106119077905,-141.77319918711183
6.767780864,1.000215354120464,-141.91446646756637
6.77006592,1.0000065034535393,-142.05281303906958
6.772350976,0.9997975010930263,-142.18809263235119
6.774636032,0.9996014024969823,-142.3204415254179
6.776921088,0.9994308069344824,-142.45009278788237
6.779206144,0.9992964239559224,-142.57750264428915
6.7814912,0.9992069226388857,-142.70327059260634
6.783776256,0.9991679344580866,-142.82810489512843
6.786061312,0.999181983084215,-142.95270056695327
6.788346368,0.9992482635518357,-143.07791120354597
6.790631424,0.9993625218438592,-143.20438568900735
6.79291648,0.9995175104517158,-143.33282976385848
6.795201536,0.9997034522055501,-143.4637377075178
6.797486592,0.999908504002733,-143.5974875535494
6.799771648,1.0001197556468346,-143.73424588197906
6.802056704,1.0003237823109556,-143.87401511369117
6.80434176,1.0005076345216963,-144.0165884761905
6.806626816,1.0006596876203282,-144.16159572724408
6.808911872,1.0007703102114422,-144.308481245209
6.811196928,1.0008324421992698,-144.45659950071382
6.813481984,1.0008421283326034,-144.60528591870028
6.81576704,1.0007987450203706,-144.75367567923652
6.818052096,1.0007050397604742,-144.90107960781773
6.820337152,1.000566886340955,-145.04677833233052
6.822622208,1.0003929628751986,-145.19017746091941
6.824907264,1.00019426807936,-145.33092624471234
6.82719232,0.999983495258628,-145.46861158867875
6.829477376,0.9997738583606532,-145.6032536684631
6.831762432,0.9995787247796218,-145.73499908643404
6.834047488,0.99941036635405,-145.86400982637272
6.836332544,0.9992797108966941,-145.99083390654
6.8386176,0.999194911592726,-146.11610586587042
6.840902656,0.9991614117126422,-146.24047646090727
6.843187712,0.999181319736029,-146.3647544938351
6.845472768,0.9992535068962121,-146.48964880869823
6.847757824,0.9993733267240996,-146.61597289902846
6.85004288,0.9995332367271531,-146.74430155448138
6.852327936,0.9997230865354885,-146.87516869627316
6.854612992,0.999930853806635,-147.00889718217036
6.856898048,1.000143376318734,-147.14564532150612
6.859183104,1.0003471502731327,-147.2854225334246
6.86146816,1.0005292376358421,-147.4280313462261
6.863753216,1.0006781422859639,-147.57301621539344
6.866038272,1.0007845212054902,-147.7198038122984
6.868323328,1.0008415035537575,-147.86781078472137
6.870608384,1.000845365630144,-148.01619253539852
6.87289344,1.0007959783797014,-148.1642723405024
6.875178496,1.0006964767519069,-148.31126056487213
6.877463552,1.0005529790364098,-148.45649107918348
6.879748608,1.0003746988748667,-148.59934570596468
6.882033664,1.0001727776703349,-148.73944246993926
6.88431872,0.9999600700545292,-148.8765015582785
6.886603776,0.9997499617422858,-149.01046634497024
6.888888832,0.9995558958042623,-149.14149373782362
6.891173888,0.9993901318576681,-149.26987123665413
6.893458944,0.9992631447057773,-149.39609219795648
6.895744,0.9991832688794696,-149.520828130058
6.898029056,0.999155329100585,-149.6447087253199
6.900314112,0.9991811816098956,-149.76859542328967
6.902599168,0.9992594357332778,-149.8932126814479
6.904884224,0.9993848699080199,-150.0193146382124
6.90716928,0.9995496375163903,-150.14746465249323
