freq,mag,phase
6.0,0.9999655847189836,-122.5910382943284
6.002286592,0.9999808574449444,-122.74459618617932
6.004572672,0.9999959411747809,-122.89841336612439
6.006859264,1.0000110441656238,-123.05237461031119
6.009145344,1.000025211426145,-123.20659514799588
6.011431936,1.0000374492813324,-123.36096819487616
6.013718016,1.0000470717318908,-123.51544069691658
6.016004608,1.0000533985634543,-123.67006611357316
6.018290688,1.0000561485495916,-123.8247107463671
6.02057728,1.0000549647344719,-123.97942010565164
6.022863872,1.0000501115980798,-124.13400570400975
6.025149952,1.0000417105543031,-124.28850628070632
6.027436544,1.0000304630261432,-124.44286344443506
6.029722624,1.0000168477721392,-124.59703086955759
6.032009216,1.00000206225455,-124.75096209987001
6.034295296,0.9999866346323238,-124.90465715451357
6.036581888,0.9999719720792518,-125.05812209340985
6.03886848,0.9999587008867642,-125.21135192239706
6.04115456,0.9999477600938758,-125.36443738795782
6.043441152,0.9999399264277526,-125.51732493099207
6.045727232,0.999935509499559,-125.67013486706881
6.048013824,0.999934916970773,-125.82289994909685
6.050299904,0.9999381285670699,-125.97567073496897
6.052586496,0.9999450541091436,-126.12847997206342
6.054872576,0.9999550555399145,-126.28139224002248
6.057159168,0.9999677216195016,-126.43447191576756
6.05944576,0.9999821913650438,-126.58774797751326
6.06173184,0.9999974808088291,-126.74118298143263
6.064018432,1.000012540666514,-126.89490060657847
6.066304512,1.0000265543186462,-127.0487123214303
6.068591104,1.0000387387129839,-127.20275725894777
6.070877184,1.0000481144111137,-127.35696135785577
6.073163776,1.0000541827519438,-127.51122080726759
6.075450368,1.0000564800321188,-127.66555911976027
6.077736448,1.0000549310129931,-127.8198446744878
6.08002304,1.0000496751264856,-127.97409113964581
6.08230912,1.0000410321511812,-128.12824765361347
6.084595712,1.00002937377713,-128.28221250899256
6.086881792,1.0000155200074055,-128.43598893284707
6.089168384,1.000000525637962,-128.58950338452112
6.091454464,0.9999852116554419,-128.74281875297407
6.093741056,0.9999705151425055,-128.8958960497869
6.096027648,0.9999573798001417,-129.04873463441314
6.098313728,0.9999466945194391,-129.2013402446811
6.10060032,0.9999390341695958,-129.35390071701244
6.1028864,0.9999350191920413,-129.5063197321755
6.105172992,0.9999347348388024,-129.65863607601628
6.107459072,0.9999383807134936,-129.81100785668494
6.109745664,0.9999456743734699,-129.96343046301607
6.112032256,0.9999560929003748,-130.11594675845674
6.114318336,0.9999689994982696,-130.2686550782034
6.116604928,0.9999835759823866,-130.421524826578
6.118891008,0.999998998052594,-130.5745888879087
6.1211776,1.0000140787583716,-130.72787181119546
6.12346368,1.0000280568414506,-130.88133282824325
6.125750272,1.0000400035365,-131.03499395042493
6.128036352,1.0000491230163568,-131.18876693696222
6.130322944,1.0000548747759765,-131.3426231190034
6.132609536,1.000056748836063,-131.49650042545247
6.134895616,1.0000548473368542,-131.6503875740261
6.137182208,1.0000492166753085,-131.80419807726142
6.139468288,1.0000400637122557,-131.9578822286652
6.14175488,1.0000281963413806,-132.11136777451162
6.14404096,1.000014240081625,-132.26468302983827
6.146327552,0.9999990699636011,-132.4177598558868
6.148614144,0.9999835563636809,-132.57057550950162
6.150900224,0.9999689800595143,-132.72317773570506
6.153186816,0.9999559631022985,-132.8755371556107
6.155472896,0.9999454969216979,-133.02770206723838
6.157759488,0.9999381419474032,-133.17975318448546
6.160045568,0.9999344523621079,-133.33172976791235
6.16233216,0.9999345853592991,-133.48354208529062
6.16461824,0.9999386665247233,-133.63544089890118
6.166904832,0.9999462883092409,-133.78742013338658
6.169191424,0.9999570882083152,-133.93946193530712
6.171477504,0.9999701921955904,-134.09171003212182
6.173764096,0.9999850492539941,-134.24412052178388
6.176050176,1.0000004561503306,-134.39671466360576
6.178336768,1.0000156304925132,-134.54954845168032
6.180622848,1.0000294758656185,-134.70253820735172
6.18290944,1.0000412123228917,-134.85571689567388
6.18519552,1.000050065645332,-135.00898757166811
6.187482112,1.0000554585461827,-135.16234308930666
6.189768704,1.0000570669799083,-135.31579590010605
6.192054784,1.0000546647578232,-135.4691436991644
6.194341376,1.0000486743283212,-135.6224712658571
6.196627456,1.0000391395472412,-135.77562192521637
6.198914048,1.0000269199246095,-135.92859516427728
6.201200128,1.0000127474752352,-136.08138765575143
6.20348672,0.9999974480928149,-136.23391095895272
6.205773312,0.9999819993487717,-136.3861749213592
6.208059392,0.9999673212210232,-136.5382420219018
6.210345984,0.9999544082291213,-136.6900508497919
6.212632064,0.9999442459916146,-136.84169401527956
6.214918656,0.9999372006788003,-136.99318746810442
6.217204736,0.999933856806935,-137.1445537201475
6.219491328,0.999934486587599,-137.29590507959816
6.221777408,0.9999388093605802,-137.4472632355766
6.224064,0.999946912168106,-137.59868294461734
6.226350592,0.999957970143427,-137.750226280818
6.228636672,0.9999714411917385,-137.9019284296349
6.230923264,0.9999864525557687,-138.05377998923086
6.233209344,1.0000020301999883,-138.20588608831255
6.235495936,1.0000171261404687,-138.35813747341382
6.237782016,1.000030918094927,-138.5106158086384
6.240068608,1.0000424551850058,-138.6632368310079
6.2423552,1.000051068020684,-138.8159907613516
6.24464128,1.000056071893096,-138.96882230189507
6.246927872,1.000057311701176,-139.12163561793372
6.249213952,1.0000545706414194,-139.27446349833252
6.251500544,1.0000480696636396,-139.42718920928303
6.253786624,1.0000382633222735,-139.57975769153623
6.256073216,1.0000257145133125,-139.7321372669
6.258359296,1.00001123204449,-139.8842946695184
6.260645888,0.9999958146700106,-140.03624119802203
6.26293248,0.9999802724756693,-140.18792063043293
6.26521856,0.9999657980878777,-140.3393614526713
6.267505152,0.9999530891875358,-140.49054565238092
6.269791232,0.9999430815091966,-140.6415456365983
6.272077824,0.9999363643977722,-140.7924693157117
6.274363904,0.999933434695072,-140.94319910205178
6.276650496,0.9999344062247081,-141.09396905581812
6.278937088,0.9999392392812332,-141.24473257985764
6.281223168,0.9999476174706131,-141.39554446027032
6.28350976,0.9999590588596716,-141.54647784146795
6.28579584,0.9999728022223692,-141.69756678972468
6.288082432,0.9999879220545532,-141.84888592191786
6.290368512,1.0000036124371101,-142.00034179568615
6.292655104,1.0000186753232605,-142.1520193966025
6.294941184,1.0000323979634747,-142.30389143563784
6.297227776,1.000043709839547,-142.4559069252925
6.299514368,1.000051957126877,-142.60803420601536
6.301800448,1.0000566489724765,-142.76022364743267
6.30408704,1.0000574869479748,-142.9124389466067
6.30637312,1.0000543802603599,-143.06464468349688
6.308659712,1.0000474673202426,-143.21671327085755
6.310945792,1.0000373251574701,-143.3686473756105
6.313232384,1.0000244230608664,-143.52034279687246
6.315518464,1.0000097870819704,-143.6718634354139
6.317805056,0.9999941876385008,-143.82307943606634
6.320091648,0.9999786079098953,-143.9741321392567
6.322377728,0.9999641838129938,-144.1248725046059
6.32466432,0.9999516233928784,-144.27536987379776
6.3269504,0.9999419656298365,-144.42574398447832
6.329236992,0.9999355162911282,-144.57591551891488
6.331523072,0.9999329867715204,-144.7260311678835
6.333809664,0.9999343494670504,-144.8760977496131
6.336096256,0.9999396029040266,-145.02618561005326
6.338382336,0.9999483756478423,-145.17632486617
6.340668928,0.999960117595521,-145.32660914798223
6.342955008,0.9999741088460978,-145.4770877315937
6.3452416,0.9999894985408715,-145.62768898232324
6.34752768,1.0000052567749456,-145.77855008851094
6.349814272,1.000020326119968,-145.92955120122792
6.352100352,1.0000338299800298,-146.08074555843896
6.354386944,1.000044887448327,-146.23208369310294
6.356673536,1.000052890153888,-146.38354791893883
6.358959616,1.0000572229580422,-146.53507167739724
6.361246208,1.0000576738297067,-146.6866085253157
6.363532288,1.0000540619552973,-146.8380524594191
6.36581888,1.0000467594998343,-146.9894288566794
6.36810496,1.0000362506386886,-147.1406652082221
6.370391552,1.0000230556761647,-147.29163371329997
6.372678144,1.0000082415988827,-147.44242159323022
6.374964224,0.999992485227142,-147.59292266310914
6.377250816,0.9999769144984303,-147.7432371429139
6.379536896,0.9999625063951655,-147.89321657063337
6.381823488,0.9999501839853457,-148.0430369784239
6.384109568,0.999940684340029,-148.1926088822364
6.38639616,0.9999346777613449,-148.34208130880003
6.38868224,0.9999324865527577,-148.4914615080687
6.390968832,0.9999343167052819,-148.6408004190187
6.393255424,0.999939977254454,-148.79011478205513
6.395541504,0.9999491329777762,-148.93956786439793
6.397828096,0.999961230021421,-149.0891275098112
6.400114176,0.9999755405441568,-149.23885154531342
6.402400768,0.9999909882708647,-149.3887860589277
6.404686848,1.0000067863568733,-149.53887631802039
6.40697344,1.0000219171350215,-149.68919121765296
6.409260032,1.000035341462097,-149.83966089247122
6.411546112,1.0000461497481807,-149.99028392773226
6.413832704,1.0000538479922316,-150.1410042371543
6.416118784,1.0000577840620999,-150.29178087344403
6.418405376,1.0000577190939828,-150.4425653744557
6.420691456,1.0000537936066562,-150.59327689086166
6.422978048,1.0000461038196125,-150.74388639139488
6.425264128,1.0000351667292717,-150.8943138883068
6.42755072,1.0000217729214587,-151.044540905867
6.429837312,1.0000065605071908,-151.19449312436012
6.432123392,0.9999907703650193,-151.34423772038332
6.434409984,0.9999752182153487,-151.49370120310303
6.436696064,0.999960888659915,-151.64289089712472
6.438982656,0.9999487564116716,-151.79191588611815
6.441268736,0.9999395770011185,-151.94073610503378
6.443555328,0.9999339248312352,-152.08941010733304
6.44584192,0.9999321657161472,-152.23797597751482
6.448128,0.9999343888829029,-152.3865247489517
6.450414592,0.9999404536457263,-152.53512273394736
6.452700672,0.9999500335896249,-152.68376896666607
6.454987264,0.9999624236271283,-152.8325647852555
6.457273344,0.9999770299960475,-152.9815188142268
6.459559936,0.9999926743169597,-153.1306383293666
6.461846016,1.0000084852962647,-153.2799496884726
6.464132608,1.0000235297984705,-153.42950268224715
6.4664192,1.000036770647178,-153.57919953994696
6.46870528,1.0000474018678882,-153.72904538054445
6.470991872,1.0000546977848042,-153.87894345353737
6.473277952,1.0000582599146643,-154.02893623200578
6.475564544,1.0000578756349627,-154.1789120392093
6.477850624,1.000053418726875,-154.32880963963558
6.480137216,1.000045358526172,-154.47859014959417
6.482423296,1.0000341148685863,-154.62817167678102
6.484709888,1.0000202790312076,-154.77756958706107
6.48699648,1.0000049775970035,-154.9267094758246
6.48928256,0.9999890073042503,-155.07560386319923
6.491569152,0.999973450190132,-155.22424594001996
6.493855232,0.9999592233810464,-155.37259952470455
6.496141824,0.9999473622980846,-155.52071932308243
6.498427904,0.9999385108640173,-155.66867713169688
6.500714496,0.9999331674272331,-155.81647289026478
6.503001088,0.9999317674706674,-155.96421494969485
6.505287168,0.999934443786931,-156.11194345459535
6.50757376,0.9999410025730763,-156.25968259123323
6.50985984,0.9999508728123729,-156.4075067355949
6.512146432,0.9999637058341165,-156.55547158908004
6.514432512,0.9999784632166084,-156.7036139301467
6.516719104,0.9999943116552292,-156.85189244449288
6.519005184,1.0000101955053988,-157.00040021783735
6.521291776,1.00002517503668,-157.14909438241313
6.523578368,1.0000382491849946,-157.29796652506386
6.525864448,1.0000486574657885,-157.44696652979115
6.52815104,1.0000556251412334,-157.59607232913118
6.53043712,1.0000587458013104,-157.74521017747654
6.532723712,1.0000578548491312,-157.89429777892084
6.535009792,1.0000530107314678,-158.04336521638183
6.537296384,1.00004456533816,-158.19222661287222
6.539582976,1.0000328368134854,-158.34095492373012
6.541869056,1.0000188508310415,-158.4894660654423
6.544155648,1.0000033342075751,-158.63770748415666
6.546441728,0.9999872578774562,-158.78568311090078
6.54872832,0.999971728156275,-158.9334047530983
6.5510144,0.9999576651562992,-159.0808830864859
6.553300992,0.9999459851633754,-159.22810984709474
6.555587072,0.9999373288744583,-159.37517613851784
6.557873664,0.9999324629806142,-159.52208753059008
6.560160256,0.999931492560542,-159.66895162126832
6.562446336,0.9999345814785356,-159.8157312205757
6.564732928,0.9999415217446175,-159.96261588869692
6.567019008,0.9999519340777432,-160.10955678030908
6.5693056,0.999964957473471,-160.25665157540433
6.57159168,0.9999799928318011,-160.40386749487942
6.573878272,0.9999959819673231,-160.551296953592
6.576164864,1.0000119681243065,-160.69892613446328
6.578450944,1.0000268626318605,-160.84677356168862
6.580737536,1.0000397426322376,-160.99473700822477
6.583023616,1.0000498275764005,-161.14285688785233
6.585310208,1.0000564564774757,-161.29106990206316
6.587596288,1.0000592120869698,-161.4392910496622
6.58988288,1.0000578785766454,-161.58746311569496
6.59216896,1.000052583591714,-161.73563100302755
6.594455552,1.0000436940118071,-161.88360134134044
6.596742144,1.0000316152428688,-162.03136679281462
6.599028224,1.000017346022632,-162.17892534264033
6.601314816,1.0000016087043033,-162.32622274316557
6.603600896,0.9999854538329233,-162.47326772658306
6.605887488,0.9999698909138213,-162.62005331863844
6.608173568,0.9999559458525422,-162.7665686804474
6.61046016,0.9999445508726436,-162.91285434161165
6.612746752,0.9999362686409161,-163.05895084322526
6.615032832,0.9999317714245977,-163.2049144320023
6.617319424,0.9999313108992653,-163.3508238787773
6.619605504,0.9999348374683494,-163.49673463886737
6.621892096,0.9999422217118203,-163.64263483494474
6.624178176,0.999952960076604,-163.7886594034597
6.626464768,0.9999663646079399,-163.93482461955435
6.628750848,0.9999816766979042,-164.08114950954166
6.63103744,0.9999977248111661,-164.22767519667175
6.633324032,1.0000137096953352,-164.3744067862344
6.635610112,1.0000285864866028,-164.52128570809523
6.637896704,1.0000412484151293,-164.66832934228668
6.640182784,1.000051046204464,-164.81553802322804
6.642469376,1.0000572995897596,-164.96280061710806
6.644755456,1.0000595739382272,-165.11006875457963
6.647042048,1.0000578353345433,-165.25733934346175
6.649328128,1.0000521584157487,-165.4044768485162
6.65161472,1.0000427284397078,-165.5515072553584
6.653901312,1.0000303484500743,-165.69829094293826
6.656187392,1.0000157314180442,-165.84488409815268
6.658473984,0.9999998702855116,-165.9912240276799
6.660760064,0.9999835945390674,-166.13724001588676
6.663046656,0.9999681365562364,-166.28300815645446
6.665332736,0.9999543321656914,-166.4285410523038
6.667619328,0.9999431492547186,-166.57384907663717
6.66990592,0.9999352093586199,-166.71895223827522
6.672192,0.9999311361542034,-166.8639306583124
6.674478592,0.9999310392906857,-167.00887375720094
6.676764672,0.9999350417218258,-167.1537640121089
6.679051264,0.9999428939917525,-167.298724348123
6.681337344,0.9999540687836379,-167.443766410021
6.683623936,0.9999678141372326,-167.58897709543885
6.685910016,0.9999833309318742,-167.7343477165286
6.688196608,0.999999545616381,-167.87991035837402
6.6904832,1.0000155268660027,-168.0256444086849
6.69276928,1.0000302456441799,-168.1715888647764
6.695055872,1.0000428034474182,-168.31769848612046
6.697341952,1.0000522138291417,-168.46389975412524
6.699628544,1.0000580828772625,-168.61020685078205
6.701914624,1.0000599861251562,-168.7564510288351
6.704201216,1.0000577667540587,-168.90273162191286
6.706487808,1.00005150044245,-169.04892261006106
6.708773888,1.0000417170998057,-169.19488228280318
6.71106048,1.0000289523357824,-169.3406991603046
6.71334656,1.0000141111464727,-169.48622120001565
6.715633152,0.999998032515915,-169.6315167353257
6.717919232,0.9999817829017398,-169.7765274287057
6.720205824,0.9999663024065943,-169.92129025461662
6.722491904,0.9999526211673492,-170.06575492478336
6.724778496,0.99994169786092,-170.21003195144968
6.727065088,0.9999341137807435,-170.35410011079048
6.729351168,0.9999304768116264,-170.4980723152355
6.73163776,0.9999308731073414,-170.64197639566063
6.73392384,0.9999353468495396,-170.78589937889606
6.736210432,0.9999436251811606,-170.92985259152374
6.738496512,0.9999551797793477,-171.07387544858128
6.740783104,0.9999692145632917,-171.2180648458662
6.743069696,0.9999850162390458,-171.36244788996976
6.745355776,1.0000014123086924,-171.50699892650934
6.747642368,1.0000174238950326,-171.65175678164442
6.749928448,1.000031943490129,-171.7966950397743
6.75221504,1.0000442636722633,-171.9417946706054
6.75450112,1.0000534707222817,-172.08699666196338
6.756787712,1.000058836332291,-172.23226130753602
6.759073792,1.0000603005733049,-172.3775433134767
6.761360384,1.000057559934489,-172.5227689624984
6.763646976,1.0000509021583976,-172.66786314457138
6.765933056,1.0000406628124687,-172.8128319068716
6.768219648,1.0000275962786178,-172.95754297295392
6.770505728,1.0000124503768686,-173.10205465038302
6.77279232,0.9999960731375611,-173.2462650732546
6.7750784,0.9999798396751748,-173.3902177379006
6.777364992,0.9999643643004482,-173.5338889113215
6.779651584,0.9999510012526004,-173.67730389141903
6.781937664,0.9999403019786657,-173.82050193672612
6.784224256,0.9999331217396356,-173.96355598086782
6.786510336,0.9999299418643743,-174.1064537733065
6.788796928,0.999930808093633,-174.24929313145847
6.791083008,0.99993577204389,-174.39214346614597
6.7933696,0.9999445535852467,-174.53506497849872
6.79565568,0.9999565196696178,-174.6780470565365
6.797942272,0.9999708344305432,-174.82120657414123
6.800228864,0.9999867924968148,-174.9645504377299
6.802514944,1.0000033718890342,-175.1080985420489
6.804801536,1.000019320703504,-175.25182614192954
6.807087616,1.000033764532672,-175.39573539389087
6.809374208,1.0000457637837021,-175.5397892817952
6.811660288,1.0000545108023278,-175.68393695818511
6.81394688,1.0000596411605056,-175.828148345005
6.81623296,1.0000604643552473,-175.972362760789
6.818519552,1.0000573484635382,-176.11652494119434
6.820806144,1.0000501709662506,-176.2605818868461
6.823092224,1.000039606837115,-176.40445277399326
6.825378816,1.0000261023247192,-176.54808985194225
6.827664896,1.0000107089000627,-176.69148775483197
6.829951488,0.9999941561072178,-176.8346018610123
6.832237568,0.999977814113483,-176.97746068419275
6.83452416,0.9999625237401079,-177.1200207323214
6.836810752,0.9999492726277847,-177.2623390982337
6.839096832,0.9999390420142287,-177.4044175628194
6.841383424,0.9999321837969266,-177.54638142639422
6.843669504,0.9999294141492742,-177.68820831682083
6.845956096,0.9999307259671326,-177.82997129894437
6.848242176,0.9999361851136805,-177.97174249171277
6.850528768,0.9999453680851509,-178.11353343877065
6.852814848,0.9999578364028628,-178.2555002542544
6.85510144,0.9999725129603364,-178.39757518790566
6.857388032,0.9999886510913532,-178.5398603941564
6.859674112,1.0000052101769663,-178.68234392096514
6.861960704,1.0000212050451027,-178.8250204622476
6.864246784,1.0000355384231845,-178.9678597644712
6.866533376,1.0000472281802075,-179.11082778274715
6.868819456,1.0000557512920116,-179.2539428322481
6.871106048,1.0000603762996862,-179.39707698517293
6.87339264,1.0000606947911812,-179.5401893976108
6.87567872,1.0000571220783527,-179.68327523393177
6.877965312,1.0000495419632254,-179.82621638081406
6.880251392,1.0000382936391354,-179.9689690727147
6.882537984,1.0000245433433248,179.8885002215353
6.884824064,1.0000087374029913,179.7462085801096
6.887110656,0.9999921503186708,179.6042004244256
6.889396736,0.9999758119497666,179.46251153028658
6.891683328,0.999960650165981,179.32106514064017
6.89396992,0.9999476386445844,179.17989334281341
6.896256,0.9999376553314088,179.03892987681903
6.898542592,0.9999312394867208,178.89808649934494
6.900828672,0.9999288351350025,178.75740959421225
6.903115264,0.9999307852135662,178.61674260897334
6.905401344,0.9999367356234797,178.47607585253834
6.907687936,0.9999464152748695,178.3353568614585
