freq,mag,phase
6.0,0.9999763463053517,34.07956642406103
6.007220224,0.9999404051356484,33.90322392007769
6.014440448,0.9999077267568863,33.727395422684836
6.021660672,0.9998801507807484,33.5519505645708
6.028880896,0.9998595074329062,33.37680668289486
6.03610112,0.9998467280501161,33.20193311109187
6.043321344,0.9998425682882953,33.027139607751415
6.050541568,0.9998473342966734,32.8523440637773
6.057761792,0.9998607556488993,32.67746209355014
6.064982016,0.9998820074322856,32.50225590455348
6.07220224,0.9999101110078383,32.32678155998153
6.079422464,0.999943315009208,32.15088383763238
6.086642688,0.9999798635034515,31.974447933298947
6.093862912,1.0000177358654643,31.79754490121037
6.101083136,1.0000547556028474,31.620153053808128
6.10830336,1.0000888525917893,31.442173537853453
6.115523584,1.0001183058703211,31.263846154403126
6.122743808,1.0001411781389822,31.08511603309032
6.129964032,1.0001564803887109,30.90614946980033
6.137184256,1.0001630501147523,30.72702530263238
6.14440448,1.0001607682651046,30.54783717711677
6.151624704,1.0001495867688566,30.368734913029982
6.158844928,1.0001301408338936,30.18986416672529
6.166065152,1.0001036597681123,30.01125569879255
6.173285376,1.000071287980388,29.83307756875311
6.1805056,1.0000351280891677,29.65533655875883
6.187725824,0.9999970351131514,29.478154865234618
6.194946048,0.9999590980691238,29.30142444380918
6.202166272,0.9999236003591219,29.125189671414486
6.209386496,0.9998924120395136,28.949454719649793
6.21660672,0.99986729357028,28.774043428222846
6.223826944,0.9998496098726066,28.598942245442622
6.231047168,0.9998404119915598,28.42402607409767
6.238267392,0.9998402631245691,28.249180593464143
6.245487616,0.9998491551379656,28.074242358378477
6.252707328,0.9998665388503535,27.899138847823362
6.259927552,0.9998915540356632,27.7237394889321
6.267147776,0.9999227483944536,27.547977893298366
6.274368,0.9999585030138667,27.371699737019267
6.281588224,0.9999966316000168,27.194951564879016
6.288808448,1.0000351786542285,27.017685075350045
6.296028672,1.0000719758058865,26.83988575151779
6.303248896,1.0001048202011222,26.66160928180422
6.31046912,1.000132123125746,26.482920476032493
6.317689344,1.0001521471526005,26.303898194848045
6.324909568,1.000163890512209,26.124669206371664
6.332129792,1.000166531867908,25.94531383656465
6.339350016,1.0001601035409613,25.765944566779083
6.34657024,1.000144761756001,25.586754983432417
6.353790464,1.000121556655094,25.407852820257542
6.361010688,1.0000915578118055,25.229239722486245
6.368230912,1.000056569080483,25.051145345206685
6.375451136,1.0000184380935921,24.873463177322282
6.38267136,0.9999793998198346,24.696337812494466
6.389891584,0.9999415152351377,24.51971650019035
6.397111808,0.9999069240255535,24.34360620502111
6.404332032,0.9998776383389579,24.16793256292982
6.411552256,0.9998552563850258,23.992575654744318
6.41877248,0.9998409206049654,23.817497941758297
6.425992704,0.999835675400851,23.642512484734105
6.433212928,0.999839641649166,23.467563183237328
6.440433152,0.9998527375063206,23.29246174119184
6.447653376,0.9998741547366952,23.117177852499534
6.4548736,0.9999026575976585,22.941481638869167
6.462093824,0.9999369077217176,22.765377542365467
6.469314048,0.9999747715775359,22.58878627632786
6.476534272,1.0000141758109422,22.411677758557747
6.483754496,1.0000530527532234,22.2340112274699
6.49097472,1.000089062892708,22.05583200940868
6.498194944,1.0001203439880397,21.877179875701973
6.505415168,1.0001450555986888,21.69818072504953
6.512635392,1.0001618264631513,21.51884508950877
6.519855616,1.0001696996406417,21.339365605673503
6.52707584,1.000168306775596,21.159819498551265
6.534296064,1.000157566861365,20.98034832854523
6.541516288,1.0001381607534277,20.801069025311385
6.548736512,1.0001110673413462,20.62209021185154
6.555956736,1.0000779284897343,20.44351932430506
6.56317696,1.0000405179441514,20.265439880210398
6.570397184,1.0000008197648997,20.087922825547302
6.577617408,0.9999611167342743,19.910879667495312
6.584837632,0.9999237159490465,19.73435588366279
6.592057856,0.9998906044413224,19.558317937697304
6.59927808,0.9998635856344847,19.382692299664587
6.606498304,0.9998443464460556,19.20736414767822
6.613718528,0.999833846819887,19.032283485635723
6.620938752,0.9998326943193492,18.857213198413152
6.628158976,0.9998409505613681,18.682124681490787
6.6353792,0.9998582476002994,18.506871676528267
6.642599424,0.9998835986830157,18.331314638493673
6.649819648,0.9999156323757277,18.155317553839552
6.657039872,0.9999525047965664,17.978898218656727
6.664260096,0.9999921779183832,17.801938530370283
6.67148032,1.0000324542524122,17.624420862470124
6.678700544,1.000071165693314,17.446398931581637
6.685920768,1.000106109200471,17.26780549255836
6.693140992,1.000135178771537,17.088807810247655
6.700361216,1.000156997391709,16.909445820582185
6.70758144,1.0001701229595659,16.729866356724308
6.714801664,1.000173942708592,16.550093636429466
6.722021888,1.000168157738472,16.370407602911133
6.729242112,1.0001531152048813,16.190811305504685
6.736462336,1.0001295495380857,16.011497050020072
6.74368256,1.000098943358905,15.832517072848807
6.750902272,1.0000628422616027,15.654003299955003
6.758122496,1.000023204734705,15.475975496212284
6.76534272,0.9999823150033615,15.298524040095936
6.772562944,0.9999425404392832,15.121592570075816
6.779783168,0.9999059921834758,14.945201230665013
6.787003392,0.9998747230175571,14.769225912474516
6.794223616,0.9998505583254799,14.593664223075555
6.80144384,0.9998347517310809,14.418346277292779
6.808664064,0.9998282476605372,14.243177701428035
6.815884288,0.9998314832068332,14.068042436617134
6.823104512,0.9998441690809672,13.892821316920207
6.830324736,0.9998656673447682,13.71730705596554
6.83754496,0.9998949594012376,13.54145327576782
6.844765184,0.9999301385754098,13.365188260805256
6.851985408,0.9999694381764541,13.188364507697967
6.859205632,1.0000105775342272,13.011031537276356
6.866425856,1.000051380221134,12.833112265795531
6.87364608,1.0000894101140878,12.65464447520045
6.880866304,1.0001227268118535,12.475699744021068
6.888086528,1.0001492621474102,12.296334754986091
6.895306752,1.0001676800111696,12.116673202868636
6.902526976,1.0001768889734146,11.936762930973579
6.9097472,1.000176420533395,11.756842201700776
6.916967424,1.000166102897145,11.576991454712855
6.924187648,1.000146648917454,11.397288419486912
6.931407872,1.0001190784201222,11.217905137730009
6.938628096,1.0000849766326914,11.038959835274479
6.94584832,1.0000461073505311,10.860506211460676
6.953068544,1.0000047970615105,10.68258958642267
6.960288768,0.9999632442815172,10.505201791591825
6.967508992,0.9999237081979065,10.328373824184062
6.974729216,0.9998885772255236,10.152084870165172
6.98194944,0.9998596482924597,9.976200447284016
6.989169664,0.9998386567123905,9.800657563787357
6.996389888,0.9998266622452947,9.625324931545123
7.003610112,0.9998244909256898,9.450085762877347
7.010830336,0.999832190985995,9.274817527434113
7.01805056,0.9998494863968481,9.099358585488053
7.025270784,0.9998751976857669,8.923622986908926
7.032491008,0.9999081371050582,8.747468915389293
7.039711232,0.9999462801907764,8.570836354554983
7.046931456,0.999987570043132,8.393669426480576
7.05415168,1.0000298422134557,8.215910921204065
7.061371904,1.0000705597664492,8.037565545564934
7.068592128,1.0001074967395944,7.858715563326073
7.075812352,1.0001387598070914,7.6793604957673995
7.083032576,1.0001623116437919,7.499645056573977
7.0902528,1.00017699120937,7.319661856348714
7.097473024,1.000181942056305,7.139514056190401
7.104693248,1.0001768336096237,6.959392774847672
7.111913472,1.00016201189346,6.779372658805701
7.119133696,1.000138245516686,6.5996571790326595
7.12635392,1.0001067522081126,6.420274533230898
7.133574144,1.0000693530730551,6.241322146494924
7.140794368,1.000028187175408,6.062920338393624
7.148014592,0.999985525369706,5.885112399906398
7.155234816,0.9999436239917322,5.70783734049525
7.16245504,0.9999049601623166,5.531158602959301
7.169675264,0.9998716186061706,5.3549097442893885
7.176895488,0.9998454467716632,5.179093549918843
7.184115712,0.9998280598758152,5.003562268768833
7.191335936,0.9998203081152538,4.828196709591225
7.19855616,0.99982270025621,4.65287228350647
7.205776384,0.9998351139214481,4.477420611188352
7.212996608,0.9998568097756511,4.301721874730553
7.220216832,0.9998867346293298,4.125717941612611
7.227437056,0.9999230827847887,3.9492104721930117
7.23465728,0.9999640247965854,3.772201217888147
7.241877504,1.000006987814102,3.5946116022497847
7.249097728,1.0000497941442243,3.4164371114489818
7.25631744,1.0000900264871408,3.2376694371361987
7.263537664,1.000125345559969,3.0583799126450084
7.270757888,1.0001539562993502,2.878663872893971
7.277978112,1.0001740879536178,2.698597874738851
7.285198336,1.0001847732518558,2.51831574695642
7.29241856,1.0001850777576213,2.3379549158563115
7.299638784,1.0001753376038225,2.1576356338983884
7.306859008,1.000155826119929,1.9775181818655805
7.314079232,1.0001276500997163,1.7977170822731128
7.321299456,1.0000924889012144,1.6183517401043133
7.32851968,1.0000522107543763,1.4394903051047465
7.335739904,1.0000090128895962,1.261167081868113
7.342960128,0.999965400808312,1.0834719792877006
7.350180352,0.9999236896695919,0.906309557529139
7.357400576,0.999886356223673,0.7296833362023941
7.3646208,0.9998553300510516,0.5535381713009291
7.371841024,0.9998324853812104,0.37775127701463085
7.379061248,0.9998190679951021,0.20220967151044725
7.386281472,0.9998158114955019,0.026761145599951783
7.393501696,0.9998228843585893,-0.1487004056726712
7.40072192,0.9998400663838519,-0.32433561791264665
7.407942144,0.9998662734634289,-0.5002744756549931
7.415162368,0.9999001411707513,-0.6765957555289501
7.422382592,0.9999397499946716,-0.8534697082500996
7.429602816,0.9999829260350539,-1.0308983918319747
7.43682304,1.0000271454673415,-1.2089037812887105
7.444043264,1.0000700818450985,-1.3875410534480592
7.451263488,1.0001093561496903,-1.5667310147459377
7.458483712,1.0001426076982185,-1.7464627913905573
7.465703936,1.0001681823901025,-1.9265126838727544
7.47292416,1.0001843748272305,-2.106933848052564
7.480144384,1.00019060041593,-2.2874898411595908
7.487364608,1.000186202789991,-2.4680778090995052
7.494584832,1.000171630606098,-2.648514844779976
7.501805056,1.0001473868041646,-2.828728119632974
7.50902528,1.0001150790834514,-3.0085655988293736
7.516245504,1.0000764207589592,-3.1878947615507722
7.523465728,1.00003345892879,-3.3667028715653893
7.530685952,0.9999888211133166,-3.5449077427739795
7.537906176,0.9999446747127864,-3.7225092662111154
7.5451264,0.9999037318620343,-3.8995618265137932
7.552346624,0.9998681750546011,-4.076066790043899
7.559566848,0.9998399569452893,-4.252168800579867
7.566787072,0.9998208323033849,-4.427929921204334
7.574007296,0.9998117415938622,-4.603502612048949
7.58122752,0.9998133150088313,-4.779049312175069
7.588447744,0.9998253681282981,-4.954684373889508
7.595667968,0.9998473072365381,-5.130550649920932
7.602888192,0.9998779887738263,-5.306765325040267
7.610108416,0.9999155471052158,-5.483464636608674
7.61732864,0.9999580892334873,-5.660752981840368
7.624548864,1.0000030650046559,-5.838589887070817
7.631769088,1.0000481675279174,-6.01707341722522
7.638989312,1.0000907677660051,-6.1961534405529
7.646209536,1.0001284252931049,-6.375791653018789
7.65342976,1.0001591018622256,-6.5558869910846385
7.660649984,1.000181129675971,-6.736355748233887
7.667870208,1.0001932067432302,-6.917070241685607
7.675090432,1.0001945202800464,-7.097865675465189
7.682310656,1.0001851543478868,-7.278646334572362
7.68953088,1.0001655716345408,-7.459228643702497
7.696751104,1.0001369409570182,-7.639490974453649
7.703971328,1.0001005542966142,-7.819323419678161
7.711191552,1.0000586162455951,-7.998629098694641
7.718411776,1.0000133713291255,-8.177333998797994
7.725632,0.9999676186797419,-8.355420637959003
7.732852224,0.9999235509829711,-8.53293856921922
7.740072448,0.9998838396236384,-8.70984009004815
7.747292672,0.9998506140709778,-8.886300736165792
7.754512384,0.9998258925993351,-9.062332474467116
7.761732608,0.99981078208505,-9.238134321478228
7.768952832,0.9998064708919288,-9.413792488301091
7.776173056,0.9998130189682528,-9.58943376751734
7.78339328,0.9998301053431288,-9.765270377481686
7.790613504,0.9998568853281945,-9.941387819561362
7.797833728,0.9998916360078897,-10.117992370784826
7.805053952,0.9999328214508977,-10.29506872079572
7.812274176,0.9999779459727848,-10.472756924806143
7.8194944,1.0000244198454842,-10.651049853687171
7.826714624,1.0000698175268548,-10.829991726065924
7.833934848,1.0001114563817226,-11.009514094478044
7.841155072,1.0001470110996526,-11.189605455510018
7.848375296,1.0001745923755525,-11.370103833360693
7.85559552,1.0001925615128857,-11.550928977997899
7.862815744,1.0001999825816172,-11.731948837147055
7.870035968,1.0001963962348757,-11.913004148190907
7.877256192,1.0001819150696685,-12.093935523163085
7.884476416,1.000157342713808,-12.274630334956392
7.89169664,1.0001240921220904,-12.454918356685381
7.898916864,1.000083909811844,-12.634723255682205
7.906137088,1.0000391597771516,-12.813942481973594
7.913357312,0.9999921821704203,-12.992577765731934
7.920577536,0.9999457323918697,-13.170535867650594
7.92779776,0.9999022999507227,-13.347928472265092
7.935017984,0.9998644337089363,-13.524756976605392
7.942238208,0.9998340093112658,-13.70110771749213
7.949458432,0.9998130508939989,-13.877152712076795
7.956678656,0.9998024953438507,-14.052945762356616
7.96389888,0.9998032318813327,-14.22869328604868
7.971119104,0.9998149074522946,-14.404533605047646
7.978339328,0.9998372367070765,-14.580613538902702
7.985559552,0.9998687011318511,-14.757046202214854
7.992779776,0.9999075883641882,-14.93400477766981
8.0,0.9999519191146423,-15.111494119988102
8.007220224,0.9999991155953151,-15.289614869727433
8.014440448,1.0000465856249776,-15.468385046358371
8.021660672,1.000091628935103,-15.647801534050624
8.028880896,1.0001317919286565,-15.827825470855828
8.03610112,1.000164865065913,-16.008346403883415
8.043321344,1.000188762166863,-16.189260202757943
8.050541568,1.0002023527868924,-16.370437159917046
8.057761792,1.00020478386581,-16.551723628546938
8.064982016,1.0001959243235201,-16.732980321575653
8.07220224,1.0001761991526232,-16.914061385492086
8.079422464,1.0001466664696994,-17.094828553690387
8.086642688,1.0001090893223183,-17.27514036798917
8.093862912,1.0000654412118766,-17.45486399825951
8.101083136,1.00001821654717,-17.63404323270564
8.10830336,0.9999698474701391,-17.812550957832105
8.115523584,0.9999233629547587,-17.990379506855405
8.122743808,0.9998810817928987,-18.167658162875554
8.129964032,0.9998454577613168,-18.34440277373062
8.137184256,0.9998184787657703,-18.520686889291675
8.14440448,0.9998018396673464,-18.696722079453078
8.151624704,0.9997962858116045,-18.872604657058154
8.158844928,0.9998021779311302,-19.04847818718211
8.166065152,0.99981933803189,-19.224506404671683
8.173285376,0.9998465789693548,-19.40085793837706
8.1805056,0.9998827316784182,-19.577648232285043
8.187725824,0.9999254558330344,-19.75499457456256
8.194946048,0.9999726729954,-19.93291290776601
8.202166272,1.0000215906308194,-20.111546653876186
8.209386496,1.0000694377964658,-20.290822992871323
8.21660672,1.0001136395577026,-20.470723123362088
8.223826944,1.0001518046365703,-20.65120055721026
8.231047168,1.000181587576946,-20.83217101637849
8.238267392,1.0002013909638818,-21.013447333841842
8.245487616,1.0002101307988784,-21.194953917326092
8.252707328,1.0002073052806841,-21.376516391846614
8.259927552,1.0001929830731815,-21.55794696946306
8.267147776,1.0001679859800883,-21.73913520925899
8.274368,1.0001337512839028,-21.91993319197969
8.281588224,1.0000920177208796,-22.100220977028137
8.288808448,1.000045191040136,-22.2799292927103
8.296028672,0.9999958021657405,-22.458970811589733
8.303248896,0.9999467416846862,-22.637352740155016
8.31046912,0.9999007082532365,-22.81506261664096
8.317689344,0.999860288517269,-22.992211134461275
8.324909568,0.9998275772338319,-23.168864075726333
8.332129792,0.9998046132270827,-23.345171190551856
8.339350016,0.9997926167113333,-23.521220069870974
8.34657024,0.9997922812900459,-23.697187649145228
8.353790464,0.9998036492519553,-23.873245449994947
8.361010688,0.9998262001760758,-24.04952979705342
8.368230912,0.9998585969575788,-24.226186079796904
8.375451136,0.9998990856500135,-24.40335351932842
8.38267136,0.9999453047571731,-24.581125436767156
8.389891584,0.9999948890017198,-24.759544822629877
8.397111808,1.0000450583137788,-24.9386526188348
8.404332032,1.0000926887412984,-25.11841641705143
8.411552256,1.0001354883134908,-25.298843828925193
8.41877248,1.0001709816171824,-25.479779025426836
8.425992704,1.000196962578156,-25.661175231267844
8.433212928,1.0002122606196693,-25.842836907992325
8.440433152,1.0002158187593253,-26.024665718695818
8.447653376,1.000207398541194,-26.20643005464048
8.4548736,1.0001874880140642,-26.38804216417315
8.462093824,1.0001572745654588,-26.56931313613294
8.469314048,1.0001182795662273,-26.750111113119655
8.476534272,1.0000726822955224,-26.93037307542591
8.483754496,1.0000231053613124,-27.10998066570261
8.49097472,0.9999722253930854,-27.288874611374364
8.498194944,0.9999229850762281,-27.467135479394862
8.505415168,0.9998780481345387,-27.644750369106738
8.512635392,0.9998399527773176,-27.821800872789353
8.519855616,0.9998106756876782,-27.998413451472405
8.52707584,0.9997923216825567,-28.17467327751152
8.534296064,0.9997853107277961,-28.35079240962327
8.541516288,0.9997906489537128,-28.526882194055233
8.548736512,0.9998077188048528,-28.70314391837729
8.555956736,0.9998356569588261,-28.87972797144586
8.56317696,0.9998730223092117,-29.056736392849352
8.570397184,0.9999175516253767,-29.234332582003137
8.577617408,0.9999669704066623,-29.41256542815197
8.584837632,1.0000185797540015,-29.591476058977975
8.592057344,1.0000691286331864,-29.771120059039237
8.599277568,1.000116220033756,-29.951413315485794
8.606497792,1.0001569332180873,-30.132312041177226
8.613718016,1.0001890582984185,-30.313750501444577
8.62093824,1.0002109013573894,-30.495527860425543
8.628158464,1.0002212088466222,-30.67756506316796
8.635378688,1.0002191022195985,-30.85963532145297
8.642598912,1.000204983887122,-31.04164591823968
8.649819136,1.0001794802379318,-31.223375533602997
8.65703936,1.0001441081839488,-31.404677486594068
8.664259584,1.000100604722905,-31.585499243397635
8.671479808,1.0000514933329119,-31.76566624474666
8.678700032,0.9999995903318584,-31.945187394415445
8.685920256,0.999947804330258,-32.12394932073852
8.69314048,0.9998988278666485,-32.302093976950886
8.700360704,0.9998555166893006,-32.479582462577575
8.707580928,0.9998205034572583,-32.656531835786375
8.714801152,0.9997953625100449,-32.833093314621365
8.722021376,0.9997818388002421,-33.00939152291282
8.7292416,0.9997804574957201,-33.18559659732147
8.736461824,0.9997916352175915,-33.361846985757765
8.743682048,0.9998143585508926,-33.53840186792578
8.750902272,0.9998478172711421,-33.71525679175864
8.758122496,0.9998898299436156,-33.89269518193321
8.76534272,0.999938247217311,-34.070743359661606
8.772562944,0.9999905341892041,-34.2494568684504
8.779783168,1.0000432993034625,-34.428923074624954
8.787003392,1.000093909503524,-34.609094714183875
8.794223616,1.0001395260449915,-34.78993427413197
8.80144384,1.0001776590360345,-34.97134622710151
8.808664064,1.000206021242543,-35.15321955415407
8.815884288,1.0002229185300398,-35.33542406490907
8.823104512,1.0002277016861465,-35.51777016201594
8.830324736,1.000219819210817,-35.70010922602529
8.83754496,1.0001998345166179,-35.88227915869877
8.844765184,1.0001686156269654,-36.06408629148523
8.851985408,1.0001282394878552,-36.2454572591214
8.859205632,1.0000805904859964,-36.426205728882806
8.866425856,1.0000285382138887,-36.60627464646978
8.87364608,0.9999749025639705,-36.785653313988284
8.880866304,0.9999226076693939,-36.96430299026859
8.888086528,0.9998747565025482,-37.14228179808393
8.895306752,0.9998337427317829,-37.319681480692644
8.902526976,0.9998022167787003,-37.49658168222538
