freq,mag,phase
6.0,0.9996906003973957,-118.52915145466152
6.002286592,0.999741531993206,-118.66474810907653
6.004572672,0.999809233648301,-118.80118269275467
6.006859264,0.999889034611757,-118.93868805055227
6.009145344,0.9999755746502158,-119.07741722026488
6.011431936,1.0000635992498503,-119.21740821120186
6.013718016,1.0001473994438135,-119.35867575379197
6.016004608,1.0002216966837638,-119.50107301234782
6.018290688,1.0002818607444273,-119.64446187564631
6.02057728,1.0003239680122609,-119.78856705868613
6.022863872,1.0003452934460548,-119.93319867714433
6.025149952,1.0003446752854783,-120.07795183426583
6.027436544,1.0003219986975627,-120.22249170091884
6.029722624,1.0002785982188696,-120.36664452940336
6.032009216,1.0002174900235745,-120.50997182205866
6.034295296,1.000142205984699,-120.65235835918624
6.036581888,1.000057768694881,-120.79353182167168
6.03886848,0.9999694379865042,-120.93350971884585
6.04115456,0.9998827904545012,-121.07218407893652
6.043441152,0.9998031967295842,-121.20965000608871
6.045727232,0.999735961049344,-121.34607059220637
6.048013824,0.9996851504182349,-121.48161847608564
6.050299904,0.999654080924606,-121.61660002947119
6.052586496,0.9996448314624727,-121.75123303465698
6.054872576,0.9996578043332597,-121.88593207015998
6.057159168,0.9996922062648587,-122.02096338572494
6.05944576,0.9997461222067859,-122.15664771887081
6.06173184,0.9998157837260808,-122.2932424582873
6.064018432,0.9998971935716882,-122.43089950469468
6.066304512,0.9999847964478115,-122.56981466428418
6.068591104,1.0000733024438075,-122.71002403925603
6.070877184,1.000156948904615,-122.85144223220833
6.073163776,1.0002305617629716,-122.9940340255162
6.075450368,1.000289438151083,-123.13759044982166
6.077736448,1.00032970352286,-123.28186883553725
6.08002304,1.0003490156927504,-123.42657345957694
6.08230912,1.0003460219050362,-123.57139504504384
6.084595712,1.0003209508449886,-123.71604877288233
6.086881792,1.0002752143045979,-123.86014055605943
6.089168384,1.00021194279241,-124.00348219744718
6.091454464,1.000134880428225,-124.14578003635205
6.093741056,1.0000491576377404,-124.28691340028416
6.096027648,0.9999600686370269,-124.42676790988448
6.098313728,0.9998731641557952,-124.56532723621754
6.10060032,0.9997941710345908,-124.70271861029966
6.1028864,0.999727796143698,-124.83901617738375
6.105172992,0.9996785880891359,-124.97448607114164
6.107459072,0.9996495497881258,-125.10942274911842
6.109745664,0.9996425269955447,-125.24405085594559
6.112032256,0.9996579753681024,-125.37874436310831
6.114318336,0.9996948192847169,-125.51383721682008
6.116604928,0.9997509830318172,-125.64958534981189
6.118891008,0.9998226565083481,-125.78628545920057
6.1211776,0.9999055636666653,-125.92408470411048
6.12346368,0.9999941271377463,-126.06314987606079
6.125750272,1.0000831099776977,-126.20347273425112
6.128036352,1.0001666387692596,-126.34507908919154
6.130322944,1.0002395014688543,-126.48779626151712
6.132609536,1.0002969685434129,-126.63147121722704
6.134895616,1.0003355029174892,-126.77585900746516
6.137182208,1.0003526325592595,-126.92068200830386
6.139468288,1.0003472228274959,-127.06553140977442
6.14175488,1.0003196688450358,-127.21016515477977
6.14404096,1.0002715963931617,-127.3542508458755
6.146327552,1.0002061841056165,-127.49753050191279
6.148614144,1.000127444396381,-127.63973118608011
6.150900224,1.0000403887164804,-127.78073841758467
6.153186816,0.9999505223551277,-127.920472460427
6.155472896,0.9998634934384285,-128.05891717023871
6.157759488,0.9997850001026649,-128.19615088122342
6.160045568,0.9997198449229925,-128.33232055088004
6.16233216,0.9996721785866636,-128.46769744102434
6.16461824,0.9996451740161895,-128.60253192883573
6.166904832,0.9996404081612071,-128.73708674830826
6.169191424,0.9996582455143831,-128.87177400486044
6.171477504,0.9996975696422005,-129.00687965849914
6.173764096,0.9997560079850071,-129.14268494822898
6.176050176,0.999829616919958,-129.27942900077235
6.178336768,0.9999139364161718,-129.4173571233681
6.180622848,1.000003656466658,-129.5565155891579
6.18290944,1.000092918583561,-129.69698458085324
6.18519552,1.000176252173164,-129.83869192676363
6.187482112,1.0002481978357538,-129.98155422848512
6.189768704,1.000304366226789,-130.12533188204344
6.192054784,1.0003409986217604,-130.26979117640474
6.194341376,1.0003559742341979,-130.41461883497308
6.196627456,1.000348131469925,-130.55950258903462
6.198914048,1.0003181000588541,-130.7040758779052
6.201200128,1.0002677270321831,-130.84809323480002
6.20348672,1.000200124100026,-130.99127454030202
6.205773312,1.0001196153040144,-131.1333426041891
6.208059392,1.0000312562804183,-131.2742237527905
6.210345984,0.9999407981409095,-131.4137736994417
6.212632064,0.9998537851042943,-131.55205953109055
6.214918656,0.9997757782612956,-131.68909929892075
6.217204736,0.9997117964781789,-131.82512401333224
6.219491328,0.9996658393709942,-131.96036608033694
6.221777408,0.9996408515456705,-132.09505264890495
6.224064,0.9996385066887006,-132.22956050484345
6.226350592,0.9996588022984025,-132.36417149175546
6.228636672,0.9997006291969487,-132.49924190512752
6.230923264,0.9997612142501464,-132.63506160198878
6.233209344,0.9998368149526347,-132.77186878294282
6.235495936,0.9999226655872927,-132.90985300145283
6.237782016,1.0000132432254711,-133.04911780331997
6.240068608,1.00010288567056,-133.18967526134978
6.2423552,1.0001858102385985,-133.33145350279634
6.24464128,1.000256924964485,-133.4744165067956
6.246927872,1.0003115856772975,-133.61825663164103
6.249213952,1.0003463243211013,-133.76276238266433
6.251500544,1.0003590402009968,-133.9075569419234
6.253786624,1.0003487492952656,-134.0523987188156
6.256073216,1.0003162604415048,-134.19694920161058
6.258359296,1.0002634138222646,-134.34088938403005
6.260645888,1.0001937638570246,-134.48389514824552
6.26293248,1.0001115878584907,-134.625826363803
6.26521856,1.0000220712175214,-134.76647291042312
6.267505152,0.9999309054764618,-134.9058510499664
6.269791232,0.9998439113547021,-135.0438844340738
6.272077824,0.9997665336489354,-135.180761623652
6.274363904,0.9997038202207575,-135.31658143743218
6.276650496,0.999659553721478,-135.45161211538505
6.278937088,0.9996366383592228,-135.58613981987654
6.281223168,0.9996366934498983,-135.72052265623574
6.28350976,0.9996594553638495,-135.8551050389938
6.28579584,0.9997037570961673,-135.9901212926151
6.288082432,0.9997667013141919,-136.12593149014083
6.290368512,0.999844161660492,-136.26272239651402
6.292655104,0.9999314463364273,-136.4007634715843
6.294941184,1.0000228978944887,-136.54005521600376
6.297227776,1.000112811189396,-136.68066900068408
6.299514368,1.0001954768945533,-136.82257075233997
6.301800448,1.0002654811654734,-136.96552623743722
6.30408704,1.0003186990539927,-137.10940316203894
6.30637312,1.0003515307003694,-137.25388692315627
6.308659712,1.0003617736270622,-137.3986906656
6.310945792,1.000349106313189,-137.54346357650192
6.313232384,1.000314074033641,-137.68790812530733
6.315518464,1.000258899349423,-137.831677984731
6.317805056,1.0001871068374732,-137.974532549565
6.320091648,1.0001032288316032,-138.11622332859696
6.322377728,1.0000125707000038,-138.25668264275598
6.32466432,0.9999209315747071,-138.39579686076053
6.3269504,0.9998339171173165,-138.53359966774195
6.329236992,0.9997572820531294,-138.67021067601394
6.331523072,0.999695804322727,-138.80579620635808
6.333809664,0.9996533481062673,-138.9406497066961
6.336096256,0.9996326468814277,-139.07503112929516
6.338382336,0.9996351164887491,-139.20925805058474
6.340668928,0.9996605178236638,-139.3436983401545
6.342955008,0.9997072163117106,-139.47864409543098
6.3452416,0.9997723545102359,-139.6144158844091
6.34752768,0.9998518207178699,-139.75119164820833
6.349814272,0.9999404447651927,-139.8892149705761
6.352100352,1.0000328420064741,-140.02853710619556
6.354386944,1.0001229897901318,-140.1692035313646
6.356673536,1.0002051514784582,-140.31109436247485
6.358959616,1.0002742045332003,-140.4540920671867
6.361246208,1.000325824501398,-140.59796603072655
6.363532288,1.0003565268349954,-140.7424104557562
6.36581888,1.0003645653471251,-140.88715238003823
6.36810496,1.0003492893494235,-141.03182805139323
6.370391552,1.000311730684924,-141.1761239682454
6.372678144,1.0002541685920958,-141.31969825076575
6.374964224,1.000180343949292,-141.46233374222228
6.377250816,1.0000947988641307,-141.6038272843554
6.379536896,1.0000030012251149,-141.7439859082044
6.381823488,0.9999108350483851,-141.88284626960345
6.384109568,0.9998240682206935,-142.0203841701991
6.38639616,0.9997481536778222,-142.15670104853456
6.38868224,0.9996880262408159,-142.29203573081804
6.390968832,0.9996474549102152,-142.42663592297316
6.393255424,0.999629021379963,-142.56082254070554
6.395541504,0.9996338909337238,-142.69485098872948
6.397828096,0.9996618720244582,-142.82915533399796
6.400114176,0.9997110770873233,-142.96400335379658
6.402400768,0.9997785187588525,-143.09969991131445
6.404686848,0.9998597914873398,-143.23644151362421
6.40697344,0.9999498322934548,-143.37442302194026
6.409260032,1.0000429713173966,-143.51375958526472
6.411546112,1.0001332277207498,-143.65442827515344
6.413832704,1.0002149181175957,-143.79629944217822
6.416118784,1.0002829074412,-143.9392832182655
6.418405376,1.000332802103977,-144.08310499157395
6.420691456,1.0003614997869354,-144.2274681806115
6.422978048,1.0003670851685764,-144.3721080163845
6.425264128,1.0003492567818029,-144.51665684910088
6.42755072,1.0003091529987453,-144.66077904508347
6.429837312,1.0002491788123393,-144.80416674011622
6.432123392,1.0001733052980557,-144.94655062784605
6.434409984,1.0000861181321754,-145.08774784964973
6.436696064,0.9999932641508202,-145.2276203748579
6.438982656,0.9999006078476107,-145.3661691997928
6.441268736,0.9998139845078056,-145.50338250958754
6.443555328,0.9997390150768451,-145.63940240750884
6.44584192,0.9996802748382932,-145.77444607472472
6.448128,0.99964162371032,-145.90879813520104
6.450414592,0.9996254830769495,-146.0427209375122
6.452700672,0.9996328918344202,-146.1765853128715
6.454987264,0.9996634126669924,-146.31069047060686
6.457273344,0.9997151550913109,-146.4453729473467
6.459559936,0.999784846130906,-146.58096487831563
6.461846016,0.9998679783543547,-146.7176574873402
6.464132608,0.9999593577180104,-146.8555888406222
6.4664192,1.0000532030125413,-146.99489736283562
6.46870528,1.0001435672170225,-147.13548992277381
6.470991872,1.000224693557616,-147.27735334520102
6.473277952,1.000291525151568,-147.42030089299647
6.475564544,1.0003396810824563,-147.56405330885875
6.477850624,1.000366171999829,-147.70833771188643
6.480137216,1.0003693788693642,-147.852805122841
6.482423296,1.0003489220665398,-147.99719441355654
6.484709888,1.0003062258708895,-148.14109348605209
6.48699648,1.000243913027502,-148.28425071567435
6.48928256,1.0001658885195501,-148.42631524281504
6.491569152,1.0000771746531012,-148.56720312809185
6.493855232,0.999983244290689,-148.70678367309247
6.496141824,0.9998902121950056,-148.84494595169778
6.498427904,0.9998038958971889,-148.98182099689257
6.500714496,0.9997298089102101,-149.1175214815455
6.503001088,0.9996725609804663,-149.2522528453035
6.505287168,0.9996359051456025,-149.38629110643132
6.50757376,0.999622117470531,-149.51991051608354
6.50985984,0.9996321079267897,-149.65354265209473
6.512146432,0.9996652418743944,-149.78743816381606
6.514432512,0.9997195032072044,-149.92202970349345
6.516719104,0.999791405409703,-150.05745947423728
6.519005184,0.9998763671428423,-150.19404529691764
6.521291776,0.9999690363178306,-150.3319074444845
6.523578368,1.0000635358810395,-150.4711689715338
6.525864448,1.00015393942258,-150.61169911363194
6.52815104,1.000234480950978,-150.75349179591007
6.53043712,1.0003000175535481,-150.89632582456184
6.532723712,1.0003464251252983,-151.03997955638653
6.535009792,1.0003707410369451,-151.1841372826937
6.537296384,1.0003713363350342,-151.32846057211867
6.539582976,1.000348263066552,-151.47262152355555
6.541869056,1.0003029786058861,-151.61627345495947
6.544155648,1.0002382722925072,-151.75910772662272
6.546441728,1.0001581969023678,-151.90090454535826
6.54872832,1.0000679385251545,-152.0414463131828
6.5510144,0.9999731307216757,-152.18060611536558
6.553300992,0.9998797518828509,-152.31843444040632
6.555587072,0.9997937695085415,-152.45491425562918
6.557873664,0.9997206010314669,-152.59024175473354
6.560160256,0.9996649904817153,-152.72461436709457
6.562446336,0.9996303504398791,-152.85833476543823
6.564732928,0.9996190266062103,-152.9916865892451
6.567019008,0.999631576752487,-153.1250464347205
6.5693056,0.9996674503519829,-153.2587414861007
6.57159168,0.9997242186155958,-153.39308378213562
6.573878272,0.999798319291733,-153.5284080307938
6.576164864,0.9998850327851085,-153.66484476332658
6.578450944,0.9999790330761877,-153.80261579998196
6.580737536,1.0000741934932067,-153.94177210324455
6.583023616,1.0001645403110673,-154.08221066019252
6.585310208,1.0002443169577342,-154.22391419890906
6.587596288,1.0003084504264363,-154.36665288101543
6.58988288,1.0003530538388932,-154.5101558902989
6.59216896,1.0003751173363258,-154.65413079117806
6.594455552,1.000373137002938,-154.79828183426685
6.596742144,1.0003474537128778,-154.94217846195627
6.599028224,1.0002994870444395,-155.0855391843398
6.601314816,1.0002323634003876,-155.22807537206856
6.603600896,1.000150304375978,-155.36951713422147
6.605887488,1.0000584582792804,-155.50967553761916
6.608173568,0.9999628007809904,-155.64846519196837
6.61046016,0.9998690662895845,-155.78585130833764
6.612746752,0.9997834891439659,-155.92191542497972
6.615032832,0.9997114540685903,-156.0568389175514
6.617319424,0.9996574645035029,-156.19082580471454
6.619605504,0.9996249904817742,-156.32418337845732
6.621892096,0.9996160721835237,-156.45723236388602
6.624178176,0.9996313815987106,-156.59029999364506
6.626464768,0.9996698829082591,-156.7237403475429
6.628750848,0.9997291347837826,-156.85788696605718
6.63103744,0.9998054798560352,-156.99301021107922
6.633324032,0.9998940555564544,-157.12931495310087
6.635610112,0.999989154446418,-157.26695226228026
6.637896704,1.0000848409154637,-157.40594257197466
6.640182784,1.000175169764616,-157.54632959692867
6.642469376,1.0002541575365467,-157.68789730238538
6.644755456,1.0003169532013223,-157.83047708841525
6.647042048,1.0003595575830304,-157.97381506364036
6.649328128,1.000379224099515,-158.117584791661
6.65161472,1.0003747320390979,-158.26150138185
6.653901312,1.0003462721746308,-158.40512475782234
6.656187392,1.0002957552047385,-158.54816335070996
6.658473984,1.0002262591612858,-158.69033327824354
6.660760064,1.0001421393311303,-158.8313982916987
6.663046656,1.0000489217113688,-158.97113883707468
6.665332736,0.9999522879151987,-159.10946604589068
6.667619328,0.9998583835656536,-159.24646617112808
6.66990592,0.9997732508845159,-159.38207535071115
6.672192,0.9997023726789915,-159.516564725759
6.674478592,0.9996501519651314,-159.65016045026826
6.676764672,0.999619856867031,-159.78311082047765
6.679051264,0.9996134272469784,-159.91581747987138
6.681337344,0.9996315129261949,-160.04855473790823
6.683623936,0.9996726476149751,-160.18175887950773
6.685910016,0.9997345224008063,-160.31566851846037
6.688196608,0.9998130742506506,-160.45058836051447
6.6904832,0.9999033684688119,-160.58672862978898
6.69276928,0.9999996907800958,-160.7241772082337
6.695055872,1.0000958982802044,-160.86303609218385
6.697341952,1.0001859805523685,-161.00324499358578
6.699628544,1.0002641718862975,-161.14468350477705
6.701914624,1.0003254912398778,-161.28708803847326
6.704201216,1.0003660235388614,-161.430223030834
6.706487808,1.000383301517283,-161.57379378276028
6.708773888,1.000376083838086,-161.717427053019
6.71106048,1.0003448613995671,-161.86073200544655
6.71334656,1.0002916469764038,-162.0034457754975
6.715633152,1.0002196965154257,-162.14524192237005
6.717919232,1.0001336654409865,-162.28585623586102
6.720205824,1.000038907078296,-162.4251587294994
6.722491904,0.999941400270359,-162.5630350616711
6.724778496,0.9998474796954154,-162.69949397838687
6.727065088,0.9997629147729447,-162.834704065476
6.729351168,0.9996931649907472,-162.96874271815207
6.73163776,0.9996427388865387,-163.10187832757074
6.73392384,0.9996147843486727,-163.23443122737592
6.736210432,0.9996109811352977,-163.3667493959161
6.738496512,0.9996317493541083,-163.4991700708974
6.740783104,0.9996756554358612,-163.63203904236738
6.743069696,0.999740037571775,-163.76569909863628
6.745355776,0.9998208545278218,-163.90039764921104
6.747642368,0.9999128877531229,-164.0363055203816
6.749928448,1.0000103261516147,-164.17358436883498
6.75221504,1.000106936965817,-164.31228884974362
6.75450112,1.000196793298232,-164.45234002073087
6.756787712,1.0002740393462204,-164.5935680653702
6.759073792,1.000333745435363,-164.7357879495162
6.761360384,1.0003722846773464,-164.87871804761318
6.763646976,1.000387014639354,-165.02202944617682
6.765933056,1.0003771144751412,-165.165335087002
6.768219648,1.0003431306259112,-165.30829819986172
6.770505728,1.00028725916986,-165.45065289070345
6.77279232,1.0002129221186968,-165.59199902169283
6.7750784,1.000124846571799,-165.73217891586356
6.777364992,1.0000287096455587,-165.87100564003364
6.779651584,0.9999305025730965,-166.0083932762356
6.781937664,0.9998364770632042,-166.14436014449714
6.784224256,0.9997525755670121,-166.27903805590665
6.786510336,0.9996841393706103,-166.41258744387258
6.788796928,0.9996355719215307,-166.5452651507308
6.791083008,0.9996098569344913,-166.67739810494336
6.7933696,0.9996087282937761,-166.80933107766086
6.79565568,0.9996323233831074,-166.94139299190243
6.797942272,0.9996790218713872,-167.07392212422553
6.800228864,0.9997460444273161,-167.2072863555116
6.802514944,0.9998289546344928,-167.34173211269396
6.804801536,0.9999226888215942,-167.47744442855728
6.807087616,1.0000211460037693,-167.61453980883692
6.809374208,1.0001182355068992,-167.7530444362813
6.811660288,1.0002077236757196,-167.89288130083392
6.81394688,1.0002838736863522,-168.0339055185692
6.81623296,1.0003420135469605,-168.1759110633881
6.818519552,1.000378267181464,-168.31858258809825
6.820806144,1.0003905015389807,-168.4615976719321
6.823092224,1.0003777904697493,-168.60458712462827
6.825378816,1.0003409955220255,-168.7471912311368
6.827664896,1.0002823934829612,-168.88909677535548
6.829951488,1.000205660735415,-169.03000784331405
6.832237568,1.0001156455103115,-169.16971438256502
6.83452416,1.0000182122412304,-169.30801566548135
6.836810752,0.9999192436087894,-169.44487830484144
6.839096832,0.9998251486092921,-169.58034585760754
6.841383424,0.9997421028111069,-169.71449666898482
6.843669504,0.9996750301783001,-169.84752036623448
6.845956096,0.9996283920367847,-169.97970572939005
6.848242176,0.9996051601473314,-170.1113872265419
6.850528768,0.9996068007599516,-170.242893730937
6.852814848,0.9996332448668308,-170.37457950155905
6.85510144,0.9996827614608234,-170.5067874922666
6.857388032,0.9997522539141178,-170.6398307079115
6.859674112,0.9998374349192115,-170.77401466533647
6.861960704,0.999932783404764,-170.9094804328508
6.864246784,1.0000322370881274,-171.0463366012497
6.866533376,1.0001296261184605,-171.1846308316259
6.868819456,1.0002186196272531,-171.32425212572375
6.871106048,1.0002938076175742,-171.46505720793974
6.87339264,1.0003502141696938,-171.60679860454493
6.87567872,1.0003842728382797,-171.7491818327092
6.877965312,1.00039384083067,-171.89187837026307
6.880251392,1.0003782974102446,-172.03450559932844
6.882537984,1.0003386386927875,-172.17673155655552
6.884824064,1.000277329587747,-172.31818804857272
6.887110656,1.00019821468349,-172.45863507499803
6.889396736,1.000106358307226,-172.59780435865335
6.891683328,1.0000074018239007,-172.73557714876645
6.89396992,0.999907936295642,-172.87188310787425
6.896256,0.9998139885816043,-173.00679486838692
6.898542592,0.9997316210751525,-173.14040002882447
6.900828672,0.9996659716178667,-173.27286092302325
6.903115264,0.9996214530329252,-173.40459150258073
6.905401344,0.9996006872479063,-173.53576022889595
