freq,mag,phase
6.0,1.002767419810737,34.25234173583569
6.002285568,1.0025061448137098,34.05276416822443
6.004571648,1.002087261745241,33.85798797059
6.006857216,1.0015371368250712,33.67014019387681
6.009142784,1.0008899888697025,33.49085422985402
6.011428352,1.000186687099155,33.321253925070664
6.013714432,0.9994715037280886,33.16185484050452
6.016,0.9987897000637227,33.01253926123961
6.018285568,0.9981844485935205,32.872515338094516
6.020571648,0.9976940903896895,32.74041978523147
6.022857216,0.9973498699191595,32.61432813794938
6.025142784,0.9971737385004911,32.49199035676494
6.027428352,0.9971770499627471,32.370814458174095
6.029714432,0.9973594891813017,32.248224048091025
6.032,0.9977096268335541,32.12166786529001
6.034285568,0.9982052254981106,31.98885651397422
6.036571648,0.9988147414401315,31.847884468558433
6.038857216,0.9994997464800249,31.697425092398188
6.041142784,1.0002167958667023,31.536689046584836
6.043428352,1.0009205150282656,31.365563272859312
6.045714432,1.0015666345578722,31.184595212758506
6.048,1.0021145366592288,30.99491696598329
6.050285568,1.0025295541413946,30.79819053789512
6.052571648,1.0027858572715318,30.596534735477626
6.054857216,1.0028671707396128,30.392366246307464
6.057142784,1.0027684381552302,30.18824265071743
6.059428352,1.002495618044722,29.986686612670713
6.061714432,1.0020659314119251,29.790094060084705
6.064,1.00150617781582,29.6005724365015
6.066285568,1.0008515652031715,29.41970119399233
6.068571648,1.0001431107912955,29.248629109256562
6.070857216,0.9994256288905832,29.08778868238962
6.073142784,0.9987443313738378,28.937055833671806
6.075428352,0.9981423848435632,28.795559615648276
6.077714432,0.9976579811128131,28.661929157840305
6.08,0.9973220350307017,28.534193289883024
6.082285568,0.997155999989262,28.410059243379532
6.084571648,0.9971702633085509,28.286943495937788
6.086857216,0.9973641912501316,28.16223063766048
6.089142784,0.9977253440625523,28.03337478519717
6.091428352,0.9982309852339183,27.89810971537152
6.093714432,0.9988490012004805,27.754568117971143
6.096,0.9995402590420907,27.601396932395517
6.098285568,1.0002608421987398,27.43787003522413
6.100571648,1.0009655332063248,27.263921609810474
6.102857216,1.0016097419604175,27.08013999066792
6.105142784,1.0021530477093419,26.887678155952152
6.107428352,1.002561149852407,26.688269469959142
6.109714432,1.002808467686767,26.48404281021346
6.112,1.0028795319665176,26.277419925901498
6.114285568,1.0027697132527371,26.070964942989743
6.116571648,1.0024859566287905,25.86725140601282
6.118857216,1.002045925699404,25.668673814421155
6.121142784,1.0014771342415696,25.47724411294812
6.123428352,1.0008152315823078,25.294614924787126
6.125714432,1.0001018707885005,25.1218469582062
6.128,0.9993821004619797,24.95937147945066
6.130285568,0.998701201263607,24.80698697852607
6.132571648,0.9981024388619267,24.663831179816444
6.134857216,0.9976236922101785,24.528452269595288
6.137142784,0.9972954914314306,24.398864431494868
6.139428352,0.9971388087071558,24.272751442109065
6.141714432,0.9971635512349549,24.147507800140183
6.144,0.9973682663267336,24.020495372207346
6.146285568,0.9977400638134607,23.889181505873424
6.148571648,0.9982552686593789,23.751296522611998
6.150857216,0.9988812768748366,23.604988324404854
6.153142784,0.9995783731732091,23.448975255272014
6.155428352,1.0003025535909744,23.28251862277732
6.157714432,1.0010081626528875,23.105633765291902
6.16,1.0016506433441656,22.91888414699925
6.162285568,1.002189549732482,22.72351053362621
6.164571648,1.002591116919451,22.521238227759547
6.166857216,1.0028301483167383,22.314266203077597
6.169142784,1.0028915604150797,22.105014105513444
6.171428352,1.0027713541133507,21.896078501699222
6.173714432,1.0024772195750273,21.690013923652796
6.176,1.0020273013220968,21.489213178126843
6.178285568,1.001449904086902,21.295706422126084
6.180571648,1.000781192529321,21.11110174083627
6.182857216,1.0000631040265062,20.936415177703424
6.185142784,0.9993409598886656,20.772103625702602
6.187428352,0.9986603742139671,20.61782670453569
6.189714432,0.9980644346660087,20.47279825107409
6.192,0.9975909372611097,20.335465615961763
6.194285568,0.9972699936668391,20.203821683358004
6.196571648,0.9971220539747269,20.07553843632942
6.198857216,0.9971566261148245,19.947975555232922
6.201142784,0.9973715418107099,19.81849746318915
6.203428352,0.9977532943698588,19.684554380024128
6.205714432,0.9982774868097755,19.543892892974135
6.208,0.9989110759643027,19.394692685182108
6.210285568,0.999613897808877,19.235682984768964
6.212571648,1.0003415450991773,19.06617524328317
6.214857216,1.0010481076483222,18.886163309277354
6.217142784,1.0016890660080797,18.69631297843812
6.219428352,1.0022242280646656,18.49783902282368
6.221714432,1.0026197704091937,18.292577405166995
6.224,1.002850983650547,18.082688643047998
6.226285568,1.0029034242351553,17.870632055086407
6.228571648,1.0027736553611422,17.65902129282873
6.230857216,1.0024698083892833,17.450424307652433
6.233142784,1.0020107208390274,17.247181845914447
6.235428352,1.0014251512497514,17.051383654402805
6.237714432,1.000749868327543,16.86457761455378
6.24,1.000027307205213,16.687763428098528
6.242285568,0.9993028216230551,16.52135377132834
6.244571648,0.9986224155692008,16.365008404474338
6.246857216,0.9980289608172412,16.217873679656385
6.249142784,0.9975601679750933,16.078360609231606
6.251428352,0.9972458067314075,15.944462872685204
6.253714432,0.9971059931173106,15.813808124917808
6.256,0.9971495904681325,15.683722943234597
6.258285568,0.9973740155430356,15.551588854647088
6.260571648,0.9977649661859679,15.414873746173566
6.262857216,0.9982976592075725,15.271282154852504
6.265142784,0.9989384507143027,15.119042971971593
6.267428352,0.9996466595434317,14.956884448887322
6.269714432,1.0003775874405096,14.78414882918789
6.272,1.001085312106008,14.600897597774622
6.274285568,1.0017250386803305,14.407784603893127
6.276571648,1.002256638528182,14.206101370774464
6.278857216,1.0026469582486202,13.997654893903066
6.281142784,1.002871148940143,13.784673537581963
6.283428352,1.0029153677375968,13.569642414598045
6.285714432,1.0027767060883037,13.355151942320242
6.288,1.002463705465324,13.143811618885971
6.290285568,1.0019961171781364,12.937961646915127
6.292571648,1.0014029401745448,12.739640219313907
6.294857216,1.000721392213796,12.550403024592226
6.297142784,0.9999944384465019,12.371223254129085
6.299428352,0.9992676551568407,12.202479878793392
6.301714432,0.9985871042932085,12.043841733581955
6.304,0.9979957311279655,11.894359829711698
6.306285568,0.9975311440052493,11.752450596480037
6.308571648,0.9972227403584345,11.616109895539743
6.310857216,0.9970901605591349,11.482850465587305
6.313142784,0.997142108501004,11.350105846347967
6.315428352,0.9973752114520994,11.215125037575786
6.317714432,0.9977746939367468,11.075420784593318
6.32,0.998315325703938,10.928766472402389
6.322285568,0.9989627913590773,10.773314950375587
6.324571648,0.999676183516577,10.607864542141531
6.326857216,1.000410416233063,10.431788373606203
6.329142784,1.0011193854357276,10.245144687041105
6.331428352,1.0017583263493495,10.048630626553402
6.333714432,1.0022870244329578,9.843567314401106
6.336,1.0026725882528802,9.63179129949564
6.338285568,1.0028905925427805,9.415564926805406
6.340571648,1.0029273480471501,9.19734415322184
6.342857216,1.002780609789811,8.979822015700245
6.345142784,1.0024594898949977,8.76552128338209
6.347428352,1.0019838577699265,8.556808402778683
6.349714432,1.0013836166933203,8.355733844782788
6.352,1.0006962704802536,8.163830559496184
6.354285568,0.9999649843002056,7.982054968418085
6.356571648,0.999235849590978,7.810741205006135
6.358857216,0.9985548415197965,7.649552866445159
6.361142784,0.9979650544016901,7.497507574295769
6.363428352,0.9975039649431708,7.3530023502474355
6.365714432,0.9972006714180371,7.213950333680323
6.368,0.9970745547760897,7.077929958469195
6.370285568,0.9971339426068984,6.942295977104394
6.372571648,0.9973749049206435,6.804331638030254
6.374857216,0.997782109572437,6.661506498581552
6.377142784,0.9983300322683046,6.511603325323557
6.379428352,0.9989838457826753,6.3528134376121415
6.381714432,0.9997022078367311,6.1839284342921665
6.384,1.0004397730242736,6.004355008150963
6.386285568,1.0011501622200256,5.814169427789282
6.388571648,1.0017886972175454,5.614102614280069
6.390857216,1.002315195790633,5.405510403130971
6.393142784,1.002696755109308,5.19023915132787
6.395428352,1.00290929698776,4.970563898039862
6.397714432,1.0029395732267934,4.749019861325448
6.4,1.0027857188438705,4.5282115028922885
6.402285568,1.0024571649658005,4.310742339349792
6.404571648,1.0019743646810735,4.098952663650873
6.406857216,1.001367555249944,3.894896424172649
6.409142784,1.0006746207743658,3.7000816749539402
6.411428352,0.9999393352663126,3.515474821934632
6.413714432,0.9992076522530856,3.341359429381918
6.416,0.9985258879043734,3.177399514679429
6.418285568,0.9979371468016275,3.0225335702588243
6.420571648,0.997478805110366,2.875188045927906
6.422857216,0.9971797813656522,2.733260311677199
6.425142784,0.9970593677454695,2.594269756263816
6.427428352,0.9971250849870258,2.4555277771301807
6.429714432,0.9973729528053292,2.3143880505102485
6.432,0.9977872666668735,2.168266226087541
6.434285568,0.9983417151159504,2.014971824738559
6.436571648,0.9990013691450447,1.8527170598376288
6.438857216,0.9997243687205116,1.680239396121708
6.441142784,1.0004653380475932,1.497032882466902
6.443428352,1.0011775770838092,1.3031657048973602
6.445714432,1.0018161647940749,1.099420294460803
6.448,1.0023410166842235,0.8871392681759054
6.450285568,1.0027194067808156,0.6682172340360293
6.452571648,1.0029275020221349,0.4449291778776518
6.454857216,1.0029523284758108,0.21983167289289077
6.457142784,1.0027922422118187,-0.0044486431672192015
6.459428352,1.002457024472385,-0.22530319308707675
6.461714432,1.001967700144029,-0.4403771592936566
6.464,1.0013548895309006,-0.6476514636118136
6.466285568,1.0006569862830725,-0.8456189503621782
6.468571648,0.9999175179393307,-1.0333276294993754
6.470857216,0.9991831849530748,-1.210497444173929
6.473142784,0.9985003024823259,-1.3775038866272509
6.475428352,0.9979119938514692,-1.5353961339322082
6.477714432,0.9974556551216853,-1.6857962530043566
6.48,0.997159995457876,-1.8308750203752455
6.482285568,0.9970441547824532,-1.9730373453864203
6.484571648,0.9971152890584034,-2.1150320465572716
6.486857216,0.9973690538959948,-2.259526013292124
6.489142784,0.9977895751778965,-2.409078681094602
6.491428352,0.9983499379192176,-2.565924420562581
6.493714432,0.9990150606045747,-2.731815255783547
6.496,0.9997425913652863,-2.9079771300863992
6.498285568,1.0004869517827129,-3.0949553120755016
6.500571648,1.001201135127729,-3.292619600318669
6.502857216,1.0018401372420958,-3.500218152339221
6.505142784,1.0023643268289535,-3.716331709192206
6.507428352,1.0027405014583897,-3.939070137055525
6.509714432,1.0029451244919392,-4.1661423610120245
6.512,1.0029654580529204,-4.39497683167248
6.514285568,1.002800122480695,-4.622936506281
6.516571648,1.0024594401089018,-4.847391277040414
6.518857216,1.0019644993122032,-5.066009692596573
6.521142784,1.0013462833540792,-5.276749560022199
6.523428352,1.000643449773728,-5.478115283024407
6.525714432,0.9999001209313562,-5.66916763403298
6.528,0.9991629517727527,-5.849645675161413
6.530285568,0.9984785123108522,-6.0199323094482615
6.532571648,0.9978900051916955,-6.181106503414994
6.534857216,0.9974346186885321,-6.334806551167438
6.537142784,0.9971413578733567,-6.483183323115208
6.539428352,0.9970289102799778,-6.628761034781812
6.541714432,0.9971044551298314,-6.774188093675613
6.544,0.9973632645643624,-6.922215106633421
6.546285568,0.9977890079439657,-7.075351546293856
6.548571648,0.9983546656338237,-7.235888080708474
6.550857216,0.9990245774469879,-7.4055376239912345
6.553142784,0.9997564775725464,-7.585535075433295
6.555428352,1.0005042765955445,-7.776388044972485
6.557714432,1.0012207578636745,-7.978007529635397
6.56,1.0018611055445577,-8.189562701748832
6.562285568,1.0023851903234877,-8.409677320449426
6.564571648,1.0027601037962626,-8.636399758972194
6.566857216,1.0029623592724084,-8.867429583820597
6.569142784,1.002979375822502,-9.100198496226577
6.571428352,1.0028099866408275,-9.332031460940584
6.573714432,1.0024646575659777,-9.560320039172355
6.576,1.0019648952762104,-9.782695486647432
6.578285568,1.001341884989505,-9.99716079049914
6.580571648,1.00063456319111,-10.20216311457622
6.582857216,0.9998872711269072,-10.396817338760451
6.585142784,0.9991471313349514,-10.58084587438126
6.587428352,0.9984604721079692,-10.754690210464942
6.589714432,0.9978709206126717,-10.919381820030324
6.592,0.9974157405782965,-11.076613572756111
6.594285568,0.9971237516375043,-11.22853152780398
6.596571648,0.997013552209603,-11.377648383142864
6.598857216,0.997092254000918,-11.526716268344448
6.601142784,0.9973549319646936,-11.678413525401446
6.603428352,0.9977848768025082,-11.835319802855091
6.605714432,0.998355071285767,-11.999659765301162
6.608,0.9990294260702616,-12.173212532871958
6.610285568,0.9997653564711405,-12.357151025564171
6.612571648,1.0005166783880024,-12.552029318409339
6.614857216,1.0012359821536327,-12.757706889797367
6.617142784,1.0018782375659525,-12.973349230300675
6.619428352,1.0024031670153775,-13.19756401631287
6.621714432,1.0027778023850082,-13.428436475600279
6.624,1.0029790438196968,-13.663587038450343
6.626285568,1.0029938869560766,-13.900486003799303
6.628571648,1.0028215462954966,-14.136394284906443
6.630857216,1.0024727248624812,-14.368720617728986
6.633142784,1.001969018506825,-14.595100464604142
6.635428352,1.0013418305329398,-14.813520470334703
6.637714432,1.0006304134612398,-15.022432769456072
6.64,0.9998793983930439,-15.220953913070204
6.642285568,0.9991358405573592,-15.40880412155434
6.644571648,0.9984466225248168,-15.586411670940235
6.646857216,0.9978552777418624,-15.754877171113721
6.649142784,0.997399189619645,-15.915849061977724
6.651428352,0.9971072775647427,-16.0715200389617
6.653714432,0.9969981241607623,-16.22442951905712
6.656,0.9970786846812179,-16.377279105007453
6.658285568,0.9973440549698055,-16.53281460339781
6.660571648,0.9977773511964838,-16.693600547591387
6.662857216,0.998351295353886,-16.861880524433253
6.665142784,0.9990295420194287,-17.039419647516034
6.667428352,0.9997694107878504,-17.227434342416082
6.669714432,1.000524240669106,-17.42642648094433
6.672,1.0012467348483711,-17.636268130825396
6.674285568,1.001891552230717,-17.85614937533388
6.676571648,1.002418286032835,-18.084621283464198
6.678857216,1.0027939939260324,-18.319762605205735
6.681142784,1.0029951301790005,-18.559206500711365
6.683428352,1.0030092616106652,-18.800386949096694
6.685714432,1.0028352019593116,-19.040581347575614
6.688,1.002483901683404,-19.277191938176042
6.690285568,1.0019771870272893,-19.507798569604713
6.692571648,1.0013465696573876,-19.730401268064675
6.694857216,1.0006314402940586,-19.94348347652635
6.697142784,0.9998767136990167,-20.146111263293065
6.699428352,0.999129563544815,-20.338012821475377
6.701714432,0.9984370985031317,-20.519661819633516
6.704,0.9978430784155297,-20.692102752585768
6.706285568,0.9973850642082567,-20.857048526636664
6.708571648,0.9970920340199817,-21.016684136209378
6.710857216,0.9969825818437787,-21.173546485402827
6.713142784,0.9970637702205837,-21.330352755631946
6.715428352,0.9973305565569389,-21.48986039286084
6.717714432,0.9977660453418286,-21.654664042180062
6.72,0.9983428294210538,-21.826999317306917
6.722285568,0.9990244310303611,-22.00864263084345
6.724571648,0.9997679239218852,-22.200803044413195
6.726857216,1.0005265926218234,-22.404027216753676
6.729142784,1.0012527319144668,-22.618122805243853
6.731428352,1.0019008859141183,-22.842350016248645
6.733714432,1.0024304776509314,-23.075180526304674
6.736,1.0028083143280062,-23.31475748714985
6.738285568,1.0030108564402056,-23.558644978415824
6.740571648,1.0030255144434166,-23.80427785293824
6.742857216,1.0028511933822357,-24.04894862520433
6.745142784,1.0024987959706493,-24.290033232837374
6.747428352,1.001989896118809,-24.525102967196634
6.749714432,1.0013565940721085,-24.752129387847443
6.752,1.0006382070582038,-24.969599280155894
6.754285568,0.9998797436737221,-25.17658512851273
6.756571648,0.9991288230724777,-25.372830955135544
6.758857216,0.998432554078898,-25.5587199535243
6.761142784,0.9978349328916717,-25.735391590908165
6.763428352,0.9973737698041143,-25.90451409925881
6.765714432,0.9970782336694644,-26.06828854055812
6.768,0.9969670339244708,-26.229279308429295
6.770285568,0.9970473742058651,-26.39018373152098
6.772571648,0.997314321151015,-26.553815371886035
6.774857216,0.9977508813582754,-26.722747629589886
6.777142784,0.9983296172108407,-26.899234192605086
6.779428352,0.9990140507389381,-27.085063503099157
6.781714432,0.999760976771808,-27.281477360179615
6.784,1.0005233950943044,-27.48898578844322
6.786285568,1.0012536299224135,-27.70746928524741
6.788571648,1.0019059003189148,-27.93607210296518
6.790857216,1.00243939946261,-28.17342128292366
6.793142784,1.0028206288272994,-28.417487789414366
6.795428352,1.0030260410805734,-28.665978451684563
6.797714432,1.003042637778231,-28.916243763019278
6.8,1.0028694256765112,-29.165573371671034
6.802285568,1.0025168994445242,-29.4113066839612
6.804571648,1.0020071677358564,-29.651063638802313
6.806857216,1.0013717384503786,-29.882746129348348
6.809142784,1.0006505485578798,-30.10485758737904
6.811428352,0.9998885309727871,-30.316432511146317
6.813714432,0.999133362247047,-30.51719336206682
6.816,0.9984326095933506,-30.707604777680455
6.818285568,0.9978304823771597,-30.888715193259994
6.820571648,0.997364970917859,-31.06221764605137
6.822857216,0.9970655093020988,-31.230316615435868
6.825142784,0.9969512486988633,-31.39557057327343
6.827428352,0.9970293314344213,-31.5607437626998
6.829714432,0.9972950448522138,-31.728594122589016
6.832,0.997731526164025,-31.901740043266653
6.834285568,0.9983112961001943,-32.08246648975915
6.836571648,0.9989978950584967,-32.272559429358225
6.838857216,0.9997479582802528,-32.473269886067996
6.841142784,1.0005144777400417,-32.685140789226914
6.843428352,1.0012493266025235,-32.9080270489199
6.845714432,1.0019064616246518,-33.14113120736998
6.848,1.0024449725122024,-33.38303447474734
6.850285568,1.0028311244174357,-33.63175863473965
6.852571648,1.0030407349543253,-33.88495271327309
6.854857216,1.0030608477649479,-34.13997556433022
6.857142784,1.0028900859809322,-34.39411780528019
6.859428352,1.0025390831082206,-34.644703996179246
6.861714432,1.0020293681877293,-34.88932992724385
6.864,1.001392879144911,-35.12588379495165
6.866285568,1.0006692168986553,-35.3528352559635
6.868571648,0.9999035759398812,-35.56923691185835
6.870857216,0.9991440291306027,-35.77478681435186
6.873142784,0.9984380980463572,-35.96987525639783
6.875428352,0.9978304887584171,-36.15562459347217
6.877714432,0.9973593764577122,-36.333714567047394
6.88,0.9970545300319363,-36.506305826569346
6.882285568,0.9969354855291512,-36.675997101001634
6.884571648,0.9970098204880341,-36.845532538264294
6.886857216,0.9972727938247096,-37.01770390296989
6.889142784,0.9977078390133115,-37.195159523270945
6.891428352,0.9982876862489758,-37.38014627203906
6.893714432,0.9989756425388068,-37.57456266385736
6.896,0.9997286738112481,-37.779610079663165
6.898285568,1.0004992327431377,-37.995862640818096
6.900571648,1.0012391581723212,-38.22319529630288
6.902857216,1.0019022058872153,-38.46084956926452
6.905142784,1.0024467190406612,-38.70737427185024
6.907428352,1.00283899946981,-38.96079234433498
6.909714432,1.0030545114585556,-39.218796774335054
6.912,1.0030797364864834,-39.478711993258266
6.914285568,1.0029130557609183,-39.73781461769278
6.916571648,1.0025646368349035,-39.99342326039595
6.918857216,1.002056327826498,-40.24309027304146
6.921142784,1.0014195070233882,-40.4847039918638
6.923428352,1.000693938835307,-40.716712760841894
6.925714432,0.9999249279492157,-40.93813202996665
6.928,0.9991605298112249,-41.1486409298482
6.930285568,0.9984489257200169,-41.34865857091638
