freq,mag,phase
6.0,0.9999477237862573,143.82305767244225
6.04166656,0.9999478033104889,141.06699978594597
6.08333312,0.9999479855569678,138.31357859504683
6.125000192,0.9999487089634104,135.5627696870533
6.166666752,0.9999500191668121,132.8145206093742
6.208333312,0.9999517130797572,130.06887617315914
6.249999872,0.9999539834504235,127.32574976621694
6.291666432,0.9999566905528782,124.58513291137265
6.333333504,0.9999598329035964,121.84699905391986
6.375000064,0.9999634508545502,119.11128664633685
6.416666624,0.9999675320028248,116.37799919069714
6.458333184,0.9999718854053954,113.64704616217495
6.499999744,0.9999766847359286,110.91840969148684
6.541666816,0.9999816667731065,108.19206123786881
6.583333376,0.9999869809176065,105.46792689776169
6.624999936,0.9999925399335495,102.74595614360224
6.666666496,0.9999981108674731,100.0261265382389
6.708333568,1.0000039405964452,97.30835092606387
6.750000128,1.0000098365682089,94.59258669580183
6.791666688,1.0000156186199087,91.87877092770339
6.833333248,1.0000215016040908,89.16685333705213
6.874999808,1.0000271226034692,86.45678479152042
6.91666688,1.0000327502972168,83.7484601390819
6.95833344,1.000038040596737,81.04185757952177
7.0,1.000043176723166,78.3369044145218
7.04166656,1.000048010186659,75.63352868686336
7.08333312,1.0000525053565843,72.9316548844001
7.125000192,1.0000565733593072,70.23122589051243
7.166666752,1.0000602411140112,67.53216240519272
7.208333312,1.0000635253909829,64.8344351128859
7.249999872,1.0000662240194478,62.13790097007188
7.291666432,1.0000684512426874,59.44254194546896
7.333333504,1.0000701886539793,56.74826699291329
7.375000064,1.000071326125702,54.05500779603292
7.416666624,1.0000719643719682,51.362705419242104
7.458333184,1.0000718989128095,48.6712466483026
7.500000256,1.0000713346308034,45.980580255145874
7.541666816,1.0000702054032464,43.29063304674386
7.583333376,1.0000685113501866,40.60131946137834
7.624999936,1.0000662988937945,37.91256089209695
7.666666496,1.0000635566427536,35.22430418703018
7.708333568,1.0000603116613802,32.53644325325236
7.750000128,1.0000564926419537,29.8489215508021
7.791666688,1.000052281978428,27.161647675436548
7.833333248,1.0000477217970183,24.474544771092326
7.874999808,1.000042784321317,21.787543380700527
7.91666688,1.0000375311970608,19.100553258264423
7.95833344,1.000031994004935,16.41352543848088
8.0,1.0000262981725705,13.726349187279943
8.04166656,1.0000203625517514,11.03896007520104
8.08333312,1.0000143758768214,8.351286435165951
8.125000192,1.000008289117054,5.663248938687938
8.166666752,1.000002252441687,2.9747811861983915
8.208333312,0.9999962270815598,0.2857861293184138
8.249999872,0.9999902874701753,-2.4038075784277284
8.291666432,0.9999846585070924,-5.094069833452977
8.333333504,0.9999791120799274,-7.785046364902111
8.375000064,0.9999739066861131,-10.476858847958885
8.416666624,0.999968957852091,-13.169567692110652
8.458333184,0.99996438950435,-15.863209560102273
8.499999744,0.9999602718530342,-18.557880471525674
8.541666816,0.9999565388345416,-21.253653516332776
8.583333376,0.9999533024948357,-23.950585693812332
8.625000448,0.9999505418394559,-26.648750111153422
8.666667008,0.9999482922991668,-29.348201046858005
8.708333568,0.9999466797328017,-32.04900862630582
8.750000128,0.999945535949336,-34.751230504430836
8.791666688,0.9999448616572647,-37.454929378672816
8.833333248,0.9999448809306709,-40.16017026791482
8.874999808,0.9999453942098101,-42.866993631721435
8.916666368,0.9999464436641639,-45.57547430922655
8.958332928,0.9999479805343277,-48.285629805450846
8.999999488,0.9999501194065462,-50.99754548195402
9.041667072,0.9999527543650377,-53.71124475585286
9.083333632,0.9999557660069752,-56.4267786143454
9.125000192,0.9999592467872285,-59.14420294305867
9.166666752,0.9999630829311518,-61.86353843422456
9.208333312,0.9999672926486611,-64.58482350192094
9.249999872,0.9999717994234482,-67.30810497910518
9.291666432,0.9999765371035444,-70.03340592858594
9.333332992,0.9999816036579053,-72.76075821581226
9.374999552,0.9999867756900898,-75.490178727969
9.416667136,0.999992005954109,-78.22170766295127
9.458333696,0.9999973593334226,-80.95533751275795
9.500000256,1.0000027465333292,-83.69112274592541
9.541666816,1.0000080572360288,-86.42905667477382
9.583333376,1.0000134096766653,-89.16914537854441
9.624999936,1.0000184827009169,-91.91140633989058
9.666666496,1.0000234629597764,-94.65582413035129
9.708333056,1.0000283248461925,-97.40242694390263
9.749999616,1.0000328246001535,-100.15121645230334
9.791666176,1.0000371637008962,-102.90216995407833
9.83333376,1.0000411544491379,-105.65528954711219
9.87500032,1.0000447834855353,-108.41055335547381
9.91666688,1.0000480964728278,-111.16797461073949
9.95833344,1.0000510365353308,-113.92751335925735
10.0,1.0000535669041444,-116.68915724220383
10.04166656,1.0000557287749272,-119.45287968378159
10.08333312,1.0000574853820021,-122.21867337439218
10.12499968,1.0000587365027618,-124.98650670783333
10.16666624,1.0000596602352372,-127.75632598095478
10.208333824,1.000060204926112,-130.52811349390308
10.250000384,1.000060254907479,-133.30183965017991
10.291666944,1.000059937376721,-136.07747242957026
10.333333504,1.000059284198465,-138.85495949869463
10.375000064,1.0000583236587237,-141.63425126608593
10.416666624,1.0000568619538177,-144.41530339837132
10.458333184,1.0000551708032743,-147.19808674657014
10.499999744,1.0000531711393996,-149.98254203494386
10.541666304,1.000050944962043,-152.76860316603427
10.583332864,1.0000482994790016,-155.55623726095277
10.625000448,1.0000455823960497,-158.34536196942906
10.666667008,1.000042579092927,-161.13595954464026
10.708333568,1.0000394093080076,-163.92792003918328
10.750000128,1.0000360862193904,-166.72120944459243
10.791666688,1.000032608623737,-169.51577363939325
10.833333248,1.0000291374449535,-172.31151288766844
10.874999808,1.0000254992320565,-175.10838356366685
10.916666368,1.0000217818341317,-177.9062991486276
10.958332928,1.0000179902568624,179.2947880944009
11.000000512,1.0000142766691646,176.4949586217523
11.041667072,1.0000105972077196,173.69429609763023
11.083333632,1.0000068488238707,170.89285179232127
11.125000192,1.0000031668991487,168.09073579958653
11.166666752,0.9999995954035888,165.28799409525757
11.208333312,0.9999959937382129,162.48471790246433
11.249999872,0.9999925137951626,159.68099602845257
11.291666432,0.99998912097873,156.87689105605884
11.333332992,0.9999859625741113,154.0724821977425
11.374999552,0.9999827570855782,151.2678443203465
11.416667136,0.9999796816098612,148.4630796224676
11.458333696,0.9999768378190951,145.65826935909647
11.500000256,0.9999740214810128,142.85346186896768
11.541666816,0.9999714853025116,140.04876912932266
11.583333376,0.9999689282511959,137.24423677113444
11.624999936,0.9999666125190922,134.43999835697198
11.666666496,0.9999644397851024,131.63609246809432
11.708333056,0.9999624879145188,128.83261927185245
11.749999616,0.9999607244995224,126.02963246530972
11.791666176,0.9999591662137405,123.22724258167094
11.83333376,0.9999577737970026,120.42550230575777
11.87500032,0.9999565621616961,117.6244935041074
11.91666688,0.9999555302374706,114.82429779181257
11.95833344,0.9999548158958973,112.02499356320614
12.0,0.9999542249971655,109.2266308385459
12.04166656,0.9999539936048821,106.42929939365582
12.08333312,0.9999539031686117,103.63307512295405
12.12499968,0.9999541064054241,100.83800939562846
12.16666624,0.9999545859141961,98.04416742696048
12.208333824,0.9999552979474022,95.25162463162604
12.250000384,0.9999563850813387,92.46044250177728
12.291666944,0.9999576865794043,89.67069021407842
12.333333504,0.9999592273104699,86.88240805624011
12.375000064,0.9999611907130467,84.09567057930508
12.416666624,0.9999633319531399,81.31049744263932
12.458333184,0.9999658002403988,78.52697400453305
12.499999744,0.9999685698912967,75.74514146424572
12.541666304,0.9999716690670487,72.96505137376214
12.583332864,0.999974930371646,70.18672459068341
12.625000448,0.9999785680896829,67.41024632494415
12.666667008,0.9999824307350554,64.63562864778261
12.708333568,0.9999864607133969,61.862887637522334
12.750000128,0.9999907601563474,59.09211882180051
12.791666688,0.9999952736313937,56.323291519125135
12.833333248,0.9999999844373874,53.55647539082043
12.874999808,1.0000047872535256,50.791683270096584
12.916666368,1.0000097483137305,48.02892687408399
12.958332928,1.0000147362106269,45.268251558832816
12.999999488,1.000019854980106,42.50967276737005
13.041667072,1.000024885936989,39.753201553692044
13.083333632,1.0000298442879805,36.99886700181699
13.125000192,1.0000347441313908,34.246654033128834
13.166666752,1.00003943883342,31.49660367214357
13.208333312,1.0000441825649244,28.74870096029631
13.249999872,1.0000485512318584,26.002959832664683
13.291666432,1.000052550992716,23.259381502173227
13.333332992,1.0000564187258862,20.51796611939465
13.374999552,1.0000598481820417,17.778712731477
13.416667136,1.0000628432928906,15.041618916838951
13.458333696,1.0000654599340875,12.3066774274528
13.500000256,1.0000675796441767,9.573885962349786
13.541666816,1.0000691204068817,6.843219606900029
13.583333376,1.0000700986724325,4.114661252805379
13.624999936,1.00007043147473,1.3882268351150755
13.666666496,1.0000702069064042,-1.336115606547888
13.708333056,1.0000694554366891,-4.058415639893395
13.749999616,1.0000678298886945,-6.778647571324673
13.791666176,1.000065657223621,-9.496854841954255
13.83333376,1.0000626905259382,-12.213075734703867
13.87500032,1.0000591415820272,-14.927308310477597
13.91666688,1.0000548834299463,-17.639614045028367
13.95833344,1.0000499003650622,-20.350017102397324
14.0,1.000044312806864,-23.05852263529715
