freq,mag,phase
6.0,0.9999693701397837,93.20295252779337
6.002286592,1.0001849246266505,93.04646268544678
6.004572672,1.0003887168469883,92.88698952959349
6.006859264,1.0005681429264877,92.72470099624998
6.009145344,1.0007117253797337,92.56016193715253
6.011431936,1.000810500151822,92.39384304501507
6.013718016,1.0008579984682,92.22650684578744
6.016004608,1.0008512774252534,92.05888563262867
6.018290688,1.000790805020558,91.89178621416292
6.02057728,1.0006803704946725,91.72595904567598
6.022863872,1.0005268936280163,91.56204218144775
6.025149952,1.0003400140424625,91.40064481732324
6.027436544,1.0001315935727928,91.24210566963447
6.029722624,0.9999148484998397,91.08672274889668
6.032009216,0.999703384517823,90.93445741452372
6.034295296,0.9995106741857225,90.78515475145197
6.036581888,0.9993488768784357,90.63846896711665
6.03886848,0.9992283986260381,90.49383069801
6.04115456,0.9991567687254828,90.35065151373806
6.043441152,0.9991386299558257,90.20814199614803
6.045727232,0.9991751290181148,90.06552231204226
6.048013824,0.9992639737813053,89.92201494094788
6.050299904,0.9993995483176114,89.77691610488941
6.052586496,0.9995733766801667,89.62958962125319
6.054872576,0.9997741596196639,89.47953708401174
6.057159168,0.9999895077843927,89.3265295783336
6.05944576,1.0002055865059192,89.17035815848995
6.06173184,1.0004088484387985,89.01120364888762
6.064018432,1.000586231162929,88.84931083849798
6.066304512,1.0007268700808725,88.68513055447568
6.068591104,1.0008215425860416,88.51924103798723
6.070877184,1.0008642845956832,88.35238246444005
6.073163776,1.0008524128525833,88.18533859984035
6.075450368,1.0007867803419697,88.01889035916238
6.077736448,1.0006712969064573,87.85373282169672
6.08002304,1.0005133406693243,87.69060531292114
6.08230912,1.0003229952960524,87.53003063310331
6.084595712,1.0001120517900137,87.3723694666218
6.086881792,0.9998939655644862,87.21785302194519
6.089168384,0.9996825378926217,87.06649480115055
6.091454464,0.9994912587064112,86.91808311470618
6.093741056,0.9993321012775077,86.77224356097774
6.096027648,0.9992152688854375,86.6284271128207
6.098313728,0.9991481946292687,86.48598374833006
6.10060032,0.9991351415621561,86.34416156215508
6.1028864,0.9991768044610418,86.20215669836507
6.105172992,0.9992709639786407,86.05917260977819
6.107459072,0.9994113240592003,85.91448808987433
6.109745664,0.9995890143006706,85.76753033274606
6.112032256,0.9997929790612441,85.6178281396457
6.114318336,1.0000100330702104,85.46508533366371
6.116604928,1.000226764398326,85.30920145819154
6.118891008,1.0004292440890585,85.15031516812854
6.1211776,1.0006047597346084,84.98868752324738
6.12346368,1.0007419423609123,84.82482842402139
6.125750272,1.0008324109730664,84.65932961164509
6.128036352,1.0008703471917921,84.49289153459877
6.130322944,1.0008532828439751,84.32633724320941
6.132609536,1.0007821498771643,84.16046861065085
6.134895616,1.0006617780988538,83.99596494656652
6.137182208,1.0004994437246422,83.83353786502612
6.139468288,1.000305389737178,83.6737556939666
6.14175488,1.0000921410861348,83.51689715863536
6.14404096,0.9998728397373003,83.36321791875686
6.146327552,0.9996616124971315,83.21272003934551
6.148614144,0.9994718367510814,83.0651206093517
6.150900224,0.9993154502330522,82.92005995776756
6.153186816,0.9992023707232902,82.77701627330488
6.155472896,0.9991399304340733,82.63524955231215
6.157759488,0.9991320345673157,82.49402842179164
6.160045568,0.9991791088839668,82.35254615109643
6.16233216,0.9992784852637323,82.2100158983652
6.16461824,0.9994234979346308,82.06571772260729
6.166904832,0.9996052874515993,81.9190650195246
6.169191424,0.9998123028432192,81.76959893854821
6.171477504,1.000031157390299,81.61706515936153
6.173764096,1.000248250414408,81.46139692096301
6.176050176,1.000449838731494,81.30269364630767
6.178336768,1.000623089838732,81.14128353947893
6.180622848,1.0007568903230075,80.97767207435851
6.18290944,1.000843026071008,80.8124715671227
6.18519552,1.000875880127356,80.64643477784281
6.187482112,1.000853508284906,80.48032446131657
6.189768704,1.0007771669964354,80.31495210470284
6.192054784,1.0006516048829537,80.15106112339308
6.194341376,1.0004848209369663,79.98929713697673
6.196627456,1.000287331009305,79.83022202276948
6.198914048,1.0000715973358736,79.67414131104061
6.201200128,0.9998513566717366,79.52123985575128
6.20348672,0.9996404125496512,79.37149773678594
6.205773312,0.9994523045876041,79.22467596950196
6.208059392,0.9992986985565063,79.08037567622097
6.210345984,0.9991896825207099,78.93799488546162
6.212632064,0.9991319474815393,78.7968437312844
6.214918656,0.9991293732870431,78.65617050362314
6.217204736,0.9991820343937755,78.51511772209496
6.219491328,0.9992865267935762,78.3729912466164
6.221777408,0.9994364749755855,78.22900884666203
6.224064,0.9996221405956124,78.08259276642848
6.226350592,0.9998320332284091,77.93330003890573
6.228636672,1.0000526042060893,77.78091086792462
6.230923264,1.000270035942258,77.62534471090859
6.233209344,1.0004704485448557,77.46678665499405
6.235495936,1.000641362106838,77.30551571364764
6.237782016,1.000771716396321,77.14212404985611
6.240068608,1.0008533193781726,76.97718435501115
6.2423552,1.0008810758292783,76.81143588733889
6.24464128,1.0008532409840085,76.64572999898266
6.246927872,1.000771429368853,76.48081983899475
6.249213952,1.0006407591440196,76.3174943339203
6.251500544,1.0004695649852817,76.15634724107291
6.253786624,1.0002686458359178,75.99790819803276
6.256073216,1.0000506428651355,75.8425252736071
6.258359296,0.9998293180265361,75.69035917220107
6.260645888,0.9996188877403345,75.54133681609224
6.26293248,0.9994325206739515,75.39524957760149
6.26521856,0.9992820787935003,75.251600087299
6.267505152,0.9991770600413707,75.10981543694768
6.269791232,0.9991243363469134,74.96921197437344
6.272077824,0.9991271180059432,74.82900812349537
6.274363904,0.9991852812081438,74.68834822151167
6.276650496,0.9992952000991706,74.54649268956786
6.278937088,0.9994499041075211,74.40274067485085
6.281223168,0.9996396083559236,74.25648262588277
6.28350976,0.9998522070570451,74.10732013150647
6.28579584,1.0000743846657747,73.95503128693814
6.288082432,1.0002920462517562,73.79953791203269
6.290368512,1.0004913162104199,73.6410301914903
6.292655104,1.0006595900770257,73.47984630076189
6.294941184,1.0007863174555174,73.31660111418937
6.297227776,1.0008632593627311,73.15181901272828
6.299514368,1.000885802116332,72.9863582905132
6.301800448,1.0008524241908194,72.82098867458738
6.30408704,1.0007650215199513,72.65648740058634
6.30637312,1.000629370078081,72.49361509165355
6.308659712,1.0004537252525703,72.33302376909023
6.310945792,1.0002493994637554,72.17520628220434
6.313232384,1.000029201283701,72.02048309097862
6.315518464,0.9998071295587369,71.86897665348157
6.317805056,0.9995971693203812,71.72062219045854
6.320091648,0.999412741646073,71.57516110524473
6.322377728,0.9992654451687473,71.43214740058191
6.32466432,0.9991647214767565,71.29090265895833
6.3269504,0.9991171320635579,71.1507918666926
6.329236992,0.9991253297637281,71.01099184244069
6.331523072,0.9991890988318759,70.87065706713372
6.333809664,0.9993045170497271,70.72904599906887
6.336096256,0.999464070304684,70.58541458218433
6.338382336,0.9996575962937119,70.43927047882399
6.340668928,0.9998730382792663,70.29014071349033
6.342955008,1.0000966936551678,70.13784205163006
6.3452416,1.0003145153474395,69.98234404120005
6.34752768,1.0005123816552768,69.82384910518468
6.349814272,1.0006780094086127,69.66269352751199
6.352100352,1.000800891877417,69.4994791288064
6.354386944,1.0008732261768474,69.33485533925935
6.356673536,1.0008903325460117,69.16960955634197
6.358959616,1.0008512155736569,69.00449500789519
6.361246208,1.0007583637073156,68.84035956018995
6.363532288,1.0006174738668647,68.67793278749708
6.36581888,1.0004374295952976,68.51783684879614
6.36810496,1.0002297436072511,68.36055373587045
6.370391552,1.0000074564924941,68.2064249561505
6.372678144,0.999784637538271,68.05552759451129
6.374964224,0.999575376629145,67.90778036744967
6.377250816,0.9993930070179353,67.76290364879321
6.379536896,0.9992491287222013,67.6204257040515
6.381823488,0.999152703923027,67.47969564789271
6.384109568,0.9991102358333742,67.33996827054166
6.38639616,0.9991240553405327,67.20048869530277
6.38868224,0.9991935097579503,67.0604165633645
6.390968832,0.9993142744338798,66.91896311155489
6.393255424,0.9994786528704667,66.77544296696067
6.395541504,0.9996760726114549,66.62930691006288
6.397828096,0.9998942639744002,66.48014358796758
6.400114176,1.0001192173643132,66.32778188354271
6.402400768,1.0003369418114965,66.17220600413556
6.404686848,1.0005333730918589,66.01363751574056
6.40697344,1.0006961936943923,65.85247814605438
6.409260032,1.0008151282764333,65.68926723559197
6.411546112,1.0008825533050238,65.52471703078233
6.413832704,1.0008942764576967,65.35957904031667
6.416118784,1.000849460772773,65.19470384769885
6.418405376,1.0007509620980715,65.03088656419905
6.420691456,1.0006049053998463,64.86881141913695
6.422978048,1.0004206178758572,64.70914644714755
6.425264128,1.0002095992110178,64.55239311650955
6.42755072,0.9999853076864723,64.3987765643902
6.429837312,0.9997618809626846,64.24845388148576
6.432123392,0.9995534845031404,64.10123341143886
6.434409984,0.9993733635524967,63.95690462632259
6.436696064,0.9992329121626017,63.81488127760286
6.438982656,0.9991411378239649,63.67454829435819
6.441268736,0.9991038361965746,63.53519446382625
6.443555328,0.9991234231713298,63.39597062323566
6.44584192,0.9991985805741298,63.25606033590921
6.448128,0.9993248086471542,63.114690082039914
6.450414592,0.9994938349208397,62.97120803679177
6.452700672,0.9996951940848846,62.8249922621852
6.454987264,0.9999159004720869,62.67576041001398
6.457273344,1.0001422307254406,62.52326650024351
6.459559936,1.000359649034891,62.36755026022249
6.461846016,1.0005544422145445,62.20883854854492
6.464132608,1.0007144156624455,62.04755254241874
6.4664192,1.0008292554325027,61.884307663834264
6.46870528,1.0008917036335352,61.71978427129671
6.470991872,1.0008978239268478,61.554743117461285
6.473277952,1.0008472496878678,61.39002139348651
6.475564544,1.0007430793133048,61.22642451100354
6.477850624,1.0005919024113357,61.06470654877604
6.480137216,1.0004032333530806,60.90542982329412
6.482423296,1.000189046764416,60.74912479839097
6.484709888,0.9999628031598587,60.595967954588886
6.48699648,0.9997389058626447,60.44613680360591
6.48928256,0.9995314634247969,60.29940380109439
6.491569152,0.9993537043611612,60.155505033996995
6.493855232,0.9992169296588943,60.01389517324312
6.496141824,0.9991297041252699,59.873953992571764
6.498427904,0.9990978461714736,59.73485109072626
6.500714496,0.9991231185122089,59.59583161858499
6.503001088,0.99920418895894,59.456024661249536
6.505287168,0.9993357876030644,59.31468616712004
6.50757376,0.9995095995784071,59.17112831455779
6.50985984,0.9997146959650579,59.02480824149604
6.512146432,0.9999380141365207,58.87538340490131
6.514432512,1.0001654220553946,58.72268406237152
6.516719104,1.0003825302598124,58.566769603249604
6.519005184,1.0005755857380674,58.40788489688176
6.521291776,1.0007323777455706,58.24644984051657
6.523578368,1.0008429239422585,58.08307028282168
6.525864448,1.0009002862573164,57.91848626568404
6.52815104,1.0009007681102415,57.75347026181787
6.53043712,1.000844357274911,57.588891222562005
6.532723712,1.00073457575013,57.42549488359496
6.535009792,1.0005782329840314,57.26402664124844
6.537296384,1.0003853470122013,57.1050973169324
6.539582976,1.000168018181774,56.94915048441414
6.541869056,0.9999399238130239,56.796430930070755
6.544155648,0.9997156754916502,56.64699598356535
6.546441728,0.9995093760311038,56.500708273874544
6.54872832,0.9993341176433606,56.35721387881286
6.5510144,0.999201084909459,56.21596656468915
6.553300992,0.999118697927401,56.0762657537429
6.555587072,0.9990922331518953,55.93736252072981
6.557873664,0.9991234490335045,55.7984716837468
6.560160256,0.9992102894841215,55.658716450179476
6.562446336,0.9993472590696413,55.51730184568831
6.564732928,0.9995259083561917,55.37361538525371
6.567019008,0.9997347325872631,55.227122508081926
6.5693056,0.9999603469879912,55.077457532206296
6.57159168,1.000188850860337,54.92451557601587
6.573878272,1.0004054996823313,54.768319355721005
6.576164864,1.0005966409465221,54.609148152433484
6.578450944,1.000750189933795,54.44751819152122
6.580737536,1.0008563963663257,54.283965502878694
6.583023616,1.0009086290947562,54.11927022759338
6.585310208,1.0009033734229527,53.954234093932875
6.587596288,1.000841011506293,53.78969111738989
6.58988288,1.0007255031176823,53.62642617746431
6.59216896,1.0005640789644081,53.46518601542967
6.594455552,1.0003669358587315,53.306523838649724
6.596742144,1.0001465383001638,53.150893135875684
6.599028224,0.999916840873982,52.99854595315425
6.601314816,0.9996922668629256,52.849529758311185
6.603600896,0.9994872263906034,52.703552261766355
6.605887488,0.9993146638795563,52.560404222312044
6.608173568,0.9991854843940607,52.419433365490555
6.61046016,0.9991079397752433,52.27996923331329
6.612746752,0.9990870798378599,52.14120600292518
6.615032832,0.9991241566418878,52.00234615067298
6.617319424,0.9992169031930407,51.86255001809417
6.619605504,0.9993593397918371,51.721020315886264
6.621892096,0.999542597370317,51.57713778840901
6.624178176,0.9997549457751551,51.43038332639536
6.626464768,0.999983077318582,51.280417327578384
6.628750848,1.0002124285891418,51.12713405350401
6.63103744,1.0004285223787224,50.9705884797787
6.633324032,1.0006176280750105,50.8111032094627
6.635610112,1.0007678026528497,50.649174843904994
6.637896704,1.0008695452635985,50.485388835115636
6.640182784,1.000916355142486,50.32054678068045
6.642469376,1.0009053171478854,50.15543324237222
6.644755456,1.0008370310548802,49.99088251219047
6.647042048,1.000715807398697,49.8276938550318
6.649328128,1.0005493151261644,49.666617329614176
6.65161472,1.0003480301826964,49.50818984901102
6.653901312,1.0001246638462014,49.35283689562773
6.656187392,0.9998932937343437,49.20079785600905
6.658473984,0.999668715404558,49.05204214526679
6.660760064,0.9994650017032903,48.90642502237358
6.663046656,0.9992951270504874,48.76352090322376
6.665332736,0.9991701058324346,48.62274402077759
6.667619328,0.9990976255836321,48.483421928349316
6.66990592,0.999082349934588,48.3447438587639
6.672192,0.9991254207266105,48.205869533137125
6.674478592,0.9992239724493319,48.06594316593096
6.676764672,0.999371948398018,47.92424355945039
6.679051264,0.9995598329875861,47.78009563386554
6.681337344,0.9997758374428659,47.63298574283049
6.683623936,1.000006182860078,47.482641092900266
6.685910016,1.0002362704511096,47.32896678310502
6.688196608,1.0004515483267986,47.172013538257765
6.6904832,1.000638517971221,47.01216335066065
6.69276928,1.0007852209632369,46.84987025047159
6.695055872,1.0008823528026838,46.68582113412333
6.697341952,1.0009237390551546,46.52073675024968
6.699628544,1.0009067920192574,46.3554897881627
6.701914624,1.0008325188149463,46.19089348294299
6.704201216,1.0007056713070788,46.02773151627932
6.706487808,1.0005341194796904,45.866745175714875
6.708773888,1.000328706214624,45.70847933213502
6.71106048,1.0001024253249378,45.55334552683885
6.71334656,0.9998695605511811,45.40151981986498
6.715633152,0.9996449931604573,45.253044782456335
6.717919232,0.9994428797453211,45.10765066484568
6.720205824,0.999276044988337,44.9649377509714
6.722491904,0.9991550826484162,44.82433615423951
6.724778496,0.9990876733817511,44.68509655756165
6.727065088,0.9990781385931001,44.54641614465272
6.729351168,0.9991272786595793,44.407450990363586
6.73163776,0.9992316986354858,44.26735221385019
6.73392384,0.9993850005932329,44.12538774270682
6.736210432,0.9995776098395837,43.98088705973045
6.738496512,0.9997969620977754,43.83339860295709
6.740783104,1.0000293944980345,43.68259067237177
6.743069696,1.0002602441621695,43.528445888485614
6.745355776,1.0004747715219597,43.37103663136237
6.747642368,1.0006593776040331,43.21072459473877
6.749928448,1.0008024386595185,43.04805176123524
6.75221504,1.000894877307786,42.88362956836448
6.75450112,1.000930794333046,42.718292247144596
6.756787712,1.0009079399272762,42.55284022993854
6.759073792,1.00082762624629,42.38810864400504
6.761360384,1.0006949643697733,42.22493040116081
6.763646976,1.0005184297068161,42.06396931729544
6.765933056,1.0003090153483885,41.90581932769112
6.768219648,1.0000799914297558,41.750845971970215
6.770505728,0.9998458305176058,41.59922256047071
6.77279232,0.9996213750012238,41.45092492021765
6.7750784,0.9994208904019372,41.305712767974775
6.777364992,0.9992570587383621,41.163126999722216
6.779651584,0.9991403223357509,41.022613697011394
6.781937664,0.9990781397004769,40.88338840208732
6.784224256,0.9990745229400811,40.7446306993187
6.786510336,0.9991296298594928,40.60550701218564
6.788796928,0.9992401163192745,40.46516024339644
6.791083008,0.9993988146437778,40.32284923704666
6.7933696,0.9995958710658158,40.1779348679214
6.79565568,0.9998186200643131,40.02997691018309
6.797942272,1.0000531453097874,39.87868158331804
6.800228864,1.0002845212472948,39.72399361419146
6.802514944,1.000498028453435,39.56604341245729
6.804801536,1.0006801801330056,39.405237419117114
6.807087616,1.0008195130870645,39.24208158006676
6.809374208,1.000907052092135,39.07726092148503
6.811660288,1.0009373911320465,38.91158059893747
6.81394688,1.0009085823324428,38.74587648260042
6.81623296,1.000822173584611,38.5809945670558
6.818519552,1.000683900854686,38.41772369025819
6.820806144,1.0005024183701534,38.256744484389245
6.823092224,1.0002890284082653,38.09865412359957
6.825378816,1.0000572689932898,37.9437584367725
6.827664896,0.999821838080998,37.79226682258469
6.829951488,0.999597666403447,37.64409311287854
6.832237568,0.9993989399115275,37.49899570601729
6.83452416,0.9992383103536402,37.356492068984764
6.836810752,0.9991260049615531,37.21598396809393
6.839096832,0.9990691410304217,37.07669630399671
6.841383424,0.9990714056178699,36.93780157085972
6.843669504,0.999132539645275,36.7984574469064
6.845956096,0.999248902914624,36.657784780055024
6.848242176,0.9994130099681365,36.51506435671295
6.850528768,0.999614497197202,36.36967943367938
6.852814848,0.9998406520006177,36.22117950518139
6.85510144,1.0000769843596902,36.06929093736538
6.857388032,1.0003087987271118,35.913995751420515
6.859674112,1.0005211999209187,35.755477469125616
6.861960704,1.0007007256877554,35.594084851392786
6.864246784,1.0008361521762907,35.43040681751534
6.866533376,1.0009188365622907,35.2651237800005
6.868819456,1.0009434667619619,35.099049498545675
6.871106048,1.00090858244154,34.93303696277394
6.87339264,1.000816234574807,34.767937048860254
6.87567872,1.000672245619279,34.60452127402909
6.877965312,1.0004857200262502,34.44348471661418
6.880251392,1.0002685107740066,34.28538383038541
6.882537984,1.0000340881969578,34.130539534863786
6.884824064,0.9997976717013602,33.97909288039296
6.887110656,0.9995738769971232,33.83099090792851
6.889396736,0.9993770921200947,33.685939999864345
6.891683328,0.9992197252478139,33.54346545106767
6.89396992,0.9991118964695718,33.402885845504954
6.896256,0.9990603818852486,33.26348339458988
6.898542592,0.9990685399278092,33.124382280506104
6.900828672,0.9991358441809078,32.98471601213224
6.903115264,0.9992580549982636,32.8436594398289
6.905401344,0.9994275315203548,32.70046758234247
6.907687936,0.9996333937389088,32.554539900787624
6.909974528,0.9998627610629591,32.40543647181616
6.912260608,1.0001009691323433,32.25291148410543
6.9145472,1.0003330450170842,32.09695341545799
6.91683328,1.0005441834181603,31.937748934297492
6.919119872,1.0007210507786164,31.775742692390175
6.921405952,1.0008525021315995,31.611470076228205
6.923692544,1.0009301415411773,31.445666241612695
6.925978624,1.0009491232645145,31.279138891794457
6.928265216,1.0009080787140878,31.112773397523295
6.930551808,1.0008096891517246,30.947380598987095
6.932837888,1.0006600879638872,30.783781339150593
6.93512448,1.0004686868564459,30.62262526906008
6.93741056,1.0002476308852664,30.464457100608175
