freq,mag,phase
6.0,0.9994953526832164,-7.117742173213929
6.013490688,0.999755124667103,-7.5489477750588785
6.026981376,1.000025868423082,-7.983495223264601
6.040472064,1.0002955540837917,-8.421450479085058
6.053962752,1.0005515679844856,-8.86277987711376
6.06745344,1.000782455770501,-9.307185000856974
6.080944128,1.0009775068150437,-9.754307286473333
6.094435328,1.0011276581886792,-10.203683718739788
6.107926016,1.0012262952451885,-10.654698021745364
6.121416704,1.0012686446600094,-11.106679442337725
6.134907392,1.0012527271932972,-11.558955906431414
6.14839808,1.0011791989753762,-12.01078949281869
6.161888768,1.001051518595413,-12.46148833486516
6.175379456,1.0008751460103043,-12.910450684912574
6.188870144,1.0006582455956057,-13.357106403535433
6.202360832,1.0004107379826173,-13.801026131669069
6.21585152,1.0001436967780761,-14.241868524273418
6.229342208,0.9998693868388063,-14.679478851428748
6.242832896,0.9996004200606029,-15.113836425092517
6.256323584,0.999348899661722,-15.545112973652289
6.269814272,0.9991267123160938,-15.973594397957896
6.283305472,0.9989437428950964,-16.399608994556797
6.29679616,0.9988087695063625,-16.823790405539313
6.310286848,0.9987278083008979,-17.24676067551825
6.323777536,0.9987046436884597,-17.66914261475168
6.337268224,0.9987405370190294,-18.091667194768245
6.350758912,0.9988338453433507,-18.51516587667292
6.3642496,0.9989804332320229,-18.940181354427157
6.377740288,0.9991735905981123,-19.36743309487882
6.391230976,0.9994044136345782,-19.797390576617875
6.404721664,0.9996624586168094,-20.230494476203248
6.418212352,0.9999361336017785,-20.666932577119034
6.43170304,1.0002127067836495,-21.106897294584172
6.445193728,1.000479441786828,-21.550344643226975
6.458684416,1.0007244175888,-21.997016537713247
6.472175616,1.0009362266600135,-22.446651693221433
6.485666304,1.0011053038172306,-22.89869298032651
6.499156992,1.001223626063727,-23.35264230237432
6.51264768,1.00128598809286,-23.807829504397393
6.526138368,1.001289482834516,-24.26356339150441
6.539629056,1.0012336817382335,-24.719052833270403
6.553119744,1.0011210425793406,-25.173651164779155
6.566610432,1.0009567487072029,-25.626644033223084
6.58010112,1.0007482365448088,-26.077533735748485
6.593591808,1.000504995545998,-26.525694800166672
6.607082496,1.0002379275523368,-26.970885257516677
6.620573184,0.9999591577881483,-27.412807243926814
6.634063872,0.9996815488370779,-27.85139839233303
6.64755456,0.9994179169903035,-28.286772748673933
6.66104576,0.9991800046764261,-28.719193365164156
6.674536448,0.9989791574793717,-29.14897271365611
6.688027136,0.9988242716084176,-29.57669924684299
6.701517824,0.998722873051512,-30.00288761504796
6.715008512,0.9986793903182571,-30.428323974348036
6.7284992,0.9986959942554652,-30.853689441236316
6.741989888,0.998771993145484,-31.279757761104573
6.755480576,0.9989041497985744,-31.70717127189986
6.768971264,0.9990863092555682,-32.13663858275501
6.782461952,0.9993101203049961,-32.56875392622137
6.79595264,0.9995655354063666,-33.003871010257555
6.809443328,0.9998408573193988,-33.44244764139558
6.822934016,1.0001235205938854,-33.88452864267172
6.836424704,1.0004005925733321,-34.33020213760192
6.849915904,1.0006594323285167,-34.77927634201306
6.863406592,1.000888075624544,-35.2314692131888
6.87689728,1.0010763373963907,-35.686354767324886
6.890387968,1.0012154114633232,-36.143371306247715
6.903878656,1.0012985917013837,-36.60191044658664
6.917369344,1.0013225580748766,-37.061203108609526
6.930860032,1.001285726555974,-37.52053308687647
6.94435072,1.001189944012772,-37.97920981700155
6.957841408,1.0010392615845416,-38.436502876473945
6.971332096,1.0008405809961565,-38.891776091553545
6.984822784,1.0006028495409707,-39.344472996814886
6.998313472,1.0003368870407594,-39.79423418652453
7.01180416,1.000054778143789,-40.24074170054863
7.02529536,0.999769429643417,-40.68385714270245
7.038786048,0.9994938102500884,-41.12362409297122
7.052276736,0.9992406553080017,-41.56027193434015
7.065767424,0.9990214313731857,-41.994106990892945
7.079258112,0.9988463967699451,-42.42561744712643
7.0927488,0.9987235082175535,-42.85540120663303
7.106239488,0.9986585485202376,-43.28414943509335
7.119730176,0.9986546371374263,-43.71255387862947
7.133220864,0.9987119556596625,-44.14140425440621
7.146711552,0.9988280883474037,-44.57143017800341
7.16020224,0.9989976482522143,-45.003359990684295
7.173692928,0.999212973577435,-45.437760201099955
7.187183616,0.9994643040318465,-45.875146958099705
7.200674304,0.9997403092111411,-46.31591785839378
7.214165504,1.0000282452515294,-46.760246981065336
7.227656192,1.0003149412313286,-47.20827976046821
7.24114688,1.000587312664448,-47.65986256055507
7.254637568,1.0008330988123084,-48.11478944853998
7.268128256,1.001040818546439,-48.57260977458545
7.281618944,1.0012010862645497,-49.03281422362318
7.295109632,1.0013065128673073,-49.4948276401405
7.30860032,1.0013521110235,-49.95783472553466
7.322091008,1.0013357274402221,-50.4212187286773
7.335581696,1.001258168333024,-50.884149068959196
7.349072384,1.001122637473647,-51.34588684431018
7.362563072,1.0009354955826673,-51.805805192661936
7.37605376,1.0007049131060146,-52.26329202931351
7.389544448,1.0004413731008066,-52.717878017008594
7.403035648,1.0001570528314014,-53.16921270817852
7.416526336,0.9998646437562363,-53.61715980326729
7.430017024,0.9995776746196787,-54.06162611892644
7.443507712,0.999309160242871,-54.5028013588751
7.4569984,0.9990714511587814,-54.94100398138581
7.470489088,0.9988756521692783,-55.37660675779386
7.483979776,0.9987304120540921,-55.81021856744788
7.497470464,0.9986428952624709,-56.24255262866031
7.510961152,0.9986168346718833,-56.67427601027487
7.52445184,0.9986540112338163,-57.10616673284675
7.537942528,0.9987522484772029,-57.53903793744409
7.551433216,0.9989074931604767,-57.9735902583112
7.564923904,0.9991126815024636,-58.41046290443445
7.578414592,0.9993584769287202,-58.85025938886414
7.591905792,0.9996336744433496,-59.29338464498042
7.60539648,0.9999258176808247,-59.74011858830586
7.618887168,1.000221422052875,-60.19061613723876
7.632377856,1.0005071082735042,-60.64482057963517
7.645868544,1.0007697735160677,-61.10255059001079
7.659359232,1.000997525907928,-61.56339835733771
7.67284992,1.0011797043381534,-62.026903081244335
7.686340608,1.0013082522525356,-62.492509764550476
7.699831296,1.0013769006583857,-62.959413092086734
7.713321984,1.0013825782365577,-63.4269569422399
7.726812672,1.0013250106673672,-63.89429671424164
7.74030336,1.0012064541837902,-64.36073829762556
7.753794048,1.0010324929264578,-64.82550283431398
7.767284736,1.0008106772805532,-65.2880029633514
7.780775936,1.0005512796180247,-65.74768504609071
7.794266624,1.000265875757181,-66.20415191351421
7.807757312,0.9999675792748691,-66.65715341870475
7.821248,0.9996697880948205,-67.10666328720146
7.834738688,0.9993862662573034,-67.55267563694719
7.848229376,0.9991300178412927,-67.99552274379091
7.861720064,0.9989127245718651,-68.43556536652257
7.875210752,0.9987444535052146,-68.873328457162
7.88870144,0.998632876434917,-69.3095150144284
7.902192128,0.9985835746314857,-69.74481496893073
7.915682816,0.9985984238708652,-70.18003471087842
7.929173504,0.9986772416036894,-70.6159319258134
7.942664192,0.9988163419471785,-71.05328802716154
7.956155392,0.9990095454134416,-71.49286453072186
7.96964608,0.9992480692187484,-71.93519473102297
7.983136768,0.9995209977472536,-72.38081651612701
7.996627456,0.999816206493041,-72.83007218568501
8.010118144,1.000119781570175,-73.28316149344286
8.023608832,1.000418307792504,-73.74006742919113
8.03709952,1.0006979127393276,-74.20066733269316
8.050590208,1.0009458046048745,-74.664692873179
8.064080896,1.0011508500964277,-75.13161865325611
8.077571584,1.0013033198084056,-75.60089115040687
8.091062272,1.0013965863687164,-76.0718232129595
8.10455296,1.001425870177895,-76.54368457064699
8.118043648,1.0013901575861024,-77.01563587072272
8.131534336,1.0012906209401746,-77.4868998247793
8.145025536,1.0011317429990714,-77.95675944841147
8.158516224,1.000920750391002,-78.42449950887813
8.172006912,1.0006670397359168,-78.88953363309716
8.1854976,1.000382048287958,-79.35141368916464
8.198988288,1.0000787740873116,-79.80983885587708
8.212478976,0.999771141371091,-80.2646197672053
8.225969664,0.9994729398794799,-80.71584695360139
8.239460352,0.9991979697262069,-81.16366829993189
8.25295104,0.9989587419255533,-81.60841473873545
8.266441728,0.9987663585441626,-82.05065701506992
8.279932416,0.9986297976258182,-82.490990572099
8.293423104,0.9985552853107321,-82.93014534733113
8.306913792,0.9985462355742346,-83.36891906283255
8.32040448,0.9986035230933631,-83.80809579227464
8.33389568,0.998724360805486,-84.24850693022252
8.347386368,0.9989034734397629,-84.69092766337332
8.360877056,0.9991327425549014,-85.13597600793733
8.374367744,0.9994018076302704,-85.58421783564596
8.387858432,0.9996984824704632,-86.03609627026263
8.40134912,1.0000089784180504,-86.4918722528458
8.414839808,1.0003194970112972,-86.9515748664379
8.428330496,1.0006157844970507,-87.41520163408038
8.441821184,1.0008842613894404,-87.88240067013633
8.455311872,1.0011127159360267,-88.3528258890495
8.46880256,1.0012904950406711,-88.82590653213235
8.482293248,1.001409672945913,-89.30096841875174
8.495783936,1.0014644232246166,-89.77727571500029
8.509274624,1.0014523901542176,-90.25397337485482
8.522765824,1.0013740491522396,-90.73030477815831
8.536256512,1.0012324805074435,-91.20544963979556
8.5497472,1.0010342455359353,-91.67868391702639
8.563237888,1.0007882464859368,-92.14933672313141
8.576728576,1.0005053387226603,-92.61691115690643
8.590219264,1.0001985878888853,-93.08101818618911
8.60370944,0.9998819354496524,-93.54143630761229
8.61720064,0.9995696188781948,-93.99816470002334
8.63069184,0.9992759904840802,-94.45125681514047
8.644182016,0.9990144687935061,-94.90108858610573
8.657673216,0.99879721877777,-95.34809924291609
8.671163392,0.9986340710355281,-95.79290199106055
8.684654592,0.9985326943710733,-96.23622222267372
8.698144768,0.9984979145416932,-96.67879527361806
8.711635968,0.9985313551807058,-97.12150725590946
8.725126144,0.9986317192587079,-97.56516695557862
8.738617344,0.9987945126921156,-98.01061604070378
8.75210752,0.9990123665272,-98.45854831398806
8.76559872,0.9992755525773493,-98.90956422561995
8.779088896,0.9995720173094859,-99.3641680031191
8.792580096,0.9998883638024686,-99.82269999293068
8.806071296,1.000210103542522,-100.28530395222293
8.819561472,1.0005227531404057,-100.75197541068881
8.833052672,1.0008118424747752,-101.22247515016359
8.846542848,1.0010642678391959,-101.69646787069698
8.860034048,1.001268511409852,-102.17343800874858
8.873524224,1.0014151475104496,-102.65274334731144
8.887015424,1.001497377624392,-103.13360206075473
8.9005056,1.001511369744217,-103.61520753627202
8.9139968,1.0014563868738686,-104.09674172107192
8.927486976,1.0013345305383885,-104.5773807413838
8.940978176,1.0011514486895658,-105.05633337535436
8.954468352,1.000915347099098,-105.53287692115701
8.967959552,1.0006366071609731,-106.0064108152855
8.981450752,1.0003280142556807,-106.47653610239782
8.994940928,1.0000033833225839,-106.94291412942832
9.008432128,0.9996777427045113,-107.40545897395164
9.021922304,0.9993654809827085,-107.86421689526735
9.035413504,0.9990813705655275,-108.3194518506826
9.04890368,0.998838194707852,-108.77159007499202
9.06239488,0.9986471950742397,-109.22118608975214
9.075885056,0.998517184802807,-109.66893221417467
9.089376256,0.9984544912808165,-110.11564022441195
9.102866432,0.9984617415870171,-110.5621361247176
9.116357632,0.9985391456558511,-111.00927703142763
9.129847808,0.9986830834839552,-111.45793377775743
9.143339008,0.9988871661245141,-111.90888318337625
9.156829184,0.999142171681621,-112.36279614055191
9.170320384,0.9994366286908258,-112.82024543346068
9.183811584,0.9997571154648807,-113.28163931157847
9.19730176,1.0000892001845025,-113.74717797930393
9.21079296,1.0004175646142244,-114.21697543326565
9.224283136,1.0007274272818987,-114.69083166173085
9.237774336,1.0010045984141176,-115.16845282929658
9.251264512,1.001236317466698,-115.6494024394783
9.264755712,1.0014121631348167,-116.1329705833812
9.278245888,1.001523788434255,-116.61852823743732
9.291737088,1.0015661379480014,-117.10518842327664
9.305227264,1.001537009973447,-117.59211035858786
9.318718464,1.0014376869682344,-118.07844002744338
9.33220864,1.0012724286406998,-118.56331979320481
9.34569984,1.001048579333454,-119.0460034264465
9.35919104,1.0007761702161075,-119.52584001659442
9.372681216,1.0004675116163166,-120.00225944457978
9.386172416,1.0001364982629173,-120.4749411245975
9.399662592,0.9997981499799323,-120.94366176107171
9.413153792,0.9994679321758189,-121.4084379573083
9.426643968,0.9991608190127609,-121.86945520035363
9.440135168,0.9988909093507621,-122.32706818247482
9.453625344,0.998670641773404,-122.78180466222182
9.467116544,0.9985101453648817,-123.23434581782946
9.48060672,0.9984170839962166,-123.68543512887591
9.49409792,0.9983957037224609,-124.1359642634625
9.507588096,0.9984471823515645,-124.58685055770943
9.521079296,0.9985694819592976,-125.03891694450286
9.534569472,0.9987569736093422,-125.49305070338293
9.548060672,0.9990012925732757,-125.95001333405824
9.561551872,0.9992915623581436,-126.4103790291071
9.575042048,0.9996144687465868,-126.87469907087882
9.588533248,0.9999555688903599,-127.34326983322043
9.602023424,1.0002991160908155,-127.8162098283898
9.615514624,1.0006295996396408,-128.29347527039047
9.6290048,1.0009320597332991,-128.77476145512873
9.642496,1.00119244245763,-129.25971418099803
9.655986176,1.0013991619928868,-129.74768695758002
9.669477376,1.0015422923691266,-130.238013230409
9.682967552,1.0016154953976013,-130.72982882851935
9.696458752,1.0016151997663028,-131.22230397258656
9.709948928,1.0015411641885517,-131.71451147717616
9.723440128,1.0013966812350705,-132.20558223790457
9.736931328,1.0011880020836603,-132.6946769287114
9.750421504,1.0009244855630215,-133.18106475343544
9.763912704,1.000617917026412,-133.6641478649483
9.77740288,1.0002821494094498,-134.14348129293003
9.79089408,0.9999323874777334,-134.61876289971562
9.804384256,0.9995843820143054,-135.08993695102308
9.817875456,0.9992541847366396,-135.55711171229925
9.831365632,0.9989567172546122,-136.0205636243569
9.844856832,0.9987057105730542,-136.48079186902132
9.858347008,0.9985127722666639,-136.9384538597522
9.871838208,0.9983868876593134,-137.3942825507606
9.885328384,0.9983339799113078,-137.8491546593818
9.898819584,0.9983565683028867,-138.30399255273517
9.912310784,0.9984539774603037,-138.75970339440522
9.92580096,0.9986218116657373,-139.21721037481402
9.93929216,0.9988526814778743,-139.67730745728272
9.952782336,0.9991361468438703,-140.1407392644293
9.966273536,0.9994595032457713,-140.6080923197244
9.979763712,0.9998078921865741,-141.0797148987226
9.993254912,1.0001657848119776,-141.55585103511288
10.006745088,1.00051676303961,-142.03652017064516
10.020236288,1.0008448838080402,-142.521523643269
10.033726464,1.0011352292166698,-143.01051437311273
10.047217664,1.0013744428883706,-143.50295525304284
10.06070784,1.0015515646968858,-143.99813596130826
10.07419904,1.001658492555664,-144.49522947386174
10.087689216,1.0016900290240944,-144.9934026765598
10.101180416,1.0016446753150257,-145.49167438394258
10.114671616,1.0015241900130067,-145.9891515576248
10.128161792,1.0013338819924391,-146.48493838675992
10.141652992,1.001082163019294,-146.97819083677277
10.155143168,1.00078024590281,-147.46828536518143
10.168634368,1.0004417055300816,-147.9546364213434
10.182124544,1.0000817404028477,-148.43688736411804
10.195615744,0.9997167658053215,-148.91487052609494
10.20910592,0.9993632882120991,-149.38860134850128
10.22259712,0.9990375932131785,-149.85833103598202
10.236087296,0.9987543993187337,-150.32446678177487
10.249578496,0.9985268057470819,-150.78762177843922
10.263068672,0.9983654089033774,-151.24852862707613
10.276559872,0.9982778138085879,-151.7080491214986
10.290051072,0.9982681616868906,-152.16712547160043
10.303541248,0.9983370879100557,-152.62671010044866
10.317032448,0.9984818538150444,-153.0877598733346
10.330522624,0.9986958317479977,-153.5511735104263
10.344013824,0.9989695573501167,-154.0177741206591
10.357504,0.9992906772249172,-154.48818171748775
10.3709952,0.9996448863542853,-154.96290642324888
10.384485376,1.000015896513788,-155.44225772380557
10.397976576,1.0003868713233581,-155.92638180851063
10.411466752,1.0007411408892721,-156.41511962352598
10.424957952,1.0010624417805858,-156.90819586455197
10.438448128,1.001336142524931,-157.4051248489456
10.451939328,1.0015497277250829,-157.90523168181227
10.465430528,1.0016933486747142,-158.40773837380635
10.478920704,1.0017602550188558,-158.91174450024587
10.492411904,1.001747152758846,-159.4162830744511
10.50590208,1.0016544609761535,-159.92040967955464
10.51939328,1.0014861018023415,-160.4231562905518
10.532883456,1.0012494907304865,-160.92363478896164
10.546374656,1.0009552545401785,-161.42108680248583
10.559864832,1.000616189795685,-161.91484617109168
10.573356032,1.0002478716739853,-162.40449848373262
10.586846208,0.9998667600136769,-162.8897428181805
10.600337408,0.9994902626332706,-163.370492869665
10.613827584,0.9991355191026761,-163.84695393802434
10.627318784,0.9988184625030997,-164.31943202671425
10.64080896,0.9985540283195412,-164.7885061966789
10.65430016,0.9983543117952286,-165.25488601514368
10.66779136,0.9982286149688075,-165.7194021514071
10.681281536,0.9981827795982489,-166.18301746060266
10.694772736,0.9982193684107016,-166.64672542540245
10.708262912,0.9983370023635044,-167.1115459864415
10.721754112,0.9985303870712778,-167.5784382861916
10.735244288,0.9987910579022388,-168.048295787791
10.748735488,0.9991071644689076,-168.52186566168513
10.762225664,0.9994646353854932,-168.99976033299885
10.775716864,0.9998473420575764,-169.4824023015243
10.78920704,1.0002378355543338,-169.96994230313018
10.80269824,1.0006184693387417,-170.46244920410743
10.816188416,1.0009719814976723,-170.9596110563898
10.829679616,1.0012821772875462,-171.4610719315444
10.843170816,1.001534826117755,-171.9661912242216
10.856660992,1.0017185063030243,-172.47419443750448
10.870152192,1.001824581713458,-172.98420248569005
10.883642368,1.001847846540771,-173.49524186479857
10.897133568,1.0017872184849734,-174.00626670068385
10.910623744,1.0016450374314227,-174.5162766884214
10.924114944,1.0014273982194823,-175.02434712005712
10.93760512,1.0011440576508093,-175.52955818188437
10.95109632,1.0008074706664778,-176.03120123984618
10.964586496,1.000432802909539,-176.52870233781286
10.978077696,1.0000367220050912,-177.02169882151327
10.991567872,0.9996374307471392,-177.5099906767258
11.005059072,0.9992528050131789,-177.99368788877186
11.018549248,0.9989006059166846,-178.47302231264678
11.032040448,0.998596682771382,-178.94850061862007
11.045531648,0.9983553821998112,-179.42077617757687
11.059021824,0.9981877480894796,-179.89072417103299
11.072513024,0.9981016583946786,179.64077759027936
11.0860032,0.9981014077623611,179.1726204339586
11.0994944,0.9981873341789418,178.70376908562875
11.112984576,0.9983557304188987,178.2332164884574
11.126475776,0.9985991996556387,177.75995563731743
11.139965952,0.9989069581489235,177.28311690275805
11.153457152,0.9992652359202504,176.8020032959715
11.166947328,0.9996576852901168,176.31608806905984
11.180438528,1.0000669375761704,175.82504721076012
11.193928704,1.0004741138571116,175.3288213984026
11.207419904,1.0008609479929556,174.82749811812985
11.220911104,1.0012097014542767,174.32146009633595
11.23440128,1.0015045529857256,173.81124963287652
11.24789248,1.0017319520487733,173.29762177265943
11.261382656,1.0018813947797987,172.78143981372284
11.274873856,1.0019459011767204,172.2637167783785
11.288364032,1.0019219669630424,171.74549642461238
11.301855232,1.0018107111667736,171.22785020503443
11.315345408,1.0016166462556104,170.71180505557987
11.328836608,1.0013482943117815,170.19836304009496
11.342326784,1.0010174149533229,169.68832705867132
11.355817984,1.000638815694806,169.18239982448088
