freq,mag,phase
6.0,0.9994649081903254,118.50752580694093
6.002287104,0.9991841039967554,118.35980414944694
6.004574208,0.998954932838454,118.21582647708443
6.006861312,0.9987920320128535,118.07475247404561
6.009147904,0.9987054044478879,117.93551495576209
6.011435008,0.9987005874494774,117.79697732012067
6.013722112,0.998778047497346,117.65792264214815
6.016009216,0.9989329839058868,117.51723475509439
6.01829632,0.9991553179046168,117.3738142581364
6.020583424,0.9994311025543458,117.22680663047574
6.022870016,0.9997429080795666,117.07554243687066
6.02515712,1.0000709719267422,116.91963749489362
6.027444224,1.0003942742874852,116.75905832800498
6.029731328,1.0006926918901022,116.5939715121505
6.032018432,1.0009471511363082,116.42491256582764
6.034305536,1.001141525832025,116.2526474613107
6.036592128,1.001263620015082,116.07808823861066
6.038879232,1.0013058591125121,115.90239924977007
6.041166336,1.0012652546659164,115.72669219922898
6.04345344,1.0011444974785082,115.5521527793835
6.045740544,1.0009511521077294,115.37997555403021
6.048027648,1.0006974064644016,115.21101760175625
6.05031424,1.0003994112498267,115.04611291151853
6.052601344,1.0000757161912024,114.88575058124364
6.054888448,0.9997468311099486,114.73012367843015
6.057175552,0.9994339183434714,114.57923528111239
6.059462656,0.9991565267643249,114.43263883686943
6.06174976,0.9989322861499716,114.28974978556461
6.064036352,0.998775571055443,114.14964428060541
6.066323456,0.998696227097349,114.0113209982233
6.06861056,0.9986994213190334,113.87356775918148
6.070897664,0.9987849945170693,113.7352005099507
6.073184768,0.9989475291228649,113.59505308765748
6.075471872,0.9991765337726028,113.45207594214614
6.077758464,0.9994576923263989,113.30541509602136
6.080045568,0.9997731888559525,113.15444863627945
6.082332672,1.0001029647699913,112.99880173978705
6.084619776,1.0004260715116846,112.83844689530173
6.08690688,1.0007221085083078,112.67363567142154
6.089193984,1.000972454600598,112.50489088004554
6.091481088,1.0011610268398166,112.332970834883
6.09376768,1.0012762266600914,112.15889219904406
6.096054784,1.0013105751761564,111.98374754751491
6.098341888,1.0012618816549705,111.8087429367007
6.100628992,1.0011332300315146,111.63503981165921
6.102916096,1.0009327312624212,111.46372251097478
6.1052032,1.000672920459985,111.29579541483898
6.107489792,1.0003703770603627,111.13197468961008
6.109776896,1.000043909658032,110.97271272340215
6.112064,0.9997145198884317,110.81826895985648
6.114351104,0.9994029885935793,110.66850992702173
6.116638208,0.9991288644174875,110.52304067281369
6.118925312,0.9989097036906353,110.3811945216477
6.121211904,0.9987595770143084,110.24204716837367
6.123499008,0.9986878506189374,110.10459354055021
6.125786112,0.9986990504520324,109.96759153503025
6.128073216,0.9987928944899815,109.82985963052867
6.13036032,0.9989629309885637,109.69022047254603
6.132647424,0.9991986531054311,109.54763392487874
6.134934016,0.9994851950228395,109.40129258728008
6.13722112,0.9998041476227925,109.25058304212072
6.139508224,1.0001354243511609,109.09516756797007
6.141795328,1.0004580635682103,108.9350097412871
6.144082432,1.0007516315181975,108.77041924234818
6.146369536,1.000997567883671,108.60193139321196
6.148656128,1.0011802514161443,108.43037254582441
6.150943232,1.0012882224412973,108.25672971778293
6.153230336,1.0013145568753838,108.08214111420524
6.15551744,1.001257711754566,107.90780367845875
6.157804544,1.0011210195386524,107.73488031484673
6.160091648,1.0009133065375104,107.56445655832245
6.162378752,1.0006474583715699,107.39751857407342
6.164665344,1.0003405131458776,107.23474850949782
6.166952448,1.0000115517704242,107.07661779391401
6.169239552,0.9996816962847981,106.9233175127377
6.171526656,0.9993716448144399,106.77466685313361
6.17381376,0.999101137349827,106.6302788285228
6.176100864,0.9988873860833416,106.48946284106353
6.178387456,0.9987439859994557,106.35126459052515
6.18067456,0.9986799860908899,106.21462569908785
6.182961664,0.998699501756344,106.07832540894204
6.185248768,0.9988014670450363,105.94118350043391
6.187535872,0.9989792610537709,105.80200850621658
6.189822976,0.9992216638310866,105.65980125501423
6.192109568,0.9995133591946326,105.51372202189204
6.194396672,0.9998357680212937,105.36322785347217
6.196683776,1.0001685056185863,105.20798536792225
6.19897088,1.0004904178001188,105.04801941821499
6.201257984,1.0007812931365003,104.88359348403806
6.203545088,1.0010226065990198,104.71537164076169
6.20583168,1.0011990965022564,104.54411192820183
6.208118784,1.0012995735208685,104.37092591224534
6.210405888,1.0013179001761612,104.19685953792533
6.212692992,1.0012525131320993,104.02315230044336
6.214980096,1.0011078484617508,103.8509869077379
6.2172672,1.00089286214953,103.68147507865154
6.219553792,1.0006211734169843,103.5154709484929
6.221840896,1.0003097240128884,103.35378018996832
6.224128,0.99997846957493,103.19672233457345
6.226415104,0.9996483311554795,103.04453234921871
6.228702208,0.9993401571769543,102.89698687122566
6.230989312,0.9990735466449203,102.75366620158735
6.233275904,0.9988653534073838,102.61382489407973
6.235563008,0.9987289104748578,102.47651965885163
6.237850112,0.9986728971769961,102.34066875786488
6.240137216,0.9987008961726117,102.20505506830854
6.24242432,0.9988112410349711,102.06843927533912
6.244711424,0.9989966619909216,101.9296908828384
6.246998528,0.9992457202590438,101.78779905057124
6.24928512,0.999542546712306,101.6419713335237
6.251572224,0.9998682135643594,101.49161625338398
6.253859328,1.0002022323685098,101.33651838720806
6.256146432,1.0005231924230191,101.17667525456052
6.258433536,1.0008111238112805,101.0124160622491
6.26072064,1.0010474325292409,100.84438995981272
6.263007232,1.0012175577729479,100.67346112827164
6.265294336,1.0013104110766085,100.50063397267226
6.26758144,1.0013203382492364,100.32709708026938
6.269868544,1.0012465535385242,100.15404601791221
6.272155648,1.0010937240717555,99.9826238223588
6.274442752,1.0008714862488288,99.81396105092432
6.276729344,1.0005939266488253,99.64894095657213
6.279016448,1.0002783838890603,99.48822312067362
6.281303552,0.9999448882125083,99.33227997247096
6.283590656,0.9996146171834176,99.18115232187452
6.28587776,0.9993084378771158,99.03469035990688
6.288164864,0.9990458725932644,98.89242255467417
6.290451456,0.998843527396713,98.75352729709742
6.29273856,0.9987142928813435,98.61709533906236
6.295025664,0.9986664749418396,98.48197404445123
6.297312768,0.9987029525759232,98.34695972651268
6.299599872,0.998821805002982,98.21084931393852
6.301886976,0.9990150102249132,98.07249521761105
6.304173568,0.9992706974587916,97.93088901243098
6.306460672,0.9995724425599173,97.78522548395799
6.308747776,0.9999013000325709,97.63501139175855
6.31103488,1.0002362451501787,97.48002080101561
6.313321984,1.0005562226647138,97.32024047503157
6.315609088,1.0008408448089077,97.15615540376726
6.317896192,1.0010721831323044,96.98832699549332
6.320182784,1.0012354849125946,96.81763591457666
6.322469888,1.001320701906997,96.64519639624025
6.324756992,1.001322050725796,96.47211381428758
6.327044096,1.0012397088165905,96.29968613440366
6.3293312,1.0010787386276305,96.12899191786508
6.331618304,1.0008493268019412,95.96115717364299
6.333904896,1.0005657531045993,95.79708507938643
6.336192,1.0002461515165368,95.6373860160422
6.338479104,0.9999107309652902,95.4824841017488
6.340766208,0.9995806292067558,95.33243290339922
6.343053312,0.9992767558612432,95.18703431100039
6.345340416,0.9990185291169073,95.04571842762917
6.347627008,0.9988222393707771,94.90775604985102
6.349914112,0.9987003842612184,94.77215035850638
6.352201216,0.9986608512171581,94.63774083839927
6.35448832,0.9987061552357606,94.50332179264899
6.356775424,0.998833347916327,94.36765547755029
6.359062528,0.999034461707584,94.22962132185206
6.36134912,0.9992966961998592,94.08823322674931
6.363636224,0.999603430582318,93.94274952066748
6.365923328,0.999935188852441,93.7926131837004
6.368210432,1.0002709617779881,93.63764824839835
6.370497536,1.0005894438162333,93.47795283408512
6.37278464,1.0008706696580563,93.31392938855286
6.375071232,1.001096686454131,93.14626098085424
6.377358336,1.0012531124180928,92.97581082491695
6.37964544,1.0013301124518463,92.80371534006058
6.381932544,1.001322885712016,92.63112943619346
6.384219648,1.0012318655001644,92.45927288963534
6.386506752,1.0010626792046657,92.28931778802202
6.388793344,1.000825988283468,92.12230445406364
6.391080448,1.000536740960841,91.95912212744763
6.393367552,1.0002132237866075,91.80043399057608
6.395654656,0.999875881088034,91.6465714544633
6.39794176,0.9995461028496412,91.49756329002449
6.400228864,0.9992448124336358,91.35314765745298
6.402515968,0.9989911181406709,91.21282101010696
6.40480256,0.9988011421851439,91.07575479391501
6.407089664,0.99868698041347,90.94090101628065
6.409376768,0.9986558893740705,90.80716579221688
6.411663872,0.9987100241563938,90.67326956875569
6.413950976,0.9988458044471532,90.53801823455656
6.41623808,0.999054672651019,90.40028215630817
6.418524672,0.9993233913794932,90.25907115741292
6.420811776,0.9996349216212481,90.11366370186049
6.42309888,0.9999695057799574,89.96356617390802
6.425385984,1.0003059860305348,89.80864719990657
6.427673088,1.0006229322171853,89.64896895047845
6.429960192,1.000900286787748,89.48501268158067
6.432246784,1.001120672527766,89.31745331679218
6.434533888,1.0012700910542685,89.14723053991847
6.436820992,1.001339060379367,88.97547617742896
6.439108096,1.0013229882500398,88.80331526942001
6.4413952,1.0012230586450044,88.63202602736725
6.443682304,1.001045732553321,88.46275441342021
6.445968896,1.0008018138791661,88.29655711396468
6.448256,1.000506907741273,88.13428525908388
6.450543104,1.000179660313249,87.97654521964066
6.452830208,0.9998406587746871,87.82366544943136
6.455117312,0.9995114461668424,87.6756748190185
6.457404416,0.9992129437674275,87.53227381010397
6.459691008,0.9989640675101977,87.3928613174137
6.461978112,0.9987806336462586,87.25662742652062
6.464265216,0.9986743186776211,87.12255352217568
6.46655232,0.9986519098966049,86.98941988594797
6.468839424,0.998715002541983,86.85603234409751
6.471126528,0.9988593208133288,86.72111626750815
6.473413632,0.9990760874152375,86.58362341414328
6.475700224,0.9993512074297466,86.4425636481486
6.477987328,0.9996673191350364,86.29719254429017
6.480274432,1.0000045867140284,86.1471093636018
6.482561536,1.0003414156975512,85.99214797743807
6.48484864,1.0006565681585715,85.8324554432066
6.487135744,1.0009299333839559,85.6685273586806
6.489422336,1.0011445327338584,85.50102959512134
6.49170944,1.0012864652903022,85.33101120264415
6.493996544,1.0013469387091767,85.15955230884884
6.496283648,1.0013219933831103,84.98782134317138
6.498570752,1.0012133515408583,84.81709369370347
6.500857856,1.0010275651696747,84.64849374834995
6.503144448,1.0007766186312277,84.48309505017271
6.505431552,1.0004761039016457,84.32171286506741
6.507718656,1.0001452365044354,84.16490649327464
6.51000576,0.9998048182604914,84.01298749570915
6.512292864,0.9994764733731342,83.86598233519588
6.514579968,0.999180941226276,83.72352531233396
6.51686656,0.9989371200324891,83.5850199839177
6.519153664,0.9987604617012681,83.44962134645489
6.521440768,0.9986622778685724,83.3162126034597
6.523727872,0.9986487187954552,83.18365656877292
6.526014976,0.9987207085218833,83.0507102622056
6.52830208,0.9988738347498569,82.91611060974476
6.530588672,0.9990982961635508,82.77878972367297
6.532875776,0.9993797018851606,82.6378222367735
6.53516288,0.9997005592819849,82.49247177638073
6.537449984,1.0000400482715577,82.34232185468566
6.539737088,1.0003771851321368,82.18730519770976
6.542024192,1.0006901307411542,82.02755839923734
6.544310784,1.0009594113539395,81.86360434110257
6.546597888,1.0011678148739096,81.69621145588758
6.548884992,1.001302153923222,81.52633825756213
6.551172096,1.0013541228675051,81.35515512503963
6.5534592,1.0013201601514528,81.18383187597571
6.555746304,1.0012025064899854,81.01361721505157
6.558033408,1.0010084730914819,80.84569052319662
6.56032,1.0007503428782591,80.68104138256732
6.562607104,1.0004445485370541,80.52050626185833
6.564894208,1.000110231680586,80.36464201357542
6.567181312,0.9997685485448634,80.21370211278875
6.569468416,0.9994412692752455,80.06762544364433
6.57175552,0.9991491323078869,79.9261209708042
6.574042112,0.998910532841434,79.78846233166743
6.576329216,0.9987408745279008,79.65379197276157
6.57861632,0.998650888522367,79.52106344679413
6.580903424,0.9986463740261793,79.3890162839664
6.583190528,0.998727585810203,79.25648052218806
6.585477632,0.9988893976421986,79.12215661768731
6.587764224,0.9991214974345971,78.98497596748162
6.590051328,0.9994093143080275,78.8440285370208
6.592338432,0.999734479649949,78.69862977261035
6.594625536,1.0000762552721325,78.54841776888013
6.59691264,1.0004131898242643,78.39325975463112
6.599199744,1.0007239121331064,78.23343622119862
6.601486336,1.0009886423170533,78.06943305127228
6.60377344,1.001190729798099,77.90208521230858
6.606060544,1.0013173874929888,77.73235959205795
6.608347648,1.0013604764824655,77.56139683965398
6.610634752,1.0013174275070813,77.39046993951698
6.612921856,1.0011906945240374,77.22079458767303
6.615208448,1.0009883604862582,77.05347930549924
6.617495552,1.0007233210323077,76.88960459517199
6.619782656,1.000412127768907,76.72988796359104
6.62206976,1.000074496047783,76.57490201572429
6.624356864,0.9997318703481602,76.42488874673414
6.626643968,0.9994058283246722,76.2797358838564
6.628931072,0.9991172254492976,76.13910734568942
6.631217664,0.9988842584258063,76.00226160426173
6.633504768,0.9987218555550895,75.86835975210329
6.635791872,0.9986403294444961,75.73621481347192
6.638078976,0.9986449503578099,75.60467364206166
6.64036608,0.9987352978854177,75.47245568219998
6.642653184,0.9989058778865016,75.33833137341844
6.644939776,0.9991456614747126,75.20124529080458
6.64722688,0.9994395699252322,75.06029252880076
6.649513984,0.9997689853523911,74.91481239089072
6.651801088,1.0001128541261894,74.7644683801708
6.654088192,1.0004494985869126,74.60917545584398
6.656375296,1.000757582597955,74.44923124729802
6.658661888,1.001017600612774,74.2851559528607
6.660948992,1.0012131428506996,74.11778714673395
6.663236096,1.0013317335062057,73.94817110408283
6.6655232,1.0013659554110506,73.77745469378473
6.667810304,1.0013135765036285,73.60685937890578
6.670097408,1.0011778010493082,73.43767002485284
6.672384,1.0009673011158924,73.27098317743305
6.674671104,1.0006952613494386,73.10780891071276
6.676958208,1.0003788873996409,72.94892818691565
6.679245312,1.000038222291343,72.79482697951184
6.681532416,0.9996947540294564,72.64569250367845
6.68381952,0.99937034482082,72.50146202239972
6.686106112,0.9990854961166573,72.36165984116404
6.688393216,0.9988584147198073,72.22562205830398
6.69068032,0.9987033760937444,72.09236805498912
6.692967424,0.998630552949804,71.96081450852438
6.695254528,0.9986443918999673,71.82968648774046
6.697541632,0.9987440728482879,71.69775670928654
6.699828224,0.9989234626474693,71.56382789931567
6.702115328,0.9991709709993895,71.42677599568673
6.704402432,0.999470854824924,71.2857617171547
6.706689536,0.9998042902308597,71.14014454562641
6.70897664,1.0001500609671616,70.98960048896339
6.711263744,1.0004861100008529,70.83413298152207
6.713550848,1.0007913781795197,70.67399513169225
6.71583744,1.0010464156786125,70.50981499875117
6.718124544,1.0012350488863169,70.34245441296154
6.720411648,1.0013455273949416,70.1728986571728
6.722698752,1.0013706195491678,70.00238854964255
6.724985856,1.0013087859825258,69.83217151371669
6.72727296,1.0011640207115338,69.66343334078469
6.729559552,1.0009452078286514,69.49733710743911
6.731846656,1.0006663462108025,69.33487033124092
6.73413376,1.0003449298504292,69.17676537551954
6.736420864,1.0000013710317346,69.02351301424362
6.738707968,0.9996573408901954,68.8752594886477
6.740995072,0.9993346790567649,68.73186585400782
6.743281664,0.9990539287834321,68.59289607404627
6.745568768,0.9988328782476503,68.4575840842295
6.747855872,0.998685687311073,68.32498453644685
6.750142976,0.9986216322623684,68.19395184595083
6.75243008,0.9986448155438871,68.063211049889
6.754717184,0.9987538988428727,67.93151462838426
6.757003776,0.9989420405310145,67.79766623895419
6.75929088,0.9991970241180061,67.66065215587643
6.761577984,0.9995029250311032,67.51951905407257
6.763865088,0.9998402199693076,67.3737199539118
6.766152192,1.0001875540624023,67.22296411401291
6.768439296,1.000522888613573,67.06726190608363
6.770725888,1.000825089865693,66.90692608674061
6.773012992,1.0010748445414057,66.74260292329832
6.775300096,1.0012564694749275,66.57516735284142
6.7775872,1.0013584501346287,66.4056887533149
6.779874304,1.001374380800535,66.23535564681602
6.782161408,1.0013030115536037,66.06543641178047
6.784448512,1.0011490965136463,65.89716511238234
6.786735104,1.000922096313447,65.73164835014838
6.789022208,1.0006364997683452,65.56985093626948
6.791309312,1.0003102041682066,65.41251329466903
6.793596416,0.9999638809493554,65.26006932013004
6.79588352,0.9996196031755405,65.11267266863996
6.798170624,0.9992989812549499,64.97011060125074
6.800457216,0.9990225624221379,64.83189318481871
6.80274432,0.9988078504168396,64.69729823822608
6.805031424,0.998668546503752,64.56528992643848
6.807318528,0.9986134486302386,64.43470234515115
6.809605632,0.9986461880475271,64.30432582122144
6.811892736,0.9987648184183534,64.17282828543597
6.814179328,0.9989616190257286,64.03906015582213
6.816466432,0.9992241030260917,63.901952831971606
6.818753536,0.9995357976871801,63.7606637178579
6.82104064,0.9998767702113138,63.61464620498129
6.823327744,1.000225543100099,63.46361850572072
6.825614848,1.0005597682348613,63.30764509955751
6.82790144,1.0008585493476214,63.147074010619754
6.830188544,1.001102814571546,62.98258406068405
6.832475648,1.0012772092021647,62.815053877956935
6.834762752,1.0013706112296947,62.645604869277484
6.837049856,1.001377094124892,62.47543989376217
6.83933696,1.0012962735923914,62.305807846125354
6.841623552,1.0011331127865675,62.13796350847493
6.843910656,1.0008980208160854,61.97298861156669
6.84619776,1.0006057939992938,61.81188675832016
6.848484864,1.0002748275958908,61.655278665482314
6.850771968,0.9999260276208933,61.503615786890855
6.853059072,0.9995815862814805,61.35700118709272
6.855345664,0.9992634078255204,61.21523412704081
6.857632768,0.998991526739929,61.077781459522285
6.859919872,0.9987833600306437,60.94384495953281
6.862206976,0.9986521406554407,60.81239139331534
6.86449408,0.9986063020618289,60.6822306185531
6.866781184,0.9986486469135917,60.55210704654546
6.869068288,0.9987765981832004,60.42076962822106
6.87135488,0.9989821272446141,60.287018088078405
6.873641984,0.9992521100845562,60.14978083747471
6.875929088,0.9995693832632323,60.00829908035131
6.878216192,0.9999138923308382,59.86199754750901
6.880503296,1.0002637239316838,59.710661347017705
6.8827904,1.0005967681495482,59.554384603470155
6.885076992,1.000891884400344,59.39354920749718
6.887364096,1.0011303915014425,59.22885374144401
6.8896512,1.0012972460668215,59.06120690203481
6.891938304,1.0013819481129427,58.891763829484766
6.894225408,1.0013788348509034,58.72173164846311
6.896512512,1.0012884008618301,58.552373457478346
6.898799104,1.001116174294864,58.38493560901516
6.901086208,1.0008728863702738,58.22050216339678
6.903373312,1.000574098396123,58.0600128082102
6.905660416,1.0002386735152728,57.90412151363791
6.90794752,0.9998876155364543,57.753234241678264
6.910234624,0.9995434335222557,57.60740695306274
6.912521216,0.9992277503300322,57.46640859676261
6.91480832,0.9989607251814114,57.32963047144923
6.917095424,0.9987593538591507,57.19631123559457
6.919382528,0.9986365461472165,57.065372788523284
6.921669632,0.9985999076348753,56.93558627020354
6.923956736,0.9986520644388623,56.805699077866684
6.926243328,0.9987895616781926,56.674460518944464
6.928530432,0.9990036937233835,56.54063379807251
6.930817536,0.999280979777284,56.40327381394028
6.93310464,0.9996038102470124,56.26151633958061
