freq,mag,phase
6.0,0.9994028784188984,169.8044663494797
6.002285568,0.9993167810705172,169.66302470896574
6.004571648,0.9992733000147854,169.52260115961562
6.006857216,0.9992764122739007,169.382493874531
6.009142784,0.9993256888126928,169.24205124266626
6.011428352,0.9994180776117414,169.1005687684392
6.013714432,0.9995477765963279,168.95754265168625
6.016,0.999706616183108,168.8124393224123
6.018285568,0.9998843562068226,168.66490693764055
6.020571648,1.000070106916691,168.51475656493932
6.022857216,1.0002517227271697,168.3619676287459
6.025142784,1.0004180600437682,168.20670784428265
6.027428352,1.0005583778113127,168.04921955389133
6.029714432,1.0006638431858523,167.88999822246782
6.032,1.0007279682043737,167.72954941511722
6.034285568,1.0007465148910297,167.56854079284614
6.036571648,1.0007182745839296,167.40762495295175
6.038857216,1.0006451256049618,167.24749015990764
6.041142784,1.0005316003469755,167.08870964995955
6.043428352,1.0003848795527808,166.93184336491413
6.045714432,1.000214204212889,166.77731642765673
6.048,1.0000304054498386,166.62535055668377
6.050285568,0.9998451001233295,166.476139348591
6.052571648,0.9996697538259472,166.3295655422542
6.054857216,0.9995158235765577,166.18541247303423
6.057142784,0.9993928472643236,166.04328513733162
6.059428352,0.9993087465848051,165.9027022287829
6.061714432,0.9992686780410611,165.76306651928056
6.064,0.9992755201443103,165.62368306537456
6.066285568,0.9993285078192446,165.48391467377337
6.068571648,0.9994245367498975,165.34308013247096
6.070857216,0.9995574163395846,165.20060389929873
6.073142784,0.9997187053954941,165.05604209589575
6.075428352,0.9998984571899228,164.90900867046258
6.077714432,1.0000849901565134,164.75933702478676
6.08,1.0002666421321724,164.60703761677445
6.082285568,1.0004319578181333,164.4522249564665
6.084571648,1.0005704350080538,164.2952627743687
6.086857216,1.0006733582020144,164.1365714185635
6.089142784,1.0007342552441953,163.97668314380607
6.091428352,1.0007490666616912,163.81631479872357
6.093714432,1.0007171626026106,163.6561015918393
6.096,1.0006403332946925,163.49667884315892
6.098285568,1.0005232835580733,163.33867311227988
6.100571648,1.0003736782938801,163.1826733871669
6.102857216,1.0002007436063984,163.02900715282686
6.105142784,1.0000155757238613,162.8779743665853
6.107428352,0.9998297623712238,162.7296558222779
6.109714432,0.9996550756583007,162.58400147256054
6.112,0.9995026085925933,162.44073150710568
6.114285568,0.9993819796074015,162.29947600289097
6.116571648,0.9993007771564894,162.15973077880165
6.118857216,0.9992643182069362,162.02089223047068
6.121142784,0.9992748467388889,161.88224585012927
6.123428352,0.9993316311146436,161.74312589026619
6.125714432,0.9994312935362671,161.60292002431083
6.128,0.9995674333703762,161.4610444217986
6.130285568,0.9997313367410364,161.31698077799265
6.132571648,0.9999127630436813,161.17045797117552
6.134857216,1.0001001189467782,161.02127627578872
6.137142784,1.0002817232463217,160.8694488871899
6.139428352,1.0004458967916035,160.7151372200553
6.141714432,1.0005825495075826,160.55867425881743
6.144,1.0006827029406802,160.40051317515255
6.146285568,1.0007402618824395,160.24124344863662
6.148571648,1.0007514519985183,160.08150610943898
6.150857216,1.000715631023026,159.92196591005973
6.153142784,1.0006349026970978,159.7632843340941
6.155428352,1.0005145002952247,159.60608290770597
6.157714432,1.0003619649239714,159.45090795767194
6.16,1.0001869973479223,159.29812296352918
6.162285568,1.000000469888578,159.14800804780475
6.164571648,0.9998143060105337,159.00062940232695
6.166857216,0.9996402396722878,158.85586042348731
6.169142784,0.9994892503698413,158.7135270355939
6.171428352,0.9993710582725567,158.57316399546616
6.173714432,0.9992930168365917,158.43423894044503
6.176,0.9992600805756429,158.29614786994188
6.178285568,0.9992744194991177,158.15826151180812
6.180571648,0.99933519497396,158.01985568740233
6.182857216,0.9994385875340784,157.88026277641964
6.185142784,0.9995777902575246,157.7389234614435
6.187428352,0.9997442879007776,157.5954190643582
6.189714432,0.9999274674795721,157.4494042533767
6.192,1.0001157324537215,157.30068968109077
6.194285568,1.0002970870986838,157.14935021525523
6.196571648,1.0004602020154347,156.9955196852549
6.198857216,1.000594686162769,156.8395521633423
6.201142784,1.0006920681603648,156.68193644519306
6.203428352,1.0007461217580895,156.52328413414006
6.205714432,1.0007535774968261,156.36414904164252
6.208,1.000713702697403,156.20533965612063
6.210285568,1.0006293090510843,156.04740538734407
6.212571648,1.0005054062953893,155.89103728708218
6.214857216,1.000349960390255,155.73671226572375
6.217142784,1.0001727302517376,155.58483244147192
6.219428352,0.9999849742476914,155.43562615407282
6.221714432,0.9997985729100514,155.28914891268116
6.224,0.9996252439271033,155.14533678630832
6.226285568,0.9994758969030285,155.0039106196144
6.228571648,0.9993601881189541,154.86441090917882
6.230857216,0.9992853580021868,154.72633430234254
6.233142784,0.9992562088614777,154.58904787206305
6.235428352,0.9992745358403695,154.45189059411155
6.237714432,0.9993392939365086,154.3141285912075
6.24,0.9994462510983245,154.17517687833225
6.242285568,0.9995887652216896,154.03441650170518
6.244571648,0.9997578106983257,153.89140837715647
6.246857216,0.9999425968995396,153.74590799580986
6.249142784,1.000131557744126,153.59768340458564
6.251428352,1.0003126310359842,153.44678762558064
6.253714432,1.0004745833177375,153.29346018363304
6.256,1.0006069221919374,153.13800366428174
6.258285568,1.0007013328221162,152.98096636288258
6.260571648,1.000751869880593,152.82285403685648
6.262857216,1.0007553786292356,152.66441309625824
6.265142784,1.0007116104046656,152.50629592129852
6.267428352,1.0006231442197882,152.34912600293143
6.269714432,1.0004959186630127,152.1935606817304
6.272,1.0003374917528023,152.04010987731706
6.274285568,1.0001581627115048,151.88912985295042
6.276571648,0.9999692610177826,151.74083129613166
6.278857216,0.9997825232279222,151.595313676874
6.281142784,0.9996100217814079,151.45241818742963
6.283428352,0.9994624956190556,151.31190116603756
6.285714432,0.9993493472461001,151.17330737719251
6.288,0.9992778519359979,151.03606932839196
6.290285568,0.9992524023485616,150.89957879162384
6.292571648,0.9992747565459775,150.7631183112104
6.294857216,0.9993434698496012,150.62606611382824
6.297142784,0.9994542308682584,150.4876916891461
6.299428352,0.9996000148499277,150.34751406910235
6.301714432,0.9997715099428783,150.20505963519543
6.304,0.9999580117268814,150.06000420622786
6.306285568,1.0001476092055586,149.91229332293432
6.308571648,1.0003284814824913,149.76187193130403
6.310857216,1.0004889353717559,149.6090177941632
6.313142784,1.0006189224414492,149.45407198641905
6.315428352,1.000710311569693,149.29755900181317
6.317714432,1.000757258105203,149.1400950742316
6.32,1.0007568142199974,148.98229653251124
6.322285568,1.0007089018057866,148.82485728993865
6.324571648,1.0006165659343402,148.6684930383169
6.326857216,1.0004856439114271,148.5137524538918
6.329142784,1.0003244194983278,148.36116621231017
6.331428352,1.0001429949993734,148.21109379044114
6.333714432,0.9999529742661769,148.06373187960767
6.336,0.9997661047665325,147.91916570791207
6.338285568,0.9995944868533259,147.77718552808201
6.340571648,0.9994488605500887,147.63759391538701
6.342857216,0.999338445080294,147.49986252165868
6.345142784,0.999270444411669,147.36349158144887
6.347428352,0.9992488568213433,147.22774137661003
6.349714432,0.9992754529062292,147.09206365720303
6.352,0.9993482192066298,146.95561981983283
6.354285568,0.9994627370303689,146.8178874381968
6.356571648,0.9996117280573232,146.67827596661726
6.358857216,0.9997857946146348,146.53630377043132
6.361142784,0.9999739487336786,146.39175271408365
6.363428352,1.0001641718551653,146.244472450442
6.365714432,1.0003444645390638,146.09453953759774
6.368,1.0005034993233706,145.94216060573316
6.370285568,1.0006311051972776,145.78775038375844
6.372571648,1.00071928953588,145.63177590873167
6.374857216,1.0007625009904564,145.47489759385257
6.377142784,1.0007579791503471,145.31774638618722
6.379428352,1.000705833787057,145.16104564592538
6.381714432,1.0006096088206584,145.0054289650265
6.384,1.0004751926669888,144.85152770127434
6.386285568,1.0003110685906367,144.6998407989803
6.388571648,1.0001275780994714,144.5506633781156
6.390857216,0.99993633046207,144.40425059006733
6.393142784,0.9997494938713835,144.2605949582141
6.395428352,0.999579020508888,144.1195856084267
6.397714432,0.9994352927290017,143.98089542193085
6.4,0.9993277916140642,143.84405224851233
6.402285568,0.999263237344039,143.70848158483813
6.404571648,0.9992457842653273,143.5735716291803
6.406857216,0.9992764924795808,143.4385638923658
6.409142784,0.9993534424066147,143.30280222792982
6.411428352,0.9994716783279926,143.16568253413544
6.413714432,0.999624035830135,143.0265928462698
6.416,0.99980047344423,142.88514400533566
6.418285568,0.9999901259271072,142.7410657068461
6.420571648,1.0001808930609224,142.5942401907219
6.422857216,1.0003607478945766,142.4447857809111
6.425142784,1.0005181696014633,142.29287519321738
6.427428352,1.0006432903656943,142.13895589682156
6.429714432,1.0007282811656908,141.98354610649284
6.432,1.0007676595804817,141.82725114525732
6.434285568,1.0007589013079436,141.67078549611668
6.436571648,1.0007025695955964,141.51477768371663
6.438857216,1.0006022157155605,141.3599510635382
6.441142784,1.0004642478700991,141.20686741090637
6.443428352,1.0002973294261617,141.05603996137276
6.445714432,1.0001117866745648,140.9078100812898
6.448,0.9999195799383794,140.7623316736008
6.450285568,0.9997328200502754,140.61961939676726
6.452571648,0.9995632966999134,140.47955109036837
6.454857216,0.9994217544459373,140.3417425386956
6.457142784,0.999317245286653,140.205797508569
6.459428352,0.9992564133764799,140.0710626644858
6.461714432,0.9992429297936294,139.93689096001168
6.464,0.9992778219241448,139.8026067237626
6.466285568,0.9993591678673277,139.66749349401326
6.468571648,0.9994812333081089,139.53095625346347
6.470857216,0.9996367373535022,139.39239742063805
6.473142784,0.9998156817651777,139.2514509387594
6.475428352,1.000006765586912,139.10783120745884
6.477714432,1.0001979880467864,138.9614939495481
6.48,1.0003770946321824,138.81244695549256
6.482285568,1.00053289705539,138.6610348470319
6.484571648,1.0006554522535913,138.5076289682963
6.486857216,1.0007369086115334,138.35276312352343
6.489142784,1.0007724038417436,138.19705965832858
6.491428352,1.000759327971688,138.04123656597574
6.493714432,1.0006986515180165,137.88596795847155
6.496,1.0005944148604202,137.73192004982448
6.498285568,1.000452756366983,137.5796935399401
6.500571648,1.0002829210650794,137.42973841247522
6.502857216,1.0000955502247741,137.2823891853694
6.505142784,0.9999022928996663,137.13787143821017
6.507428352,0.9997156313264229,136.99610923128293
6.509714432,0.9995474343382571,136.856957546592
6.512,0.9994081069057412,136.7200796869592
6.514285568,0.999306693265904,136.5849917473666
6.516571648,0.9992496497466479,136.45108270350596
6.518857216,0.9992403824339348,136.31766170956948
6.521142784,0.9992797235108932,136.18406691836472
6.523428352,0.9993651067887609,136.04960930902155
6.525714432,0.9994911792276641,135.91362329343607
6.528,0.9996498327524379,135.7756099368336
6.530285568,0.999831292807962,135.63514489468488
6.532571648,1.0000238682835614,135.49198344033965
6.534857216,1.0002152637073944,135.3460630348059
6.537142784,1.0003936769101522,135.19749490836523
6.539428352,1.0005476740816348,135.04653980946338
6.541714432,1.000667417528075,134.89360804815732
6.544,1.000745551845928,134.7392993555684
6.546285568,1.0007768851226204,134.58421405197768
6.548571648,1.0007594300752696,134.4290110568694
6.550857216,1.000694546734454,134.27445908299424
6.553142784,1.000586051930071,134.121207165707
6.555428352,1.0004408762131798,133.9698043773137
6.557714432,1.0002681096542987,133.82073254716715
6.56,1.0000787660123247,133.67430848320984
6.562285568,0.9998847559043791,133.53071493561097
6.564571648,0.9996983332444496,133.38990565766923
6.566857216,0.9995313819959568,133.2516932068475
6.569142784,0.9993945327993995,133.11572236233567
6.571428352,0.99929625190837,132.98149605035206
6.573714432,0.9992430271267718,132.8483886079626
6.576,0.9992381589160277,132.7157191049039
6.578285568,0.999281966111422,132.58282732726119
6.580571648,0.9993715676101567,132.44896751861216
6.582857216,0.9995015581385891,132.31358647643475
6.585142784,0.9996636058308819,132.1760596616439
6.587428352,0.9998472777059599,132.0360568739994
6.589714432,1.000041119179215,131.89336255557484
6.592,1.000232981773814,131.74786132220248
6.594285568,1.0004104898522985,131.59971762913125
6.596571648,1.000562589486187,131.44921147650706
6.598857216,1.0006794201423104,131.29678948822635
6.601142784,1.0007537147979384,131.14298896217426
6.603428352,1.0007809295569914,130.98848648269595
6.605714432,1.0007591214139924,130.83396923600642
6.608,1.0006897073950658,130.6801358387466
6.610285568,1.0005770436102874,130.52763448781033
6.612571648,1.000428348326615,130.37706991895638
6.614857216,1.0002528582203847,130.22886838278126
6.617142784,1.0000616224853036,130.08338926674858
6.619428352,0.9998668186054517,129.94072381941658
6.621714432,0.9996808362339779,129.80085769510995
6.624,0.9995153822070129,129.66355897815077
6.626285568,0.9993809213696151,129.52848557225965
6.628571648,0.9992860366476335,129.39510023107786
6.630857216,0.9992367190215624,129.26280572618407
6.633142784,0.9992363595786886,129.1308823814261
6.635428352,0.9992845821239768,128.99867381085517
6.637714432,0.9993786907581799,128.8654162900849
6.64,0.9995125644898974,128.73056099317262
6.642285568,0.9996776906912754,128.59354770714162
6.644571648,0.999863771801719,128.45401138614167
6.646857216,1.0000590286370472,128.3117172439002
6.649142784,1.0002508874020792,128.16664443765703
6.651428352,1.000427508899884,128.01892303472445
6.653714432,1.0005775127810457,127.8688664189114
6.656,1.0006913369322235,127.71691341362025
6.658285568,1.0007620082227013,127.56365010585854
6.660571648,1.0007848902453407,127.40973964079025
6.662857216,1.0007586095681986,127.25586589387498
6.665142784,1.0006846091528696,127.10274258673263
6.667428352,1.0005678430984524,126.95102157539739
6.669714432,1.000415398260437,126.80130867475474
6.672,1.0002370801390212,126.65399208351594
6.674285568,1.0000441235043152,126.5094158378996
6.676571648,0.9998486890635255,126.3676733761488
6.678857216,0.9996630157077698,126.22872188410173
6.681142784,0.9994992527194275,126.09236054578072
6.683428352,0.9993674073727475,125.95818166055044
6.685714432,0.999276013654871,125.82561875336965
6.688,0.9992308681084524,125.69412925932318
6.690285568,0.9992349103025203,125.56293697635938
6.692571648,0.9992878143948214,125.43135934859754
6.694857216,0.9993862749251623,125.29871788414015
6.697142784,0.9995240097464061,125.16437814901856
6.699428352,0.9996924922307105,125.0278559074189
6.701714432,0.9998809109557162,124.88873684899544
6.704,1.0000772616380658,124.74686780760179
6.706285568,1.0002692885794373,124.60219156852888
6.708571648,1.0004447930509581,124.45488233973823
6.710857216,1.0005924884259152,124.3052519263005
6.713142784,1.0007032731084218,124.15375704784435
6.715428352,1.0007700144967486,124.00102834173214
6.717714432,1.0007885050472787,123.84769384054556
6.72,1.0007574274768274,123.69446477888137
6.722285568,1.0006791147864296,123.54206351697783
6.724571648,1.0005580034229864,123.39112969292569
6.726857216,1.0004020096210278,123.24222836474527
6.729142784,1.000220924357979,123.0957911348701
6.731428352,1.0000261322524122,122.95212094849163
6.733714432,0.9998300541080801,122.81130904340755
6.736,0.9996450833638273,122.67330038181791
6.738285568,0.9994829402215041,122.53784497676813
6.740571648,0.9993539245424964,122.40452156469298
6.742857216,0.999266076158854,122.27280434780963
6.745142784,0.999225137368222,122.14207557410025
6.747428352,0.9992337353335053,122.01160567616454
6.749714432,0.9992913737367762,121.88066524954651
6.752,0.9993942833218473,121.74858087819577
6.754285568,0.9995360255703297,121.61478379462372
6.756571648,0.9997077042391573,121.47871196480052
6.758857216,0.9998982047662544,121.34000806889159
6.761142784,1.000095740320002,121.19854241023228
6.763428352,1.000287677382957,121.0542608638328
6.765714432,1.0004619269222716,120.90735837456283
6.768,1.000607417958941,120.75812965580229
6.770285568,1.000714915399915,120.60711159226295
6.772571648,1.0007776173511111,120.45487232705432
6.774857216,1.000791707882823,120.30210901155675
6.777142784,1.0007559768970093,120.14952774621949
6.779428352,1.0006728002102667,119.99784104952465
6.781714432,1.0005475296794615,119.84766899756626
6.784,1.0003879766022294,119.6995907928151
6.786285568,1.0002041485972257,119.55406343050943
6.788571648,1.0000077733237962,119.41125334957371
6.790857216,0.99981118365101,119.27138447034001
6.793142784,0.9996268802772024,119.13429439863624
6.795428352,0.99946655791756,118.99971937815819
6.797714432,0.9993403440802525,118.86728293814443
6.8,0.9992561694732163,118.73639813245835
6.802285568,0.9992197362381385,118.60640839335178
6.804571648,0.999232977502312,118.47662284576725
6.806857216,0.9992953147123393,118.34631036824138
6.809142784,0.9994027719016195,118.21477619791287
6.811428352,0.9995484334655247,118.08146776833772
6.813714432,0.999723226291137,117.9458341335129
6.816,0.9999160591920544,117.80754431867227
6.818285568,1.0001145826806617,117.66645562799555
6.820571648,1.000306407432671,117.52253622961034
6.822857216,1.0004792690027566,117.37598206255086
6.825142784,1.0006224142332187,117.22721239594766
6.827428352,1.0007264303996433,117.07663256508351
6.829714432,1.000785033867114,116.92490442756895
6.832,1.0007944322086153,116.77270168490661
6.834285568,1.0007538800668645,116.62077615837558
6.836571648,1.0006661993932113,116.46976214663589
6.838857216,1.0005365547914309,116.32035773746402
6.841142784,1.0003734143573513,116.17310741299013
6.843428352,1.0001869981441975,116.02842808996
6.845714432,0.999988965408896,115.88653819916343
6.848,0.9997919510443999,115.7475785785451
6.850285568,0.9996084084494374,115.61139311082971
6.852571648,0.999450075589023,115.47771838628422
6.854857216,0.9993268802059533,115.34613562981973
6.857142784,0.9992466644385362,115.21603214834761
6.859428352,0.9992145572436512,115.08680075972494
6.861714432,0.9992327019350701,114.95770780006379
6.864,0.9992999278408871,114.82797802614697
6.866285568,0.9994118791119072,114.69700403548133
6.868571648,0.9995614542342242,114.56414041183771
6.870857216,0.9997393927788559,114.42892342995027
6.873142784,0.9999343658410976,114.2910437032915
6.875428352,1.0001338210746924,114.15029761238813
6.877714432,1.0003253857471426,114.00672720695161
6.88,1.000496711850872,113.86056444009064
6.882285568,1.0006372047691048,113.71215630057213
6.884571648,1.0007378500414763,113.562006668168
6.886857216,1.0007921958271824,113.41078367375675
6.889142784,1.0007968406708923,113.25914160692085
6.891428352,1.000751443388274,113.10782907399225
6.893714432,1.0006589868033189,112.95752911734397
6.896,1.0005251838600546,112.80889342914546
6.898285568,1.0003583535742988,112.66245535878241
6.900571648,1.0001692862017297,112.51863577370578
6.902857216,0.9999697726390807,112.37765261783714
6.905142784,0.9997724606736287,112.23958470660897
6.907428352,0.9995899053822592,112.10429696727967
6.909714432,0.9994336318148949,111.9715012322678
6.912,0.9993135560146138,111.84074153409635
6.914285568,0.9992373619454844,111.71144637914767
6.916571648,0.9992098574645433,111.58293316896236
6.918857216,0.9992328874320933,111.45447502928938
6.921142784,0.999304946375901,111.32535391396257
6.923428352,0.9994215149705578,111.19488973621904
6.925714432,0.9995750677865257,111.06247861698847
6.928,0.9997560894516722,110.92767813442174
6.930285568,0.9999530307070406,110.79010745516507
6.932571648,1.000153456950295,110.6497089218739
6.934857216,1.000344629829725,110.50647589627611
