freq,mag,phase
6.0,0.9996279177915107,145.06041077145574
6.002285568,0.9994579420240556,144.91968569323836
6.004571648,0.9993233904997514,144.78127877107684
6.006857216,0.9992322240788004,144.6445433600136
6.009142784,0.9991900349063438,144.50880649053022
6.011428352,0.9991997160627162,144.37339997600887
6.013714432,0.9992603608683014,144.23751239922913
6.016,0.9993684506740861,144.10043323064062
6.018285568,0.9995169856356998,143.96153695939435
6.020571648,0.999696739287952,143.82030860043446
6.022857216,0.9998961378897336,143.67638442602762
6.025142784,1.0001026119602063,143.5295405108765
6.027428352,1.0003032063146406,143.37979106300995
6.029714432,1.0004850842741873,143.22732191606275
6.032,1.0006368814809985,143.07245196617555
6.034285568,1.0007489965683787,142.9157678120459
6.036571648,1.0008141828726684,142.75777643865572
6.038857216,1.0008285950917897,142.59931318716903
6.041142784,1.0007908883388739,142.4410179363865
6.043428352,1.0007036984008748,142.28369433664452
6.045714432,1.0005725839510613,142.12798262990228
6.048,1.0004055609706644,141.97448244654282
6.050285568,1.0002133645998472,141.82367044500106
6.052571648,1.000008050730396,141.6757416293749
6.054857216,0.9998026488182913,141.5308483594378
6.057142784,0.9996101749540335,141.38891503339303
6.059428352,0.9994425741030165,141.24965659142956
6.061714432,0.9993108011949045,141.11257461397457
6.064,0.999222983674197,140.97720331631254
6.066285568,0.9991848999196078,140.84271604869363
6.068571648,0.9991990064650084,140.70851516850365
6.070857216,0.9992642374342956,140.57376716450386
6.073142784,0.9993763868534478,140.43777995363845
6.075428352,0.9995287650357456,140.29990027443793
6.077714432,0.9997113753512192,140.15966428966402
6.08,0.9999128451947078,140.01667122873266
6.082285568,1.0001202939455707,139.8707281312391
6.084571648,1.0003207863048478,139.72188955573955
6.086857216,1.0005014442156013,139.57033506269767
6.089142784,1.0006509162542525,139.41641541407157
6.091428352,1.0007598186931828,139.2606682592468
6.093714432,1.0008210562920825,139.10374301951757
6.096,1.000831118626195,138.9463467897955
6.098285568,1.0007890885004946,138.7892076569273
6.100571648,1.000697443515699,138.63308147599946
6.102857216,1.0005622060437316,138.47866253009929
6.105142784,1.0003918435020627,138.32648388615252
6.107428352,1.000197022294751,138.1770144881458
6.109714432,0.9999903025914211,138.03049239283274
6.112,0.999784453767801,137.88701052863843
6.114285568,0.999592636733664,137.7464917497902
6.116571648,0.9994270171923194,137.60859553697082
6.118857216,0.9992981014756203,137.47288303739765
6.121142784,0.9992140567785442,137.3387834739243
6.123428352,0.9991800246080249,137.20560134777114
6.125714432,0.9991986271789784,137.07254501772553
6.128,0.9992684530013559,136.93891451214597
6.130285568,0.9993850323263933,136.80398855542825
6.132571648,0.9995410439808966,136.66708529990913
6.134857216,0.9997267464850751,136.52777247579806
6.137142784,0.999930186121722,136.38567665458743
6.139428352,1.0001384609782271,136.24061747960303
6.141714432,1.0003387472461642,136.09264630648445
6.144,1.00051809752018,135.94196611769746
6.146285568,1.00066505515416,135.78896102281143
6.148571648,1.000770610934908,135.63414814783619
6.150857216,1.0008279659571417,135.47823985289392
6.153142784,1.0008333810119638,135.3218605818955
6.155428352,1.0007865909894078,135.1658752789624
6.157714432,1.0006904930232148,135.01096303256818
6.16,1.0005512697713517,134.8577695290954
6.162285568,1.0003773900727038,134.70689505370478
6.164571648,1.0001802712133059,134.55878311830045
6.166857216,0.9999719744555012,134.41363411597078
6.169142784,0.9997658149758917,134.2715747851012
6.171428352,0.9995748853396811,134.13241333101908
6.173714432,0.9994112941479277,133.99586975364699
6.176,0.9992853174756222,133.86151821355935
6.178285568,0.9992050540152567,133.7286593598699
6.180571648,0.9991756467692003,133.59668511682864
6.182857216,0.9991988493023564,133.4647886014958
6.185142784,0.9992733128787131,133.33222132189385
6.187428352,0.9993941976722522,133.19828835393562
6.189714432,0.9995540765549203,133.062372186915
6.192,0.999742672635029,132.92392568482754
6.194285568,0.9999482175782141,132.78269055201645
6.196571648,1.0001573836100133,132.6384734099699
6.198857216,1.0003571368027084,132.49135189777226
6.201142784,1.0005349450851215,132.34149855073386
6.203428352,1.0006793345991085,132.18939016697183
6.205714432,1.0007813089035749,132.0355105943773
6.208,1.0008344169582097,131.8805413433529
6.210285568,1.0008352046245792,131.72524207545445
6.212571648,1.0007836465481263,131.57034365801738
6.214857216,1.0006830369172817,131.41657985108773
6.217142784,1.0005396019899662,131.2646235093517
6.219428352,1.000362328158719,131.11503510183312
6.221714432,1.0001626343795624,130.96824641347771
6.224,0.9999529331449122,130.82449058007202
6.226285568,0.999746585815727,130.6837437995911
6.228571648,0.999556856739638,130.54594580639474
6.230857216,0.9993953511551332,130.41076185972278
6.233142784,0.9992725131228641,130.27768503684598
6.235428352,0.9991962427924836,130.14607683456217
6.237714432,0.9991713025267679,130.01529340892168
6.24,0.9991994030451875,129.88449247993097
6.242285568,0.9992785652609718,129.75297515935674
6.244571648,0.9994039565798862,129.6200185922417
6.246857216,0.9995676874750041,129.48499938516272
6.249142784,0.9997593484867786,129.34741414952236
6.251428352,0.9999665138307625,129.20701171597648
6.253714432,1.0001765479820897,129.0636080743789
6.256,1.0003759533218683,128.91724696574647
6.258285568,1.0005520240844372,128.76823841379687
6.260571648,1.00069361470426,128.61695038401044
6.262857216,1.0007919237576952,128.4639607168744
6.265142784,1.0008406942582055,128.30995605766378
6.267428352,1.000836730438891,128.15563569688607
6.269714432,1.0007803302441278,128.0018073207681
6.272,1.0006749319116597,127.8492102656109
6.274285568,1.000527333337248,127.69846625284157
6.276571648,1.0003467118698977,127.55015245192148
6.278857216,1.0001444857302493,127.40466815660196
6.281142784,0.9999336403821071,127.26221592825443
6.283428352,0.9997272268790133,127.12282652652786
6.285714432,0.9995385084780994,126.98638366908986
6.288,0.9993792876040328,126.85248761506267
6.290285568,0.9992599400180429,126.72068060305283
6.292571648,0.9991878295084655,126.59027098191606
6.294857216,0.9991674948666531,126.46061840408227
6.297142784,0.9992004596117695,126.33091063916591
6.299428352,0.9992844927747978,126.20038498414985
6.301714432,0.9994144549368688,126.06834118963579
6.304,0.9995820323474826,125.93420103075431
6.306285568,0.9997764112724403,125.79745636144447
6.308571648,0.9999856716181421,125.65780285709197
6.310857216,1.0001962822974992,125.51513677424785
6.313142784,1.0003950126407604,125.36955750710165
6.315428352,1.0005691815583622,125.22132602709344
6.317714432,1.0007079855582064,125.07085157638211
6.32,1.000802323880466,124.9187232624345
6.322285568,1.0008465416162873,124.76561945129606
6.324571648,1.0008376475656997,124.61231983624207
6.326857216,1.0007763285553766,124.45955941666234
6.329142784,1.000666133921924,124.30803509324025
6.331428352,1.0005142595427947,124.15849778351058
6.333714432,1.0003302347269285,124.01143110948838
6.336,1.000125681603903,123.86721686204555
6.338285568,0.9999135641175129,123.7260756731367
6.340571648,0.999707235849986,123.5880190751774
6.342857216,0.9995196760355992,123.45284708017903
6.345142784,0.9993631590053842,123.32023914887361
6.347428352,0.9992472889491413,123.18967271604217
6.349714432,0.9991794453811709,123.06045085543599
6.352,0.9991640450064777,122.93188421775307
6.354285568,0.9992021252887264,122.80322738230976
6.356571648,0.9992912301538954,122.67365319690961
6.358857216,0.9994257208715441,122.54249960222937
6.361142784,0.9995971133554077,122.40917338464669
6.363428352,0.9997944999478326,122.27318113917164
6.365714432,1.000005442745573,122.13430034062542
6.368,1.0002165578273765,121.9923656361338
6.370285568,1.0004145218867102,121.8475168398373
6.372571648,1.0005867948449203,121.69998577196709
6.374857216,1.0007222881007134,121.55030439394248
6.377142784,1.0008128213424177,121.39896426942876
6.379428352,1.000852258133288,121.24676434507462
6.381714432,1.0008382862884244,121.09441393047106
6.384,1.0007717103483258,120.94265247108052
6.386285568,1.0006568110268006,120.79228753211113
6.388571648,1.0005005938641933,120.64390550778529
6.390857216,1.0003131469650222,120.49803783237262
6.393142784,1.0001062697651728,120.35509502815904
6.395428352,0.9998930207567799,120.21524545266082
6.397714432,0.9996868686518393,120.07846930743887
6.4,0.9995008988852432,119.94457799020586
6.402285568,0.999346938765887,119.81322544236188
6.404571648,0.9992347164286411,119.68383310806077
6.406857216,0.9991713752741925,119.55578432924165
6.409142784,0.9991609755816234,119.4282742307213
6.411428352,0.9992043070143266,119.300585600139
6.413714432,0.9992984026869116,119.17193383369838
6.416,0.9994374881559761,119.04162471075362
6.418285568,0.9996127919394568,118.90906998270037
6.420571648,0.999813114891116,118.77382534793159
6.422857216,1.0000256179016858,118.63563117573013
6.425142784,1.000237238125723,118.49436376822663
6.427428352,1.0004344049852563,118.35020159952774
6.429714432,1.000604323993501,118.2033929889545
6.432,1.0007366929539439,118.05443538808704
6.434285568,1.0008229070253187,117.9039100000152
6.436571648,1.0008576733412422,117.75255136378158
6.438857216,1.0008384237019265,117.60111635951466
6.441142784,1.0007665718257521,117.4503779427927
6.443428352,1.0006468113059488,117.3011031691413
6.445714432,1.0004863237877555,117.1538549942512
6.448,1.0002955083566656,117.00919085231841
6.450285568,1.0000863569002114,116.86747307573737
6.452571648,0.9998720474261922,116.72886362590145
6.454857216,0.9996662166137222,116.59332745406489
6.457142784,0.9994818267552527,116.46070390351201
6.459428352,0.9993306693251146,116.33054516496574
6.461714432,0.9992223302489235,116.20232863736585
6.464,0.9991636310758203,116.07534963978469
6.466285568,0.9991583607206866,115.9489029787111
6.468571648,0.9992069372570722,115.82217863658633
6.470857216,0.9993062672357109,115.69441426315802
6.473142784,0.9994500174430572,115.56489507090882
6.475428352,0.9996291405518108,115.43307174091535
6.477714432,0.9998322600983446,115.29852086841014
6.48,1.0000465264405627,115.16097796471553
6.482285568,1.000258365584714,115.02035091333755
6.484571648,1.0004543326336077,114.87680436685132
6.486857216,1.0006221343472208,114.73064051713656
6.489142784,1.0007510220708964,114.58241031424586
6.491428352,1.0008327981158345,114.43262799647125
6.493714432,1.0008625257966983,114.28211985333913
6.496,1.0008379541448191,114.13158733880955
6.498285568,1.0007608718485084,113.98183904371601
6.500571648,1.0006361361021094,113.83357004801746
6.502857216,1.0004713252078217,113.68744291552984
6.505142784,1.0002772280890355,113.54394760378923
6.507428352,1.0000657489731803,113.40344733317336
6.509714432,0.9998506098081316,113.2660695712707
6.512,0.9996451276869152,113.1317753948528
6.514285568,0.9994625511178016,113.00036430301563
6.516571648,0.9993144286387609,112.87139704107767
6.518857216,0.9992100959381195,112.74429458020279
6.521142784,0.9991561842484551,112.61839889808685
6.523428352,0.9991563156784434,112.4929363803541
6.525714432,0.99921021896326,112.36709671128258
6.528,0.9993147819710074,112.24015029833132
6.530285568,0.9994632914783044,112.11139592331254
6.532571648,0.9996462110953521,111.98026030708998
6.534857216,0.9998521677807364,111.84636685552022
6.537142784,1.0000678407734382,111.70942181603853
6.539428352,1.0002798158618758,111.56939047875976
6.541714432,1.0004746689931163,111.42645114291042
6.544,1.0006399254752771,111.28092626101274
6.546285568,1.000765154196182,111.13333638955697
6.548571648,1.000842440629038,110.98430778900406
6.550857216,1.0008669477695613,110.83456702310417
6.553142784,1.0008370229175838,110.68494433699748
6.555428352,1.000754603494279,110.53612129041178
6.557714432,1.0006247432820645,110.38888859317841
6.56,1.0004556994952698,110.24385001718416
6.562285568,1.0002581962976922,110.10148118030779
6.564571648,1.0000446729134786,109.96214748852685
6.566857216,0.9998286554025376,109.82598058609936
6.569142784,0.9996238365854679,109.69292563979413
6.571428352,0.9994432890510353,109.56266882089895
6.573714432,0.999298229159519,109.43483809491197
6.576,0.9991981054763479,109.3088390054383
6.578285568,0.9991492120079081,109.18396148973909
6.580571648,0.9991547235531253,109.05941208209089
6.582857216,0.9992142257291179,108.93447358243252
6.585142784,0.9993240927190059,108.80830415917816
6.587428352,0.9994772360517347,108.68026212623823
6.589714432,0.9996640357100199,108.54978970588584
6.592,0.9998725814721708,108.41644426026883
6.594285568,1.0000897848446784,108.28008183514841
6.596571648,1.0003017471911884,108.1406015566705
6.598857216,1.0004952201123711,107.99823668774141
6.601142784,1.0006578188926356,107.85331600442987
6.603428352,1.0007792143219152,107.70634751770866
6.605714432,1.000851791841694,107.55803388422252
6.608,1.00087089859827,107.40905464246416
6.610285568,1.0008353570890471,107.26022045000462
6.612571648,1.000747420921837,107.11234603389548
6.614857216,1.0006124620706596,106.96608918224518
6.617142784,1.0004391488937119,106.82210955996361
6.619428352,1.000238429126962,106.68089988225853
6.621714432,1.0000228399878666,106.54273031200141
6.624,0.9998061441768687,106.40772553020534
6.626285568,0.9996021893373803,106.27584195368831
6.628571648,0.9994236336350956,106.14674307208877
6.630857216,0.9992819666364127,106.02002621501447
6.633142784,0.9991862202197311,105.89507218612545
6.635428352,0.9991425422568937,105.7711630092214
6.637714432,0.9991535608230371,105.64753692059979
6.64,0.9992187341863471,105.52339347174265
6.642285568,0.9993340271397357,105.39796453836813
6.644571648,0.9994918603079984,105.27058048060734
6.646857216,0.9996825098980158,105.14070621678609
6.649142784,0.9998937044739602,105.00792432898223
6.651428352,1.0001122342664532,104.87205841081283
6.653714432,1.0003241069472983,104.73310872786882
6.656,1.0005159497137408,104.59125605267103
6.658285568,1.0006756945321078,104.4468860645556
6.660571648,1.0007931495984987,104.30052183358093
6.662857216,1.0008608617445203,104.15284728828776
6.665142784,1.0008744569230155,104.00459928685996
6.667428352,1.0008332162078926,103.85660759290533
6.669714432,1.000739775702556,103.70961753413803
6.672,1.0005996597589828,103.5643373661169
6.674285568,1.0004220694990724,103.42142129848357
6.676571648,1.0002181356308282,103.28126718941272
6.678857216,1.0000006506895784,103.14423764830492
6.681142784,0.9997833901399248,103.01038342096308
6.683428352,0.9995802758620119,102.87961550785298
6.685714432,0.9994039557326614,102.75164728435853
6.688,0.9992658802568787,102.62600316001442
6.690285568,0.9991747584564649,102.50206731728173
6.692571648,0.9991363152167717,102.37910804769128
6.694857216,0.9991531509137319,102.25633055348985
6.697142784,0.9992241078743788,102.13296372734972
6.699428352,0.9993446492475235,102.00822995981771
6.701714432,0.9995072767716504,101.88145621155782
6.704,0.9997016872580394,101.75211989751928
6.706285568,0.9999154088067117,101.61986177141223
6.708571648,1.0001351176574218,101.48446928785853
6.710857216,1.0003467251337521,101.34597775410501
6.713142784,1.0005369504184287,101.20457672450861
6.715428352,1.0006935900208909,101.06071702449746
6.717714432,1.0008068769753888,100.91491990026799
6.72,1.000869488277076,100.7678965149504
6.722285568,1.000877581443733,100.62036205965768
6.724571648,1.000830611974424,100.47313340374978
6.726857216,1.0007313571601617,100.32701356991116
6.729142784,1.0005860984741866,100.18267749894753
6.731428352,1.0004042595876772,100.04076289411073
6.733714432,1.0001970972231964,99.9016968793721
6.736,0.9999776522577848,99.76574474537993
6.738285568,0.9997602084058376,99.63299902059653
6.740571648,0.9995579727695654,99.50335901787234
6.742857216,0.9993841992071746,99.37646556398448
6.745142784,0.9992498624247017,99.25186375070025
6.747428352,0.9991634413953533,99.12887531377406
6.749714432,0.9991304935213631,99.00682188254845
6.752,0.9991531041566994,98.88486659402825
6.754285568,0.999229927476737,98.76221886069304
6.756571648,0.999355942963508,98.63813470271991
6.758857216,0.9995233273266492,98.5119279514978
6.761142784,0.9997214716900478,98.38309528968465
6.763428352,0.9999377328510597,98.25129047258046
6.765714432,1.0001584081315598,98.11631437260908
6.768,1.0003696148116035,97.97826326887902
6.770285568,1.0005578579960235,97.83731455549642
6.772571648,1.000711393876766,97.69393022549804
6.774857216,1.0008202910325195,97.54865276044346
6.777142784,1.000877708462304,97.4022025245022
6.779428352,1.000879973567004,97.25537266237329
6.781714432,1.0008269883189622,97.10889597078547
6.784,1.0007221086376097,96.9636104861714
6.786285568,1.0005717616835348,96.8202032911864
6.788571648,1.0003856423689743,96.67926171865837
6.790857216,1.0001753957951056,96.54123381825434
6.793142784,0.999954321665722,96.40635296771575
6.795428352,0.9997363902610674,96.27469436805691
6.797714432,0.9995355256629802,96.14612626870573
6.8,0.9993644673847147,96.02028722289104
6.802285568,0.9992340865906394,95.8966805930438
6.804571648,0.999152583193606,95.77464658566058
6.806857216,0.9991252931737165,95.65344128418648
6.809142784,0.9991538069211433,95.53223711180883
6.811428352,0.9992365307148947,95.41027074834537
6.813714432,0.9993680856490643,95.28677261639814
6.816,0.9995402216117122,95.16108665040085
6.818285568,0.9997419848973454,95.03271133169108
6.820571648,0.999960615326128,94.90131504636655
6.822857216,1.0001822907539413,94.76673288168168
6.825142784,1.0003928973345582,94.62906777012601
6.827428352,1.0005790534181642,94.48851822768866
6.829714432,1.0007291656211998,94.34556065470089
6.832,1.000833518897073,94.20079086638215
6.834285568,1.0008855854158387,94.05489730919203
6.836571648,1.0008819829804243,93.90869913566999
6.838857216,1.000823010573069,93.76296639032314
6.841142784,1.0007123038355128,93.61848001775788
6.843428352,1.000556765829682,93.47596977526916
6.845714432,1.0003663836991172,93.33598050860274
6.848,1.0001531018161456,93.19895878990708
6.850285568,0.9999304849956262,93.06512196390433
6.852571648,0.9997125055015035,92.93451390369415
6.854857216,0.9995130896897534,92.8069900051584
6.857142784,0.9993447991517065,92.68216394715724
6.859428352,0.9992184746689027,92.55950505797864
6.861714432,0.9991420854569582,92.43836170937342
6.864,0.9991206305363224,92.31796137009505
6.866285568,0.9991551980915516,92.19748878615408
6.868571648,0.9992438483371232,92.07614824611031
6.870857216,0.9993810419795769,91.95320790936317
6.873142784,0.99955780523285,91.82798920123301
6.875428352,0.9997632363405574,91.7000220426888
6.877714432,0.9999841456988473,91.56899054681602
6.88,1.0002065958005961,91.43477086382536
6.882285568,1.0004164471600583,91.29739834085674
6.884571648,1.0006003343129641,91.1572247572741
6.886857216,1.0007467670274035,91.0146578358056
6.889142784,1.0008463434130657,90.8703522424663
6.891428352,1.0008928961321746,90.72499781350018
6.893714432,1.0008832576715758,90.57940796527338
6.896,1.000818166693508,90.4343866761533
6.898285568,1.000701550538103,90.29068189642666
6.900571648,1.0005408994982745,90.14903476451828
6.902857216,1.0003463181709316,90.00998313138342
6.905142784,1.0001300942520208,89.87392873948781
6.907428352,0.9999060773657511,89.74111871904046
6.909714432,0.9996881768328443,89.61154156728337
6.912,0.9994904002171718,89.4850187852721
6.914285568,0.9993252239679846,89.3611647606879
6.916571648,0.9992031460876997,89.23941866746975
6.918857216,0.9991319774899934,89.11912833062348
6.921142784,0.9991164002988236,88.99947847705506
6.923428352,0.9991572128305484,88.87968659771613
6.925714432,0.9992520001027109,88.75894512521872
6.928,0.9993946969541777,88.6364814611394
6.930285568,0.9995761728140401,88.51170561663976
6.932571648,0.9997851526354178,88.38409209540114
6.934857216,1.0000081647913912,88.25337248641313
6.937142784,1.0002312774134094,88.11943771752804
