freq,mag,phase
6.0,0.9996431958779655,130.84562797345808
6.002287104,0.9996147567902435,130.68823921644935
6.004574208,0.9996121258486569,130.5310892915235
6.006861312,0.999633743125637,130.37380160267605
6.009147904,0.9996788040077237,130.21608188783182
6.011435008,0.9997441054915863,130.05755299403913
6.013722112,0.9998257070779402,129.8980039190263
6.016009216,0.999918391262253,129.7371997621316
6.01829632,1.0000162038979339,129.57499272952614
6.020583424,1.0001130075256062,129.41143138339163
6.022870016,1.0002027207891626,129.24649989610012
6.02515712,1.000279639366437,129.08039412181637
6.027444224,1.0003387854454873,128.91332758036424
6.029731328,1.0003765918731946,128.74557037520165
6.032018432,1.000390449465385,128.57743542934693
6.034305536,1.0003795309044992,128.40930675840525
6.036592128,1.0003446554699493,128.24153332664176
6.038879232,1.0002878961164596,128.07443990655224
6.041166336,1.000212779733619,127.90833689663836
6.04345344,1.0001241124639357,127.7434302237479
6.045740544,1.0000275893636272,127.5798752673376
6.048027648,0.999929187002904,127.41777035854255
6.05031424,0.9998351457989215,127.25708110163804
6.052601344,0.9997515892204144,127.09768836479229
6.054888448,0.9996836633701545,126.93943459328962
6.057175552,0.9996357158037821,126.78202185370807
6.059462656,0.999610803518266,126.62518253284064
6.06174976,0.9996105937426277,126.46855052450336
6.064036352,0.999634946329478,126.31172963787466
6.066323456,0.9996825668830548,126.15444713408553
6.06861056,0.9997501908434065,125.99632803434311
6.070897664,0.9998336207332356,125.83712561228835
6.073184768,0.9999278099751716,125.67663600415055
6.075471872,1.0000264712610032,125.51478439274818
6.077758464,1.0001234909358123,125.35153997291967
6.080045568,1.000212751664561,125.18691433355964
6.082332672,1.0002884552622784,125.02117306540248
6.084619776,1.0003460514893887,124.85442179827558
6.08690688,1.0003816845478726,124.68705010450908
6.089193984,1.0003930607956606,124.51933451559425
6.091481088,1.0003795886400586,124.35166711122777
6.09376768,1.0003421217496846,124.18436778781955
6.096054784,1.0002827403913914,124.0177936017398
6.098341888,1.0002056462927826,123.85222705900154
6.100628992,1.0001152151861106,123.68792431177049
6.102916096,1.000017533271914,123.5249630652334
6.1052032,0.9999186660197703,123.36348672707572
6.107489792,0.9998248536635158,123.20339844472065
6.109776896,0.9997421673815204,123.04464504617809
6.112064,0.9996755554610569,122.8869507562506
6.114351104,0.9996295336388802,122.7301257432129
6.116638208,0.9996069448021664,122.57381041863475
6.118925312,0.9996093389566786,122.41766412196979
6.121211904,0.9996363347669975,122.26133860984277
6.123499008,0.9996865243862765,122.10445623745026
6.125786112,0.9997565247455128,121.94672792579925
6.128073216,0.9998418831623389,121.78789459254502
6.13036032,0.9999373402471956,121.62774484141508
6.132647424,1.0000368932670471,121.46619971554212
6.134934016,1.0001339633847373,121.30326502939863
6.13722112,1.0002226093503421,121.1389959986836
6.139508224,1.0002972794256146,120.97352166505605
6.141795328,1.0003531750876717,120.80715526067657
6.144082432,1.0003866065936857,120.64013905370058
6.146369536,1.0003954697046773,120.47285164869857
6.148656128,1.0003793957533837,120.30559755355732
6.150943232,1.0003391447801215,120.13881902078477
6.153230336,1.0002774405149575,119.97273930516072
6.15551744,1.0001981022921036,119.80775274826398
6.157804544,1.0001061270385276,119.64400331898115
6.160091648,1.000007332698242,119.48164821988954
6.162378752,0.9999080548558954,119.32078594375672
6.164665344,0.9998143526992525,119.1613103691299
6.166952448,0.9997325880044784,119.00315525808767
6.169239552,0.9996675539684647,118.8460723834958
6.171526656,0.9996235597170974,118.68979615712861
6.17381376,0.9996033638490268,118.5340376986104
6.176100864,0.9996083629921857,118.37838089127996
6.178387456,0.999638112347126,118.22248704427398
6.18067456,0.9996907528745494,118.06604698879175
6.182961664,0.9997630864415255,117.9086866880779
6.185248768,0.9998504027392893,117.75018035818754
6.187535872,0.9999472889691022,117.59037957653346
6.189822976,1.0000474285648038,117.42912572265735
6.192109568,1.0001446830053882,117.26649581581918
6.194396672,1.0002327648118083,117.10254757891803
6.196683776,1.000306119144451,116.93741816812468
6.19897088,1.0003601445319728,116.77135212004063
6.201257984,1.0003912581023626,116.60472041784568
6.203545088,1.0003976956686966,116.43784132994142
6.20583168,1.0003788795148272,116.2710383293587
6.208118784,1.0003359927152446,116.10471626756824
6.210405888,1.0002718184078743,115.93919033533538
6.212692992,1.0001904153034893,115.77474827287182
6.214980096,1.0000966943145944,115.61157620854341
6.2172672,0.9999969188618928,115.44981636360588
6.219553792,0.9998971462401012,115.28956149265612
6.221840896,0.9998039130229803,115.1307195870402
6.224128,0.9997230093675431,114.973132800492
6.226415104,0.999659504185289,114.81665931291447
6.228702208,0.9996176156468728,114.66095234222641
6.230989312,0.999599962191778,114.50568865311793
6.233275904,0.9996076664251539,114.35052324645966
6.235563008,0.9996400938576183,114.19508762022919
6.237850112,0.9996953497714283,114.03902641325796
6.240137216,0.999769984947345,113.88204309488862
6.24242432,0.9998591939460227,113.72390087350841
6.244711424,0.9999573567260643,113.564383478119
6.246998528,1.0000583574620923,113.40345759110434
6.24928512,1.0001555065636267,113.24112072119232
6.251572224,1.0002428620392039,113.07743127471406
6.253859328,1.000314924683445,112.91263650844536
6.256146432,1.0003670615497464,112.74692823263747
6.258433536,1.000395903517145,112.58066545847649
6.26072064,1.000399649851198,112.41416414796107
6.263007232,1.0003781046386861,112.24781050071354
6.265294336,1.0003324851962212,112.08197433550725
6.26758144,1.0002658123306214,111.916964689023
6.269868544,1.0001822728469796,111.7530665354214
6.272155648,1.0000870968759756,111.59049514372192
6.274442752,0.9999862508177507,111.42934001449706
6.276729344,0.999886232220082,111.26966228346984
6.279016448,0.9997933505683682,111.11142508757118
6.281303552,0.999713564376157,110.95444617788264
6.283590656,0.9996517840363391,110.7985468360168
6.28587776,0.9996120302047632,110.64338145133864
6.288164864,0.9995967784208953,110.48862309046096
6.290451456,0.999607155121877,110.33393438848506
6.29273856,0.9996424444289412,110.1789387823366
6.295025664,0.9997003681911016,110.0232716777314
6.297312768,0.9997772598663989,109.866637376858
6.299599872,0.9998683620307294,109.70883783043341
6.301886976,0.9999677358755611,109.54962811484805
6.304173568,1.0000693928411961,109.38900059244774
6.306460672,1.000166447112949,109.22692016879975
6.308747776,1.0002531065516878,109.06354790296525
6.31103488,1.0003236983773574,108.89903432696312
6.313321984,1.0003738058051184,108.73366869035803
6.315609088,1.0004002460931158,108.56776445223684
6.317896192,1.0004014024710608,108.40167548810024
6.320182784,1.0003771032745645,108.23574564651796
6.322469888,1.0003288321019224,108.07039057077357
6.324756992,1.000259704803139,107.90589837200052
6.327044096,1.0001739390782145,107.74255427846171
6.3293312,1.0000771837539537,107.58054249512617
6.331618304,0.9999754164588016,107.41996938831102
6.333904896,0.9998751505786501,107.26092113334943
6.336192,0.9997827223451665,107.10326050117746
6.338479104,0.9997039819762716,106.9468864276487
6.340766208,0.9996439452576517,106.791527119112
6.343053312,0.9996064509404919,106.63690454633762
6.345340416,0.9995938300248755,106.4826572100497
6.347627008,0.9996069742647249,106.32840938607221
6.349914112,0.9996450484104467,106.17382293785936
6.352201216,0.9997056526755488,106.01855590268681
6.35448832,0.9997847414430534,105.8622946305507
6.356775424,0.9998776554163206,105.7047748003842
6.359062528,0.9999783804089687,105.54585987612
6.36134912,1.0000804543655901,105.38551626143146
6.363636224,1.0001774605192713,105.22372685972223
6.365923328,1.000263250634628,105.06061831445231
6.368210432,1.0003323197001757,104.8964300869124
6.370497536,1.0003804308594089,104.73136209652934
6.37278464,1.0004044447361167,104.56580771881694
6.375071232,1.0004028278483603,104.40010861549443
6.377358336,1.0003757021971316,104.23463400266218
6.37964544,1.0003245957737275,104.06975482533313
6.381932544,1.0002530352595453,103.90575485175766
6.384219648,1.0001652269196875,103.7429636502125
6.386506752,1.000066924276523,103.58150001163372
6.388793344,0.9999643225814883,103.42155402435637
6.391080448,0.9998638083879191,103.26307736728111
6.393367552,0.9997719190789961,103.10603009515752
6.395654656,0.9996945337157128,102.95020990674925
6.39794176,0.9996362420925335,102.79540647996146
6.400228864,0.9996009828694817,102.64129771153134
6.402515968,0.9995911760065391,102.48754977419361
6.40480256,0.999607106650859,102.33378177316611
6.407089664,0.9996479436349021,102.1796050068569
6.409376768,0.9997111396561245,102.02468977378818
6.411663872,0.9997926605864319,101.86874718521644
6.413950976,0.9998872933961541,101.71151464004386
6.41623808,0.9999891747835905,101.55290458304232
6.418524672,1.0000917267528018,101.392807268478
6.420811776,1.0001885663231709,101.2312808542056
6.42309888,1.0002734301846332,101.06845260081585
6.425385984,1.0003409414061037,100.90455366373158
6.427673088,1.0003869242877392,100.73978486648065
6.429960192,1.0004084956656,100.57460416700174
6.432246784,1.0004040573124489,100.40929242730482
6.434533888,1.0003739370466747,100.244239823515
6.436820992,1.0003201381842164,100.07981719536254
6.439108096,1.000246089207524,99.91635323721103
6.4413952,1.0001561855155747,99.75405980617762
6.443682304,1.0000564651322823,99.59319008150483
6.445968896,0.9999530024434521,99.43378072153062
6.448256,0.9998524315888129,99.27592247166822
6.450543104,0.9997610910819967,99.11945952132436
6.452830208,0.9996849499287237,98.96420383951586
6.455117312,0.9996286611898393,98.80993895611151
6.457404416,0.9995958283914822,98.65635788263049
6.459691008,0.9995885988371439,98.50308323432061
6.461978112,0.999607450913674,98.34974146099097
6.464265216,0.9996512352295929,98.19595438329142
6.46655232,0.9997170539846454,98.04141058386713
6.468839424,0.9998008209613906,97.88575347034971
6.471126528,0.9998972706292727,97.7288587238049
6.473413632,1.000000244518296,97.57048782575785
6.475700224,1.000103291886014,97.410645500733
6.477987328,1.0001997815066226,97.24935857931764
6.480274432,1.0002835670898458,97.08679137883534
6.482561536,1.0003495104586528,96.92314105978684
6.48484864,1.00039329326145,96.7587259966595
6.487135744,1.000412184278489,96.59384713709582
6.489422336,1.0004049309996759,96.42891549780248
6.49170944,1.0003719703710545,96.26429658892116
6.493996544,1.0003153477978906,96.1003266602969
6.496283648,1.0002387373718271,95.93735395334963
6.498570752,1.0001469785355481,95.77561451168887
6.500857856,1.000045668849304,95.6152930397149
6.503144448,0.9999415159111268,95.45647486479453
6.505431552,0.9998409309981745,95.29918689848597
6.507718656,0.9997503437811975,95.14328340982982
6.51000576,0.9996756014257449,94.98857425616835
6.512292864,0.9996212526023449,94.8348591541335
6.514579968,0.999590942999764,94.68178339284076
6.51686656,0.9995864632187461,94.52894443611466
6.519153664,0.9996081821550606,94.37602790433897
6.521440768,0.9996547196422,94.22261472008414
6.523727872,0.9997233119877268,94.06840621152934
6.526014976,0.9998092983714533,93.91306617172441
6.52830208,0.9999074334616147,93.75641815725022
6.530588672,1.0000114431961573,93.5982919593198
6.532875776,1.0001149224347883,93.43869642964327
6.53516288,1.0002110029994409,93.27765019293435
6.537449984,1.0002938696224484,93.11533478626099
6.539737088,1.0003580542236779,92.95195397135075
6.542024192,1.0003995284103213,92.78783367007968
6.544310784,1.0004157434279433,92.62328904330215
6.546597888,1.0004055906088287,92.45872989367
6.548884992,1.000369632780545,92.29451574925552
6.551172096,1.0003102669113524,92.13100465727972
6.5534592,1.0002311774388453,91.96853665302945
6.555746304,1.0001373904000852,91.80730646242651
6.558033408,1.0000347958422027,91.64752745547824
6.56032,0.999929957317028,91.4892824773812
6.562607104,0.9998293129837689,91.33253208302244
6.564894208,0.9997395344227519,91.17720049220155
6.567181312,0.9996661879384663,91.02306012170483
6.569468416,0.9996139820893306,90.86985578507925
6.57175552,0.999586165910095,90.71725030302183
6.574042112,0.9995845558900524,90.56487149228941
6.576329216,0.9996093103229765,90.4123498468098
6.57861632,0.999658749573238,90.25931231663785
6.580903424,0.9997298346630435,90.10539637476327
6.583190528,0.9998181643326329,89.9503274954921
6.585477632,0.9999180729021965,89.79394017255721
6.587764224,1.0000231553459276,89.63605033189359
6.590051328,1.0001268309766125,89.47668816626974
6.592338432,1.0002224607869876,89.31585674076379
6.594625536,1.00030400342166,89.15378552100601
6.59691264,1.0003664581461322,88.99066223147085
6.599199744,1.0004055685737614,88.82682076692812
6.601486336,1.0004190366712133,88.66259653916646
6.60377344,1.0004058913988578,88.49840187478969
6.606060544,1.000367065808908,88.33460884778351
6.608347648,1.0003048762188225,88.17154070885341
6.610634752,1.0002232858071542,88.0095512202927
6.612921856,1.0001275425285552,87.84884078314195
6.615208448,1.000023646914955,87.68959067602474
6.617495552,0.9999181054474621,87.53190272854684
6.619782656,0.9998176740317565,87.37569800988429
6.62206976,0.9997286954274459,87.22091644844197
6.624356864,0.9996569721330675,87.06732001057834
6.626643968,0.9996068565395213,86.91461517419711
6.628931072,0.9995816524136046,86.76248106709737
6.631217664,0.9995829447249921,86.61052959993461
6.633504768,0.9996106290911249,86.45840182308885
6.635791872,0.9996631191639986,86.30568277018425
6.638078976,0.9997369222732395,86.15206990794614
6.64036608,0.999827383379981,85.9972797303146
6.642653184,0.99992888832926,85.84111918603854
6.644939776,1.0000349032609688,85.68343907022265
6.64722688,1.000138740805691,85.5242651067029
6.649513984,1.0002338667526056,85.36367763966167
6.651801088,1.000314196618708,85.20180370955346
6.654088192,1.0003746565634581,85.0389127000286
6.656375296,1.000411289401829,84.87536427408271
6.658661888,1.0004220046683365,84.7114638651095
6.660948992,1.0004058560250426,84.54761802992057
6.663236096,1.0003640274071024,84.38419970493878
6.6655232,1.0002990113667134,84.22157914779994
6.667810304,1.0002151003922695,84.06005336568973
6.670097408,1.000117312363697,83.89985550559602
6.672384,1.0000121184779969,83.74115988370235
6.674671104,0.9999060502889769,83.58400611187568
6.676958208,0.9998058385127581,83.42836588086537
6.679245312,0.9997178535614162,83.27410211281563
6.681532416,0.9996477380892625,83.12101271412476
6.68381952,0.9995998641276432,82.96881007018686
6.686106112,0.999577264079463,82.81710562766558
6.688393216,0.9995815915950286,82.66557034486819
6.69068032,0.99961230408572,82.51381221461685
6.692967424,0.999667724640255,82.36141547281636
6.695254528,0.9997441272180527,82.20807351741969
6.697541632,0.9998367903841814,82.05353990793907
6.699828224,0.9999400636466117,81.89759542952335
6.702115328,1.0000468064805879,81.74012377344862
6.704402432,1.0001508142795033,81.58114133893994
6.706689536,1.0002453435288372,81.42072749491415
6.70897664,1.0003242989600332,81.25907002608675
6.711263744,1.0003827205078604,81.09640969730965
6.713550848,1.0004170118472964,80.93310559416531
6.71583744,1.0004247569919122,80.76951984907588
6.718124544,1.0004055293480667,80.60600995732399
6.720411648,1.0003607075437522,80.4429728810466
6.722698752,1.000292926923958,80.28078421339819
6.724985856,1.0002064971134077,80.11972369390168
6.72727296,1.0001068859971582,79.96001444411846
6.729559552,1.0000004579438913,79.80183489258862
6.731846656,0.9998938822710955,79.64522368841182
6.73413376,0.9997939688601563,79.4901037280922
6.736420864,0.9997069942881514,79.33638490477155
6.738707968,0.9996386146688189,79.18379044304702
6.740995072,0.9995930623444788,79.03203483263586
6.743281664,0.9995732652731978,78.88078837146547
6.745568768,0.9995805234012032,78.7296497510591
6.747855872,0.9996143414789628,78.57821422077596
6.750142976,0.999672764287838,78.42613202373556
6.75243008,0.999751781417876,78.2730498075052
6.754717184,0.9998466707215897,78.11874131324703
6.757003776,0.9999512376099455,77.9629921707235
6.75929088,1.00005899711829,77.80570505518742
6.761577984,1.0001631102433033,77.6468927261781
6.763865088,1.0002568870532411,77.48665109127055
6.766152192,1.0003344333131545,77.32519140991846
6.768439296,1.0003907162435,77.16275542016079
6.770725888,1.0004223530182401,76.99969138332068
6.773012992,1.0004272195654742,76.83637960070541
6.775300096,1.000404933642848,76.67321829511339
6.7775872,1.0003570261593893,76.51055386028574
6.779874304,1.0002864286506117,76.3487920393007
6.782161408,1.0001974852461526,76.18819296965137
6.784448512,1.0000960382980972,76.02896010553852
6.786735104,0.9999884951453534,75.87128932762747
6.789022208,0.9998815626461681,75.71519447146943
6.791309312,0.9997819181734618,75.56060416570384
6.793596416,0.9996962051381886,75.40738071046657
6.79588352,0.9996296286895704,75.25526672245321
6.798170624,0.9995864256990676,75.10397466240921
6.800457216,0.9995695002085832,74.95314676179045
6.80274432,0.9995797887320222,74.8023740122467
6.805031424,0.9996167532170802,74.65127495426788
6.807318528,0.9996780269637733,74.49946428669833
6.809605632,0.9997598164871829,74.34663424127274
6.811892736,0.999856752288947,74.19253004193989
6.814179328,0.999962925240903,74.03693739803725
6.816466432,1.0000714364328331,73.87981864969271
6.818753536,1.0001755016276586,73.72114777627289
6.82104064,1.0002684472198535,73.56107944172373
6.823327744,1.000344428102703,73.39977846066381
6.825614848,1.0003986494987491,73.23756691245062
6.82790144,1.0004275448453706,73.07474320414062
6.830188544,1.000429390078217,72.91169029670081
6.832475648,1.0004040247961716,72.74884413685785
6.834762752,1.0003529959772135,72.58656372734976
6.837049856,1.000279579222247,72.42521145197716
6.83933696,1.000188313046823,72.26504745065742
6.841623552,1.0000851034417968,72.10630564718939
6.843910656,0.9999763739281582,71.94911413927132
6.84619776,0.9998690665187858,71.79353276158999
6.848484864,0.9997699869429783,71.6394308071622
6.850771968,0.9996854205453378,71.48670005595353
6.853059072,0.9996207255102388,71.33506621913807
6.855345664,0.9995801398498504,71.18421175909904
6.857632768,0.9995660404382902,71.03375302730409
6.859919872,0.9995794715503095,70.88335216565287
6.862206976,0.9996195635259078,70.73255091818811
6.86449408,0.9996838565534233,70.58100890642118
6.866781184,0.9997682453737476,70.42839490998406
6.869068288,0.9998672790869565,70.27445893920702
6.87135488,0.9999748972682994,70.11905220369059
6.873641984,1.000084046179158,69.96205355061994
6.875929088,1.0001880058500658,69.8035367321565
6.878216192,1.0002800214566532,69.64359429134441
6.880503296,1.0003544048881847,69.48245047176812
6.8827904,1.0004062897840527,69.32042638806774
6.885076992,1.000432481119509,69.15782826136628
6.887364096,1.0004313389245119,68.99505227888082
6.8896512,1.0004027195399225,68.83251561924156
6.891938304,1.0003485474483462,68.6705919249885
6.894225408,1.0002722526461623,68.50963134633427
6.896512512,1.0001786962244419,68.34988100831166
6.898799104,1.0000736540772353,68.19161899353217
6.901086208,0.9999639770808401,68.03493058828246
6.903373312,0.9998564111282052,67.8798094209474
6.905660416,0.999757943839172,67.72621098820365
6.90794752,0.9996747259122974,67.5739530686452
6.910234624,0.9996120050238678,67.42275515992385
6.912521216,0.9995739226255789,67.2723304742494
6.91480832,0.9995628775195897,67.12226956350314
6.917095424,0.9995794506505408,66.9721664804646
6.919382528,0.9996227293479041,66.82166077498263
6.921669632,0.9996900578018965,66.67035610901142
6.923956736,0.9997769539169374,66.51793403011534
6.926243328,0.9998781467257887,66.36416782053661
6.928530432,0.9999870445805635,66.20886970669143
6.930817536,1.0000968648385582,66.05201210627554
6.93310464,1.0002006251503581,65.89360646153715
