freq,mag,phase
6.0,0.9999172082932158,170.34692007288308
6.002287104,0.9999785916321569,170.19764813394937
6.004574208,1.0000425446929744,170.04748029608243
6.006861312,1.0001037359727416,169.89651640660855
6.009147904,1.000158434846033,169.74470497656847
6.011435008,1.0002032997125376,169.59223312261184
6.013722112,1.0002352652892796,169.4392648224971
6.016009216,1.0002524263035035,169.28596891249046
6.01829632,1.000253612595177,169.1326100814016
6.020583424,1.0002387406980926,168.97938581504675
6.022870016,1.000208558010479,168.82657647486434
6.02515712,1.000165343666672,168.67432267853994
6.027444224,1.0001115752793286,168.5228231391758
6.029731328,1.0000505820627248,168.37221718301112
6.032018432,0.9999864686045494,168.22254330725602
6.034305536,0.9999230039480197,168.0738821909184
6.036592128,0.9998643178670198,167.92615113263247
6.038879232,0.9998141953538711,167.77925229562848
6.041166336,0.9997756860294389,167.63307970461878
6.04345344,0.9997513413245085,167.48739483613832
6.045740544,0.9997428619062911,167.34200162951745
6.048027648,0.9997505016424909,167.19664715919757
6.05031424,0.9997738740004832,167.05115812263455
6.052601344,0.9998116814439818,166.905276566464
6.054888448,0.9998614579420625,166.7588011467473
6.057175552,0.9999199549489995,166.6116083707155
6.059462656,0.9999836872760971,166.4635763224542
6.06174976,1.0000484649742658,166.3146368052779
6.064036352,1.0001102955288101,166.16483337798832
6.066323456,1.0001651328814292,166.0142460758996
6.06861056,1.0002096163845922,165.86300300149935
6.070897664,1.0002409516870836,165.7112219971539
6.073184768,1.0002569628887452,165.55921895193762
6.075471872,1.0002566581508345,165.4070755218358
6.077758464,1.000240219731634,165.25513692666655
6.080045568,1.000208566142124,165.10360261419
6.082332672,1.0001636425427163,164.9526563330962
6.084619776,1.000108230459527,164.8024948771044
6.08690688,1.0000459914834545,164.65326748928456
6.089193984,0.9999807377169212,164.50498676767126
6.091481088,0.999916577916771,164.35770789303174
6.09376768,0.999857573259704,164.21137076492505
6.096054784,0.999807575214743,164.06586253824062
6.098341888,0.9997695887309839,163.92106003660376
6.100628992,0.9997462469796486,163.77676050562107
6.102916096,0.9997388117461021,163.63275856237854
6.1052032,0.9997480122544444,163.48877929414522
6.107489792,0.9997731369221758,163.3445832959492
6.109776896,0.9998126264352378,163.20001707615612
6.112064,0.9998640758988866,163.05480927875158
6.114351104,0.9999241000736051,162.90886741463527
6.116638208,0.9999890444415293,162.7620347495054
6.118925312,1.000054734324885,162.61432151405876
6.121211904,1.0001169971221289,162.46574624280282
6.123499008,1.0001718518877154,162.31639120532216
6.125786112,1.0002159983871917,162.16632391472646
6.128073216,1.0002464299553144,162.0157770347179
6.13036032,1.000261461886563,161.86496201255304
6.132647424,1.0002598224078387,161.71408698725716
6.134934016,1.000241614458118,161.56339709680304
6.13722112,1.0002082146349496,161.41313776366417
6.139508224,1.0001615596906699,161.26352741497942
6.141795328,1.0001046503219648,161.11470632672348
6.144082432,1.0000408775081866,160.96681043628962
6.146369536,0.9999745625670847,160.81992450170557
6.148656128,0.999909723742646,160.6740179055302
6.150943232,0.9998504447687053,160.52908353472145
6.153230336,0.9998006234890819,160.38498408648852
6.15551744,0.999763397377298,160.2415683081376
6.157804544,0.9997410242621351,160.0986697094839
6.160091648,0.9997349433978895,159.95600714086828
6.162378752,0.9997456920444499,159.8133693795215
6.164665344,0.9997726193372991,159.67047943138823
6.166952448,0.9998138984802997,159.5271796166116
6.169239552,0.9998670620088458,159.38326764402515
6.171526656,0.9999286161455916,159.23857523140256
6.17381376,0.9999947361476702,159.09298636998528
6.176100864,1.0000612867598273,158.94647981660876
6.178387456,1.0001239899771945,158.79907255827806
6.18067456,1.0001788883499265,158.65087238610622
6.182961664,1.00022260459634,158.5020000050242
6.185248768,1.0002522426373857,158.352677278158
6.187535872,1.0002658286663608,158.2030415008862
6.189822976,1.0002627604578347,158.053422934577
6.192109568,1.0002429308090302,157.90400040741926
6.194396672,1.0002076926236525,157.75504118848946
6.196683776,1.0001591945647574,157.60673181392764
6.19897088,1.0001006148236062,157.45925590871045
6.201257984,1.000035536252315,157.3126948315965
6.203545088,0.9999681664052669,157.16717719529157
6.20583168,0.9999027382768664,157.02267022576987
6.208118784,0.9998432290534591,156.87913534880224
6.210405888,0.9997936573592924,156.73641069477736
6.212692992,0.9997570621047323,156.59438421202967
6.214980096,0.9997358290420544,156.45283742765432
6.2172672,0.9997312681106741,156.31154568370553
6.219553792,0.999743600590298,156.17022848883553
6.221840896,0.9997724186276175,156.02867607046343
6.224128,0.999815482792519,155.88664176984759
6.226415104,0.9998701915598979,155.74394592846585
6.228702208,0.9999333991171215,155.60046374486322
6.230989312,1.0000006970031952,155.45608195935577
6.233275904,1.000068132255823,155.31074510108442
6.235563008,1.0001312352103213,155.16455824689427
6.237850112,1.0001861061552357,155.01754341658486
6.240137216,1.0002292317735464,154.8698495341644
6.24242432,1.0002578409068505,154.72171398941478
6.244711424,1.0002702383125022,154.57329327211448
6.246998528,1.000265397135216,154.424888718313
6.24928512,1.0002438815987194,154.27672329751906
6.251572224,1.000206777269973,154.12903217313786
6.253859328,1.000156532903005,153.98201075467696
6.256146432,1.0000963221301933,153.8358602739277
6.258433536,1.000029766725593,153.69066622086976
6.26072064,0.9999613126629942,153.5464963374392
6.263007232,0.9998953149350659,153.40339198058928
6.265294336,0.9998357580685737,153.2612258964373
6.26758144,0.9997863942701589,153.11989438570896
6.269868544,0.999750599946448,152.9792574679736
6.272155648,0.9997305554396516,152.83907393208293
6.274442752,0.9997274561368642,152.69910605104616
6.276729344,0.9997416667638209,152.5590869618125
6.279016448,0.9997721500555481,152.41882036575336
6.281303552,0.9998172192880515,152.278044463071
6.283590656,0.9998737811165981,152.13659553597023
6.28587776,0.9999384841366266,151.99432457529835
6.288164864,1.00000700019141,151.8511158011147
6.290451456,1.0000752043367604,151.70696130479624
6.29273856,1.0001387109757365,151.5619144505959
6.295025664,1.0001935305108134,151.41606195050872
6.297312768,1.0002359940839545,151.26954536169535
6.299599872,1.0002636693692826,151.12254969299107
6.301886976,1.0002745778821087,150.9753559089308
6.304173568,1.0002680011737535,150.82817227156517
6.306460672,1.0002446069333037,150.6812426347469
6.308747776,1.000205693112959,150.53483311575593
6.31103488,1.0001535469507425,150.38908538948743
6.313321984,1.0000916718671125,150.24425206512652
6.315609088,1.0000237515725958,150.1003668446869
6.317896192,0.9999542798080934,149.9576031292272
6.320182784,0.9998877014775898,149.81583999939994
6.322469888,0.9998279619105079,149.6750642549771
6.324756992,0.9997791909430145,149.53511251133986
6.327044096,0.9997441244611421,149.39580717497142
6.3293312,0.9997253853174924,149.25695927376645
6.331618304,0.9997239298870914,149.11829117559864
6.333904896,0.99973990198503,148.97960773785167
6.336192,0.9997723722731937,148.8405877458977
6.338479104,0.9998193965648802,148.70107613014832
6.340766208,0.9998779165536973,148.56082077087783
6.343053312,0.9999440135981053,148.4197565652601
6.345340416,1.0000138356067383,148.27771377114036
6.347627008,1.0000827291706655,148.13472006675897
6.349914112,1.0001464919800631,147.99081671792226
6.352201216,1.0002012036225651,147.84609321745933
6.35448832,1.0002430286232333,147.70071706962048
6.356775424,1.0002695287248107,147.55490943843643
6.359062528,1.0002788805933664,147.40886936325714
6.36134912,1.000270696828265,147.26285302438617
6.363636224,1.0002453152965298,147.11716120059432
6.365923328,1.0002043542591328,146.97198985951104
6.368210432,1.0001502583137942,146.82754786011643
6.370497536,1.0000865565561838,146.6840224405287
6.37278464,1.0000172677587784,146.54150815472636
6.375071232,0.9999469218097591,146.40003180523323
6.377358336,0.9998796481585529,146.25960764239645
6.37964544,0.9998200568727867,146.1202049914564
6.381932544,0.9997716587994533,145.98160873987106
6.384219648,0.9997376128211062,145.8436689655874
6.386506752,0.9997201997083064,145.70611940878618
6.388793344,0.9997204438405539,145.56882197777398
6.391080448,0.9997383542680705,145.4313823805456
6.393367552,0.9997729014206569,145.29361181294496
6.395654656,0.9998218180877494,145.155311906746
6.39794176,0.9998820752412295,145.01624702181277
6.400228864,0.9999498149808803,144.87631606719114
6.402515968,1.0000208049192256,144.73544174916856
6.40480256,1.0000905431459246,144.593549604026
6.407089664,1.0001546171499205,144.45077972610912
6.409376768,1.0002087886388722,144.30718944638764
6.411663872,1.0002500338980747,144.16293475342715
6.413950976,1.000275132080765,144.01824710199807
6.41623808,1.0002831350011525,143.8733597302558
6.418524672,1.0002729787483016,143.7285572144565
6.420811776,1.0002454734179878,143.58407757085308
6.42309888,1.0002023838574698,143.4401166871518
6.425385984,1.0001464105409235,143.2969683673538
6.427673088,1.0000811666597496,143.15473479886109
6.429960192,1.0000105458839539,143.01352037026535
6.432246784,0.999939214548768,142.87338894033553
6.434533888,0.9998714937044688,142.73431948024364
6.436820992,0.9998119178004784,142.5962552387702
6.439108096,0.999764023994342,142.45899848307639
6.4413952,0.9997311541154814,142.3223647986475
6.443682304,0.9997151233797987,142.1861584599708
6.445968896,0.9997171183175773,142.05009446265706
6.448256,0.9997371320501949,141.91392383455602
6.450543104,0.9997737397306082,141.77741000510483
6.452830208,0.9998247172437691,141.64029940102046
6.455117312,0.9998867419267945,141.5024031124256
6.457404416,0.9999560588923733,141.3635966259811
6.459691008,1.0000283091923947,141.22382532329723
6.461978112,1.00009880732062,141.08305606991186
6.464265216,1.0001630201814755,140.94135658053963
6.46655232,1.0002169168070831,140.7988423233804
6.468839424,1.0002570866201792,140.65572705214024
6.471126528,1.000281067317419,140.51215394407478
6.473413632,1.0002872032163879,140.3684105366723
6.475700224,1.0002751459199144,140.2247592767862
6.477987328,1.000245690792568,140.08146604616255
6.480274432,1.0002003460916344,139.93874016631003
6.482561536,1.0001423547981467,139.79684639771588
6.48484864,1.0000753260901873,139.65586543657537
6.487135744,1.000003349768922,139.51596266522404
6.489422336,0.9999310450126631,139.3771532604363
6.49170944,0.9998628751504925,139.23943387775904
6.493996544,0.9998033313561807,139.1026558320572
6.496283648,0.9997562262284828,138.96671923987728
6.498570752,0.9997243295108015,138.83141411410003
6.500857856,0.9997100392681317,138.69647048447771
6.503144448,0.999713921194454,138.56167958136336
6.505431552,0.9997360047527806,138.42673084264186
6.507718656,0.9997747402545407,138.2914134942286
6.51000576,0.9998278353904889,138.1554531304709
6.512292864,0.9998917330040392,138.01870875564396
6.514579968,0.9999626793821765,137.8810260440328
6.51686656,1.0000360140920974,137.74234309290637
6.519153664,1.0001070653779656,137.60267282960297
6.521440768,1.0001714749994444,137.4620513365592
6.523727872,1.0002250284289167,137.32060364275915
6.526014976,1.0002642557304857,137.1785255078123
6.52830208,1.000286853484011,137.03604197736823
6.530588672,1.0002911946431925,136.89344780126567
6.532875776,1.000277111418702,136.7509447440524
6.53516288,1.0002453792016448,136.60883917567998
6.537449984,1.0001979772453091,136.4673274493917
6.539737088,1.0001379518740194,136.32662016909913
6.542024192,1.000069018160824,136.1868975479188
6.544310784,0.9999958597873262,136.04830231603657
6.546597888,0.9999225349154892,135.91078481936316
6.548884992,0.9998541337552013,135.77434518849168
6.551172096,0.9997947607902838,135.63889760704666
6.5534592,0.9997482255160635,135.50425957345308
6.555746304,0.9997178196008748,135.37024353686988
6.558033408,0.9997050484462857,135.23658920451354
6.56032,0.9997110385969163,135.1030226034614
6.562607104,0.9997351914495208,134.9692848034469
6.564894208,0.9997761908542845,134.83515028391867
6.567181312,0.9998313318370412,134.7003199992185
6.569468416,0.9998973457103054,134.5646720077977
6.57175552,0.9999698116694765,134.42804334858718
6.574042112,1.0000442986142644,134.2904473854675
6.576329216,1.0001159338632195,134.1518053045634
6.57861632,1.0001804425588783,134.01219793732324
6.580903424,1.000233404540169,133.87184354185302
6.583190528,1.0002715985652142,133.73081444536965
6.585477632,1.0002925751849054,133.58941641011668
6.587764224,1.0002951619939828,133.4479050628547
6.590051328,1.0002788184455484,133.306531641683
6.592338432,1.0002448324145705,133.16551671282724
6.594625536,1.000195246265875,133.0252353935158
6.59691264,1.0001332508609282,132.88575255245107
6.599199744,1.0000625029125165,132.74730034336784
6.601486336,0.9999878820747271,132.60994450509253
6.60377344,0.999913665117828,132.473701284476
6.606060544,0.9998449680841324,132.33854077487896
6.608347648,0.9997859437875987,132.20438476462928
6.610634752,0.9997403129627206,132.071042256112
6.612921856,0.9997111601530583,131.9382713271619
6.615208448,0.9997001299247467,131.80583416040875
6.617495552,0.9997082326544102,131.67349153493174
6.619782656,0.9997347379840499,131.54093084411653
6.62206976,0.9997779961718131,131.4079155188107
6.624356864,0.9998353259177583,131.27422113428892
6.626643968,0.9999031804335746,131.1396353771237
6.628931072,0.999977407210115,131.00408921791663
6.631217664,1.0000527976686906,130.86748761911736
6.633504768,1.000125212828149,130.72986554095883
6.635791872,1.0001894420673514,130.59129448513704
6.638078976,1.0002418705605538,130.45190357797776
6.64036608,1.0002789032212949,130.31193869926238
6.642653184,1.00029839892171,130.17157572673193
6.644939776,1.000298804995027,130.03111107415344
6.64722688,1.0002803563320286,129.89082784628866
6.649513984,1.0002440168680784,129.75102552020869
6.651801088,1.0001921350398504,129.6118519029079
6.654088192,1.0001279134887746,129.4735872287
6.656375296,1.0000554948247042,129.33633484969278
6.658661888,0.9999795577267239,129.20022314526494
6.660948992,0.9999046053120866,129.065258391962
6.663236096,0.9998356756590656,128.93138945110925
6.6655232,0.9997769654995768,128.79847997434615
6.667810304,0.9997323409665586,128.66638139625005
6.670097408,0.9997044581795476,128.5348637544346
6.672384,0.9996954201989283,128.40363371854846
6.674671104,0.9997056389375163,128.27246024661918
6.676958208,0.9997345966397209,128.14104746201522
6.679245312,0.9997802354505382,128.0091270462892
6.681532416,0.9998398147890388,127.87650966880935
6.68381952,0.9999097012379956,127.74298084527965
6.686106112,0.9999852561122756,127.6084650491351
6.688393216,1.0000617865880825,127.47283993798152
6.69068032,1.0001346054890712,127.33620466031803
6.692967424,1.0001987562662409,127.1986196131345
6.695254528,1.0002504827110223,127.06023979268502
6.697541632,1.0002863132812538,126.92124733921723
6.699828224,1.0003040192830006,126.78189142464194
6.702115328,1.0003024087866095,126.64249729452017
6.704402432,1.0002815189546272,126.50330529762
6.706689536,1.000242759598292,126.36458522865416
6.70897664,1.0001885169156683,126.22656060413644
6.711263744,1.0001221997271408,126.0894585739118
6.713550848,1.0000480087507262,125.95344007521713
6.71583744,0.9999707178793933,125.8185468106404
6.718124544,0.9998951359010193,125.68480883971944
6.720411648,0.9998258595581954,125.55218340091444
6.722698752,0.9997677472274903,125.42051504007543
6.724985856,0.999724145111507,125.28965042560982
6.72727296,0.9996979510851824,125.15934004333761
6.729559552,0.9996908772608158,125.02928913870566
6.731846656,0.9997033529282308,124.899273662216
6.73413376,0.9997345708139974,124.76897072514056
6.736420864,0.9997827376374694,124.63812723558226
6.738707968,0.9998446461182103,124.50655486576927
6.740995072,0.9999164858626246,124.374034756817
6.743281664,0.9999935790351204,124.24047639733212
6.745568768,1.0000711888593354,124.10584746381274
6.747855872,1.0001443239393262,123.97015197403078
6.750142976,1.000208395349254,123.8335113913632
6.75243008,1.000259290735144,123.69607485808001
6.754717184,1.0002936304740309,123.55806687859842
6.757003776,1.0003095492031806,123.41973311720932
6.75929088,1.0003056334135347,123.28133631784853
6.761577984,1.0002824635586312,123.1432048692106
6.763865088,1.0002411819110977,123.00555903874613
6.766152192,1.000184620797334,122.86865343142597
6.768439296,1.0001161428221603,122.73270699805188
6.770725888,1.0000401593844221,122.59786038541716
6.773012992,0.9999615623332396,122.46419388835707
6.775300096,0.9998851949720821,122.33167864691362
6.7775872,0.9998159156343049,122.20023154849366
6.779874304,0.9997583391037876,122.06982562065396
6.782161408,0.9997158787353648,121.94012513856421
6.784448512,0.9996912639880517,121.81098711286785
6.786735104,0.9996863266685596,121.68212585356194
6.789022208,0.9997011956806204,121.55319785806782
6.791309312,0.9997348562221314,121.42398974329467
6.793596416,0.9997856246015796,121.29420821528446
6.79588352,0.9998497114679261,121.16362583262283
6.798170624,0.9999236420728523,121.03207944823016
6.800457216,1.0000022091748169,120.89948839601828
6.80274432,1.000080739412532,120.76579925284408
6.805031424,1.0001543278334226,120.6310198403723
6.807318528,1.0002181008261666,120.49529290143613
6.809605632,1.0002680164876625,120.35878117934192
6.811892736,1.0003010437673967,120.22171319121658
6.814179328,1.0003148628102083,120.08434209771332
6.816466432,1.000308812510976,119.94693841897157
6.818753536,1.00028307363804,119.80980611050659
6.82104064,1.0002392104986588,119.67321422675899
6.823327744,1.000180220016522,119.5374436744479
6.825614848,1.0001094836641025,119.40261231274822
6.82790144,1.0000318079242672,119.2689247236637
6.830188544,0.999951934047577,119.13644457420516
6.832475648,0.9998750911059372,119.00509931720818
6.834762752,0.9998057089989204,118.87489747970254
6.837049856,0.9997487465129163,118.74564235560445
6.83933696,0.9997076247099246,118.61712461137874
6.841623552,0.9996848898914031,118.48913376257617
6.843910656,0.9996821193533074,118.36138289158127
6.84619776,0.9996995033240591,118.23354851743659
6.848484864,0.9997357902352609,118.10539363984728
6.850771968,0.9997888384733179,117.97663156282839
6.853059072,0.999855553859697,117.84701254356528
6.855345664,0.9999312429178776,117.71643695475889
6.857632768,1.0000113778430728,117.58472319872087
6.859919872,1.0000909373117897,117.45191845020034
6.862206976,1.000164703971445,117.31805357121692
6.86449408,1.0002280648895605,117.18320199466034
6.866781184,1.0002770022611307,117.04757016049156
6.869068288,1.0003083348568518,116.91140005778553
6.87135488,1.000320216208095,116.77496665132541
6.873641984,1.000311726529122,116.63854069936563
6.875929088,1.0002832191237647,116.5024291726202
6.878216192,1.0002368123560827,116.36687246642032
6.880503296,1.0001752995711137,116.23215675145956
6.8827904,1.0001024417655329,116.0984634314796
6.885076992,1.0000231029986468,115.96590649355664
6.887364096,0.9999420359049334,115.83454451209732
6.8896512,0.999864433345487,115.70440541487554
6.891938304,0.9997954023903377,115.57535172520082
6.894225408,0.9997391197745503,115.44722915771763
6.896512512,0.9996992486399434,115.31990011198324
6.898799104,0.9996785390464702,115.19304258875015
6.901086208,0.9996780547346721,115.06637305376175
6.903373312,0.9996979586630741,114.93960542935628
6.905660416,0.9997369806479105,114.81244963211087
6.90794752,0.9997927631767829,114.68463733451533
6.910234624,0.9998616297482855,114.55596668403824
6.912521216,0.9999395121833519,114.42627134337161
6.91480832,1.000020981785322,114.29548067682369
6.917095424,1.000101450445464,114.16350182598056
6.919382528,1.00017538904844,114.03047705761287
6.921669632,1.0002383009246596,113.89647961506408
6.923956736,1.000286044287856,113.76172953010578
