freq,mag,phase
6.0,0.9992421430201203,-123.07560638991329
6.002287104,0.9993399510289888,-123.2053262067525
6.004574208,0.9994802541600236,-123.33674761253404
6.006861312,0.9996538914178815,-123.4704912884394
6.009147904,0.9998497330052509,-123.60689192640665
6.011435008,1.00005555339465,-123.74620263930363
6.013722112,1.0002580455301797,-123.88853739240905
6.016009216,1.000444653227113,-124.03365201338161
6.01829632,1.0006034966107469,-124.18131543886994
6.020583424,1.0007243373671366,-124.33100311488792
6.022870016,1.000799832759511,-124.48210892739003
6.02515712,1.000824883529255,-124.63393879579543
6.027444224,1.0007981271728195,-124.78574395832165
6.029731328,1.000721072563404,-124.93682671926716
6.032018432,1.000598515861254,-125.08647577192855
6.034305536,1.0004385259204234,-125.23403917564187
6.036592128,1.0002509072096364,-125.37911481784103
6.038879232,1.0000474820073662,-125.5213556512012
6.041166336,0.9998414388117061,-125.6605968301482
6.04345344,0.9996456257406485,-125.79691489097962
6.045740544,0.9994724500566697,-125.93057582252469
6.048027648,0.999332981747547,-126.06195648845643
6.05031424,0.9992360247424895,-126.19158138496651
6.052601344,0.999187786342,-126.32019444709776
6.054888448,0.9991914344075592,-126.44844117486058
6.057175552,0.9992465862174611,-126.577159308496
6.059462656,0.9993498673305853,-126.70697482158127
6.06174976,0.9994946773781054,-126.83865354804269
6.064036352,0.9996719334287072,-126.97262329588406
6.066323456,0.9998702452228447,-127.10933368820508
6.06861056,1.000077149986419,-127.24904569859562
6.070897664,1.0002796325969021,-127.39166668775123
6.073184768,1.0004646774370634,-127.53714575421833
6.075471872,1.0006205785139664,-127.68510163323674
6.077758464,1.0007376026877663,-127.83498810828742
6.080045568,1.000808252541624,-127.98628688983645
6.082332672,1.0008280575190471,-128.13823175350612
6.084619776,1.000795799518523,-128.29008002343716
6.08690688,1.0007133016205048,-128.44113255104463
6.089193984,1.0005860464258234,-128.59061592811486
6.091481088,1.0004218015545232,-128.73801320095572
6.09376768,1.0002311333316725,-128.8828658674412
6.096054784,1.0000260385086646,-129.02478790451806
6.098341888,0.9998194842403362,-129.1637341304271
6.100628992,0.9996245511928036,-129.2997569493366
6.102916096,0.9994536137485666,-129.4331525654068
6.1052032,0.9993176772731482,-129.5642784736838
6.107489792,0.9992252148873915,-129.6937303922615
6.109776896,0.9991821122894885,-129.82221975469304
6.112064,0.999191155037398,-129.95042695031796
6.114351104,0.9992518233909727,-130.07919124891902
6.116638208,0.9993603236207006,-130.20913667123776
6.118925312,0.9995095155147701,-130.34099376101048
6.121211904,0.999690413235952,-130.47520599138008
6.123499008,0.9998911225679638,-130.61221022983514
6.125786112,1.0000991147215152,-130.75221857179375
6.128073216,1.0003011871407248,-130.89514677166173
6.13036032,1.0004845750071618,-131.04090073413454
6.132647424,1.0006374967002776,-131.1891585649939
6.134934016,1.0007505355220707,-131.33925706909056
6.13722112,1.0008163024830263,-131.49070422223133
6.139508224,1.0008307231507545,-131.64273931677363
6.141795328,1.0007929197709682,-131.79455718499884
6.144082432,1.000705166948532,-131.94547679387847
6.146369536,1.0005729811156434,-132.09487100229344
6.148656128,1.0004048041333848,-132.24200587398406
6.150943232,1.0002110711239351,-132.3865482452696
6.153230336,1.0000043523712225,-132.52816356337877
6.15551744,0.9997975134829064,-132.66679313379876
6.157804544,0.999603751727898,-132.80250217490675
6.160091648,0.9994352199070119,-132.93556423536197
6.162378752,0.9993028000294972,-133.06641592797445
6.164665344,0.9992148238987963,-133.1956629427646
6.166952448,0.9991769674228034,-133.32401867530743
6.169239552,0.9991915726451066,-133.45217412926948
6.171526656,0.9992577218766662,-133.58090865499793
6.17381376,0.9993712954454833,-133.71099021509772
6.176100864,0.9995250330309677,-133.84300324632136
6.178387456,0.9997092269683574,-133.97745292836257
6.18067456,0.9999122255484051,-134.1147287422714
6.182961664,1.0001211214095325,-134.25495210900277
6.185248768,1.0003227882972272,-134.3982272144489
6.187535872,1.0005042684037853,-134.54425557390593
6.189822976,1.0006541676826177,-134.6926653106884
6.192109568,1.0007630162575654,-134.84298378078574
6.194396672,1.0008238740452926,-134.9945276592397
6.196683776,1.0008329188618847,-135.1465818038903
6.19897088,1.0007895195143661,-135.29838204296857
6.201257984,1.0006963591643814,-135.44917741470428
6.203545088,1.0005593313463892,-135.59832627040794
6.20583168,1.0003872164216663,-135.74523113177804
6.208118784,1.0001907038625901,-135.88940978900578
6.210405888,0.9999824416204305,-136.03068969665392
6.212692992,0.9997753743883195,-136.16896033136518
6.214980096,0.9995827147997806,-136.30427496241475
6.2172672,0.9994168555489756,-136.43698314484405
6.219553792,0.999288145406699,-136.56760570844628
6.221840896,0.9992048777725261,-136.69658980683627
6.224128,0.9991721507692228,-136.82479346802202
6.226415104,0.9991922953955272,-136.95287017696893
6.228702208,0.9992640006501758,-137.0816178897368
6.230989312,0.9993826789004633,-137.21172875595195
6.233275904,0.9995408427239832,-137.34387230668995
6.235563008,0.9997284412162089,-137.47852957641223
6.237850112,0.9999335735232989,-137.6160341843518
6.240137216,1.0001432744864338,-137.75653789952193
6.24242432,1.0003443048106035,-137.90004095829497
6.244711424,1.0005238391794564,-138.04630602731012
6.246998528,1.000670496570661,-138.1949323492766
6.24928512,1.0007750719370962,-138.34536692170175
6.251572224,1.000830971104096,-138.49699074039492
6.253859328,1.0008344319451656,-138.64902874734858
6.256146432,1.0007854271755443,-138.8007396355433
6.258433536,1.0006869350102507,-138.951362278153
6.26072064,1.000545258225855,-139.10026899760754
6.263007232,1.0003692290656288,-139.24684537186303
6.265294336,1.000170060926824,-139.39068751721484
6.26758144,0.9999602734072816,-139.53158153550064
6.269868544,0.999753276989437,-139.66941795488347
6.272155648,0.9995620240538344,-139.8043800408764
6.274442752,0.9993988415952059,-139.93673731384553
6.276729344,0.9992738841100799,-140.06701198471723
6.279016448,0.9991952806598974,-140.1957496153449
6.281303552,0.9991680015857946,-140.32375949340673
6.283590656,0.9991937648994638,-140.4517506547893
6.28587776,0.999270931450092,-140.58045795161632
6.288164864,0.9993946534808161,-140.71062848082144
6.290451456,0.9995571886319923,-140.84288799986743
6.29273856,0.999748069153327,-140.9777076608788
6.295025664,0.9999552172573811,-141.11542818570635
6.297312768,1.0001656030350459,-141.25615262828248
6.299599872,1.0003658486716849,-141.3998649191152
6.301886976,1.0005432756001267,-141.5463312705563
6.304173568,1.0006866098073044,-141.69511700129183
6.306460672,1.0007868233822872,-141.8456866449197
6.308747776,1.0008374920894343,-141.99732424778094
6.31103488,1.0008355826245188,-142.1492979084163
6.313321984,1.0007809300582147,-142.3008727769285
6.315609088,1.0006770836688523,-142.45130697557778
6.317896192,1.0005306888377818,-142.5999115570913
6.320182784,1.0003508337517877,-142.7461603481701
6.322469888,1.0001490475472627,-142.88961784410938
6.324756992,0.9999379737129432,-143.03006319674517
6.327044096,0.9997309668133033,-143.1674960913504
6.3293312,0.999541251440811,-143.30200512594232
6.331618304,0.9993808742132081,-143.43396553281386
6.333904896,0.9992598583795534,-143.5638918562373
6.336192,0.9991861465726525,-143.69237662854644
6.338479104,0.9991642822498602,-143.82016711913337
6.340766208,0.9991957459140508,-143.94801527391562
6.343053312,0.9992784211020854,-144.0766866751415
6.345340416,0.9994072279821599,-144.20688321414025
6.347627008,0.9995739828359916,-144.3392141938075
6.349914112,0.9997679925928605,-144.47417292653006
6.352201216,0.9999771124774766,-144.61206938117283
6.35448832,1.0001880628876816,-144.75302081849665
6.356775424,1.0003873568837014,-144.89693370748205
6.359062528,1.0005625234695261,-145.04355534232428
6.36134912,1.0007024951914534,-145.19248635509786
6.363636224,1.0007981621568407,-145.3430830365274
6.365923328,1.0008436352941301,-145.49471920381595
6.368210432,1.0008360593921728,-145.64664805469815
6.370497536,1.0007757885581032,-145.79806112506435
6.37278464,1.000666734776309,-145.94824359241815
6.375071232,1.000515634661643,-146.0965133261894
6.377358336,1.0003320076822095,-146.24237666296128
6.37964544,1.0001276871581306,-146.38540432688222
6.381932544,0.9999154627752154,-146.52542350622176
6.384219648,0.9997087429261481,-146.66237196799034
6.386506752,0.9995206213484895,-146.79641326914316
6.388793344,0.9993631661745742,-146.92795414386126
6.391080448,0.9992463292970254,-147.05751378058994
6.393367552,0.9991774874708075,-147.1856670051735
6.395654656,0.9991611560539683,-147.31321779247304
6.39794176,0.999198215810977,-147.4409438902337
6.400228864,0.9992864597898629,-147.5695298233512
6.402515968,0.9994202328844108,-147.69973401775997
6.40480256,0.9995911626732495,-147.83214604130157
6.407089664,0.999788356112943,-147.96724493655543
6.409376768,0.9999992612190887,-148.105287731107
6.411663872,1.0002105644331,-148.2463926597823
6.413950976,1.0004088921360799,-148.3904657712424
6.41623808,1.0005816755520458,-148.53725356124065
6.418524672,1.0007179490773663,-148.6862641337634
6.420811776,1.000809031293279,-148.83688761942977
6.42309888,1.0008491977461251,-148.98848635540566
6.425385984,1.0008360256372288,-149.1402852822344
6.427673088,1.0007700636332526,-149.29149787896176
6.429960192,1.0006556555737003,-149.4413910118005
6.432246784,1.00049993128398,-149.58933437895882
6.434533888,1.0003127306708408,-149.73474739880996
6.436820992,1.0001059423705583,-149.87732737523075
6.439108096,0.9998926521310151,-150.0168387499414
6.4413952,0.9996862682746792,-150.15327040180878
6.443682304,0.9994999717375078,-150.28686170612326
6.445968896,0.9993456811597922,-150.41797758008974
6.448256,0.9992330418191065,-150.54711739795954
6.450543104,0.9991692488796796,-150.67496505321046
6.452830208,0.9991583944809653,-150.8022647275927
6.455117312,0.9992012666917502,-150.92976699146715
6.457404416,0.9992950654836374,-151.05827424125076
6.459691008,0.9994338871234291,-151.18845864144893
6.461978112,0.9996088952867556,-151.32091485142266
6.464265216,0.999809092753856,-151.45610084812165
6.46655232,1.0000216471271817,-151.59430972951327
6.468839424,1.000233250461605,-151.73555925362396
6.471126528,1.0004304090281375,-151.8797583478676
6.473413632,1.0006005877335589,-152.02665443451244
6.475700224,1.000733112384815,-152.17570920334705
6.477987328,1.0008195550035417,-152.32637127035278
6.480274432,1.0008543679019168,-152.47784152139386
6.482561536,1.0008353847448148,-152.62949847580668
6.48484864,1.0007637921353878,-152.7805000011405
6.487135744,1.0006440811816135,-152.93002755181558
6.489422336,1.0004837693324624,-153.07758695795613
6.49170944,1.0002931048598442,-153.22257860854677
6.493996544,1.0000839478509924,-153.36463430562077
6.496283648,0.9998696782140782,-153.50360276628462
6.498570752,0.9996638723048932,-153.63955398511277
6.500857856,0.9994795880545306,-153.7726287026769
6.503144448,0.9993285542413544,-153.9032367434961
6.505431552,0.999220202090038,-154.03194431530932
6.507718656,0.9991615678940011,-154.15945127460816
6.51000576,0.9991563866771958,-154.2864511808196
6.512292864,0.9992050191440761,-154.41379982129172
6.514579968,0.9993042955982101,-154.54219767276064
6.51686656,0.9994481061981618,-154.67234856580822
6.519153664,0.9996271505714553,-154.8048318125295
6.521440768,0.9998302096187872,-154.94007492266888
6.523727872,1.0000444410556197,-155.07838828248248
6.526014976,1.0002560822290734,-155.21975460969614
6.52830208,1.0004519404603012,-155.36410230132068
6.530588672,1.0006194675777564,-155.51102274364717
6.532875776,1.0007480568486993,-155.66012627631358
6.53516288,1.0008296879420189,-155.810733859272
6.537449984,1.0008590075696933,-155.96215736527725
6.539737088,1.00083425965282,-156.11358476372044
6.542024192,1.0007569364676185,-156.2642795569718
6.544310784,1.0006319170235098,-156.41351946075608
6.546597888,1.0004671336526587,-156.56062973479487
6.548884992,1.0002729926676974,-156.70509432833975
6.551172096,1.0000616401368778,-156.84660581511775
6.5534592,0.9998466703296809,-156.98505812471657
6.555746304,0.9996415072922489,-157.12042057549974
6.558033408,0.9994593033228871,-157.2529579390861
6.56032,0.9993115539531495,-157.3831190092264
6.562607104,0.9992076845850851,-157.51134986519494
6.564894208,0.9991542876748555,-157.63846172852428
6.567181312,0.9991548707194751,-157.7652079407172
6.569468416,0.9992093301840675,-157.89233081917948
6.57175552,0.9993141934559533,-158.0205563431432
6.574042112,0.9994628708713595,-158.15066992914893
6.576329216,0.9996459716391506,-158.28316098955852
6.57861632,0.9998517860353314,-158.41849066281318
6.580903424,1.0000673536222904,-158.55686269016297
6.583190528,1.0002790918572175,-158.69833170210836
6.585477632,1.0004733937937722,-158.84273948783215
6.587764224,1.0006380565119506,-158.98973347722938
6.590051328,1.000762629581345,-159.1388313844391
6.592338432,1.0008393155612045,-159.28936551607936
6.594625536,1.0008630907944496,-159.44063009257695
6.59691264,1.0008324744078985,-159.59186634477393
6.599199744,1.0007494399592143,-159.74224145495714
6.601486336,1.000619131632166,-159.89105610335534
6.60377344,1.0004498615283857,-160.03769747380824
6.606060544,1.0002522995984915,-160.18166858937116
6.608347648,1.0000389581891138,-160.32263358184713
6.610634752,0.9998232706034169,-160.46046972441818
6.612921856,0.9996189440788151,-160.59522618555616
6.615208448,0.9994389503964223,-160.7272337851882
6.617495552,0.9992947803126432,-160.85680073452602
6.619782656,0.9991955756519688,-160.98460892468987
6.62206976,0.9991475156082292,-161.11134458180652
6.624356864,0.9991538394325999,-161.2377383472809
6.626643968,0.9992141250519117,-161.36461586476733
6.628931072,0.9993245658482853,-161.4927370720587
6.631217664,0.999478147885604,-161.62276563336658
6.633504768,0.9996651617059671,-161.7552664745642
6.635791872,0.9998736658724245,-161.8906016423636
6.638078976,1.0000906115538295,-162.02902562918305
6.64036608,1.0003020454127864,-162.17056878326167
6.642653184,1.0004947170469691,-162.3150222649934
6.644939776,1.0006564549922259,-162.4620640743425
6.64722688,1.0007768527625045,-162.6111051585901
6.649513984,1.0008484066991523,-162.76156157310206
6.651801088,1.00086649897478,-162.91263415199987
6.654088192,1.0008301353926339,-163.06359088944382
6.656375296,1.0007412529378292,-163.2136143246306
6.658661888,1.000605747150116,-163.3620037594048
6.660948992,1.0004320812641285,-163.50814615982338
6.663236096,1.0002312079145546,-163.65154625733905
6.6655232,1.0000159122855967,-163.7919237025772
6.667810304,0.9997996856628768,-163.92915015474856
6.670097408,0.9995963425492866,-164.06329579604989
6.672384,0.9994188199986876,-164.19468059955548
6.674671104,0.9992783173905257,-164.32377033530548
6.676958208,0.9991838273236481,-164.45107607684312
6.679245312,0.9991413195406262,-164.57739085139056
6.681532416,0.999153494108462,-164.70343946979145
6.68381952,0.9992196726699395,-164.83007001695034
6.686106112,0.9993357113984419,-164.9580291453712
6.688393216,0.9994941023738473,-165.08792516028777
6.69068032,0.9996849245881971,-165.22039327364698
6.692967424,0.9998961542493183,-165.3557610248477
6.695254528,1.0001141503987703,-165.4942293870911
6.697541632,1.0003253116402555,-165.63582857714323
6.699828224,1.000516128587637,-165.780315180489
6.702115328,1.0006747534692173,-165.92734745205362
6.704402432,1.0007908434090462,-166.07634457707582
6.706689536,1.0008571449618306,-166.22664669694558
6.70897664,1.0008694808097833,-166.3775248522611
6.711263744,1.0008270453425414,-166.52817649176507
6.713550848,1.0007324564826081,-166.6778093276807
6.71583744,1.0005917371750785,-166.82571863498907
6.718124544,1.000413728003299,-166.971344672236
6.720411648,1.0002096409458539,-167.11416182008682
6.722698752,0.9999924451456429,-167.2539130759743
6.724985856,0.9997759524110478,-167.39046820897346
6.72727296,0.9995737277262893,-167.52401860306833
6.729559552,0.99939878099241,-167.65474464299052
6.731846656,0.9992621179934961,-167.78321547747666
6.73413376,0.9991723901789572,-167.9100473638277
6.736420864,0.9991355380963577,-168.03592084062748
6.738707968,0.9991536449493775,-168.16163208567338
6.740995072,0.9992258157837598,-168.28800920851083
6.743281664,0.9993473636048494,-168.41576890127766
6.745568768,0.999510591651582,-168.5455671361677
6.747855872,0.9997052116797898,-168.6779658362804
6.750142976,0.9999188723008483,-168.81334773248983
6.75243008,1.0001378877950629,-168.95183711894242
6.754717184,1.0003486741755339,-169.0934543388447
6.757003776,1.0005375416975073,-169.23797092810983
6.75929088,1.0006927437525053,-169.38497111154464
6.761577984,1.0008044493177624,-169.53386396808187
6.763865088,1.0008654635665541,-169.68400367535898
6.766152192,1.000871907004519,-169.834619967545
6.768439296,1.0008234620973566,-169.98494110209384
6.770725888,1.0007230889249208,-170.13416451509926
6.773012992,1.0005771184245955,-170.281602907073
6.775300096,1.0003948791971835,-170.42663346574082
6.7775872,1.0001876421789206,-170.56881604446002
6.779874304,0.9999687959337155,-170.70790969932335
6.782161408,0.9997519943940122,-170.84379535114152
6.784448512,0.9995511363442073,-170.97664607762948
6.786735104,0.9993788398421043,-171.10675692609846
6.789022208,0.9992461925441531,-171.23464752675665
6.791309312,0.9991616062712789,-171.36094242068168
6.793596416,0.9991303561344361,-171.48637124777784
6.79588352,0.999154541091132,-171.61172251802148
6.798170624,0.9992327059582369,-171.7378083361093
6.800457216,0.9993598027819706,-171.86536318137965
6.80274432,0.9995278493062604,-171.99506686888384
6.805031424,0.9997260510016559,-172.1274180435994
6.807318528,0.9999420209488689,-172.26274085493299
6.809605632,1.0001620088271097,-172.40125479194623
6.811892736,1.0003720298883614,-172.54286268164088
6.814179328,1.0005588420699598,-172.68735546830692
6.816466432,1.000710609416473,-172.83426192242712
6.818753536,1.000817662470364,-172.98305194678844
6.82104064,1.0008731710682388,-173.1330065896437
6.823327744,1.0008737770391465,-173.28338139705627
6.825614848,1.0008192724152762,-173.433320629612
6.82790144,1.0007130517265383,-173.5820995777281
6.830188544,1.0005618495732511,-173.72899344878792
6.832475648,1.0003753617539728,-173.87341473420906
6.834762752,1.0001651731722527,-174.01495934990936
6.837049856,0.9999446720025673,-174.15334431714885
6.83933696,0.9997279426515082,-174.28854332854775
6.841623552,0.9995285080562547,-174.4207139560555
6.843910656,0.9993591374286179,-174.5501566047463
6.84619776,0.9992307002774864,-174.67744777775536
6.848484864,0.9991512050058716,-174.80317420244006
6.850771968,0.9991257944957656,-174.92813016307866
6.853059072,0.999156100412078,-175.05309782716748
6.855345664,0.9992402094187076,-175.1789106565051
6.857632768,0.9993728313163515,-175.30622023350438
6.859919872,0.9995455292404322,-175.4357817853094
6.862206976,0.9997474411008624,-175.5680732103254
6.86449408,0.9999656564189817,-175.70338064168746
6.866781184,1.0001863173752563,-175.8418457160879
6.869068288,1.0003956871356876,-175.98344897003906
6.87135488,1.0005800768944322,-176.1278909192481
6.873641984,1.0007282813416334,-176.27475843802833
6.875929088,1.0008305106438458,-176.42338061755078
6.878216192,1.0008805269714756,-176.57312291668623
6.880503296,1.0008749663628782,-176.72317140088413
6.8827904,1.0008143578728819,-176.87273065629998
6.885076992,1.0007024155089335,-177.02101592027216
6.887364096,1.0005460806709359,-177.16734457672263
6.8896512,1.00035542765975,-177.3111357975201
6.891938304,1.0001423079873173,-177.45199875654902
6.894225408,0.9999203819918837,-177.5896694963604
6.896512512,0.9997036174144341,-177.7241547264836
6.898799104,0.999505899540791,-177.8555954535153
6.901086208,0.9993396355511548,-177.98435042331366
6.903373312,0.9992154255398056,-178.11101910090454
6.905660416,0.9991411871549699,-178.23615538286964
