freq,mag,phase
6.0,1.0002412101137106,116.78577702388314
6.002286592,1.00036565132371,116.61772144539637
6.004572672,1.0004675413364592,116.44804614828402
6.006859264,1.0005401460185992,116.2771000179041
6.009145344,1.000578983329165,116.10538216081166
6.011431936,1.0005816114775836,115.933391153874
6.013718016,1.0005476887714484,115.76164994399484
6.016004608,1.000479464348935,115.59064882287805
6.018290688,1.0003811744239117,115.42088532396345
6.02057728,1.0002589831452289,115.25274687498818
6.022863872,1.000120674285121,115.0864951371169
6.025149952,0.9999748615026786,114.9223682612142
6.027436544,0.9998308393887314,114.76033357027791
6.029722624,0.999697746769697,114.60035196206057
6.032009216,0.9995839276238729,114.44217287173792
6.034295296,0.999496651595406,114.28548249088965
6.036581888,0.9994414664217615,114.12985990317729
6.03886848,0.9994217928019655,113.97479601801105
6.04115456,0.9994390137640962,113.81976868483329
6.043441152,0.9994919487866073,113.66426572750959
6.045727232,0.9995773415205023,113.50778765265322
6.048013824,0.9996896905681995,113.34986701856802
6.050299904,0.999822201793658,113.19021224153987
6.052586496,0.9999661785051541,113.02857737707748
6.054872576,1.0001125445033,112.86484567795128
6.057159168,1.0002522303342032,112.69905969304347
6.05944576,1.0003763103651055,112.53137423258471
6.06173184,1.0004768430074333,112.36209665090426
6.064018432,1.0005476698419353,112.19158862025044
6.066304512,1.0005841483841391,112.020323155631
6.068591104,1.0005840717827155,111.84880165951084
6.070877184,1.0005472053002027,111.67758308430805
6.073163776,1.0004760917663007,111.50714443687814
6.075450368,1.000375161501572,111.33799354425135
6.077736448,1.0002506503657023,111.17048944072677
6.08002304,1.0001106199999577,111.00492661403995
6.08230912,0.9999636055259133,110.8414548854863
6.084595712,0.9998191861859969,110.68014107652577
6.086881792,0.9996863027079094,110.52085480230235
6.089168384,0.9995734809231216,110.36337325215915
6.091454464,0.9994878896395054,110.20735912939999
6.093741056,0.9994348173766254,110.05237278561425
6.096027648,0.9994177399086571,109.8979279723908
6.098313728,0.9994377623278373,109.74346046672143
6.10060032,0.9994936118360588,109.58849555633921
6.1028864,0.9995818456064243,109.43249859017281
6.105172992,0.999696761307915,109.27505286142063
6.107459072,0.9998312085138032,109.11580862089106
6.109745664,0.9999766953291385,108.95453360642324
6.112032256,1.0001238948598292,108.79116986128615
6.114318336,1.000263511631072,108.62575211964025
6.116604928,1.0003869835105563,108.45844587293062
6.118891008,1.000486183191113,108.28954554022775
6.1211776,1.0005550186342063,108.11942069090965
6.12346368,1.0005891090323453,107.94858615235208
6.125750272,1.0005860977015495,107.77754296990096
6.128036352,1.000546549830015,107.6068177900413
6.130322944,1.000472503747569,107.43696468998304
6.132609536,1.0003688934581954,107.26839286981892
6.134895616,1.000242154540702,107.10150875129808
6.137182208,1.0001002020946166,106.93660706657616
6.139468288,0.9999522033355132,106.77382292176564
6.14175488,0.9998072534814575,106.61318087789121
6.14404096,0.9996747133187036,106.45458227363092
6.146327552,0.9995629447178598,106.29779483021571
6.148614144,0.9994790138334119,106.14243575078417
6.150900224,0.9994282194590186,105.988067764666
6.153186816,0.9994137684613144,105.834217444887
6.155472896,0.9994366969784945,105.68033071690793
6.157759488,0.9994956643200941,105.52586535498446
6.160045568,0.9995865779258448,105.37031466247949
6.16233216,0.9997040148591025,105.21329821667699
6.16461824,0.9998405428887386,105.05442224535817
6.166904832,0.9999874518684057,104.89354079274163
6.169191424,1.0001354640723705,104.73053268821565
6.171477504,1.0002752072424166,104.5654471910983
6.173764096,1.0003978343836895,104.39848678388068
6.176050176,1.0004956512407968,104.22993602626269
6.178336768,1.000562512619082,104.06020213210462
6.180622848,1.0005940169386491,103.88979808487191
6.18290944,1.0005883315351038,103.71921371758266
6.18519552,1.000545678105167,103.54898408882771
6.187482112,1.0004687255440758,103.37965613459622
6.189768704,1.0003623670740538,103.21167734437041
6.192054784,1.0002333310799763,103.04540064073058
6.194341376,1.0000896529737944,102.88113081955161
6.196627456,0.9999405515693468,102.71902842030933
6.198914048,0.9997952833005623,102.55905731933933
6.201200128,0.9996631794186303,102.40112450141272
6.20348672,0.9995524778943742,102.24499320636053
6.205773312,0.9994703167669234,102.09027099146469
6.208059392,0.9994219122468506,101.93653964359177
6.210345984,0.9994101590336532,101.78324249068073
6.212632064,0.9994359622293418,101.62988501221663
6.214918656,0.9994977652761372,101.475887112546
6.217204736,0.9995916825307448,101.32080486287055
6.219491328,0.9997116594426886,101.16417249728866
6.221777408,0.9998501767707695,101.00567044600108
6.224064,0.9999983957505665,100.84514116927518
6.226350592,1.0001472086205732,100.6824396685679
6.228636672,1.000286844426366,100.51768637331074
6.230923264,1.0004086995182233,100.35106329156663
6.233209344,1.0005050787966292,100.1828536873088
6.235495936,1.0005698212687884,100.01349762918856
6.237782016,1.0005987661742821,99.84348169114243
6.240068608,1.0005902190713596,99.67333956548224
6.2423552,1.0005445237914696,99.5035951934059
6.24464128,1.0004645709357853,99.33479370030443
6.246927872,1.0003555736004888,99.16736143463768
6.249213952,1.000224268452017,99.00170023959694
6.251500544,1.0000788057545722,98.83807835210564
6.253786624,0.9999286975666208,98.67659849947633
6.256073216,0.9997830768313476,98.51730038879684
6.258359296,0.9996514899119525,98.36001637337695
6.260645888,0.999541914263644,98.20452115815539
6.26293248,0.9994615710227243,98.05041521574017
6.26521856,0.9994155295413499,97.89727693566633
6.267505152,0.9994065585859107,97.74454579951194
6.269791232,0.9994354690198812,97.59168037801095
6.272077824,0.9995003197683487,97.43815342480306
6.274363904,0.9995970456170582,97.28349006832455
6.276650496,0.9997195533669454,97.12723277161383
6.278937088,0.9998601131168602,96.96909615271278
6.281223168,1.0000097318299337,96.80887582280482
6.28350976,1.0001591174792153,96.64648786292568
6.28579584,1.0002987282552755,96.48203821085373
6.288082432,1.0004196984335965,96.31570560604963
6.290368512,1.000514510375902,96.14782307997933
6.292655104,1.000577086035981,95.97882066034015
6.294941184,1.0006034041462655,95.80918468097629
6.297227776,1.0005918594548742,95.63946911475794
6.299514368,1.0005430037783731,95.47018987095194
6.301800448,1.0004602347603202,95.30187638893538
6.30408704,1.0003484361782804,95.13501011400633
6.30637312,1.0002148120383556,94.96993524358653
6.308659712,1.0000678062234725,94.80691438931815
6.310945792,0.9999164635155677,94.64608456851784
6.313232384,0.9997706400428609,94.48741253462595
6.315518464,0.9996394271219279,94.33078221611542
6.317805056,0.999531240047602,94.17590707975124
6.320091648,0.9994527627230559,94.02241086655211
6.322377728,0.9994091515781204,93.86983016993676
6.32466432,0.9994031785564532,93.71763067990463
6.3269504,0.9994350717544586,93.56526409890688
6.329236992,0.9995030550872981,93.4121653888638
6.331523072,0.9996025889106939,93.25788371715056
6.333809664,0.9997276276463809,93.10198529384535
6.336096256,0.9998702561918655,92.94418173376023
6.338382336,1.0000212555388555,92.78426069762945
6.340668928,1.000171284419629,92.62216650643019
6.342955008,1.0003107606796162,92.45797235731892
6.3452416,1.0004308121544268,92.29192198422048
6.34752768,1.000523959684385,92.12435671306811
6.349814272,1.0005842423773303,91.95567226135736
6.352100352,1.0006079021279541,91.786402243341
6.354386944,1.000593281529429,91.61708892135725
6.356673536,1.000541461636836,91.44825142926393
6.358959616,1.0004555746949897,91.280444907554
6.361246208,1.000341102909422,91.11411208686938
6.363532288,1.000205199141647,90.94960393100177
6.36581888,1.000056352802511,90.78717283398018
6.36810496,0.9999040590506327,90.62697362607983
6.370391552,0.999758106096319,90.46890106026775
6.372678144,0.9996274764129577,90.31290206885953
6.374964224,0.9995204971804967,90.15863969933025
6.377250816,0.9994440724724076,90.00572786206524
6.379536896,0.9994030399810422,89.85368353530015
6.381823488,0.999399828238439,89.70199794379424
6.384109568,0.9994348875262731,89.55007417509096
6.38639616,0.9995059623770416,89.39740409645388
6.38868224,0.9996085632955547,89.24350312754532
6.390968832,0.9997360133285554,89.08794083886342
6.393255424,0.9998806010299394,88.93042613980532
6.395541504,1.0000329116675324,88.77075596270369
6.397828096,1.0001834791363549,88.60894764796502
6.400114176,1.0003227342106809,88.44498131128098
6.402400768,1.0004418671072175,88.27921769334696
6.404686848,1.0005332546875672,88.11190057071512
6.40697344,1.0005912613036283,87.94354122421748
6.409260032,1.0006121890624753,87.77462531665776
6.411546112,1.0005945260968767,87.60568969942366
6.413832704,1.000539441374421,87.43728415016865
6.416118784,1.0004505415133245,87.26997557646446
6.418405376,1.000333337244095,87.10414023029472
6.420691456,1.0001950391415586,86.9401741821667
6.422978048,1.0000446520579485,86.77833537058441
6.425264128,0.9998914959865889,86.61870938071107
6.42755072,0.9997452950553334,86.46127822668404
6.429837312,0.9996153289282249,86.30584825704908
6.432123392,0.9995097927281079,86.15217230347533
6.434409984,0.9994354089507365,85.99983575541164
6.436696064,0.999396982036141,85.84830664406641
6.438982656,0.9993967922481821,85.69709706377712
6.441268736,0.9994350309726424,85.54560914935635
6.443555328,0.9995091687948886,85.39334617532927
6.44584192,0.9996147112254051,85.23978660946622
6.448128,0.9997448133732896,85.08452477829624
6.450414592,0.9998912578418845,84.92727793151207
6.452700672,1.000044983457621,84.76787374641215
6.454987264,1.0001960864908317,84.6062692612634
6.457273344,1.000335030373622,84.44255936800064
6.459559936,1.0004530735496808,84.27702020015553
6.461846016,1.0005427660089339,84.10997378302704
6.464132608,1.0005983890832684,83.94189992189179
6.4664192,1.00061632380887,83.7732848896998
6.46870528,1.0005955906447792,83.60471357570444
6.470991872,1.0005374368432478,83.43673584186615
6.473277952,1.000445344946005,83.26986907008038
6.475564544,1.0003253569096913,83.10453663697311
6.477850624,1.0001848680469718,82.94111210883358
6.480137216,1.0000328170623332,82.77981402699304
6.482423296,0.9998787907136869,82.62077534422234
6.484709888,0.9997323795308581,82.46391588870073
6.48699648,0.9996031349220547,82.30908434930097
6.48928256,0.9994991380656698,82.15598448830472
6.491569152,0.9994269337146012,82.00416524752758
6.493855232,0.9993910205233035,81.85314103273804
6.496141824,0.9993938997107555,81.70239748472031
6.498427904,0.9994354133666373,81.551322238227
6.500714496,0.9995126883348255,81.39941581271533
6.503001088,0.9996211989798272,81.24617654608612
6.505287168,0.9997538238176112,81.09120243502265
6.50757376,0.9999022388962512,80.9342011257548
6.50985984,1.0000572246567223,80.77499964926864
6.512146432,1.0002088007471241,80.61359169293895
6.514432512,1.0003474915994715,80.45010335450802
6.516719104,1.0004643174080152,80.28478484367379
6.519005184,1.0005521526115484,80.11797085954002
6.521291776,1.0006052841750106,79.95015840438062
6.523578368,1.0006204165072519,79.78184802671497
6.525864448,1.0005964932110674,79.6136387530562
6.52815104,1.000535059061136,79.44603646165658
6.53043712,1.000439885417384,79.27959528246963
6.532723712,1.0003170709940896,79.11474186109272
6.535009792,1.0001743098993503,78.95184181630339
6.537296384,1.0000206724028007,78.79109386845269
6.539582976,0.9998657323158852,78.63260117117775
6.541869056,0.9997194527811606,78.47630794962775
6.544155648,0.9995908494888528,78.32204336526767
6.546441728,0.9994883757472759,78.16945587333494
6.54872832,0.9994183294541106,78.01815775740272
6.5510144,0.9993852724855089,77.86762979427243
6.553300992,0.9993912230359624,77.71731184792512
6.555587072,0.9994358945714682,77.56662063615538
6.557873664,0.9995165315468495,77.41505453152902
6.560160256,0.9996278943540509,77.26209814670759
6.562446336,0.9997631581895248,77.10737943274297
6.564732928,0.9999134501521675,76.95059337594289
6.567019008,1.0000696513124643,76.79157989771213
6.5693056,1.0002216511305628,76.63036192056624
6.57159168,1.00035990069155,76.46705562850124
6.573878272,1.0004755119288324,76.3019136634757
6.576164864,1.0005615330028104,76.1353202585058
6.578450944,1.0006120775559724,75.96774475413206
6.580737536,1.0006242491760475,75.79973294485832
6.583023616,1.0005971234430857,75.63182997566196
6.585310208,1.0005323762683282,75.46460657153989
6.587596288,1.0004341995774029,75.2985844209087
6.58988288,1.0003085465807688,75.1341914411354
6.59216896,1.0001635336144976,74.97177525353673
6.594455552,1.0000082372638404,74.81156370384197
6.596742144,0.9998525243263484,74.65359141988999
6.599028224,0.9997062124313081,74.49785793224126
6.601314816,0.9995785301754626,74.34413583850488
6.603600896,0.9994776501465173,74.19206279154793
6.605887488,0.9994098591045851,74.04123837366129
6.608173568,0.9993795852066059,73.89115716451761
6.61046016,0.9993887546858645,73.74124076023354
6.612746752,0.9994367470338706,73.5909205167713
6.615032832,0.9995205938552134,73.43965705830708
6.617319424,0.9996349503349626,73.28696678146068
6.619605504,0.9997726785330413,73.13246075834043
6.621892096,0.9999249851656502,72.97586032709043
6.624178176,1.0000822857073444,72.81702741865796
6.626464768,1.0002346227495207,72.65596096353063
6.628750848,1.0003724070011504,72.49280309452021
6.63103744,1.0004869046378866,72.3278236273313
6.633324032,1.0005707868311715,72.16141697398304
6.635610112,1.0006187674510831,71.99405114084685
6.637896704,1.0006278677174358,71.8263072162448
6.640182784,1.0005974845241403,71.6587125817304
6.642469376,1.0005294579440864,71.49184138382634
6.644755456,1.0004279732186319,71.32621426533846
6.647042048,1.0002996762601881,71.1622519483692
6.649328128,1.0001523276492459,71.00031701279286
6.65161472,0.9999955436025446,70.84059538723577
6.653901312,0.9998390715603157,70.68315975439297
6.656187392,0.9996927994638477,70.52794179799827
6.658473984,0.9995660961338635,70.37472144338118
6.660760064,0.9994668551422713,70.22315294925791
6.663046656,0.9994014216630883,70.0727996811835
6.665332736,0.9993740366336353,69.92313358546592
6.667619328,0.9993864194534505,69.77359183032581
6.66990592,0.9994377914885996,69.62361187315709
6.672192,0.9995248450776825,69.472634566034
6.674478592,0.9996422089710131,69.32016723002435
6.676764672,0.9997825360506385,69.1658629071054
6.679051264,0.9999367691834172,69.00942648997777
6.681337344,1.0000951151997854,68.85072291196485
6.683623936,1.0002478169611155,68.68978882363668
6.685910016,1.0003850708058515,68.52676348841379
6.688196608,1.0004982511128484,68.36190221219104
6.6904832,1.0005800229236625,68.19565760634212
6.69276928,1.0006254272599218,68.02850995657656
6.695055872,1.0006313392014436,67.86098086742771
6.697341952,1.0005975558828846,67.69367928598676
6.699628544,1.0005262226529497,67.52713048547386
6.701914624,1.0004216642581665,67.36187541015347
6.704201216,1.0002904625882965,67.19835608971802
6.706487808,1.0001410263203014,67.03686562729408
6.708773888,0.9999827513032811,66.87761530613365
6.71106048,0.9998255277375744,66.72067414108751
6.71334656,0.999679347567449,66.56593970199226
6.715633152,0.9995536419560774,66.41323022215298
6.717919232,0.9994561151051843,66.26213275517148
6.720205824,0.9993931401366822,66.11221033527299
6.722491904,0.9993687054499623,65.96294399293338
6.724778496,0.9993843103520639,65.81374664515435
6.727065088,0.9994391439380889,65.66406503852203
6.729351168,0.999529520931182,65.51334112652283
6.73163776,0.999649952797511,65.36108136975172
6.73392384,0.9997926305486329,65.20693423353408
6.736210432,0.9999488111513213,65.0506431817581
6.738496512,1.0001083173474172,64.89204795756272
6.740783104,1.000261264218968,64.73119085086762
6.743069696,1.0003978447204673,64.56826480276577
6.745355776,1.0005096265531173,64.4035324835841
6.747642368,1.000589264257881,64.23742975940051
6.749928448,1.000631869193617,64.07044655733846
6.75221504,1.0006346602416634,63.90312918263371
6.75450112,1.0005975615893004,63.73608821388141
6.756787712,1.000522753679742,63.56985914003592
6.759073792,1.0004149725364544,63.40495638898325
6.761360384,1.0002810263467896,63.24183276727536
6.763646976,1.0001293585710342,63.08077414554744
6.765933056,0.999969572581662,62.92198130913068
6.768219648,0.999811677938411,62.76552279263851
6.770505728,0.9996657273686722,62.61126733368321
6.77279232,0.9995410582031533,62.458994316189624
6.7750784,0.999445398248674,62.30833846054143
6.777364992,0.999384916024618,62.158845027429244
6.779651584,0.9993634923592234,62.00994005001289
6.781937664,0.9993824978637963,61.861085805775076
6.784224256,0.9994406609366479,61.71168411272689
6.786510336,0.9995344534649723,61.56117156991827
6.788796928,0.9996578041657136,61.4091045660831
6.791083008,0.9998031459173601,61.255087821519545
6.7933696,0.9999610261850624,61.098876211661626
6.79565568,1.0001215926135885,60.94035694524399
6.797942272,1.0002747097846214,60.77959669330034
6.800228864,1.0004107759256833,60.61673947498396
6.802514944,1.000520936189553,60.45208702255595
6.804801536,1.0005983789150923,60.286081998604736
6.807087616,1.0006381968410254,60.11923745158753
6.809374208,1.0006378026885592,59.95214310270947
6.811660288,1.0005972174055766,59.78532181621718
6.81394688,1.000518984825613,59.619376980889065
6.81623296,1.0004080570723293,59.45480933340537
6.818519552,1.0002712937822387,59.292056694727634
6.820806144,1.0001174469863692,59.13139893978082
6.823092224,0.9999562501096797,58.97305008421016
6.825378816,0.9997977290189751,58.8170345108379
6.827664896,0.9996521202035069,58.66323835330113
6.829951488,0.9995284397453761,58.51142204324814
6.832237568,0.9994347349428344,58.361178839444214
6.83452416,0.9993768412206555,58.2120653435578
6.836810752,0.9993584443423924,58.06351726123311
6.839096832,0.9993807886817917,57.91494133984243
6.841383424,0.9994425278111482,57.7657727446152
6.843669504,0.9995396266663696,57.61544972798979
6.845956096,0.9996660822629571,57.463531276309794
6.848242176,0.9998138609652225,57.30962930122131
6.850528768,0.999973569437333,57.15348503405794
6.852814848,1.0001352180391472,56.99504197902858
6.85510144,1.0002885307501526,56.83430755187941
6.857388032,1.0004237536811482,56.6714857596275
6.859674112,1.0005323598221378,56.50688720118061
6.861960704,1.0006075329661608,56.34099047818638
6.864246784,1.0006444604995348,56.17426755473613
6.866533376,1.0006407846005116,56.007305925432696
6.868819456,1.0005966666025443,55.84072384278268
6.871106048,1.0005149709088974,55.675035555080825
6.87339264,1.000400850927486,55.51076893358574
6.87567872,1.0002612942389928,55.348379022657205
6.877965312,1.0001052494893543,55.188133169481176
6.880251392,0.9999426696553079,55.03018881110759
6.882537984,0.9997835929023251,54.87460592184278
6.884824064,0.9996382837705502,54.721242701239746
6.887110656,0.9995158350934821,54.56983060567106
6.889396736,0.999424085516405,54.41999386027834
6.891683328,0.9993688550679795,54.27121168988301
6.89396992,0.9993535988767689,54.12298671027356
6.896256,0.9993794315633198,53.97468400826928
6.898542592,0.9994446500761935,53.82571996443349
6.900828672,0.9995450816041137,53.67556697097864
6.903115264,0.999674562033746,53.5237596914703
6.905401344,0.9998247702575782,53.36991681862815
6.907687936,0.9999862857146193,53.2138279910363
6.909974528,1.0001488960138019,53.05540348017651
6.912260608,1.0003023069019203,52.89467955019049
6.9145472,1.000436700667909,52.731869486695196
6.91683328,1.0005437604994893,52.567311697335214
6.919119872,1.000616563884846,52.401476189812
6.921405952,1.000650483877369,52.234851863639214
6.923692544,1.0006435409070813,52.06805545048309
6.925978624,1.000595910542632,51.90165724716674
6.928265216,1.0005106642332784,51.73620742373666
6.930551808,1.0003932923745529,51.572251570581095
6.932837888,1.0002509967429707,51.410164947072765
6.93512448,1.0000928437405212,51.25027702245483
