freq,mag,phase
6.0,0.9998248255493803,144.45809305552666
6.002286592,0.9998167190208098,144.30051142442383
6.004572672,0.9998222234698197,144.14293870057642
6.006859264,0.999838992219443,143.98521064868353
6.009145344,0.9998662747539576,143.82717209683716
6.011431936,0.9999022026457612,143.66871654724372
6.013718016,0.9999444933937861,143.5096839102058
6.016004608,0.9999904994027625,143.35004049020156
6.018290688,1.0000373056252565,143.18972632602456
6.02057728,1.000082018429027,143.02876972971455
6.022863872,1.0001217261552728,142.86720939856258
6.025149952,1.0001538689723866,142.7051621520517
6.027436544,1.0001765496802446,142.54270865699547
6.029722624,1.0001883477874471,142.38001471386318
6.032009216,1.0001882229041934,142.21725918723305
6.034295296,1.000176410800689,142.0546182377293
6.036581888,1.0001536165622509,141.89222577688008
6.03886848,1.0001212372702584,141.7302356547604
6.04115456,1.0000814603025652,141.56883128789642
6.043441152,1.0000366189475736,141.40800929810266
6.045727232,0.9999895834030842,141.24789324394294
6.048013824,0.9999433864701481,141.08848115175397
6.050299904,0.9999008846935911,140.9296987983392
6.052586496,0.9998647740120736,140.77151849575924
6.054872576,0.99983761594436,140.6138325438411
6.057159168,0.9998205902092842,140.45645518501956
6.05944576,0.9998153495504787,140.29926214039145
6.06173184,0.9998218469458074,140.14208328376168
6.064018432,0.9998398621610637,139.98475192520584
6.066304512,0.9998682095439189,139.82708427321532
6.068591104,0.9999050517940332,139.66894750213476
6.070877184,0.9999481277205324,139.5102799390537
6.073163776,0.9999947113195164,139.35094549148073
6.075450368,1.000041835319973,139.1909600111927
6.077736448,1.0000865003019206,139.03031333639672
6.08002304,1.0001258786812537,138.86906528868795
6.08230912,1.0001575157018705,138.70735222589323
6.084595712,1.0001793116533073,138.54523250362504
6.086881792,1.0001900071042416,138.3828932019403
6.089168384,1.0001888403857762,138.2205067185534
6.091454464,1.0001758170410933,138.05824490021328
6.093741056,1.0001518527192286,137.8962502746125
6.096027648,1.000118584196683,137.73470503683615
6.098313728,1.0000778616906825,137.57368066702006
6.10060032,1.000032335851246,137.41332526640937
6.1028864,0.999984879027715,137.2536624705369
6.105172992,0.9999386087149414,137.09471244059966
6.107459072,0.9998963583791473,136.936379491666
6.109745664,0.999860723350314,136.77864027137008
6.112032256,0.9998341309765298,136.62137911851173
6.114318336,0.999818264215797,136.46446368579754
6.116604928,0.9998139132815894,136.30767931898467
6.118891008,0.9998217321723252,136.15090628022236
6.1211776,0.9998408977040927,135.99394219631824
6.12346368,0.9998703438438034,135.83663516431545
6.125750272,0.9999081973411464,135.67886219140078
6.128036352,0.9999520601648555,135.52049217083453
6.130322944,0.9999991944852098,135.36151579409
6.132609536,1.000046353186219,135.20182551494736
6.134895616,1.00009107186527,135.04151450745198
6.137182208,1.0001300276577088,134.88061142987956
6.139468288,1.0001611102118357,134.71919379720757
6.14175488,1.0001820116536384,134.55743902691103
6.14404096,1.0001916230918886,134.39545853344737
6.146327552,1.0001893469424872,134.23342374747153
6.148614144,1.0001751275117141,134.0715545221738
6.150900224,1.0001501184255461,133.90997787199697
6.153186816,1.0001156052112659,133.74885077066986
6.155472896,1.0000739953229034,133.58829647420822
6.157759488,1.000027788445805,133.42837239380364
6.160045568,0.999980093453908,133.2691604144114
6.16233216,0.9999337164888733,133.1106569254643
6.16461824,0.9998916286951727,132.9528000465755
6.166904832,0.9998566482792078,132.79552458560048
6.169191424,0.9998307250853279,132.63870219087187
6.171477504,0.9998158339525385,132.4822057245059
6.173764096,0.9998127263080904,132.32583581704102
6.176050176,0.9998216535824871,132.16943073705093
6.178336768,0.9998420215620553,132.01286499685736
6.180622848,0.9998725769460528,131.8559332028532
6.18290944,0.999911464608223,131.69852143678133
6.18519552,0.9999560652749243,131.54049981718734
6.187482112,1.0000037055551587,131.38180913270534
6.189768704,1.0000511754672454,131.22246141786349
6.192054784,1.0000956271996786,131.06248016832438
6.194341376,1.0001343197914476,130.90189957380466
6.196627456,1.0001645987894154,130.74081051414367
6.198914048,1.0001846381864208,130.57939544107072
6.201200128,1.0001931086482894,130.41778714570953
6.20348672,1.0001897253685834,130.2561371501726
6.205773312,1.0001743553175038,130.09467279415801
6.208059392,1.0001480286867266,129.93349659246363
6.210345984,1.0001126089345505,129.77278654977067
6.212632064,1.00007011101295,129.61265987732995
6.214918656,1.0000233796260038,129.45318166010102
6.217204736,0.9999752342329207,129.2944503338215
6.219491328,0.9999287478275615,129.13639056198966
6.221777408,0.9998869219113505,128.978998875709
6.224064,0.9998524285754653,128.82217934844664
6.226350592,0.9998274559864512,128.66581265711005
6.228636672,0.9998135284312339,128.50974232618168
6.230923264,0.9998115228803616,128.35379127861802
6.233209344,0.9998217145847118,128.1978029645487
6.235495936,0.9998433580043229,128.04161610143728
6.237782016,0.9998749650091694,127.88503422443695
6.240068608,0.9999147627171651,127.72794769651345
6.2423552,0.9999601094982757,127.5702634934313
6.24464128,1.0000082096530072,127.41192460272727
6.246927872,1.0000560325183763,127.2529044349772
6.249213952,1.0001003316547048,127.09324825999533
6.251500544,1.0001384955650543,126.93298006233788
6.253786624,1.0001680836125584,126.77223821025466
6.256073216,1.0001873539424422,126.61117532615843
6.258359296,1.0001948597081682,126.44991635560825
6.260645888,1.0001900590128805,126.28865205819962
6.26293248,1.000173532581196,126.12755388603135
6.26521856,1.000146076581786,125.96679595579465
6.267505152,1.000109470050446,125.8065403598041
6.269791232,1.0000661361070242,125.64686378020676
6.272077824,1.0000186975148362,125.48784412101321
6.274363904,0.9999701915451349,125.32956030923394
6.276650496,0.9999238052430895,125.1719821386706
6.278937088,0.9998822626215923,125.01502520586268
6.281223168,0.9998484684944747,124.85865021608014
6.28350976,0.999824249726283,124.70272983217026
6.28579584,0.9998113500397552,124.54710477721359
6.288082432,0.9998105727271035,124.39155974078348
6.290368512,0.999821871904932,124.23599314287964
6.292655104,0.99984465789226,124.0801520284018
6.294941184,0.9998774927639327,123.9239576266668
6.297227776,0.9999181913170387,123.76722804378282
6.299514368,0.999964402458865,123.60989844163598
6.301800448,1.0000128815057252,123.45186725169954
6.30408704,1.0000608657615797,123.29317690463515
6.30637312,1.0001050809085932,123.13381756074413
6.308659712,1.000142813235629,122.97387047121698
6.310945792,1.0001716432178198,122.81349302206375
6.313232384,1.0001898926960127,122.65275179755864
6.315518464,1.0001962414565213,122.49187277512551
6.317805056,1.0001902699279648,122.3309942311594
6.320091648,1.0001724869699045,122.1702963524265
6.322377728,1.0001436751198076,122.00996871842186
6.32466432,1.000106150392397,121.85011338338178
6.3269504,1.000061990625947,121.69086572402726
6.329236992,1.0000139746260763,121.53231289613207
6.331523072,0.9999651423752786,121.3744781655952
6.333809664,0.999918793721615,121.21736560818863
6.336096256,0.9998775306207071,121.06090180626455
6.338382336,0.9998442871226735,120.90497223293107
6.340668928,0.9998209949796795,120.74949911161261
6.342955008,0.9998091738211391,120.59429732609848
6.3452416,0.999809562889734,120.43917055207287
6.34752768,0.9998221586876302,120.28398859753246
6.349814272,0.9998462348642262,120.12854742675498
6.352100352,0.9998801688322303,119.97269321268077
6.354386944,0.9999218809104011,119.81631863122665
6.356673536,0.9999687952690814,119.65930444853481
6.358959616,1.0000177251197835,119.50161122126947
6.361246208,1.0000657952272074,119.3432562742292
6.363532288,1.000109801721651,119.18421465573795
6.36581888,1.000146993244786,119.02461108358881
6.36810496,1.0001751327506248,118.86451830373652
6.370391552,1.0001924536542692,118.70415780832288
6.372678144,1.0001975383275037,118.5436268862916
6.374964224,1.0001902842623362,118.38312029112481
6.377250816,1.000171275251113,118.22281622330893
6.379536896,1.0001414664027235,118.06287892196458
6.381823488,1.000102705267667,117.90348579397762
6.384109568,1.0000576434206578,117.74470146779974
6.38639616,1.000009094404319,117.5865967211417
6.38868224,0.9999601129537455,117.42925005894955
6.390968832,0.9999136667555132,117.27259231410736
6.393255424,0.999872829582081,117.11655156208171
6.395541504,0.9998401635465745,116.96111911081198
6.397828096,0.9998177512979636,116.80608175578682
6.400114176,0.9998070646193455,116.6512826180357
6.402400768,0.9998087388604567,116.49657330244456
6.404686848,0.9998226000249529,116.34177812774202
6.40697344,0.9998478834527421,116.1867027564978
6.409260032,0.9998829020829061,116.03123438437449
6.411546112,0.999925603843083,115.87519781767935
6.413832704,0.9999730827393706,115.71849988199872
6.416118784,1.0000224466383478,115.56114793287179
6.418405376,1.0000706882790114,115.40309389071206
6.420691456,1.0001144971957485,115.24436982642806
6.422978048,1.0001513152128738,115.08509843298916
6.425264128,1.0001786537643107,114.92534738751476
6.42755072,1.0001947807713367,114.76531090477587
6.429837312,1.0001987636337157,114.60516381072543
6.432123392,1.000190362675535,114.44500697243043
6.434409984,1.0001698932992287,114.28513038106858
6.436696064,1.0001388809670029,114.12562712687836
6.438982656,1.0000992017269514,113.96663049629669
6.441268736,1.0000534183891385,113.80829993211405
6.443555328,1.0000041557455879,113.65064698011119
6.44584192,0.9999548942945825,113.49373800407712
6.448128,0.9999085106660734,113.33753718986189
6.450414592,0.9998681743918649,113.18200538748816
6.452700672,0.9998360939467493,113.02700098265893
6.454987264,0.9998147710537733,112.87238470263833
6.457273344,0.9998051204852794,112.7180279022853
6.459559936,0.9998080367148207,112.56375178166054
6.461846016,0.9998231087746982,112.40931738492931
6.464132608,0.9998496492051612,112.2546388546287
6.4664192,0.9998859341521935,112.09949038887937
6.46870528,0.9999295253841298,111.94378416587475
6.470991872,0.9999777253530773,111.78741881321457
6.473277952,1.0000275192739285,111.630390792104
6.475564544,1.0000757673472267,111.47262961190035
6.477850624,1.0001193260425159,111.3142574474539
6.480137216,1.0001554824366894,111.15528183382246
6.482423296,1.0001819886423329,110.99588296826191
6.484709888,1.0001970817060206,110.83620262785645
6.48699648,1.0001999050536903,110.67636851168584
6.48928256,1.00019012309063,110.51661086686524
6.491569152,1.0001685075619657,110.35713157893044
6.493855232,1.000136307853205,110.19802573522536
6.496141824,1.0000954942698892,110.0394755786624
6.498427904,1.0000488137930885,109.8815824797844
6.500714496,0.999999176878316,109.72438780324136
6.503001088,0.9999496021851679,109.567943307652
6.505287168,0.9999033509286057,109.41219981963881
6.50757376,0.9998634279330335,109.25713905804007
6.50985984,0.9998321460748663,109.10256684386756
6.512146432,0.9998116899968915,108.94837853237553
6.514432512,0.9998032824579189,108.79445388612044
6.516719104,0.9998073976684689,108.64054233319094
6.519005184,0.9998238430231351,108.48651893880523
6.521291776,0.9998516417011643,108.33218405482188
6.523578368,0.9998890291848039,108.17741231992757
6.525864448,0.9999335153628703,108.02204460015504
6.52815104,0.9999824740580161,107.8660130375153
6.53043712,1.000032604646438,107.70924818390375
6.532723712,1.0000809056808926,107.55180944689349
6.535009792,1.0001242257043903,107.3937174307863
6.537296384,1.0001597902529413,107.23508403494037
6.539582976,1.0001854520345346,107.07600076813443
6.541869056,1.000199421110679,106.91666359150922
6.544155648,1.0002009522472557,106.75717727062907
6.546441728,1.0001899045828695,106.59782600644095
6.54872832,1.000166919377391,106.43869462853476
6.5510144,1.0001334967782363,106.28002805245872
6.553300992,1.0000916536714952,106.1219135680372
6.555587072,1.0000442250275485,105.96445808178976
6.557873664,0.9999940029186809,105.80771570016914
6.560160256,0.9999442444263034,105.65173825305598
6.562446336,0.9998981918921321,105.49643795789977
6.564732928,0.9998586435589167,105.34178766032954
6.567019008,0.9998281854511724,105.18767684746298
6.5693056,0.9998086980505861,105.03396002946046
6.57159168,0.9998014265477908,104.88041636626717
6.573878272,0.9998068459075677,104.7269174757381
6.576164864,0.9998247466236544,104.57328760310183
6.578450944,0.9998538512739655,104.41929746196315
6.580737536,0.9998922370107347,104.26483895185522
6.583023616,0.9999377377361134,104.1097846083343
6.585310208,0.9999873541481592,103.95406273541408
6.587596288,1.0000378016476836,103.7976444318377
6.58988288,1.0000860896937063,103.64050877844365
6.59216896,1.0001290719237008,103.48272644398558
6.594455552,1.0001640801898082,103.32436639892887
6.596742144,1.0001888329327262,103.1656237524213
6.599028224,1.0002016435144039,103.0065759596094
6.601314816,1.000201882399184,102.84749196818022
6.603600896,1.0001895099021871,102.68849288797041
6.605887488,1.0001651572504369,102.52978452797731
6.608173568,1.0001305364904984,102.37151534770801
6.61046016,1.0000878075572877,102.2138159295265
6.612746752,1.0000394943482227,102.05680828351592
6.615032832,0.9999887938064487,101.90050732604635
6.617319424,0.9999388676367589,101.74497139619265
6.619605504,0.9998928743630167,101.59014395551891
6.621892096,0.9998539149895478,101.43593376822372
6.624178176,0.9998241465073486,101.28227207906792
6.626464768,0.9998057584933066,101.1289554659473
6.628750848,0.9997997494948042,100.97583116505623
6.63103744,0.999806446877575,100.8227190455293
6.633324032,0.9998256738896322,100.6694415223096
6.635610112,0.9998560392332755,100.51580988659957
6.637896704,0.9998957114151095,100.36169428649035
6.640182784,0.999942025740553,100.20696048259083
6.642469376,0.9999922908237685,100.05153384892705
6.644755456,1.0000430493965842,99.89539962834809
6.647042048,1.0000913327333556,99.73854131142865
6.649328128,1.0001339816355215,99.5810592430498
6.65161472,1.0001682690813414,99.42301973037043
6.653901312,1.0001920481939854,99.26456824195144
6.656187392,1.0002038008370462,99.10588946775971
6.658473984,1.00020278407989,98.94713297916896
6.660760064,1.0001890419032118,98.78850454123392
6.663046656,1.0001634103915618,98.6301828589748
6.665332736,1.0001275767422988,98.47231720357668
6.667619328,1.000083640621907,98.31504219371664
6.66990592,1.0000346467227117,98.15844877711288
6.672192,0.9999834586295288,98.0026122257629
6.674478592,0.9999333657670839,97.84751740485994
6.676764672,0.9998876639634846,97.69312710119304
6.679051264,0.9998492002781943,97.53936481967823
6.681337344,0.9998203442939577,97.38612416578081
6.683623936,0.9998028497090435,97.2332299241026
6.685910016,0.9997981947483038,97.08050411222321
6.688196608,0.999806279266147,96.9277739910343
6.6904832,0.9998268265569058,96.7748527170735
6.69276928,0.9998584763222922,96.62156375708396
6.695055872,0.9998991482093985,96.46777334683124
6.697341952,0.9999464553212843,96.31332968412308
6.699628544,0.9999972538928781,96.15823509506562
6.701914624,1.0000483093848154,96.00237503250257
6.704201216,1.0000966067571921,95.84581027452704
6.706487808,1.0001387906024206,95.68861697793992
6.708773888,1.0001724105592102,95.5308816064384
6.71106048,1.0001952607131916,95.37273861749024
6.71334656,1.00020580959152,95.21438505947053
6.715633152,1.0002034817625671,95.05596350443014
6.717919232,1.0001882804425375,94.8977018347267
6.720205824,1.000161327952293,94.73976417450822
6.722491904,1.0001242342775738,94.58230230668383
6.724778496,1.000079403976091,94.42541534470708
6.727065088,1.0000296049955453,94.26926826141678
6.729351168,0.9999779685022789,94.11386614064493
6.73163776,0.9999277929995493,93.959206834235
6.73392384,0.9998823044187259,93.80527856471865
6.736210432,0.9998444062821035,93.65194054809463
6.738496512,0.9998164370085837,93.49911466077717
6.740783104,0.9998001290864601,93.34664223532721
6.743069696,0.9997966336106379,93.1942895598846
6.745355776,0.9998061227722556,93.04194368061202
6.747642368,0.999828073434587,92.88935553211344
6.749928448,0.9998609352373384,92.73641890715443
6.75221504,0.9999028429936635,92.58290403520805
6.75450112,0.9999509404446671,92.42879407972079
6.756787712,1.0000024088846784,92.27394690325855
6.759073792,1.0000537859458125,92.11838003743847
6.761360384,1.0001018958906964,91.962093952466
6.763646976,1.0001436828009915,91.80519577076748
6.765933056,1.000176581040399,91.64773854530182
6.768219648,1.000198430723286,91.48990175494434
6.770505728,1.0002076926392418,91.33186246484092
6.77279232,1.0002039275518628,91.17380179365283
6.7750784,1.000187484886884,91.01586686021164
6.777364992,1.00015907096989,90.8583128424508
6.779651584,1.000120796595707,90.70122594337975
6.781937664,1.0000750092539197,90.54478544206944
6.784224256,1.0000244837521166,90.38904437449366
6.786510336,0.9999724033997317,90.23407611953841
6.788796928,0.9999221737098486,90.07985009113301
6.791083008,0.9998769675552621,89.92635279499507
6.7933696,0.999839671487757,89.77344674651903
6.79565568,0.9998125388515806,89.6210279872133
6.797942272,0.9997974941831836,89.46893817840208
6.800228864,0.9997951876586162,89.31698552925766
6.802514944,0.9998061849282083,89.16498377455173
6.804801536,0.9998294725838054,89.01276188208216
6.807087616,0.9998637857563555,88.86010691267961
6.809374208,0.9999066618564841,88.70692082214235
6.811660288,0.9999557230101721,88.55309024763062
6.81394688,1.00000770510316,88.39852861437812
6.81623296,1.000059380208647,88.24322296112905
6.818519552,1.0001073687937228,88.08721907197199
6.820806144,1.0001486269026965,87.93058284950159
6.823092224,1.0001806743703794,87.77340823199471
6.825378816,1.0002014867902773,87.61587441278554
6.827664896,1.0002095576902796,87.4581390723152
6.829951488,1.000204515140265,87.30039302336392
6.832237568,1.0001864801138292,87.14283475590683
6.83452416,1.0001568795868732,86.98562844594656
6.836810752,1.000117340991384,86.82894572231353
6.839096832,1.0000704746577498,86.67289940575581
6.841383424,1.0000191536297667,86.51756117389401
6.843669504,0.9999667685126539,86.36301033780529
6.845956096,0.9999164487173384,86.20923158516888
6.848242176,0.9998716391096906,86.05615073558907
6.850528768,0.9998349517971375,85.9036562885122
6.852814848,0.9998087514507654,85.75166115799138
6.85510144,0.9997948114393945,85.59995366991366
6.857388032,0.9997940461063907,85.4483675153712
6.859674112,0.9998063579941416,85.29671360138589
6.861960704,0.9998310583936457,85.14482202464873
6.864246784,0.9998665403510061,84.9924787215354
6.866533376,0.9999106820725977,84.83959313744059
6.868819456,0.9999606202054692,84.68602481148055
6.871106048,1.0000131771265883,84.53172831548136
6.87339264,1.0000650176649866,84.37668362426358
6.87567872,1.0001128096380683,84.22093725346147
6.877965312,1.0001537298810619,84.0645456810327
6.880251392,1.0001848758282963,83.90766486123077
6.882537984,1.000204467548911,83.75041056685772
6.884824064,1.0002112587679064,83.5929808519812
6.887110656,1.000204831188912,83.43555975156025
6.889396736,1.0001854791931575,83.27834639541553
6.891683328,1.0001544593338716,83.12149244011881
6.89396992,1.0001137183616728,82.9651786910118
6.896256,1.0000657946119476,82.80954831610507
6.898542592,1.0000138453001657,82.6546192092617
6.900828672,0.9999610197422635,82.50049176126062
6.903115264,0.9999107418408033,82.3471177005138
6.905401344,0.9998662148038594,82.19444648257533
6.907687936,0.9998302202843086,82.04235967655599
6.909974528,0.99980509033805,81.89073667621048
6.912260608,0.9997924075373942,81.73943027633635
6.9145472,0.9997929714438009,81.58818807604925
6.91683328,0.9998067520261744,81.43688531639089
6.919119872,0.9998327902005951,81.28530247699578
6.921405952,0.9998696248237496,81.13326389928358
6.923692544,0.9999148472700697,80.98064208355285
6.925978624,0.9999655967694392,80.82734865810072
6.928265216,1.000018652751253,80.6732986200119
