freq,mag,phase
6.0,1.0001473746965592,-14.473503796331215
6.00568576,1.0000724009922437,-14.682750821513238
6.01137152,0.9999952559992087,-14.89108955682318
6.017057792,0.9999182337362523,-15.098314212045942
6.022743552,0.9998459259122331,-15.304682976244086
6.028429312,0.9997823991639074,-15.510149454423512
6.034115072,0.9997313439363051,-15.71485429286792
6.039800832,0.9996959375350218,-15.91902403051757
6.045487104,0.9996780576685487,-16.12292111539481
6.051172864,0.9996788333840393,-16.326768536329798
6.056858624,0.9996982923156659,-16.530768846560377
6.062544384,0.9997352650911018,-16.73527804061096
6.068230144,0.9997875945460627,-16.94047361694653
6.073915904,0.9998523415290627,-17.14655478229102
6.079602176,0.9999256372787657,-17.353669105400524
6.085287936,1.0000033251336584,-17.561885494052124
6.090973696,1.0000807364365223,-17.771293265381985
6.096659456,1.0001535924275322,-17.981795814175328
6.102345216,1.0002174673746498,-18.19331159224736
6.108031488,1.0002685658815857,-18.405712768842307
6.113717248,1.000304290232974,-18.61880613132258
6.119403008,1.0003222718582467,-18.832299796500198
6.125088768,1.0003213133084121,-19.046027439170548
6.130774528,1.0003017026828522,-19.25965034794329
6.1364608,1.0002644798052251,-19.473017127883622
6.14214656,1.0002116616301455,-19.685753319171106
6.14783232,1.0001465129921228,-19.89779603952395
6.15351808,1.0000726985134976,-20.108936214778538
6.15920384,0.9999944472166317,-20.319086770571996
6.1648896,0.9999163139054001,-20.528229707499115
6.170575872,0.9998430163359019,-20.736339492995622
6.176261632,0.9997787078380512,-20.94361830149893
6.181947392,0.9997270759055052,-21.150140825291825
6.187633152,0.9996911718162169,-21.35616397467126
6.193318912,0.9996732013378118,-21.56183790910779
6.199005184,0.9996740679245691,-21.767486974084527
6.204690944,0.9996938557032573,-21.973334040240776
6.210376704,0.9997313915258385,-22.17962520301465
6.216062464,0.9997846773188009,-22.386654285289072
6.221748224,0.9998504049551854,-22.59457028626419
6.227434496,0.9999247676508998,-22.80357491985619
6.233120256,1.0000036095086684,-23.013652777078697
6.238806016,1.0000822062239363,-23.2249415476105
6.244491776,1.000155986621458,-23.437349322967297
6.250177536,1.0002207391393423,-23.650778641271156
6.255863296,1.0002727060066456,-23.86512181107451
6.261549568,1.0003087738748124,-24.080126442273265
6.267235328,1.0003268961793168,-24.29562045208507
6.272921088,1.0003258870325733,-24.511284266263125
6.278606848,1.000305743299841,-24.72689187372656
6.284292608,1.000268068500442,-24.94218790113709
6.28997888,1.000214477053628,-25.156885098917073
6.29566464,1.0001482739548386,-25.370820531010143
6.3013504,1.0000733148566243,-25.583891492747284
6.30703616,0.9999939088050072,-25.795931124590915
6.31272192,0.9999147595120439,-26.006937024900843
6.318408192,0.9998402538430324,-26.216997324864998
6.324093952,0.9997751243813183,-26.42613383803703
6.329779712,0.9997227664352373,-26.634477532297666
6.335465472,0.999686359278311,-26.84234759328222
6.341151232,0.9996681476440121,-27.049856349889165
6.346836992,0.999669118221382,-27.257329072267904
6.352523264,0.9996892953681842,-27.46501931696395
6.358209024,0.9997274302942456,-27.673203450203527
6.363894784,0.9997814273643192,-27.882095835498138
6.369580544,0.9998480619631638,-28.091886817494686
6.375266304,0.9999236654545438,-28.302767183403606
6.380952576,1.000003573147544,-28.5147845742184
6.386638336,1.0000833815712054,-28.72798091618855
6.392324096,1.0001583014636994,-28.942367755774118
6.398009856,1.0002239878098873,-29.15777477452749
6.403695616,1.0002767336300447,-29.37408412657087
6.409381888,1.0003131982800426,-29.591062422867417
6.415067648,1.000331717753249,-29.808563938199747
6.420753408,1.0003307252924427,-30.02623297291777
6.426439168,1.0003103661115387,-30.243838666170163
6.432124928,1.0002720430136334,-30.461103562498824
6.4378112,1.000217634343878,-30.677761960938067
6.44349696,1.0001505989241835,-30.893724539351826
6.44918272,1.0000744244860549,-31.10872550183411
6.45486848,0.9999938739436172,-31.32274079218521
6.46055424,0.9999135409441798,-31.535687769875732
6.46624,0.9998377874105455,-31.74766798339361
6.471926272,0.9997715157435683,-31.95865217168113
6.477612032,0.9997184570796687,-32.16894347812342
6.483297792,0.9996814846858142,-32.37866158721265
6.488983552,0.9996629336542612,-32.58809468524944
6.494669312,0.9996638299280561,-32.79745006823664
6.500355584,0.9996843436397681,-33.00701692147023
6.506041344,0.9997230680218175,-33.217076821848
6.511727104,0.9997777297223407,-33.42788662351964
6.517412864,0.9998453480408193,-33.63958276488468
6.523098624,0.9999220581829571,-33.85239713955703
6.528784896,1.0000032392718685,-34.066349210639494
6.534470656,1.0000841900348922,-34.2815278460396
6.540156416,1.0001602409107981,-34.497851739819225
6.545842176,1.0002271661893543,-34.71530013172116
6.551527936,1.0002807251168122,-34.9336107985168
6.557213696,1.000317916762568,-35.1526438252084
6.562899968,1.0003365721563868,-35.37218485188137
6.568585728,1.0003357362545242,-35.59187704321527
6.574271488,1.000315185204703,-35.81149443713844
6.579957248,1.000276241031631,-36.0308160339864
6.585643008,1.000221116512496,-36.24956693917354
6.59132928,1.0001530206561178,-36.46748428556352
6.59701504,1.0000757696208977,-36.684537301017
6.6027008,0.9999938368714919,-36.90054352894777
6.60838656,0.9999123014571301,-37.115450889396776
6.61407232,0.9998355261081043,-37.32937529952486
6.619758592,0.9997681486894019,-37.542340600527304
6.625444352,0.999714007373523,-37.75455800306149
6.631130112,0.9996763680918141,-37.96621156339208
6.636815872,0.9996575514555549,-38.1775317296348
6.642501632,0.9996583696337097,-38.38880952732044
6.648187392,0.9996789575361331,-38.60030855366817
6.653873664,0.9997180675229346,-38.81229779948304
6.659559424,0.9997736910313545,-39.02501553215838
6.665245184,0.9998423187977588,-39.2386998810883
6.670930944,0.999920078818855,-39.45344393138692
6.676616704,1.000002482048762,-39.66940127297958
6.682302976,1.0000848717805282,-39.886565862566584
6.687988736,1.0001622602799654,-40.10490266901878
6.693674496,1.000230246766113,-40.324379099386626
6.699360256,1.0002847684685818,-40.54477441745349
6.705046016,1.0003227121477989,-40.76587597231252
6.710732288,1.0003417378146167,-40.98745077888906
6.716418048,1.0003410446322252,-41.209233030102496
6.722103808,1.0003203417824986,-41.4309646366632
6.727789568,1.0002809743327523,-41.65236931546693
6.733475328,1.0002249775089975,-41.8731622543107
6.739161088,1.0001559420993364,-42.093165414927945
6.74484736,1.0000776828297242,-42.31222476380065
6.75053312,0.9999944821915305,-42.53029036692062
6.75621888,0.9999115144254724,-42.7472186164006
6.76190464,0.9998335136435303,-42.963102130382175
6.7675904,0.9997648779961138,-43.178072227706956
6.773276672,0.9997097520166287,-43.392243883863586
6.778962432,0.9996713599173238,-43.60588426201983
6.784648192,0.9996519015097945,-43.81913810487419
6.790333952,0.9996526300628477,-44.032345446601965
6.796019712,0.9996733386794372,-44.24580298883764
6.801705984,0.9997129814840235,-44.45974908339374
6.807391744,0.9997692662663135,-44.6744587112256
6.813077504,0.9998389255782836,-44.89007094071445
6.818763264,0.9999178068990611,-45.10683879698995
6.824449024,1.000001509936395,-45.324799178561896
6.830134784,1.000085226421226,-45.544002749537405
6.835821056,1.0001639352879867,-45.76442978381869
6.841506816,1.000233112274381,-45.98590767827093
6.847192576,1.0002886960595336,-46.20839058560539
6.852878336,1.000327601021565,-46.43158872926089
6.858564096,1.0003471583099295,-46.655279691401226
6.864250368,1.0003466776863825,-46.87919869893366
6.869936128,1.0003259191254634,-47.103044349774024
6.875621888,1.0002861318733591,-47.326533549089106
6.881307648,1.0002294685702395,-47.549452006981994
6.886993408,1.000159440938378,-47.77156494861836
6.89267968,1.0000798008649654,-47.99273736415655
6.89836544,0.9999954224430104,-48.21280767677363
6.9040512,0.9999109821699422,-48.43182570035425
6.90973696,0.9998315729547185,-48.64974361928549
6.91542272,0.9997617183961656,-48.86671702984372
6.921108992,0.9997055608607235,-49.08293080508553
6.926794752,0.9996662858129258,-49.298507601275176
6.932480512,0.9996461558133378,-49.513763101348424
6.938166272,0.9996465941005794,-49.72895725099828
6.943852032,0.9996673589463166,-49.94437674960281
6.949537792,0.9997075756291189,-50.16031455056602
6.955224064,0.9997644059245622,-50.37698067612945
6.960909824,0.9998351100940532,-50.594611567774244
6.966595584,0.999915245543558,-50.81338102229816
6.972281344,1.000000437341406,-51.033362145717916
6.977967104,1.000085439247193,-51.25460837886851
6.983653376,1.000165501201968,-51.47707756285758
6.989339136,1.0002360108856674,-51.70072120061299
6.995024896,1.0002927965446025,-51.92526822046476
7.000710656,1.0003324081824787,-52.15062100095602
7.006396416,1.0003528079096617,-52.376438427061586
7.012082688,1.0003526176060373,-52.60250470529795
7.017768448,1.0003318498282512,-52.82850134617319
7.023454208,1.0002916539924238,-53.0541584342918
7.029139968,1.0002342952409569,-53.27920476902606
7.034825728,1.0001632955436939,-53.50345320418651
7.040511488,1.0000824351130937,-53.72671786163799
7.04619776,0.9999968311279188,-53.948926336417905
7.05188352,0.9999109097709796,-54.169990606231224
7.05756928,0.9998301649323175,-54.38998941568132
7.06325504,0.9997588401730898,-54.60905795392246
7.0689408,0.9997013038259515,-54.82724345368102
7.074627072,0.9996611791278677,-55.04484235757525
7.080312832,0.9996403530180947,-55.262088267660545
7.085998592,0.9996405267776765,-55.47928212358039
7.091684352,0.9996611078578175,-55.696692533369024
7.097370112,0.9997014399100278,-55.914624520382944
7.103056384,0.9997591865361077,-56.13327053748003
7.108742144,0.9998307435656881,-56.35293874316212
7.114427904,0.9999122105743067,-56.57372541727904
7.120113664,0.9999986789132591,-56.79576487129268
7.125799424,1.0000852300984668,-57.01912477529702
7.131485184,1.0001667417864546,-57.243670053226026
7.137171456,1.0002387441757576,-57.46939275338258
7.142857216,1.0002967703276444,-57.69610347665708
7.148542976,1.0003375590609036,-57.92358571790256
7.154228736,1.000358784152457,-58.15157316609337
7.159914496,1.0003590045205308,-58.37980360365531
7.165600768,1.0003381504451456,-58.60797878746858
7.171286528,1.0002977858392417,-58.835776305005865
7.176972288,1.0002398441390004,-59.06302739740522
7.182658048,1.0001678026355079,-59.28940115623783
7.188343808,1.000085839181849,-59.514815942295805
7.19403008,0.9999986318352845,-59.739148325059205
7.19971584,0.9999111704166023,-59.96237270198564
7.2054016,0.9998287489685255,-60.18444154497719
7.21108736,0.9997560107455121,-60.40556065501593
7.21677312,0.9996972098509623,-60.625782099543294
7.22245888,0.9996559304165029,-60.84541393521952
7.228145152,0.9996343276317069,-61.06471316226977
7.233830912,0.9996338283579271,-61.283911774597314
7.239516672,0.9996545122712213,-61.503303505837884
7.245202432,0.9996950944195372,-61.72324215595004
7.250888192,0.999753456615788,-61.94392834847956
7.256574464,0.9998259617300365,-62.16560375152372
7.262260224,0.9999086371212725,-62.38843941526654
7.267945984,0.9999964239463662,-62.6125646541181
7.273631744,1.0000847150245256,-62.83796237537201
7.279317504,1.0001678704342973,-63.06465296345605
7.285003776,1.0002413447385348,-63.292485085656345
7.290689536,1.000300818064023,-63.521319391061354
7.296375296,1.0003428346416998,-63.750985305989175
7.302061056,1.0003648420637308,-63.98118840458072
7.307746816,1.000365523905708,-64.21158233436483
7.313433088,1.0003448777736645,-64.4419534838115
7.319118848,1.0003042529208246,-64.67194906435951
7.324804608,1.0002457052508806,-64.90138179757355
7.330490368,1.000172742153219,-65.12995748170431
7.336176128,1.0000895802667495,-65.35752519963947
7.341861888,1.00000077912266,-65.58403004443387
7.34754816,0.9999120981769897,-65.80934113892097
7.35323392,0.9998278811640766,-66.03355062849141
7.35891968,0.9997535125780076,-66.25671630078074
7.36460544,0.9996933020691926,-66.4790091693119
7.3702912,0.999650691721409,-66.70070959854968
7.375977472,0.9996281174098696,-66.922005337686
7.381663232,0.9996271843798695,-67.14321081468347
7.387348992,0.9996475070491146,-67.36466710194584
7.393034752,0.9996883795754391,-67.58662077025002
7.398720512,0.9997472714964742,-67.80932264322809
7.404406784,0.9998208037258256,-68.03302840478025
7.410092544,0.9999047818689251,-68.25789365267373
7.415778304,0.9999941475153721,-68.48406085151065
7.421464064,1.0000838111555301,-68.7115654707996
7.427149824,1.0001686786303856,-68.94037415935252
7.432835584,1.0002437983352004,-69.17033015670987
7.438521856,1.0003047990672798,-69.40135144523902
7.444207616,1.000348077913062,-69.63316951833374
7.449893376,1.0003711613452548,-69.8655393261041
7.455579136,1.0003724300926373,-70.0981521632123
7.461264896,1.000352053507516,-70.3307448322596
7.466951168,1.0003113008612194,-70.56296555698658
7.472636928,1.0002521511829705,-70.79457692523498
7.478322688,1.0001782811422877,-71.02537073473361
7.484008448,1.00009377790323,-71.25514074928502
7.489694208,1.0000036572882234,-71.48376594125091
7.49538048,0.9999130654156453,-71.71121174855875
7.50106624,0.9998272647823984,-71.93754891879593
7.506752,0.999751100560604,-72.162820939398
7.51243776,0.9996892182188183,-72.38719563101343
7.51812352,0.9996453032364332,-72.61092954896245
7.52380928,0.9996217934248137,-72.83427764934628
7.529495552,0.9996200333822273,-73.05752417895708
7.535181312,0.9996402049895786,-73.28093970617311
7.540867072,0.9996811730667869,-73.50489565220381
7.546552832,0.9997405661924348,-73.72964941872375
7.552238592,0.9998150160180544,-73.95536461857613
7.557924864,0.9999001889321095,-74.18227482151089
7.563610624,0.9999911106792286,-74.4105086368603
7.569296384,1.0000825660756172,-74.64010275308885
7.574982144,1.000169354137252,-74.8710068031685
7.580667904,1.0002462529021638,-75.10309754171763
7.586354176,1.0003088638970132,-75.33627141521363
7.592039936,1.0003534486700931,-75.57031686611376
7.597725696,1.0003776436234364,-75.80485409277118
7.603411456,1.0003799076766497,-76.03967289880907
7.609097216,1.000359840531905,-76.27448394983617
7.614782976,1.000318910897977,-76.50892686488709
7.620469248,1.0002592493510396,-76.74275100976291
7.626155008,1.0001844616360789,-76.97574428204103
7.631840768,1.0000987494764917,-77.20771009035931
7.637526528,1.0000068425604474,-77.43850155293303
7.643212288,0.9999145607117588,-77.66813434799002
7.64889856,0.9998268283876387,-77.89653338713333
7.65458432,0.9997490178123983,-78.12390647517014
7.66027008,0.9996855085655078,-78.3503935204566
7.66595584,0.9996399972773373,-78.57616304619762
7.6716416,0.9996153040818729,-78.80152474509453
7.677327872,0.9996126991164882,-79.02678499073474
7.683013632,0.9996325064595851,-79.25223081203521
7.688699392,0.9996734127068617,-79.47821138707478
7.694385152,0.9997333145759199,-79.70493666774198
7.700070912,0.9998086578728845,-79.93269585290352
7.705757184,0.9998950944996686,-80.16167115679339
7.711442944,0.9999876814646765,-80.39192033491481
7.717128704,1.0000808540842607,-80.62356024083958
7.722814464,1.0001695724157342,-80.85658170983557
7.728500224,1.0002484328948582,-81.09080438275392
7.734185984,1.000312719786491,-81.3261382414821
7.739872256,1.0003590178523645,-81.56231162642635
7.745558016,1.0003843723467847,-81.79905737335793
7.751243776,1.000387426249286,-82.03609027840037
7.756929536,1.0003679302422355,-82.27310566768224
7.762615296,1.0003269572186808,-82.50975984253606
7.768301568,1.0002669035847034,-82.74579670257921
7.773987328,1.000191139104493,-82.98102834816572
7.779673088,1.0001041722039152,-83.21515087342415
7.785358848,1.0000107614634783,-83.44816620816657
7.791044608,0.9999165473998705,-83.67989472618218
7.79673088,0.999826938307552,-83.91047445354475
7.80241664,0.9997471276237432,-84.13991281670344
7.8081024,0.9996816712889988,-84.36844565651052
7.81378816,0.999634620347563,-84.59625223434473
7.81947392,0.9996085088595851,-84.82362949321559
7.82515968,0.9996049978893208,-85.05091148635725
7.830845952,0.9996242757401039,-85.27835604257575
7.836531712,0.999665248779243,-85.506293481958
7.842217472,0.9997255549109431,-85.73499952962881
7.847903232,0.9998017916890445,-85.96478767169032
7.853588992,0.9998896263487518,-86.19572147794025
7.859275264,0.9999837163100415,-86.42804682499938
7.864961024,1.0000789375998844,-86.66175352892796
7.870646784,1.0001694479077248,-86.89683793168007
7.876332544,1.0002503580671238,-87.13316844936008
7.882018304,1.000316726004085,-87.37063840339214
7.887704576,1.000364662114443,-87.6089696928859
7.893390336,1.0003914962777538,-87.84790530767165
7.899076096,1.0003954636378678,-88.0871437767739
7.904761856,1.0003765924658958,-88.32631730839738
7.910447616,1.0003356793368703,-88.56523140106215
7.916133376,1.0002752046306889,-88.80348824653473
7.921819648,1.0001985519695313,-89.04086498794199
7.927505408,1.0001102137354028,-89.27721319102662
7.933191168,1.0000151797833023,-89.51234665873142
7.938876928,0.9999190882539021,-89.74624588902373
7.944562688,0.9998274527041648,-89.97890657169944
7.95024896,0.999745497000727,-90.21045392954507
7.95593472,0.999678127202937,-90.44103219291266
7.96162048,0.9996291773772911,-90.67087176079217
7.96730624,0.9996016061148263,-90.9002437521685
7.972992,0.9995970485515183,-91.12950335750892
7.978678272,0.9996156518985869,-91.35891056068498
7.984364032,0.9996565336307237,-91.58878421606433
7.990049792,0.9997170846322382,-91.8194992167479
7.995735552,0.9997942977656681,-92.05119588684437
8.001421312,0.9998833424127761,-92.28416499532463
8.007107072,0.9999791730578687,-92.51846594510664
8.012793344,1.0000762728295403,-92.75421767548896
8.018479104,1.0001690949484943,-92.99134050388099
8.024164864,1.0002521321291273,-93.2297610813573
8.029850624,1.0003204223609847,-93.46932514030306
8.035536384,1.0003703552298973,-93.70979786413287
8.041222656,1.0003986797413482,-93.95090756445951
8.046908416,1.0004039064182095,-94.19228490320853
8.052594176,1.0003856815291134,-94.43368819643838
8.058279936,1.0003448805834179,-94.67478354474548
8.063965696,1.000284073151847,-94.91523629219353
8.069651968,1.000206651226943,-95.15480122301307
8.075337728,1.0001169013257978,-95.39330844768105
8.081023488,1.000020257400324,-95.6305838527111
8.086709248,0.9999222057604651,-95.86660569025564
8.092395008,0.999828249747137,-96.10135918393134
8.098080768,0.9997442018559591,-96.33495460630678
8.10376704,0.9996746088799573,-96.56756722312062
8.1094528,0.9996237323118241,-96.7993794055174
8.11513856,0.999594497949396,-97.03076142573391
8.12082432,0.999588664916347,-97.26194077349311
8.12651008,0.9996065205342983,-97.49325913408408
8.132196352,0.9996471830986102,-97.72510693664516
8.137882112,0.9997082541128642,-97.95770080759522
8.143567872,0.9997861809392022,-98.19137395352402
8.149253632,0.9998765281228141,-98.42624664935981
8.154939392,0.9999741061716995,-98.66255384742504
8.160625664,1.0000733021573949,-98.90024426064329
8.166311424,1.0001681045433992,-99.13941397519544
8.171997184,1.0002534407714212,-99.37987259226476
8.177682944,1.0003241653354527,-99.62151037257685
8.183368704,1.0003760250591005,-99.8641087921551
8.189054976,1.0004061518442782,-100.10731670307267
8.194740736,1.0004125803763921,-100.35085525924181
8.200426496,1.000395263132278,-100.59442968677072
8.206112256,1.000354850086069,-100.83767236172336
8.211798016,1.0002935924898242,-101.08028967256145
8.217483776,1.0002152858675428,-101.322018282929
8.223170048,1.0001243402472864,-101.56264904647124
8.228855808,1.0000258371444366,-101.80206943002328
8.234541568,0.9999256595120927,-102.04015684796619
8.240227328,0.9998295114090332,-102.27696996998161
8.245913088,0.9997430369924134,-102.51260493664721
8.25159936,0.9996712368604018,-102.74719889283303
8.25728512,0.9996182863997587,-102.98100353939607
8.26297088,0.9995871136288559,-103.21427307160873
8.26865664,0.9995798888903487,-103.44738278188981
8.2743424,0.9995969110027787,-103.68060080883608
