freq,mag,phase
6.0,0.9995207625082927,-155.34975841956532
6.002286592,0.9996047389000555,-155.4882257916115
6.004572672,0.999713990411797,-155.6281338856656
6.006859264,0.9998414785171392,-155.76974306955154
6.009145344,0.9999789903205231,-155.913323506533
6.011431936,1.0001180295708456,-156.05886485768258
6.013718016,1.0002496205020681,-156.2064074258985
6.016004608,1.0003654702658755,-156.35574730417093
6.018290688,1.0004583070363984,-156.50657254330042
6.02057728,1.0005220322288852,-156.65857658974252
6.022863872,1.000552775879378,-156.8112642076059
6.025149952,1.0005485159241376,-156.96413441742203
6.027436544,1.0005095383293243,-157.11668636901953
6.029722624,1.0004382323383547,-157.2684365195718
6.032009216,1.0003391486909674,-157.41897173682312
6.034295296,1.000218410506447,-157.56787966315795
6.036581888,1.0000838883420438,-157.71500249926822
6.03886848,0.9999439710952349,-157.86004639793174
6.04115456,0.9998075161469153,-158.0031313698249
6.043441152,0.9996831736254438,-158.14432284962024
6.045727232,0.999578903125424,-158.28380141618433
6.048013824,0.9995013757697283,-158.4219908210768
6.050299904,0.9994553730097009,-158.55927086285024
6.052586496,0.999443922010457,-158.69613594408497
6.054872576,0.9994677722851709,-158.83305946848247
6.057159168,0.9995254428890985,-158.9706208656427
6.05944576,0.9996132593221831,-159.1091982504141
6.06173184,0.999725674488149,-159.24927187051318
6.064018432,0.9998554926861483,-159.3910939320065
6.066304512,0.9999946398114048,-159.53487696321855
6.068591104,1.0001341637437076,-159.6806655111913
6.070877184,1.0002652215609042,-159.8284150062663
6.073163776,1.0003796447992594,-159.97796963226372
6.075450368,1.0004700027223972,-160.12900763331555
6.077736448,1.0005306449164908,-160.28114108094212
6.08002304,1.0005576577261523,-160.4339085436695
6.08230912,1.0005493782390664,-160.58682059402602
6.084595712,1.0005063376849663,-160.73936596083226
6.086881792,1.000431129532841,-160.89103060989612
6.089168384,1.000328651676647,-161.04143430430537
6.091454464,1.0002051943567376,-161.19018053039127
6.093741056,1.0000687654151799,-161.3370347513634
6.096027648,0.9999278858335925,-161.48187783512688
6.098313728,0.999791418936379,-161.62470752432
6.10060032,0.9996681638355944,-161.76564824660514
6.1028864,0.9995659126322199,-161.9049565947139
6.105172992,0.999491174263767,-162.04294294135858
6.107459072,0.999448757300608,-162.1801044955178
6.109745664,0.9994412129024794,-162.31687350211757
6.112032256,0.9994691246438344,-162.4538015835635
6.114318336,0.9995307771956364,-162.59138622957045
6.116604928,0.9996222468540357,-162.7300651102246
6.118891008,0.9997377537308209,-162.87023111482037
6.1211776,0.9998699782933248,-163.01224291191073
6.12346368,1.0000104523303905,-163.15623318971421
6.125750272,1.0001504467988682,-163.30223995308333
6.128036352,1.0002809315262942,-163.4502226588032
6.130322944,1.000393709334542,-163.59995932729512
6.132609536,1.0004814940690152,-163.75115662216604
6.134895616,1.000538966125262,-163.90342081284084
6.137182208,1.0005622560137846,-164.05628018674935
6.139468288,1.0005500057058219,-164.2091906903991
6.14175488,1.0005027748379016,-164.36167699045473
6.14404096,1.0004237321973044,-164.51324234420986
6.146327552,1.0003178251257139,-164.6635003615278
6.148614144,1.0001917046877302,-164.81205173076052
6.150900224,1.0000533467317871,-164.95865566441537
6.153186816,0.9999115061656615,-165.10324846965582
6.155472896,0.9997752723414618,-165.245847614403
6.157759488,0.9996532221632052,-165.38649818764378
6.160045568,0.9995530964544302,-165.52557908757313
6.16233216,0.9994812819825658,-165.6633976195602
6.16461824,0.9994423335305614,-165.80039258419126
6.166904832,0.9994387445824875,-165.93705346633158
6.169191424,0.9994708246188485,-166.07395241200382
6.171477504,0.9995365666125867,-166.21157985536112
6.173764096,0.9996315800431433,-166.3503145292445
6.176050176,0.999750204723285,-166.49063659969573
6.178336768,0.9998847211055166,-166.63279267540983
6.180622848,1.0000265377000097,-166.776958852159
6.18290944,1.000166795243582,-166.9231945646446
6.18519552,1.0002965514830588,-167.0713599995895
6.187482112,1.0004075767662821,-167.22127441372746
6.189768704,1.0004929178409814,-167.37263130064622
6.192054784,1.0005469217652563,-167.52498337318144
6.194341376,1.0005664394230604,-167.677896796323
6.196627456,1.0005500446946185,-167.83080067800637
6.198914048,1.0004987400713539,-167.9832623908192
6.201200128,1.0004158702506796,-168.13470243726
6.20348672,1.000306586507528,-168.2847499518339
6.205773312,1.0001777198673039,-168.43306935242032
6.208059392,1.0000376743270156,-168.5794439806309
6.210345984,0.9998950583457917,-168.72375740335184
6.212632064,0.9997591244789911,-168.8660669304407
6.214918656,0.9996382747536757,-169.0064645688543
6.217204736,0.9995404203503335,-169.1452991133807
6.219491328,0.9994716292483761,-169.2828676049461
6.221777408,0.9994362919015152,-169.41971573052336
6.224064,0.9994368955032776,-169.55631028500358
6.226350592,0.9994730260082338,-169.69317772122338
6.228636672,0.999542752767337,-169.83075780662818
6.230923264,0.9996414365987143,-169.96960862873323
6.233209344,0.9997630459472711,-170.1100241875137
6.235495936,0.9998997174283162,-170.25234537259584
6.237782016,1.0000428666898689,-170.39669142974927
6.240068608,1.0001832633689218,-170.543105622884
6.2423552,1.0003122377328202,-170.69142386541478
6.24464128,1.0004214628015804,-170.84152805454275
6.246927872,1.0005040119647248,-170.99301069851617
6.249213952,1.0005546998371226,-171.14546698791503
6.251500544,1.0005702946821666,-171.29839081988806
6.253786624,1.000549672521321,-171.45128861028715
6.256073216,1.000494321154293,-171.60362306203018
6.258359296,1.0004075558567902,-171.7549028300983
6.260645888,1.0002950359279308,-171.90476870765912
6.26293248,1.0001635626476468,-172.05285613416433
6.26521856,1.0000217545009844,-172.19894009661436
6.267505152,0.9998784919119822,-172.34299583309203
6.269791232,0.9997429056133141,-172.48496248481644
6.272077824,0.9996234766073235,-172.62511194921495
6.274363904,0.9995279296980983,-172.76366867320877
6.276650496,0.9994622089682117,-172.9010556808898
6.278937088,0.9994306628854649,-173.0377153047554
6.281223168,0.9994352245830773,-173.17418802499367
6.28350976,0.9994756225825968,-173.31099141648534
6.28579584,0.9995492943831886,-173.4486024811958
6.288082432,0.9996516884764596,-173.5874847384164
6.290368512,0.9997761789516515,-173.72800824987715
6.292655104,0.9999149874333702,-173.87046122096802
6.294941184,1.0000592207030152,-174.0149560127451
6.297227776,1.0001998299936623,-174.1615429082602
6.299514368,1.000327797812287,-174.3100606511844
6.301800448,1.0004350167606906,-174.4602962260617
6.30408704,1.0005148354941815,-174.6118990584547
6.30637312,1.0005620182025647,-174.7643842503503
6.308659712,1.00057371988893,-174.91732976547027
6.310945792,1.000548921272161,-175.0701626032133
6.313232384,1.0004893530085879,-175.22240112373117
6.315518464,1.0003987854019507,-175.373535914752
6.317805056,1.0002829393119805,-175.52317708755254
6.320091648,1.0001490750310886,-175.67097896366698
6.322377728,1.0000055602385804,-175.81679975690867
6.32466432,0.9998616882575538,-175.96049890850412
6.3269504,0.9997265686829477,-176.10216764770624
6.329236992,0.9996086782383047,-176.24199233399395
6.331523072,0.9995155574661092,-176.38027747814343
6.333809664,0.9994530261220683,-176.5174208245733
6.336096256,0.9994254550829118,-176.65390023256177
6.338382336,0.9994340802724837,-176.7902445330284
6.340668928,0.9994786157115477,-176.92698122052315
6.342955008,0.9995564751028779,-177.0645734679351
6.3452416,0.9996623228775643,-177.20351358742965
6.34752768,0.9997898217433414,-177.34416576999436
6.349814272,0.9999306082477368,-177.48674663972312
6.352100352,1.0000758816797146,-177.63139718021517
6.354386944,1.0002164059459624,-177.77815683564995
6.356673536,1.0003434135570817,-177.92681912763283
6.358959616,1.0004486511167672,-178.07716409053813
6.361246208,1.000525442473898,-178.22885743953918
6.363532288,1.000568971750208,-178.3814226385156
6.36581888,1.0005766230564686,-178.53433494012825
6.36810496,1.0005477001774439,-178.68709257863185
6.370391552,1.0004840343006236,-178.83919636953036
6.372678144,1.000389517904112,-178.99011616622417
6.374964224,1.0002703951505025,-179.13952460163145
6.377250816,1.0001341733306186,-179.28704008716832
6.379536896,0.9999891410646716,-179.43254226338658
6.381823488,0.9998448197404585,-179.57590947934622
6.384109568,0.999710274291351,-179.71726556688935
6.38639616,0.9995939978363428,-179.85675164491144
6.38868224,0.9995034378917136,-179.99475537476619
6.390968832,0.9994443228425738,179.8683189184642
6.393255424,0.9994204255072286,179.732053168967
6.395541504,0.9994333474736898,179.59584604280775
6.397828096,0.9994821556738436,179.4591758087815
6.400114176,0.9995639043159759,179.32159112532645
6.402400768,0.9996733497132473,179.18260281199244
6.404686848,0.9998035553423593,179.0418889249082
6.40697344,0.9999464866547849,178.89919564683584
6.409260032,1.0000926800945962,178.75438739463672
6.411546112,1.0002331609878572,178.60750292109861
6.413832704,1.0003589505970152,178.4587056623672
6.416118784,1.0004619627181868,178.30822219690523
6.418405376,1.0005358737744672,178.15646350820853
6.420691456,1.0005758601457946,178.00389442722587
6.422978048,1.0005792447067292,177.85102743178197
6.425264128,1.0005460278012934,177.69833028258
6.42755072,1.0004782219295543,177.54641324587132
6.429837312,1.0003799855304745,177.3956716425849
6.432123392,1.0002577034228486,177.2465367195511
6.434409984,1.0001190536307492,177.09931101511248
6.436696064,0.9999725597607275,176.95417073642125
6.438982656,0.9998278741227709,176.81115137022616
6.441268736,0.9996940686562268,176.67015759386354
6.443555328,0.9995794146520787,176.53097199416624
6.44584192,0.9994915532124381,176.39328541479134
6.448128,0.999435802986779,176.2566251337241
6.450414592,0.9994159528398545,176.12051909742974
6.452700672,0.9994331491307704,175.9844757280316
6.454987264,0.9994861946635036,175.84789078102344
6.457273344,0.9995718957949976,175.7103471214908
6.459559936,0.9996849361296181,175.57132475331903
6.461846016,0.9998179152719756,175.43053148565602
6.464132608,0.9999626458372756,175.28771529268974
6.4664192,1.000109770922337,175.14279542625277
6.46870528,1.000249988310323,174.99577975807767
6.470991872,1.000374441419782,174.8468455135887
6.473277952,1.0004751950027018,174.69627992895272
6.475564544,1.0005460091002687,174.5444671748714
6.477850624,1.0005822169896232,174.39187663197595
6.480137216,1.0005815532280038,174.2390579407339
6.482423296,1.0005439227639197,174.08649465168642
6.484709888,1.0004719559357282,173.93473510427478
6.48699648,1.0003699682209102,173.78424066056098
6.48928256,1.0002445041306594,173.63542693196104
6.491569152,1.0001034256384844,173.48849703917432
6.493855232,0.9999557721687841,173.34371233286473
6.496141824,0.9998107345908869,173.20104437437962
6.498427904,0.999677782829387,173.0604276212822
6.500714496,0.99956500948263,172.9216128565363
6.503001088,0.9994798180105198,172.7841982520498
6.505287168,0.9994277245380624,172.64782769430388
6.50757376,0.9994117818131519,172.51193796972586
6.50985984,0.9994331997003771,172.3760503467912
6.512146432,0.9994905603656936,172.23953544561127
6.514432512,0.999580339663644,172.10200617886497
6.516719104,0.9996967910663804,171.96297680558027
6.519005184,0.9998325270570373,171.8221188592628
6.521291776,0.9999789776726562,171.6792328853115
6.523578368,1.00012685171683,171.53415227465402
6.525864448,1.0002666603678447,171.38702078400885
6.52815104,1.00038976112303,171.23799006544033
6.53043712,1.00048818018509,171.08734986780706
6.532723712,1.0005557888607712,170.93550573353016
6.535009792,1.000588102195894,170.78293468420537
6.537296384,1.0005832300163757,170.63016460879194
6.539582976,1.000541274052434,170.47775087552583
6.541869056,1.000465061992545,170.32619182579091
6.544155648,1.0003593782614502,170.17597003806515
6.546441728,1.000230771462177,170.0274410080602
6.54872832,1.0000875755776188,169.88089590583428
6.5510144,0.9999385793554384,169.73647158083185
6.553300992,0.9997935117613002,169.5941805538698
6.555587072,0.9996613637166132,169.45395140939652
6.557873664,0.9995507186195368,169.31544104457387
6.560160256,0.9994684161580356,169.17841542545165
6.562446336,0.9994198122237687,169.0422868552512
6.564732928,0.9994080507096015,168.90664888845845
6.567019008,0.9994338196668425,168.770878075144
6.5693056,0.9994955913906302,168.6345102615731
6.57159168,0.9995894112588727,168.49699827676744
6.573878272,0.9997092673808045,168.35796830514224
6.576164864,0.9998475773737949,168.21702486927762
6.578450944,0.9999957256722332,168.07403534251927
6.580737536,1.0001442815830213,167.92889216353896
6.583023616,1.0002837617624416,167.78163159201193
6.585310208,1.0004051924856192,167.6325011132379
6.587596288,1.0005011134928914,167.48181382685704
6.58988288,1.0005653222966693,167.3299324249739
6.59216896,1.0005937873173372,167.17739074061626
6.594455552,1.0005845149318562,167.0247358066083
6.596742144,1.000538372403555,166.87246181789715
6.599028224,1.000457924648908,166.72113430221287
6.601314816,1.000348469260113,166.57116908836431
6.603600896,1.0002168865090872,166.42298485969866
6.605887488,1.000071318179549,166.27676345027444
6.608173568,0.9999213506392819,166.13276280961642
6.61046016,0.9997762326909495,165.99086316068298
6.612746752,0.9996451599402674,165.851009622058
6.615032832,0.9995364859320683,165.71290189912543
6.617319424,0.9994571855681128,165.57616558893196
6.619605504,0.9994124168583095,165.4403558926844
6.621892096,0.9994047650481135,165.30493600456185
6.624178176,0.9994348933439163,165.16936550453337
6.626464768,0.9995009180425758,165.03307460436457
6.628750848,0.9995987601166318,164.89562539409553
6.63103744,0.9997220557534668,164.75656776311158
6.633324032,0.9998630181198586,164.6155682669916
6.635610112,1.0000128112681475,164.4725056764352
6.637896704,1.0001617592088419,164.3272789459546
6.640182784,1.000300664442256,164.17992721331353
6.642469376,1.0004204643278714,164.03071705002284
6.644755456,1.000513743417953,163.87995499549956
6.647042048,1.0005745167165776,163.7280777306231
6.649328128,1.0005988793779974,163.57558105303272
6.65161472,1.0005853632085628,163.42304574580484
6.653901312,1.0005348493442339,163.27093892364144
6.656187392,1.0004502300807028,163.11986118255464
6.658473984,1.0003370679081753,162.97017484205006
6.660760064,1.0002024257027953,162.82234877221975
6.663046656,1.000054729276719,162.67653362708273
6.665332736,0.9999038017195204,162.53291095147978
6.667619328,0.9997586207369097,162.39145443384902
6.66990592,0.999628772420901,162.25199066483725
6.672192,0.9995223156905882,162.11426152438682
6.674478592,0.9994461907183182,161.97788712996794
6.676764672,0.9994051596013303,161.84236798454674
6.679051264,0.9994017317343118,161.7072094353918
6.681337344,0.9994362843608079,161.57178034492762
6.683623936,0.9995068058821122,161.4356073279605
6.685910016,0.9996085575594977,161.29820136661436
6.688196608,0.9997353125840617,161.15913432201788
6.6904832,0.9998786912415867,161.01811529127903
6.69276928,1.0000298512051846,160.87497605186593
6.695055872,1.000179337820448,160.72963905124166
6.697341952,1.0003174881900017,160.58221212330028
6.699628544,1.0004356504994747,160.4329375989232
6.701914624,1.0005262289119357,160.28214002808443
6.704201216,1.0005834237470055,160.1302970718184
6.706487808,1.0006038118099754,159.97789393562573
6.708773888,1.0005857662892415,159.82544593357656
6.71106048,1.0005306848056486,159.673564506677
6.71334656,1.0004419433500324,159.52272654318494
6.715633152,1.0003250868666251,159.3733779312354
6.717919232,1.0001874578800076,159.22588683880846
6.720205824,1.0000379814069316,159.0804941607115
6.722491904,0.9998860233082405,158.9372703206631
6.724778496,0.9997411332596544,158.7962534444455
6.727065088,0.9996125668360057,158.65722013604267
6.729351168,0.9995084532326717,158.51988888367856
6.73163776,0.9994354939223202,158.38387160052943
6.73392384,0.9993983634801475,158.24865103548234
6.736210432,0.9993993670662549,158.11368697163005
6.738496512,0.999438462579344,157.9784760073583
6.740783104,0.9995132784069259,157.84241974821484
6.743069696,0.9996189412569065,157.7050755145354
6.745355776,0.9997489035017473,157.5660086425668
6.747642368,0.9998949064775516,157.42494764589364
6.749928448,1.0000475814035914,157.28173137100248
6.75221504,1.0001972646429471,157.13631707578614
6.75450112,1.0003346547366756,156.9888187811722
6.756787712,1.000450834637051,156.8394733820332
6.759073792,1.000538492588839,156.68869015906193
6.761360384,1.0005920373023662,156.5368511362304
6.763646976,1.0006083026768204,156.38452742423775
6.765933056,1.0005857487130283,156.23222352234387
6.768219648,1.000526155217766,156.08057452578663
6.770505728,1.0004332356523884,155.9300039112656
6.77279232,1.0003127137137677,155.78100468091023
6.7750784,1.0001723530324065,155.63388723671343
6.777364992,1.0000208707196718,155.48891451808353
6.779651584,0.9998680619966149,155.3461739619698
6.781937664,0.9997234456059718,155.20556362555155
6.784224256,0.9995962716015296,155.0669659589525
6.786510336,0.999494685188297,154.93004384764532
6.788796928,0.999425089489773,154.79439494479573
6.791083008,0.9993919762456765,154.65949258167117
6.7933696,0.9993973297699678,154.52478303674502
6.79565568,0.999440965568298,154.38973106093016
6.797942272,0.9995201361221069,154.25380209415738
6.800228864,0.9996298744824816,154.116506282435
6.802514944,0.9997630266343378,153.97747796862615
6.804801536,0.9999113083180862,153.83637894372055
6.807087616,1.0000652888425714,153.69308384646263
6.809374208,1.0002152354413762,153.54758422022212
6.811660288,1.0003516331585875,153.4000399134982
6.81394688,1.0004658317188113,153.2506706646956
6.81623296,1.0005505546234186,153.0998407100901
6.818519552,1.0006003935293293,152.9480828680007
6.820806144,1.0006121735699864,152.79586061134438
6.823092224,1.0005852824046406,152.6437579690175
6.825378816,1.0005211359764152,152.49229345551592
6.827664896,1.000423966866082,152.34204330325866
6.829951488,1.0002999144532756,152.19337543204117
6.832237568,1.0001566197184715,152.0466747591528
6.83452416,1.0000033306975769,151.90214431857697
6.836810752,0.999849849453659,151.7598364362784
6.839096832,0.9997056665700113,151.6197123277352
6.841383424,0.9995800693818683,151.48156075012704
6.843669504,0.9994809647335712,151.3450179748087
6.845956096,0.9994148663902819,151.2097485615902
6.848242176,0.9993857992318854,151.07514051465083
6.850528768,0.9993957943676253,150.94070858883728
6.852814848,0.9994440283503542,150.80583543727616
6.85510144,0.9995275283713252,150.67004254857815
6.857388032,0.9996410618037647,150.53279588550149
6.859674112,0.9997776635508514,150.39377066689914
6.861960704,0.9999282315235637,150.25264539329024
6.864246784,1.0000834031289227,150.1093175642385
6.866533376,1.000233490747052,149.9637684449527
6.868819456,1.0003688042224317,149.81616474750592
6.871106048,1.0004808635937146,149.6667421778782
6.87339264,1.0005623202509946,149.51594669024772
6.87567872,1.0006084551421313,149.3642319045123
6.877965312,1.0006158281014066,149.21211060743772
6.880251392,1.0005842869174042,149.06018161022314
6.882537984,1.0005156124027212,148.90901467047382
6.884824064,1.0004142494433714,148.7590575590075
6.887110656,1.0002866147212401,148.6107649354743
6.889396736,1.0001407395970265,148.46448315230393
6.891683328,0.9999856300284646,148.32041572314324
6.89396992,0.9998314800209617,148.17856185165434
6.896256,0.9996878494785421,148.03890784242788
6.898542592,0.9995639204489734,147.90119756837709
6.900828672,0.999467669370335,147.76511423556684
6.903115264,0.9994050717194738,147.6302056062283
6.905401344,0.9993802927837031,147.49592507141557
6.907687936,0.9993946850963826,147.36174724888158
6.909974528,0.9994474543980054,147.22708128335236
6.912260608,0.9995355556328591,147.09139953088882
6.9145472,0.9996530064082029,146.95425175484567
6.91683328,0.9997926168371979,146.81521014505194
