freq,mag,phase
6.0,1.0007759635128728,-50.12068394714412
6.00931328,1.0008223354585573,-50.52743153588347
6.01862656,1.0008268357092338,-50.93469688090771
6.027939328,1.0007889632824838,-51.34190297678104
6.037252608,1.000710575475959,-51.748528683461146
6.046565888,1.0005958485889657,-52.15403098668515
6.055879168,1.0004504536602632,-52.55805785444711
6.065191936,1.0002819308595305,-52.96016504857058
6.074505216,1.0000990058077852,-53.360146922505756
6.083818496,0.9999111441923394,-53.75784390132564
6.093131776,0.9997277714835342,-54.15332235812525
6.102444544,0.9995589333080229,-54.546585823232014
6.111757824,0.999412938670384,-54.937989797271335
6.121071104,0.9992974978740339,-55.3278084656695
6.130384384,0.999218835022227,-55.716500989676454
6.139697152,0.9991808131835827,-56.10462713785355
6.149010432,0.9991854983717903,-56.49267837746554
6.158323712,0.9992328641283739,-56.88122282064434
6.167636992,0.9993204801304229,-57.27081482052034
6.17694976,0.9994436785794015,-57.661977675078745
6.18626304,0.9995962863858014,-58.05506178509102
6.19557632,0.9997702604119734,-58.450455209010144
6.2048896,0.9999568342065442,-58.8484149856607
6.214202368,1.0001461470208846,-59.24900353342574
6.223515648,1.0003285261023855,-59.6522176099209
6.232828928,1.000494554090944,-60.057840353570725
6.242142208,1.0006357654805629,-60.46565459776276
6.251454976,1.0007445307486482,-60.875255870048925
6.260768256,1.0008154210662283,-61.28622195215202
6.270081536,1.0008444639134335,-61.698019843772315
6.279394816,1.0008303314689102,-62.1100773802448
6.288707584,1.0007737009771225,-62.52186678548976
6.298020864,1.0006775903643572,-62.9327979082036
6.307334144,1.0005464340942982,-63.34244330658873
6.316647424,1.000387354448647,-63.750330023826244
6.325960192,1.0002083711845553,-64.15620536744021
6.335273472,1.0000187878489815,-64.55977510827606
6.344586752,0.999828242493574,-64.96108125770742
6.353900032,0.9996468069002964,-65.36010602127135
6.3632128,0.9994839429283722,-65.75699982839106
6.37252608,0.9993477732608035,-66.15207289498638
6.38183936,0.99924534484257,-66.54580224156382
6.39115264,0.9991825858685365,-66.93854817317825
6.400465408,0.9991623012811017,-67.33097324423485
6.409778688,0.9991856573277288,-67.72354155511842
6.419091968,0.999251580894533,-68.11682033898171
6.428405248,0.999356928499135,-68.51143162363162
6.437718528,0.999496014533564,-68.90776132275506
6.447031296,0.9996616772329578,-69.30629389243033
6.456344576,0.9998453685349472,-69.70724637660255
6.465657856,1.0000378992724848,-70.11083941757984
6.474971136,1.0002289285162551,-70.51715632445554
6.484283904,1.000408829939036,-70.9260311344589
6.493597184,1.0005682503119908,-71.33728727360985
6.502910464,1.0006989100764243,-71.75062853182999
6.512223744,1.0007939710040503,-72.16562377637104
6.521536512,1.0008485794575974,-72.58174752264372
6.530849792,1.000859882210354,-72.99847686484168
6.540163072,1.000827024639141,-73.41523880101657
6.549476352,1.0007518737911554,-73.831464317276
6.55878912,1.0006380819785845,-74.24663439044382
6.5681024,1.0004917213412983,-74.6602923148515
6.57741568,1.0003199753502674,-75.07198414050977
6.58672896,1.0001318999185684,-75.48153890752874
6.596041728,0.9999371683424916,-75.88870612370751
6.605355008,0.9997456096148912,-76.293555677674
6.614668288,0.9995674772459648,-76.69609083359884
6.623981568,0.9994117995369564,-77.09662078772246
6.633294336,0.9992865585052938,-77.49546668440014
6.642607616,0.9991986047567734,-77.89305453430923
6.651920896,0.9991521984285717,-78.28993530103651
6.661234176,0.9991501359724387,-78.68666361646004
6.670546944,0.9991922772570232,-79.08377048459938
6.679860224,0.9992766364772808,-79.48189648037051
6.689173504,0.9993990582376301,-79.88151281862436
6.698486784,0.9995529942351093,-80.28310846979173
6.707799552,0.9997307018759511,-80.68705482529792
6.717112832,0.9999228751922912,-81.09356263946752
6.726426112,1.0001196776545835,-81.50278261268102
6.735739392,1.0003110397852886,-81.91471913398615
6.74505216,1.0004869134438865,-82.3292357065516
6.75436544,1.00063825843615,-82.74600127511766
6.76367872,1.0007572722667208,-83.16477487579444
6.772992,1.000837738818989,-83.58497604895553
6.782304768,1.0008754255023429,-84.00615959161988
6.791618048,1.0008683890182497,-84.42766802266085
6.800931328,1.000816917413406,-84.84899205625491
6.810244608,1.0007235382718542,-85.26953461344732
6.819557376,1.0005930475022704,-85.68876851684742
6.828870656,1.000432228324302,-86.10625649518154
6.838183936,1.000249058262302,-86.52166470505658
6.847497216,1.0000531716387713,-86.93478890374445
6.856810496,0.9998546656889173,-87.34543892179815
6.866123264,0.999663614306935,-87.75373522137471
6.875436544,0.9994900957083639,-88.1597763583703
6.884749824,0.9993430650678408,-88.56387852913217
6.894063104,0.9992301322884061,-88.96639610744981
6.903375872,0.9991572003659823,-89.36788087916128
6.912689152,0.9991281278433037,-89.76884969413454
6.922002432,0.9991443568711713,-90.16989054288217
6.931315712,0.9992053541170213,-90.57154349969426
6.94062848,0.9993079773819118,-90.97447352019478
6.94994176,0.9994466294783121,-91.37908699823548
6.95925504,0.9996146014067058,-91.78588473140454
6.96856832,0.9998031259122871,-92.19520985178745
6.977881088,1.0000023789558383,-92.60720956670936
6.987194368,1.0002021951552131,-93.02197281404995
6.996507648,1.0003923059573863,-93.43945583734448
7.005820928,1.0005628456491606,-93.85943066244306
7.015133696,1.0007049509801207,-94.28162721968313
7.024446976,1.0008111296212279,-94.70563739919938
7.033760256,1.0008761358958862,-95.1309217159359
7.043073536,1.0008963455002033,-95.55691353400368
7.052386304,1.0008708190711413,-95.98301933326854
7.061699584,1.000800721058702,-96.40869371630173
7.071012864,1.0006894380799547,-96.8333615677712
7.080326144,1.0005428115257442,-97.25649827882401
7.089638912,1.000368379570482,-97.67766985768797
7.098952192,1.0001749788977563,-98.09660960029807
7.108265472,0.9999726142934096,-98.51312205286492
7.117578752,0.9997717577946592,-98.92711425785974
7.12689152,0.9995826627587273,-99.3387311340101
7.1362048,0.9994152142325651,-99.74815389343733
7.14551808,0.9992780004956257,-100.1557411180828
7.15483136,0.9991782855739016,-100.56193240032844
7.164144128,0.9991213743042215,-100.96717358696893
7.173457408,0.999109814021327,-101.3721942669599
7.182770688,0.9991447934138245,-101.77746190599615
7.192083968,0.9992244164224514,-102.18362724040837
7.201396736,0.9993445103306864,-102.59123794830435
7.210710016,0.999499115384848,-103.00080456266144
7.220023296,0.999680141360443,-103.41272708431273
7.229336576,0.999878242654752,-103.82729085817257
7.238649344,1.0000832812915292,-104.24463808572034
7.247962624,1.0002849008078023,-104.664821798496
7.257275904,1.0004722999686873,-105.08765378568718
7.266589184,1.0006361017781196,-105.5129846511961
7.275902464,1.000767654903344,-105.94038343520188
7.285215232,1.0008602336305732,-106.36938322703199
7.294528512,1.0009089491017007,-106.79947779521329
7.303841792,1.0009112500541566,-107.23007744419637
7.313155072,1.0008668956874298,-107.66056556704635
7.32246784,1.0007782455514938,-108.0903034151588
7.33178112,1.000649600210321,-108.51882520459637
7.3410944,1.0004876940723892,-108.94559148247798
7.35040768,1.0003006255778617,-109.37021770608605
7.359720448,1.0000981279370058,-109.79245690760246
7.369033728,0.9998905931065681,-110.21216793309884
7.378347008,0.9996886162258944,-110.62931108794723
7.387660288,0.9995028208556206,-111.04410168593012
7.396973056,0.9993426365012053,-111.45674246576603
7.406286336,0.999216652771401,-111.86760594023204
7.415599616,0.9991311192817445,-112.27728161030987
7.424912896,0.9990906065194113,-112.68626276884886
7.434225664,0.9990974141810814,-113.09511360595334
7.443538944,0.9991512085347126,-113.5045399758829
7.452852224,0.9992492810428705,-113.91505397719949
7.462165504,0.9993866204780032,-114.32728536103507
7.471478272,0.9995562209108881,-114.74163968035933
7.480791552,0.9997492396281273,-115.15854018988175
7.490104832,0.9999560191156555,-115.57817326672222
7.499418112,1.0001656161675843,-116.00071054510478
7.50873088,1.000367426560704,-116.42604051618967
7.51804416,1.0005509682019047,-116.85406010794726
7.52735744,1.0007067622402388,-117.28444506485283
7.53667072,1.000826717419154,-117.71673605875878
7.545983488,1.0009047204588537,-118.15051776907276
7.555296768,1.000936483029086,-118.58519628847006
7.564610048,1.0009204210154494,-119.02007024181307
7.573923328,1.0008573201564952,-119.45457560957448
7.583236096,1.0007502717841923,-119.88814129342984
7.592549376,1.0006046893421183,-120.32021252696516
7.601862656,1.000428119668155,-120.7503059030742
7.611175936,1.000229417253776,-121.17809276193123
7.620488704,1.0000188835771517,-121.6033731580764
7.629801984,0.9998074505496024,-122.02600267704624
7.639115264,0.9996057941742631,-122.44607496742732
7.648428544,0.9994244365411155,-122.86375393312046
7.657741312,0.9992729047747313,-123.27938968756355
7.667054592,0.9991589600072436,-123.69340723874424
7.676367872,0.9990885056964608,-124.10636545129101
7.685681152,0.9990653510494304,-124.5187953796645
7.694994432,0.9990907184242205,-124.93138639505909
7.7043072,0.9991634212943488,-125.34474952531343
7.71362048,0.9992797782937426,-125.75946624377801
7.72293376,0.999433814750437,-126.17607613430899
7.73224704,0.9996177052655858,-126.59504920872732
7.741559808,0.9998218433427973,-127.01665690637371
7.750873088,1.0000360022121406,-127.4411908875643
7.760186368,1.0002489749205563,-127.86860927907378
7.769499648,1.0004497400653842,-128.29887708059147
7.778812416,1.0006281535911985,-128.7317810662485
7.788125696,1.0007747191643468,-129.16691559683284
7.797438976,1.0008820745479756,-129.60385256954777
7.806752256,1.0009444817819713,-130.04206635513128
7.816065024,1.0009587708743268,-130.48089823667004
7.825378304,1.0009240409363829,-130.91971390822727
7.834691584,1.000841927651826,-131.35793499228816
7.844004864,1.0007167250284656,-131.79494609175356
7.853317632,1.0005546956947677,-132.23022908941834
7.862630912,1.0003640906665925,-132.66330997553715
7.871944192,1.000154709408074,-133.09392003532497
7.881257472,0.9999373359681315,-133.52187554306505
7.89057024,0.9997231107466372,-133.94712823812148
7.89988352,0.9995230762372497,-134.36977178575805
7.9091968,0.9993475529511499,-134.79012196901232
7.91851008,0.999205720959124,-135.20844567500694
7.927822848,0.999104951837118,-135.62536279299567
7.937136128,0.9990503688668542,-136.04134325919904
7.946449408,0.9990451030090185,-136.45702329822305
7.955762688,0.9990894803313897,-136.87307586857733
7.965075456,0.9991811282483599,-137.29015102139923
7.974388736,0.9993154967018347,-137.70881241566175
7.983702016,0.9994858248814853,-138.12960734711714
7.993015296,0.9996833253022646,-138.55289909640967
8.002328064,0.999897727925839,-138.97899986203473
8.011641344,1.0001182214420876,-139.40808288547603
8.020954624,1.000333242529677,-139.84013394367477
8.030267904,1.0005318678254354,-140.2750304426331
8.039580672,1.0007037555054896,-140.7124312272665
8.048893952,1.000840123348069,-141.1519944103799
8.058207232,1.0009337994862533,-141.59319375958535
8.067520512,1.0009799290190395,-142.0354087813676
8.07683328,1.0009760319987728,-142.4780495711877
8.08614656,1.0009222284551276,-142.92044450621597
8.09545984,1.0008211527001272,-143.36193892131888
8.10477312,1.0006779701751365,-143.80196938762066
8.1140864,1.00049997988396,-144.2400300896811
8.123399168,1.000296157950877,-144.675743666778
8.132712448,1.0000770329430193,-145.10877378457695
8.142025728,0.9998537912893132,-145.53905031792118
8.151339008,0.9996379704508274,-145.96654733028004
8.160651776,0.9994406396155946,-146.39146751937673
8.169965056,0.9992721471661322,-146.81407327163362
8.179278336,0.9991411560436961,-147.23480990176108
8.188591616,0.9990544555097987,-147.65424166759868
8.197904384,0.9990167086287094,-148.07296353306728
8.207217664,0.9990299033292722,-148.49159369196153
8.216530944,0.9990935200822201,-148.91084429823061
8.225844224,0.9992042284346797,-149.33132750291034
8.235156992,0.9993564690371772,-149.75365425563834
8.244470272,0.9995425908955581,-150.1783018620492
8.253783552,0.999752832677129,-150.60561903772694
8.263096832,0.9999766322865141,-151.03587709614123
8.2724096,1.0002022819324625,-151.46920288229137
8.28172288,1.000418312501928,-151.90551700243168
8.29103616,1.000613528102811,-152.34463952990907
8.30034944,1.000777830126407,-152.78618965471176
8.309662208,1.0009028066406769,-153.2297805642673
8.318975488,1.0009817950934052,-153.674783629736
8.328288768,1.001010782846864,-154.12061198292898
8.337602048,1.000988196940015,-154.56662268988583
8.346914816,1.0009150616789646,-155.0121103426299
8.356228096,1.0007949065067103,-155.45643805110169
8.365541376,1.000633988442882,-155.89906740206385
8.374854656,1.0004404475553643,-156.33946743891974
8.384167424,1.0002240320006663,-156.77731299690265
8.393480704,0.9999959816526354,-157.21235815932857
8.402793984,0.9997680714422549,-157.6444940990467
8.412107264,0.9995518099742863,-158.07383980301978
8.421420032,0.999358535687881,-158.50057466880722
8.430733312,0.9991983040401242,-158.9251114964255
8.440046592,0.9990792563656056,-159.3479091411877
8.449359872,0.9990078025377075,-159.76951280487208
8.45867264,0.9989875198158044,-160.1906011367658
8.46798592,0.9990198403710775,-160.61187389383124
8.4772992,0.999103009630098,-161.0339489061523
8.48661248,0.9992328881298455,-161.45753489672316
8.495925248,0.9994029272406371,-161.8831437083649
8.505238528,0.9996043007306169,-162.31127448371691
8.514551808,0.9998268056272344,-162.74229732281884
8.523865088,1.000058940069288,-163.17636692492732
8.533178368,1.0002888495990492,-163.61352821332758
8.542491136,1.000504731540838,-164.05372029294725
8.551804416,1.0006953304203894,-164.49665848717174
8.561117696,1.000850829791997,-164.94193818986912
8.570430976,1.0009631845518794,-165.3890874716965
8.579743744,1.0010265277997403,-165.83747199368472
8.589057024,1.001037640687144,-166.28643934893245
8.598370304,1.000995739119802,-166.73531508536368
8.607683584,1.0009027414001317,-167.18341683665523
8.616996864,1.0007635234744003,-167.6300909441125
8.626310144,1.0005849428067772,-168.07481080748346
8.6356224,1.0003762806794996,-168.51707331927807
8.64493568,1.0001480414835056,-168.95657433702817
8.65424896,0.999911964804644,-169.3931160386192
8.66356224,0.9996802952538035,-169.82668895644133
8.67287552,0.9994647972887131,-170.2574204445254
8.6821888,0.9992766704407119,-170.68557621424853
8.69150208,0.9991257846758659,-171.11158975599352
8.70081536,0.9990198463766639,-171.5359659086411
8.710127616,0.9989645720833968,-171.95938166878088
8.719440896,0.9989627315327411,-172.38247882470176
8.728754176,0.999014644485101,-172.80596273985904
8.738067456,0.999117845513979,-173.23052922239475
8.747380736,0.9992669888682794,-173.65682477490998
8.756694016,0.9994543850198808,-174.08537167854305
8.766007296,0.9996707606635578,-174.51664409390918
8.775320576,0.9999047951738727,-174.95092526964677
8.784632832,1.0001444888095399,-175.3883971517086
8.793946112,1.000377474790983,-175.8290290331915
8.803259392,1.0005919708090572,-176.27266192773
8.812572672,1.0007767176263658,-176.71897393848732
8.821885952,1.0009221797204433,-177.1675389245611
8.831199232,1.0010209211511945,-177.61776742568972
8.840512512,1.0010675856858176,-178.06903207215586
8.849825792,1.001059891628034,-178.52062812982183
8.859138048,1.0009978830631583,-178.97187444200907
8.868451328,1.000884787900531,-179.4220543231477
8.877764608,1.000726273379459,-179.8705589482461
8.887077888,1.0005302778957712,179.6832035759759
8.896391168,1.0003068430388247,179.2395908323516
8.905704448,1.0000673060377847,178.79895042535827
8.915017728,0.9998242552054626,178.3613861781222
8.924331008,0.9995897869037044,177.9268645548721
8.933643264,0.9993762163146882,177.49527144501738
8.942956544,0.9991945019175081,177.06617128444142
8.952269824,0.9990541320270371,176.63912424101417
8.961583104,0.9989625088333426,176.21360039710933
8.970896384,0.9989244922259308,175.788819282547
8.980209664,0.9989419515725866,175.36413515233082
8.989522944,0.9990143313562763,174.93884165106527
8.998836224,0.9991378136497759,174.51219081859853
9.008149504,0.9993063711316701,174.08358245003438
9.01746176,0.9995112154032718,173.65248563327694
9.02677504,0.9997420431671629,173.21850485841503
9.03608832,0.9999868531505571,172.7813367179259
9.0454016,1.0002332622281347,172.34086962293765
9.05471488,1.0004685358239005,171.89723732851814
9.06402816,1.000680326755276,171.45063063165313
9.07334144,1.000858109110721,171.00139464939403
9.08265472,1.0009923588979484,170.55004578992956
9.091966976,1.0010761471115255,170.09722540438
9.101280256,1.0011051622804477,169.64359283016623
9.110593536,1.0010776926766487,169.18988585350587
9.119906816,1.0009950451269178,168.73680760595724
9.129220096,1.0008613439500937,168.28509607398965
9.138533376,1.000683250818777,167.8353247281752
9.147846656,1.0004700928667223,167.38804709005376
9.157159936,1.0002322637555932,166.9436895485343
9.166472192,0.9999822660146154,166.50241580829626
9.175785472,0.999732765539744,166.064396561513
9.185098752,0.999496726413298,165.62949137057015
9.194412032,0.9992863044369287,165.19745490477766
9.203725312,0.9991123390711698,164.76792733256576
9.213038592,0.9989839953181521,164.34034323334325
9.222351872,0.9989078921289215,163.91405419679162
9.231665152,0.9988880926985796,163.48837201241128
9.240977408,0.9989258507783629,163.06254573937844
9.250290688,0.9990193224723846,162.63583935371858
9.259603968,0.9991637404610788,162.20753742644635
9.268917248,0.9993518701761261,161.77702133195683
9.278230528,0.999574059906576,161.3437874066473
9.287543808,0.9998190434023585,160.90748391270623
9.296857088,1.0000739918656871,160.4678411013456
9.306170368,1.000326193103331,160.0248630894519
9.315482624,1.0005623545875342,159.57865062624893
9.324795904,1.0007705847535824,159.12946417606503
9.334109184,1.0009398627583221,158.6777961350047
9.343422464,1.0010615039051187,158.2241472738973
9.352735744,1.0011292487903014,157.7692338023575
9.362049024,1.0011392746789014,157.3137311446775
9.371362304,1.0010910730402554,156.85846075716037
9.380675584,1.000986961017574,156.40410786605364
9.389988864,1.0008321479880262,155.9513831354213
9.39930112,1.0006344501920683,155.50091600715916
9.4086144,1.0004037745427095,155.05319488309362
9.41792768,1.0001521321843942,154.6085752156354
9.42724096,0.9998921542883376,154.16729140532755
9.43655424,0.9996372134465655,153.72933870756944
9.44586752,0.9994006687510231,153.2945643236314
9.4551808,0.9991946015531221,152.86264764924582
9.46449408,0.9990297681315089,152.43315181413524
9.473806336,0.9989147008537562,152.00550216427285
9.483119616,0.9988554380066468,151.5789621700963
9.492432896,0.998855274862334,151.15281385236577
9.501746176,0.9989143194079465,150.72626346056668
9.511059456,0.999029678555381,150.29855917240423
9.520372736,0.9991956179572453,149.86898680966908
9.529686016,0.9994035883175609,149.4369664157039
9.538999296,0.999643054353661,149.00201149432743
9.548311552,0.9999016973865811,148.5637714294498
9.557624832,1.000166370502311,148.12206614544277
9.566938112,1.0004233949882235,147.67696712001083
9.576251392,1.0006593661735141,147.22858797129228
9.585564672,1.0008624703931885,146.77731487931476
9.594877952,1.001021938398915,146.32366103286574
9.604191232,1.0011296396254963,145.8682110608541
9.613504512,1.0011797249759062,145.41168197338038
9.622816768,1.001169542167658,144.95486974476188
9.632130048,1.001099482802459,144.49852383743405
9.641443328,1.0009730542214206,144.0434622185485
9.650756608,1.0007964119131478,143.59029021719815
9.660069888,1.0005785962153628,143.13966250266722
9.669383168,1.0003308207581287,142.69207133388332
9.678696448,1.000065463151929,142.24780140336284
9.688009728,0.9997961960806819,141.80698342379142
9.697321984,0.9995369559757997,141.3696184578651
9.706635264,0.9993010056655139,140.93549905674973
9.715948544,0.9991007408629522,140.5042575649703
9.725261824,0.9989463460012965,140.0752715717284
