freq,mag,phase
6.0,0.9999461756674738,-94.7168808317174
6.002285568,0.9997939010702962,-94.83742198375279
6.004571648,0.9996552677675526,-94.95590462333986
6.006857216,0.9995389025255277,-95.07255253201946
6.009142784,0.9994524953138789,-95.18772760532174
6.011428352,0.9994012947348918,-95.30187429979874
6.013714432,0.9993888003045006,-95.41556966916838
6.016,0.999415552642332,-95.52939760581451
6.018285568,0.9994799927101431,-95.64389224764864
6.020571648,0.9995780549396608,-95.75958466884668
6.022857216,0.9997034350387629,-95.8768858574907
6.025142784,0.9998482243394923,-95.9962159169019
6.027428352,1.0000032424919074,-96.11766817112084
6.029714432,1.000158529488022,-96.24142466505278
6.032,1.0003042470299501,-96.36741019121928
6.034285568,1.0004311150700005,-96.49535603311013
6.036571648,1.000531110264486,-96.62498613777223
6.038857216,1.0005978853258497,-96.75581461058722
6.041142784,1.000627084930198,-96.88734371783623
6.043428352,1.000616965822535,-97.019045567141
6.045714432,1.0005681075578157,-97.15031361954458
6.048,1.0004836393281917,-97.28062344407329
6.050285568,1.0003687327244533,-97.40951153521003
6.052571648,1.0002310063078546,-97.53653476903567
6.054857216,1.0000789150885028,-97.66150223703326
6.057142784,0.9999222846013064,-97.7842238650804
6.059428352,0.9997710510953254,-97.90468445686277
6.061714432,0.9996348683893975,-98.02306639083373
6.064,0.9995222158558392,-98.13964382690972
6.066285568,0.9994406246469514,-98.25484311631645
6.068571648,0.9993948669958632,-98.3690914215555
6.070857216,0.9993881823061914,-98.48294249502167
6.073142784,0.9994209916059167,-98.59706195919678
6.075428352,0.9994909909872285,-98.7118728573021
6.077714432,0.9995940309581033,-98.82796382379954
6.08,0.999723383557205,-98.94578992814617
6.082285568,0.9998707476164554,-99.065609505306
6.084571648,1.0000269870973602,-99.18765200029016
6.086857216,1.000181890195193,-99.31199373146603
6.089142784,1.0003258392876537,-99.43847784089678
6.091428352,1.0004496092733905,-99.56696938397289
6.093714432,1.0005451742088631,-99.6970166777422
6.096,1.000606684668346,-99.82825520992911
6.098285568,1.0006300963019081,-99.9601024873388
6.100571648,1.0006139899392177,-100.09201570797143
6.102857216,1.0005593591597728,-100.22342009812922
6.105142784,1.0004695972715991,-100.35378088532293
6.107428352,1.0003504463264945,-100.48262040340119
6.109714432,1.0002095040436285,-100.60960268241921
6.112,1.0000556361029243,-100.73443739507066
6.114285568,0.9998985305177949,-100.85703288499273
6.116571648,0.999748466524408,-100.97736241410671
6.118857216,0.9996147826135451,-101.09566944182025
6.121142784,0.9995060941968728,-101.21218361522459
6.123428352,0.9994292569960068,-101.327382355507
6.125714432,0.9993892257226435,-101.44171607724303
6.128,0.9993884638847935,-101.55576951330467
6.130285568,0.9994271213429514,-101.67010326157751
6.132571648,0.9995027572453746,-101.78524683542828
6.134857216,0.9996104739468719,-101.90177076765664
6.137142784,0.9997436015426083,-102.0200596231459
6.139428352,0.9998934849216077,-102.140427183145
6.141714432,1.0000505730022367,-102.26302195798063
6.144,1.00020507605916,-102.38786397636557
6.146285568,1.0003469670340364,-102.51491487091904
6.148571648,1.0004674328219045,-102.64385921652044
6.150857216,1.0005584654857809,-102.77440089174115
6.153142784,1.0006147186743821,-102.90594676902836
6.155428352,1.000632294839257,-103.03806165420046
6.157714432,1.0006101295378884,-103.17018434606354
6.16,1.0005498024934172,-103.30167510018727
6.162285568,1.000454795594523,-103.43205079313239
6.164571648,1.0003314634189848,-103.56087137273506
6.166857216,1.000187399589135,-103.68776965682589
6.169142784,1.000031887002913,-103.81245152471155
6.171428352,0.9998747511170065,-103.93490863033189
6.173714432,0.9997260478728985,-104.0550953636808
6.176,0.9995953057433762,-104.17327454987988
6.178285568,0.9994905327847177,-104.2897822316349
6.180571648,0.9994186674389794,-104.40494814828796
6.182857216,0.9993843494409465,-104.51935639512703
6.185142784,0.9993895633247288,-104.63359662640038
6.187428352,0.9994342430780254,-104.74816881638512
6.189714432,0.9995153267252249,-104.86370963220268
6.192,0.9996277053939124,-104.98063671337994
6.194285568,0.9997643787093836,-105.09938749877773
6.196571648,0.9999164362024852,-105.22023311643567
6.198857216,1.000074371828892,-105.34336665649288
6.201142784,1.0002281142491563,-105.46877201972448
6.203428352,1.000367855015701,-105.59630116909646
6.205714432,1.0004846973262969,-105.72573607159718
6.208,1.0005712993888918,-105.85664630163147
6.210285568,1.000621995713046,-105.98854520211452
6.212571648,1.0006336210240812,-106.1209316866188
6.214857216,1.0006055215401704,-106.2531939393771
6.217142784,1.0005394898548718,-106.38478076493708
6.219428352,1.0004394685728775,-106.51516404936449
6.221714432,1.000312060777446,-106.6438980274818
6.224,1.0001652703241934,-106.77064672147722
6.226285568,1.0000082151044245,-106.89524209125841
6.228571648,0.9998511576456798,-107.01747290186648
6.230857216,0.9997041365039535,-107.13754976213058
6.233142784,0.9995761712625664,-107.25562224447779
6.235428352,0.999475689678177,-107.37205459884699
6.237714432,0.9994090383711008,-107.48722816627347
6.24,0.9993803485471663,-107.60174403799826
6.242285568,0.9993917462359565,-107.71610718739693
6.244571648,0.9994422191351495,-107.8309526210032
6.246857216,0.9995286466740343,-107.94680378595537
6.249142784,0.9996455790180965,-108.06411518514962
6.251428352,0.9997855985312933,-108.18333860388687
6.253714432,0.9999396695794189,-108.30470185636509
6.256,1.0000982391029256,-108.42831967502599
6.258285568,1.0002509833639188,-108.55427262428331
6.260571648,1.0003883320381792,-108.6822809090985
6.262857216,1.0005013732796935,-108.81215556220724
6.265142784,1.0005832306150995,-108.94345739928433
6.267428352,1.0006282927581267,-109.07567976947954
6.269714432,1.0006341000132206,-109.20828015706364
6.272,1.0005999867455655,-109.34067426279579
6.274285568,1.0005282337766288,-109.47229975093184
6.276571648,1.0004234012968258,-109.6026585859966
6.278857216,1.0002920973308558,-109.73133677735642
6.281142784,1.0001425557773864,-109.85794317807141
6.283428352,0.9999843888440609,-109.98230822337679
6.285714432,0.9998276815692576,-110.10441418671063
6.288,0.999682389786938,-110.22432663524613
6.290285568,0.9995576563876026,-110.34227341659636
6.292571648,0.9994615454098108,-110.45858059947373
6.294857216,0.9994001346368641,-110.57380444434558
6.297142784,0.9993773656958694,-110.68837505166537
6.299428352,0.9993946444192273,-110.80292551666727
6.301714432,0.9994509231873615,-110.91799401579823
6.304,0.99954266534756,-111.0342030095208
6.306285568,0.99966392000991,-111.15190936477208
6.308571648,0.9998070810259317,-111.2715691238728
6.310857216,0.9999631524643585,-111.39345601632184
6.313142784,1.000121967651394,-111.51757799790926
6.315428352,1.0002735412535757,-111.64399181749212
6.317714432,1.0004082248830395,-111.77251118745961
6.32,1.0005174465146498,-111.90277341557385
6.322285568,1.000594374386132,-112.03444726635463
6.324571648,1.0006338883070611,-112.16693774898434
6.326857216,1.0006336493128773,-112.29972186112433
6.329142784,1.0005935695474766,-112.43222643554033
6.331428352,1.000516337298019,-112.56389128052268
6.333714432,1.0004065622024056,-112.69422652976053
6.336,1.0002715256768147,-112.8227528040117
6.338285568,1.0001196000441992,-112.94921403264286
6.340571648,0.9999604655818377,-113.0733908959259
6.342857216,0.9998042270644921,-113.19531906934829
6.345142784,0.9996608820511773,-113.31503957976987
6.347428352,0.9995395922409075,-113.43284624271989
6.349714432,0.9994479529510881,-113.54909897283582
6.352,0.9993919936457379,-113.66426608619821
6.354285568,0.9993750150254086,-113.77893261953899
6.356571648,0.9993983496648285,-113.89366147353041
6.358857216,0.9994604496186313,-114.00896143251468
6.361142784,0.9995573844497632,-114.12550400344722
6.363428352,0.999682893716273,-114.24360321460847
6.365714432,0.9998292181401481,-114.36369454357234
6.368,0.9999867719791904,-114.4860278571286
6.370285568,1.0001456951874967,-114.61069484047668
6.372571648,1.0002958289954926,-114.73757300524976
6.374857216,1.0004276832140186,-114.86654027930668
6.377142784,1.000532875788457,-114.99722197043869
6.379428352,1.0006047478162576,-115.12923248268132
6.381714432,1.0006385226543186,-115.26193010972108
6.384,1.0006322617494563,-115.39491149785088
6.386285568,1.0005862433392838,-115.52750964495907
6.388571648,1.0005034722814705,-115.65916669389617
6.390857216,1.000389192066394,-115.7893948857125
6.393142784,1.0002505155060837,-115.91776862711696
6.395428352,1.0000962856183764,-116.0440530144434
6.397714432,0.9999363720041827,-116.16806213767468
6.4,0.9997809287035284,-116.28974093878095
6.402285568,0.999639866885719,-116.40930125038427
6.404571648,0.9995221067310327,-116.52696254496591
6.406857216,0.9994351153880475,-116.64312081505598
6.409142784,0.9993846127008674,-116.75827473813317
6.411428352,0.9993736661689183,-116.87300554736919
6.413714432,0.9994030132741604,-116.98789269634364
6.416,0.9994707844852574,-117.10345401916497
6.418285568,0.9995728265018241,-117.22028132001073
6.420571648,0.9997024786586746,-117.33882169329932
6.422857216,0.999851526467664,-117.4593460952842
6.425142784,1.0000104624570516,-117.58215945629314
6.427428352,1.0001693574507924,-117.70724781261237
6.429714432,1.0003178637450947,-117.83461494708473
6.432,1.0004467706212334,-117.96398445598493
6.434285568,1.0005477565928966,-118.09504704842126
6.436571648,1.000614303866028,-118.2273348421265
6.438857216,1.000642350385691,-118.36032891421
6.441142784,1.0006301032641507,-118.49341052057274
6.443428352,1.0005781136520515,-118.62605465211846
6.445714432,1.0004898750383104,-118.7576971234484
6.448,1.000371071620038,-118.88781053295446
6.450285568,1.0002289292274646,-119.01603881538945
6.452571648,1.0000727751959708,-119.14208186095077
6.454857216,0.9999122655870973,-119.26587499986945
6.457142784,0.999757843030299,-119.3873386890792
6.459428352,0.9996191754144556,-119.50667811266077
6.461714432,0.999505118791515,-119.62418845397514
6.464,0.9994230522087255,-119.74025619879777
6.466285568,0.9993780744235724,-119.85543625253955
6.468571648,0.999373045792717,-119.97022200049126
6.470857216,0.9994085681765804,-120.08525010434543
6.473142784,0.9994821325922583,-120.20105212910404
6.475428352,0.9995889624399238,-120.31820147804868
6.477714432,0.9997225232909964,-120.4370936632538
6.48,0.9998742937665069,-120.55806919709221
6.482285568,1.0000345027191806,-120.68130619259433
6.484571648,1.0001930277126962,-120.80687721861423
6.486857216,1.000339702901191,-120.93469481195665
6.489142784,1.0004654210507005,-121.0644807177901
6.491428352,1.0005618677493717,-121.19588905701184
6.493714432,1.000623265489736,-121.32842858482363
6.496,1.0006453690928507,-121.46165113450236
6.498285568,1.000627055440225,-121.59482222902363
6.500571648,1.0005692549745941,-121.72750022443212
6.502857216,1.000475802954023,-121.85906449410305
6.505142784,1.0003524492438634,-121.98905736338382
6.507428352,1.0002070986406284,-122.11709882928209
6.509714432,1.000049082506823,-122.2429646777434
6.512,0.9998882670606497,-122.366457619572
6.514285568,0.9997349018850362,-122.48770454186447
6.516571648,0.9995990130814989,-122.6068243118634
6.518857216,0.9994887889863163,-122.72418246618092
6.521142784,0.999411690427082,-122.84016597862357
6.523428352,0.9993724089875544,-122.95530448962089
6.525714432,0.9993734866975494,-123.07018028251188
6.528,0.9994148790985289,-123.18531538855457
6.530285568,0.999494055254586,-123.3013567865657
6.532571648,0.99960577665043,-123.41883306367153
6.534857216,0.9997432056897931,-123.53808031879589
6.537142784,0.9998973746154844,-123.65947152054748
6.539428352,1.0000585597457363,-123.78318475011235
6.541714432,1.0002164944500416,-123.90920680543465
6.544,1.000361233404566,-124.03741031517053
6.546285568,1.0004834834918264,-124.16760195306667
6.548571648,1.0005753629324319,-124.29932673347113
6.550857216,1.0006313474038757,-124.4321259029282
6.553142784,1.0006475633410052,-124.56550088196362
6.555428352,1.0006230975291055,-124.69879327904776
6.557714432,1.000559556060524,-124.83143592252517
6.56,1.0004608589369832,-124.9629266069034
6.562285568,1.0003332033067422,-125.09274501901984
6.564571648,1.0001849021388658,-125.22057495089935
6.566857216,1.0000251666572912,-125.34616589491444
6.569142784,0.9998643056574378,-125.46945932814437
6.571428352,0.9997123750668748,-125.59044788145978
6.573714432,0.9995792109200743,-125.70934733704702
6.576,0.9994731677984628,-125.8265287657236
6.578285568,0.9994011138768842,-125.9423773913153
6.580571648,0.9993676098438968,-126.05748419338666
6.582857216,0.9993747891252442,-126.17242082343944
6.585142784,0.9994221999744705,-126.28773457376276
6.587428352,0.9995067917717856,-126.40401800751962
6.589714432,0.9996233574202782,-126.52176009566676
6.592,0.999764310766428,-126.64139453038153
6.594285568,0.9999207309291227,-126.76320498701948
6.596571648,1.0000827058372939,-126.88729747999209
6.598857216,1.000239867283599,-127.01376922562903
6.601142784,1.0003823747152751,-127.14237094366865
6.603428352,1.0005009957188145,-127.27294658423799
6.605714432,1.0005882590926276,-127.4049450055975
6.608,1.0006385713396517,-127.53798274325821
6.610285568,1.0006488361915142,-127.67146737252129
6.612571648,1.0006182489800495,-127.80482316904643
6.614857216,1.0005489257979396,-127.93743539840993
6.617142784,1.0004450750031493,-128.06881502705986
6.619428352,1.0003133604878856,-128.19845606683427
6.621714432,1.000162144717043,-128.32603786643892
6.624,1.0000009619312449,-128.45138886437155
6.626285568,0.9998400861122928,-128.5743761847306
6.628571648,0.999689917915834,-128.6950740388932
6.630857216,0.9995596634060764,-128.81374343568015
6.633142784,0.9994580608833178,-128.93077911304155
6.635428352,0.9993911652837411,-129.04651924792034
6.637714432,0.9993635147765989,-129.1615842516823
6.64,0.999376825725774,-129.27656137944132
6.642285568,0.9994301968230417,-129.39203161848906
6.644571648,0.9995203867692757,-129.50853126478825
6.646857216,0.9996414166986957,-129.6265849961671
6.649142784,0.9997858017125533,-129.7465465289764
6.651428352,0.99994428103758,-129.86878027893582
6.653714432,1.0001068157352022,-129.9932894346957
6.656,1.0002630372500982,-130.120165306478
6.658285568,1.0004030396994787,-130.24916993820145
6.660571648,1.0005179082595288,-130.3800344299591
6.662857216,1.000600301688361,-130.512366677724
6.665142784,1.0006450383774748,-130.6455707968328
6.667428352,1.000649231775171,-130.77916578844264
6.669714432,1.0006126637790598,-130.91253601880683
6.672,1.0005375028153696,-131.0451047766113
6.674285568,1.0004286602580625,-131.17632409806757
6.676571648,1.000292937890562,-131.305761536834
6.678857216,1.0001390428283286,-131.4331085721364
6.681142784,0.9999766541032081,-131.55816896805854
6.683428352,0.9998162181652644,-131.68083345646727
6.685714432,0.9996677848322041,-131.80129593722157
6.688,0.9995408842207478,-131.9197052110516
6.690285568,0.9994436061369671,-132.03652081901552
6.692571648,0.999382145368344,-132.15217638357785
6.694857216,0.9993604744987069,-132.26721284673235
6.697142784,0.9993799026014087,-132.38222038528457
6.699428352,0.9994391969120405,-132.4978569575104
6.701714432,0.9995347252253518,-132.61455483528505
6.704,0.9996602279272971,-132.73291800432642
6.706285568,0.9998079217906859,-132.85324726508048
6.708571648,0.9999682769873154,-132.97581653695008
6.710857216,1.0001310944743396,-133.10075535905412
6.713142784,1.0002860901878403,-133.2280120885694
6.715428352,1.0004234350645735,-133.35738426577913
6.717714432,1.000534380272667,-133.4885582512284
6.72,1.000611654243838,-133.62110927755293
6.722285568,1.0006506873583534,-133.75454069398066
6.724571648,1.0006487819170866,-133.8881942644021
6.726857216,1.000606125819761,-134.02155142569256
6.729142784,1.000525327036533,-134.15402069891675
6.731428352,1.0004114974283145,-134.28506866510813
6.733714432,1.000272085830074,-134.41428566758202
6.736,1.0001156467582266,-134.54134028330634
6.738285568,0.9999523117870255,-134.66607790762671
6.740571648,0.9997923123463186,-134.78845212525997
6.742857216,0.9996459571561317,-134.90859018359185
6.745142784,0.9995224841253944,-135.0267981644211
6.747428352,0.9994297891075182,-135.14339038678872
6.749714432,0.9993738531123273,-135.2589079004814
6.752,0.9993580838959344,-135.37392172956777
6.754285568,0.9993836529364313,-135.48900504481935
6.756571648,0.9994489046481232,-135.60472977422737
6.758857216,0.9995496918897023,-135.72165812979873
6.761142784,0.9996796126116622,-135.84028089850923
6.763428352,0.9998302722589132,-135.96094361346957
6.765714432,0.9999923358701102,-136.08391679851275
6.768,1.0001552796298512,-136.2092135134067
6.770285568,1.0003089203542936,-136.3368419809752
6.772571648,1.000443308411565,-136.46656914708123
6.774857216,1.0005500951318123,-136.59805867451186
6.777142784,1.0006223133468657,-136.73081727001286
6.779428352,1.0006554639099239,-136.8643848712085
6.781714432,1.0006474170747772,-136.9980940025169
6.784,1.000598679120065,-137.1314150629158
6.786285568,1.0005123276243286,-137.26375887793853
6.788571648,1.000393758875124,-137.3946057853907
6.790857216,1.000250580114488,-137.52356229923134
6.793142784,1.0000919360893523,-137.65032774476663
6.795428352,0.9999277684903163,-137.77474149134025
6.797714432,0.9997685792471274,-137.89676900548446
6.8,0.9996244673275926,-138.01662094231855
6.802285568,0.9995046782915462,-138.1345448275429
6.804571648,0.9994168084324391,-138.25095420473866
6.806857216,0.9993664022201405,-138.36633920217608
6.809142784,0.9993567425907317,-138.48129750614768
6.811428352,0.9993884972109255,-138.59638916130132
6.813714432,0.9994596176602021,-138.71227865677338
6.816,0.9995654919043854,-138.829416124918
6.818285568,0.9996996256872099,-138.9483192677631
6.820571648,0.9998532227231757,-139.0693267612784
6.822857216,1.0000166899349061,-139.19264425137095
6.825142784,1.0001796210989968,-139.31831846830048
6.827428352,1.000331517675766,-139.44629287293782
6.829714432,1.0004628637998652,-139.5763449043504
6.832,1.0005652530120892,-139.7080800432361
6.834285568,1.0006322012305675,-139.84104822939744
6.836571648,1.0006593867883269,-139.97471464824773
6.838857216,1.0006451882811855,-140.10846256271097
6.841142784,1.0005903330492232,-140.2417263057381
6.843428352,1.0004985066357253,-140.37391592494916
6.845714432,1.0003752226335687,-140.50452548252417
6.848,1.000228678420939,-140.6332240692203
6.850285568,1.0000678847953337,-140.75963707282946
6.852571648,0.9999031061085794,-140.88368785432968
6.854857216,0.9997449327439274,-141.00540660560372
6.857142784,0.9996032868470195,-141.1249318581653
6.859428352,0.9994872907377402,-141.24258747595294
6.861714432,0.9994043582964691,-141.35877026216596
6.864,0.9993596979056869,-141.47403702286323
6.866285568,0.999356222770052,-141.58892170067688
6.868571648,0.9993940680857588,-141.70407599504
6.870857216,0.9994710146795384,-141.82009762564485
6.873142784,0.9995820564670653,-141.93745171797116
6.875428352,0.9997200970779158,-142.0566084570036
6.877714432,0.9998764162666657,-142.17792655226827
6.88,1.0000411554759432,-142.301594703195
6.882285568,1.000203654418078,-142.42764450044984
6.884571648,1.000353730149034,-142.55596571514536
6.886857216,1.0004817705354458,-142.68628591463548
6.889142784,1.000579656642278,-142.8182676012723
6.891428352,1.0006412188607436,-142.95138659818198
6.893714432,1.0006623966247932,-143.08513143677277
6.896,1.0006419756491973,-143.21890545838522
6.898285568,1.0005811550475923,-143.35206229850326
6.900571648,1.000483831118669,-143.48408206424736
6.902857216,1.0003561420422358,-143.6144514890435
6.905142784,1.0002061895095795,-143.7428113971263
6.907428352,1.0000434472826767,-143.86888292108375
6.909714432,0.9998784425026457,-143.99259212934444
6.912,0.9997214049763787,-144.11392351883907
6.914285568,0.999582570203314,-144.23311357550799
6.916571648,0.9994705536669453,-144.35048573095543
6.918857216,0.9993926630478146,-144.46645109916582
