freq,mag,phase
6.0,0.9998245607523488,-128.33166029788507
6.002285056,0.9999731841887233,-128.46645652425997
6.004570112,1.000123671802407,-128.60341151745183
6.006855168,1.000266280835477,-128.74255121878744
6.009140224,1.000392178644437,-128.88360674850802
6.01142528,1.0004932469718657,-129.02634096433647
6.013710336,1.0005630146738818,-129.1702890103629
6.015995392,1.0005972535608405,-129.3150179853595
6.018280448,1.0005935564715736,-129.45997733696564
6.020565504,1.0005523487232275,-129.6046120607913
6.02285056,1.0004760920261202,-129.7484337907972
6.025135616,1.0003696473676715,-129.8908779332319
6.027420672,1.0002398023398127,-130.0316314801687
6.029705728,1.0000947086706762,-130.1704203568136
6.031990784,0.9999435841017617,-130.30698772919587
6.03427584,0.9997961182972543,-130.4414638285492
6.036560896,0.9996615230397305,-130.57384545317527
6.038845952,0.9995484740913931,-130.7044396276023
6.041131008,0.9994640595379869,-130.83357618404852
6.043416064,0.9994137281806417,-130.96175640057726
6.04570112,0.9994007384861435,-131.08947012649705
6.047986176,0.9994258423730608,-131.21728547242355
6.050271232,0.999487434654478,-131.3457296762737
6.052556288,0.9995816485967126,-131.47531260658963
6.054841344,0.9997025970122629,-131.6064563435794
6.0571264,0.9998424803619806,-131.73949933714616
6.059411456,0.9999924286461331,-131.87464001373448
6.061696512,1.0001430104012792,-132.01199738310189
6.063981568,1.0002845423597528,-132.15147967139745
6.066266624,1.0004081513790033,-132.29287485580738
6.06855168,1.0005059468365436,-132.43591849188562
6.070836736,1.000571751046086,-132.58014274032323
6.073121792,1.0006013093367359,-132.7250520810966
6.075406848,1.0005929091411756,-132.87013036402988
6.077691904,1.0005468197540395,-133.01477970205607
6.07997696,1.000466106495765,-133.15856422223155
6.082262016,1.0003558319320829,-133.30094807853365
6.084547072,1.000222946432588,-133.4415714505382
6.086832128,1.0000759898964318,-133.58015459385373
6.089117184,0.9999242399329139,-133.71656821455707
6.09140224,0.9997772924473853,-133.85080130244955
6.093687296,0.9996444006298074,-133.9829991595601
6.095972352,0.9995341305175182,-134.11345150504584
6.098257408,0.9994535234115578,-134.2425079090465
6.100542464,0.9994075850480928,-134.37066068662674
6.10282752,0.9993994231933363,-134.49837226392145
6.105112576,0.9994293331760913,-134.62627648262097
6.107397632,0.9994956535278663,-134.75489288177317
6.1096832,0.9995941107640349,-134.88466881406808
6.111968256,0.9997183549631085,-135.016099420069
6.114253312,0.99986067553066,-135.14946073742757
6.116538368,1.0000118893405001,-135.28498472101762
6.118823424,1.000162403801605,-135.4226668166864
6.12110848,1.0003027530815105,-135.56248599788668
6.123393536,1.0004240228310317,-135.7042428555829
6.125678592,1.0005183966510216,-135.8475445078553
6.127963648,1.0005800455343041,-135.99196477201232
6.130248704,1.0006050356699305,-136.13704761040063
6.13253376,1.000591617653677,-136.282203856988
6.134818816,1.0005407773379555,-136.42688241329833
6.137103872,1.0004555818505898,-136.57059321530943
6.139388928,1.0003415544072556,-136.71286871461893
6.141673984,1.0002058686574022,-136.85331666553586
6.14395904,1.0000571962652958,-136.99168456042202
6.146244096,0.9999048060445314,-137.12791634064791
6.148529152,0.9997584260803601,-137.2619520678477
6.150814208,0.9996275267919451,-137.3939592328863
6.153099264,0.9995201755818831,-137.52421052013207
6.15538432,0.9994433602582389,-137.65314699261233
6.157669376,0.9994019719900727,-137.781236657986
6.159954432,0.9993985867742659,-137.90901027772134
6.162239488,0.9994334275399221,-138.03696365912663
6.164524544,0.9995043730858789,-138.16570655643145
6.1668096,0.9996068928003924,-138.2957077613375
6.169094656,0.9997344980501027,-138.42743049734597
6.171379712,0.9998789518293592,-138.56109822517325
6.173664768,1.0000312273878538,-138.69695126810382
6.175949824,1.0001817632697079,-138.83495616051377
6.17823488,1.0003207408493189,-138.97511726734254
6.180519936,1.00043940680022,-139.11714502265966
6.182804992,1.000530405226357,-139.2606958442002
6.185090048,1.0005877958331981,-139.40533233050553
6.187375104,1.000607995590644,-139.55054687036625
6.18966016,1.0005897339271983,-139.69574054577288
6.191945216,1.0005340187553249,-139.8404126313057
6.194230272,1.000444508475361,-139.9840552161715
6.196515328,1.0003268469863633,-140.12618603171492
6.198800384,1.0001884600508388,-140.2664523060163
6.20108544,1.000038042289388,-140.4046082698266
6.203370496,0.9998852601735525,-140.5405744728498
6.205655552,0.9997397781490315,-140.6743679206625
6.207940608,0.9996108028929493,-140.80616826202038
6.210225664,0.9995066383283064,-140.93626535688128
6.21251072,0.9994337007424466,-141.06506617081533
6.214795776,0.9993968303166368,-141.1930699551751
6.217080832,0.9993983586681479,-141.32083876400418
6.219365888,0.9994381073918686,-141.44888470645964
6.221650944,0.9995137020274729,-141.57776896473263
6.223936,0.9996202084545426,-141.7080033897857
6.226221056,0.9997509283973821,-141.8399492539196
6.228506112,0.9998976798557964,-141.97392340163208
6.230791168,1.0000508687611227,-142.1100600985865
6.233076224,1.0002010453631802,-142.2484175268461
6.23536128,1.0003385043330708,-142.3888834419718
6.237646336,1.0004546792643243,-142.53116970932908
6.239931392,1.0005420251365236,-142.67494140995242
6.242216448,1.0005950963546817,-142.81975643497194
6.244501504,1.0006104976768553,-142.96505437718142
6.24678656,1.0005872491912602,-143.11026137751514
6.249071616,1.0005267636916833,-143.25491510374965
6.251356672,1.0004329382678379,-143.3984573021885
6.253641728,1.000311653804859,-143.54038971790268
6.255926784,1.0001705719258922,-143.68046257118314
6.25821184,1.0000187575533084,-143.81837186550683
6.260496896,0.999865664413819,-143.9540756356288
6.262781952,0.9997212160217246,-144.08763481735537
6.265067008,0.9995943664289247,-144.2191949875424
6.267352064,0.9994933277958885,-144.349105233366
6.26963712,0.9994245419404681,-144.4777575876792
6.271922176,0.9993922553240441,-144.60568797168438
6.274207232,0.9993986656295649,-144.73343171777745
6.276492288,0.9994433885018298,-144.86153248226927
6.278777344,0.9995235129919319,-144.99057507059186
6.2810624,0.9996340437118538,-145.1209959590855
6.283347456,0.999767762391278,-145.2531717053767
6.285632512,0.9999165289938889,-145.38740178502476
6.287917568,1.0000705702215236,-145.52385293830312
6.290202624,1.0002202467606247,-145.66251911730842
6.29248768,1.0003561135110512,-145.80323789415223
6.294772736,1.0004694346116518,-145.94580254496304
6.297057792,1.0005530611412075,-146.08976972994896
6.299342848,1.000601767790228,-146.2347197788921
6.301627904,1.0006123512560006,-146.3800743951105
6.30391296,1.0005841222359377,-146.52534008389915
6.306198016,1.0005188495161557,-146.6698827056084
6.308483072,1.0004207881890281,-146.8133069541199
6.310768128,1.0002960238388725,-146.9550411330989
6.313053184,1.0001524516096354,-147.09488119148256
6.31533824,0.9999992669585853,-147.23253744880043
6.317623296,0.999846129175933,-147.36796057016477
6.319908352,0.9997026742235853,-147.50122474472087
6.322193408,0.9995782027533511,-147.63255213918436
6.324478976,0.9994805015899714,-147.76223740627043
6.326764032,0.9994158282875005,-147.89076072943627
6.329049088,0.9993882939280331,-148.01858422345404
6.331334144,0.9993997209807388,-148.14632130576965
6.3336192,0.9994492668714215,-148.27450266349396
6.335904256,0.9995340057749632,-148.40360688839058
6.338189312,0.9996483016635659,-148.53422427502883
6.340474368,0.9997851590787957,-148.66662483121817
6.342759424,0.999935694610781,-148.80112656170198
6.34504448,1.0000904736141571,-148.9378714826457
6.347329536,1.0002395766702998,-149.0768099323996
6.349614592,1.0003735971967984,-149.21780822763006
6.351899648,1.0004840246016764,-149.36058285758634
6.354184704,1.0005639106289022,-149.50473953090022
6.35646976,1.000608009616506,-149.64978956933462
6.358754816,1.0006136704826436,-149.79521463528744
6.361039872,1.000580527336713,-149.94044678277254
6.363324928,1.0005105164277661,-150.08489111350116
6.365609984,1.0004081576273716,-150.22813578487597
6.36789504,1.0002800245528216,-150.36967615031546
6.370180096,1.0001340340347238,-150.50922613252263
6.372465152,0.9999796152358038,-150.6466076956064
6.374750208,0.9998264672352459,-150.78173289382028
6.377035264,0.9996843552213909,-150.9147043191511
6.37932032,0.9995623351025011,-151.04577980600828
6.381605376,0.9994680559591068,-151.17522928754167
6.383890432,0.9994076028190629,-151.30358015289485
6.386175488,0.9993848477006101,-151.43134166368006
6.388460544,0.9994012943529562,-151.5590365511809
6.3907456,0.999455749443954,-151.68722319151965
6.393030656,0.9995449614240355,-151.81648746856854
6.395315712,0.9996630756808194,-151.94724901680908
6.397600768,0.999802722802797,-152.07986073548992
6.399885824,0.9999550567526184,-152.21461910425558
6.40217088,1.000110291937112,-152.35160251173332
6.404455936,1.0002586206632305,-152.49080298533113
6.406740992,1.000390771805194,-152.63205519805825
6.409026048,1.000498098501217,-152.77502273042154
6.411311104,1.0005740104161482,-152.91933291311764
6.41359616,1.0006135883381362,-153.06447447832224
6.415881216,1.0006143149642686,-153.20993686437694
6.418166272,1.0005761032517988,-153.3550907396797
6.420451328,1.0005013820371846,-153.49946378628744
6.422736384,1.0003949949444702,-153.64247766609628
6.42502144,1.000263455549473,-153.7837852988741
6.427306496,1.000115208196069,-153.92305889956518
6.429591552,0.9999597233778288,-154.06010382507938
6.431876608,0.9998067588182526,-154.19493355456234
6.434161664,0.9996660374756963,-154.32760057213497
6.43644672,0.9995466032708437,-154.45836998666817
6.438731776,0.9994559108229334,-154.5876281305456
6.441016832,0.9993998700078798,-154.71576904430114
6.443301888,0.999381967263673,-154.84341529643848
6.445586944,0.9994034309670881,-154.97108138560242
6.447872,0.9994627806997047,-155.0993010877064
6.450157056,0.999556443556759,-155.2286508466698
6.452442112,0.9996782986913153,-155.35957147674435
6.454727168,0.999820729373531,-155.49240737708442
6.457012224,0.9999745951438243,-155.62739238129856
6.45929728,1.000130199890389,-155.76461661445805
6.461582336,1.0002777392960844,-155.90405811251546
6.463867392,1.0004077426015883,-156.0455315575181
6.466152448,1.0005119992646379,-156.18870708290703
6.468437504,1.0005838169927534,-156.33312245797984
6.47072256,1.0006187069024324,-156.4783357415246
6.473007616,1.000614471443374,-156.62379181266945
6.475292672,1.000571255945698,-156.76887070462183
6.477577728,1.0004919197510758,-156.91306016330273
6.479862784,1.0003813717891163,-157.05589785944508
6.48214784,1.0002465829808347,-157.19693460748508
6.484432896,1.0000962573906516,-157.33586733594768
6.486717952,0.9999397859948593,-157.47261590542723
6.489003008,0.999787164391528,-157.60712592431693
6.491288064,0.9996480284610351,-157.73942332046948
6.49357312,0.9995312412466509,-157.869929410059
6.495858176,0.9994443065007025,-157.99891753339418
6.498143232,0.999392687627882,-158.12690953914512
6.500428288,0.9993796734976573,-158.25441727611266
6.502713344,0.9994061789650421,-158.38199084363046
6.5049984,0.9994704573623594,-158.51026284852932
6.507283456,0.9995683917006514,-158.63968456505816
6.509568512,0.9996939001700237,-158.77076443818538
6.511853568,0.999838943880681,-158.90378543378807
6.514138624,0.9999943603899728,-159.03899039228455
6.51642368,1.0001502295689946,-159.17645958278217
6.518708736,1.0002966419411425,-159.3161252573114
6.520993792,1.0004244551433406,-159.45780712796437
6.523278848,1.0005253224269566,-159.6011058025436
6.525563904,1.0005930267707848,-159.74566085254392
6.52784896,1.0006231605080211,-159.8909025045933
6.530134016,1.0006138782453837,-160.03631381184505
6.532419072,1.0005656367317934,-160.1813105087931
6.534704128,1.000481636556206,-160.3253281809073
6.536989184,1.0003670323451996,-160.46788721352243
6.53927424,1.000229218727496,-160.608650935597
6.541559808,1.0000768461424334,-160.7472699141457
6.543844864,0.9999196032468215,-160.88365697016323
6.54612992,0.9997674833459959,-161.0177509019656
6.548414976,0.9996300522097292,-161.14976740080255
6.550700032,0.9995161684771284,-161.27993706634322
6.552985088,0.9994330065786793,-161.40868362747804
6.555270144,0.999386000644223,-161.5364576625469
6.5575552,0.9993779179917259,-161.66382259240416
6.559840256,0.9994095421677298,-161.79135181981803
6.562125312,0.9994787150665838,-161.91964419048367
6.564410368,0.99958097022748,-162.0491703345842
6.566695424,0.9997100431047898,-162.18035750182443
6.56898048,0.9998576412253618,-162.31356336110937
6.571265536,1.000014360093764,-162.44898862745862
6.573550592,1.0001703101727772,-162.5866720358669
6.575835648,1.0003155500541394,-162.72653151650687
6.578120704,1.0004408617461062,-162.86838941102891
6.58040576,1.0005383847566627,-163.0118141504388
6.582690816,1.0006017758408277,-163.15643170931816
6.584975872,1.0006270585303496,-163.30172862561284
6.587260928,1.000612651546637,-163.44707435126875
6.589545984,1.0005594149184318,-163.59189839962048
6.59183104,1.000470814836884,-163.73573173966744
6.594116096,1.0003523252630646,-163.87804520688695
6.596401152,1.0002114310269994,-164.0184683380888
6.598686208,1.000057204216161,-164.15673084917165
6.600971264,0.999899393606206,-164.29276373036151
6.60325632,0.9997478111448762,-164.42646521614202
6.605541376,0.9996123160263063,-164.55811369672352
6.607826432,0.999501467618662,-164.68799331202143
6.610111488,0.999422264973437,-164.81643691266183
6.612396544,0.9993798526657457,-164.9440100205521
6.6146816,0.9993768542808388,-165.0712535711797
6.616966656,0.9994135570692501,-165.19873772594644
6.619251712,0.9994875579191095,-165.32698006260875
6.621536768,0.9995941030044818,-165.45657410942462
6.623821824,0.999726686017344,-165.58791004980367
6.62610688,0.9998766557742594,-165.72126950610698
6.628391936,1.0000345456777417,-165.85688360963846
6.630676992,1.0001904137089004,-165.99478304286578
6.632962048,1.000334302342567,-166.13485331663486
6.635247104,1.0004571636473898,-166.27682652930497
6.63753216,1.0005509857836339,-166.42040259407818
6.639817216,1.0006099538625253,-166.5650856193091
6.642102272,1.000630402117137,-166.7103462427439
6.644387328,1.0006108966280534,-166.8556123664764
6.646672384,1.0005527142432187,-167.00028251834289
6.64895744,1.0004595220523091,-167.14389457504564
6.651242496,1.0003370507713052,-167.2858891551169
6.653527552,1.0001933714873894,-167.42598694166324
6.655812608,1.0000373752608647,-167.5638848365352
6.658097664,0.9998789414945767,-167.69948310069944
6.66038272,0.999728242935441,-167.8328383219695
6.662667776,0.9995947396628775,-167.96411505954234
6.664952832,0.9994870621539848,-168.09362419760842
6.667237888,0.999411973170788,-168.22179873090678
6.669522944,0.9993742175454945,-168.34914152931827
6.671808,0.9993763867889791,-168.4762509892404
6.674093056,0.9994180655287128,-168.60362044655537
6.676378112,0.9994969541428071,-168.73188815380652
6.678663168,0.9996078127286276,-168.86153525135194
6.680948224,0.9997437600826907,-168.99299728108159
6.68323328,0.9998959779225869,-169.126516040628
6.685518336,1.000054907844985,-169.26229965754695
6.687803392,1.0002105476383456,-169.4003936794058
6.690088448,1.000352966641948,-169.54062419165007
6.692373504,1.000472958386471,-169.68273989337146
6.69465856,1.0005631847113696,-169.8264271934715
6.696943616,1.0006177434453385,-169.97111064421085
6.699228672,1.0006331556729184,-170.1163434251525
6.701513728,1.000608487484659,-170.26149119405355
6.703798784,1.0005452217300586,-170.40598444949703
6.70608384,1.0004475912974562,-170.5493109160834
6.708368896,1.0003213816180034,-170.69103575207336
6.710653952,1.0001748148974732,-170.8307504534208
6.712939008,1.000017186572972,-170.96823935173177
6.715224064,0.9998584773607643,-171.10343810626222
6.71750912,0.9997086567111279,-171.2363683518988
6.719794176,0.9995774735712196,-171.36724659900622
6.722079232,0.9994730856956843,-171.496424252238
6.724364288,0.9994021602975096,-171.6243126080121
6.726649344,0.9993693076883549,-171.7514213512386
6.7289344,0.9993764965523172,-171.87838420542624
6.731219456,0.9994234423325868,-172.0056640247353
6.733504512,0.9995069946432266,-172.13391942462297
6.735789568,0.9996220813907744,-172.26362467056043
6.738074624,0.9997611659573399,-172.39516008156303
6.74035968,0.9999156884481216,-172.52883329702547
6.742644736,1.0000754514299572,-172.66477326716975
6.744929792,1.0002307310010226,-172.80304790230403
6.747214848,1.0003713950625839,-172.94342696852806
6.749499904,1.0004885945146567,-173.08568769275894
6.75178496,1.0005749840176201,-173.22942043069222
6.754070016,1.0006249083526155,-173.37415120860445
6.756355072,1.0006352807330448,-173.51931275633592
6.75864064,1.0006054495936645,-173.66429970047471
6.760925696,1.000537264186079,-173.8085854420146
6.763210752,1.0004348845058635,-173.95163819147353
6.765495808,1.0003050982120347,-174.0930093766581
6.767780864,1.0001558614376906,-174.23232145861493
6.77006592,0.9999968070089217,-174.36939992834166
6.772350976,0.9998379149635671,-174.50416363650007
6.774636032,0.9996892541850189,-174.63668552858164
6.776921088,0.9995604026358026,-174.76716355143438
6.779206144,0.9994593929833493,-174.89596074893214
6.7814912,0.9993928350110505,-175.0235464468133
6.783776256,0.9993648106012015,-175.15044842522914
6.786061312,0.999377206162811,-175.277196805602
6.788346368,0.9994293334606963,-175.40442508497375
6.790631424,0.9995177420001115,-175.53262942477335
6.79291648,0.9996368479917372,-175.66239843375803
6.795201536,0.9997791322966711,-175.79404310185248
6.797486592,0.9999355529382494,-175.92784843304082
6.799771648,1.000096229438746,-176.0639493990368
6.802056704,1.0002508875270948,-176.20233449965463
6.80434176,1.000389772781306,-176.3428562608189
6.806626816,1.0005040286030362,-176.48524030872022
6.808911872,1.000586331879384,-176.62901880406451
6.811196928,1.000631551278379,-176.77372484027242
6.813481984,1.0006368483275003,-176.9187810494861
6.81576704,1.0006017631673927,-177.06363968469984
6.818052096,1.0005285343239143,-177.2076926692015
6.820337152,1.000421883324558,-177.35044675498887
6.822622208,1.0002883946653365,-177.49143135150499
6.824907264,1.0001365532069637,-177.63032088414036
6.82719232,0.9999761557821178,-177.76697088365933
6.829477376,0.999817123652748,-177.90128470270744
6.831762432,0.9996698480048176,-178.03335256720808
6.834047488,0.9995435118141441,-178.16342817567045
6.836332544,0.9994460405520353,-178.29185645490782
6.8386176,0.9993839736429578,-178.4191283329255
6.840902656,0.999360941354814,-178.5457465054256
6.843187712,0.9993786913700539,-178.67234539000572
6.845472768,0.9994357691089923,-178.79945648896197
6.847757824,0.9995290565888346,-178.9276675235524
6.85004288,0.999652164028265,-179.05745468191577
6.852327936,0.9997975581715104,-179.1891754797621
6.854612992,0.9999558763904701,-179.32311028263234
6.856898048,1.00011712628097,-179.45933339721867
6.859183104,1.000271040022283,-179.59788446499275
6.86146816,1.0004079800495338,-179.73852979862
6.863753216,1.0005189312857732,-179.88097095743115
6.866038272,1.0005972128993,179.9752216990463
6.868323328,1.000637616138077,179.8305437923119
6.870608384,1.0006376956605463,179.68559306674382
6.87289344,1.00059740710922,179.5409348970092
6.875178496,1.000519225123582,179.3971484783038
6.877463552,1.0004080450172212,179.2547279650586
6.879748608,1.0002710726372486,179.11412641817807
6.882033664,1.0001169187178367,178.97563980135985
6.88431872,0.9999552605828408,178.83945437643942
6.886603776,0.999796456752734,178.70562941277365
6.888888832,0.9996505965677229,178.5740147137551
6.891173888,0.9995269480518573,178.44437197233515
6.893458944,0.9994332927464469,178.31630822704057
6.895744,0.999375584714299,178.18940486058133
6.898029056,0.9993577245185695,178.0629990957446
6.900314112,0.9993807502496732,177.9365941626703
6.902599168,0.9994431170245653,177.80956918113728
6.904884224,0.9995409836089176,177.68139806261794
6.90716928,0.9996679984452564,177.5515923149366
