freq,mag,phase
6.0,0.9999890488037498,42.52971858746419
6.015094272,0.999978941271348,42.181027330458704
6.030188544,0.999969214823394,41.832489333884276
6.045282816,0.999960792144673,41.483974520169205
6.0603776,0.9999543384547835,41.13554656760346
6.075471872,0.999949915581374,40.78715868732103
6.090566144,0.9999476867462677,40.43879606872537
6.105660416,0.9999479573264763,40.090437539410885
6.120754688,0.9999506597105623,39.742036098001215
6.13584896,0.9999555068839101,39.3935602976414
6.150943232,0.999962464588842,39.04496272432777
6.166037504,0.9999711371454976,38.696283390532656
6.181132288,0.9999812888712235,38.347453507720275
6.19622656,0.9999923013759867,37.9984570151592
6.211320832,1.0000037779040902,37.64933211827594
6.226415104,1.0000151621843334,37.30003247459656
6.241509376,1.000026024375499,36.95053620233385
6.256603648,1.0000359328325892,36.6009403031177
6.27169792,1.0000442883043088,36.251181211972
6.286792704,1.0000507048728022,35.90132584102584
6.301886976,1.0000551679543985,35.55136111584133
6.316981248,1.0000572280371036,35.20136269457911
6.33207552,1.000056881200395,34.85126576041923
6.347169792,1.000054167204912,34.501211965247926
6.362264064,1.000049040973401,34.15118292434969
6.377358336,1.0000419103682303,33.80118004011382
6.392452608,1.0000329284494063,33.451263953994605
6.407547392,1.0000226591956536,33.101446528560004
6.422641664,1.000011444523404,32.751683395142116
6.437735936,0.9999997268990768,32.40209753934021
6.452830208,0.9999881252440326,32.05258269089786
6.46792448,0.999977099427691,31.7031771448653
6.483018752,0.9999671003903587,31.35390754964432
6.498113024,0.9999586676383445,31.00471803140726
6.513207296,0.9999520955132475,30.655574504810485
6.52830208,0.9999476965150252,30.30647084765439
6.543396352,0.9999456963598391,29.957406274209834
6.558490624,0.9999461016117945,29.60830298238957
6.573584896,0.9999489617295375,29.2591611460979
6.588679168,0.9999542134960198,28.90995527513948
6.60377344,0.9999615233952814,28.56063742059047
6.618867712,0.9999705902216122,28.211211087948538
6.633962496,0.9999810275397107,27.86160458679893
6.649056768,0.9999924449214774,27.511860264688067
6.66415104,1.000004326529542,27.161948155227442
6.679245312,1.0000160523856234,26.811892552221657
6.694339584,1.000027220304188,26.461628283349686
6.709433856,1.0000371647786854,26.111257454289067
6.724528128,1.0000457217190106,25.760718189406433
6.7396224,1.0000523016703176,25.410053240969475
6.754717184,1.0000566066098375,25.05929426412265
6.769811456,1.0000586145114159,24.708476058818547
6.784905728,1.0000580693705525,24.357639001224502
6.8,1.0000550586353238,24.006785800453333
6.815094272,1.000049615637115,23.655946659058333
6.830188544,1.0000421386565528,23.305159178255064
6.845282816,1.0000327651351852,22.954463701820817
6.8603776,1.0000220949384175,22.603878192508617
6.875471872,1.0000104988882375,22.25335466776192
6.890566144,0.9999984036303305,21.902969984336263
6.905660416,0.9999865197567326,21.55268975483902
6.920754688,0.999975252408731,21.202527994746582
6.93584896,0.9999650312261472,20.85246572293758
6.950943232,0.9999564810267882,20.50248419660136
6.966037504,0.9999498222271864,20.152590587135645
6.981132288,0.999945407901475,19.80271334087952
6.99622656,0.9999435745948279,19.452845738739384
7.011320832,0.9999441809642778,19.102985636984968
7.026415104,0.9999473223294432,18.753043138740672
7.041509376,0.9999528758836833,18.40304674187989
7.056603648,0.9999605748653427,18.052935600059687
7.07169792,0.999970029670002,17.702678081500252
7.086792704,0.999980937969326,17.352301476533942
7.101886976,0.9999926986855155,17.0017322783737
7.116981248,1.0000050080194032,16.650994917936984
7.13207552,1.0000170413818634,16.300098756816496
7.147169792,1.0000284847742094,15.949031082543849
7.162264064,1.0000387491906195,15.597784941103797
7.177358336,1.0000474822551442,15.246401931554393
7.192452608,1.0000540324006018,14.89487613533449
7.207547392,1.0000583410798534,14.543290664984982
7.222641664,1.0000602175834956,14.191637416828485
7.237735936,1.0000595199520965,13.839904700004661
7.252830208,1.0000561982240812,13.488218977319054
7.26792448,1.0000504276478532,13.136550310689094
7.283018752,1.0000425327689595,12.784903987965173
7.298113024,1.0000327994976161,12.433356130480561
7.313207296,1.0000216866219624,12.081908253409889
7.32830208,1.0000096784848627,11.730553485606539
7.343396352,0.999997130150911,11.379335063071467
7.358490624,0.999984911913222,11.028222044157413
7.373584896,0.9999732663387946,10.677211631011822
7.388679168,0.9999627825871967,10.326334219823794
7.40377344,0.9999541096174203,9.975546619786302
7.418867712,0.9999474510105453,9.624813674696615
7.433962496,0.999943038768352,9.27410559078647
7.449056768,0.9999412991395277,8.923415471136032
7.46415104,0.999942131126757,8.572719143502061
7.479245312,0.9999455613535515,8.221919718579151
7.494339584,0.9999514075207369,7.871091267853192
7.509433856,0.9999595816403757,7.520101648256727
7.524528128,0.9999695087095327,7.169009246880016
7.5396224,0.9999808605422897,6.817743332211748
7.554717184,0.9999931532414528,6.466321112014351
7.569811456,1.000005731825946,6.114672058856104
7.584905728,1.00001823825354,5.762876747028196
7.6,1.0000301595413417,5.410906919250604
7.615094272,1.0000405782647042,5.05877466713784
7.630188544,1.0000493861155886,4.7064757624550495
7.645282816,1.000056092180334,4.354077662206512
7.6603776,1.0000604140953362,4.0015494184253235
7.675471872,1.0000621295505787,3.648957006254079
7.690566144,1.0000611426150412,3.2963437265081907
7.705660416,1.0000576150450342,2.9437303200391622
7.720754688,1.0000515045105405,2.5911198751096878
7.73584896,1.000043108977517,2.238581932501288
7.750943232,1.0000329521430398,1.8861159193445323
7.766037504,1.000021401490423,1.5337742455023637
7.781132288,1.000008771882118,1.1815313240037097
7.79622656,0.9999958761849449,0.8294091314788059
7.811320832,0.999983213846221,0.477401712280497
7.826415104,0.9999712268075797,0.12553155695894377
7.841509376,0.9999605889888481,-0.22624484648555024
7.856603648,0.9999516872270945,-0.5779337837783404
7.87169792,0.9999448521138969,-0.9295473809578896
7.886792704,0.999940614246249,-1.2811408384458438
7.901886976,0.9999388544284815,-1.632735362293912
7.916981248,0.9999399917516424,-1.984341176622958
7.93207552,0.9999437031268618,-2.3360098218918393
7.947169792,0.9999499721049736,-2.6877773515823105
7.962264064,0.9999585344823503,-3.0396543591341474
7.977358336,0.9999689228643538,-3.391682682473918
7.992452608,0.999980864297611,-3.7438509100972377
8.007547392,0.9999936022635622,-4.096243952903082
8.022641664,1.00000677023783,-4.448812638714477
8.037735936,1.0000196643478034,-4.801579070388369
8.052830208,1.0000317961039542,-5.154507879006893
8.06792448,1.0000426382620304,-5.507622453687563
8.083018752,1.0000516834190252,-5.860886394624824
8.098113024,1.0000583983950726,-6.214291172631615
8.113207296,1.0000627876700408,-6.567770898772022
8.12830208,1.000064408668934,-6.9213180863156785
8.143396352,1.0000632199794302,-7.274919480392023
8.158490624,1.000059209455939,-7.62852630401319
8.173584896,1.0000527933179475,-7.982102135903462
8.188679168,1.0000440502490469,-8.335602731253278
8.20377344,1.000033259264703,-8.689021518634107
8.218867712,1.0000210497621727,-9.042370753253266
8.233962496,1.0000080764490202,-9.395543882061027
8.249056768,0.9999945666091329,-9.748629467669886
8.26415104,0.9999814118754801,-10.101606099545156
8.279245312,0.9999690882439106,-10.454400671529527
8.294339584,0.9999580988492692,-10.80713951938691
8.309433856,0.9999490576299359,-11.159770905696261
8.324528128,0.9999421091888138,-11.512356340971222
8.3396224,0.9999378169107421,-11.864898277159632
8.354717184,0.9999362058337402,-12.217417272531476
8.369811456,0.9999376101940769,-12.569979854706817
8.384905728,0.9999417058126175,-12.92261816576304
8.4,0.999948314418357,-13.275337575549214
8.415094272,0.999957290867699,-13.628209173397027
8.430188544,0.9999683658832221,-13.981212312461558
8.445282816,0.9999807188711356,-14.334412239891831
8.4603776,0.9999940671361809,-14.687771508341841
8.475471872,1.0000077917005479,-15.041356162799262
8.490566144,1.0000211830849122,-15.395105723848596
8.505660416,1.0000337967524322,-15.749070483373563
8.520754688,1.0000448771607573,-16.103223347007578
8.53584896,1.0000542102866739,-16.457525396883575
8.550943232,1.000061164145564,-16.811944983278476
8.566037504,1.0000653547255247,-17.16647711083285
8.581132288,1.0000668845435905,-17.521081627663733
8.596226048,1.0000653315947916,-17.87575092407342
8.611320832,1.000061142441374,-18.230368038894348
8.626414592,1.0000542478245493,-18.584993652385588
8.641509376,1.0000448612840453,-18.939531807044695
8.65660416,1.00003372676289,-19.293990518601422
8.67169792,1.000020853885948,-19.648350076104556
8.686792704,1.0000071940612234,-20.00257087805986
8.701886464,0.9999932043001204,-20.356685804696227
8.716981248,0.9999795941014022,-20.710637882614613
8.732075008,0.9999668102745787,-21.064485954389635
8.747169792,0.9999553311182091,-21.41822382270302
8.762264576,0.9999460624870172,-21.771860458590197
8.777358336,0.9999390743357672,-22.125430436278553
8.79245312,0.9999348038097143,-22.478963528393248
8.80754688,0.9999333674104699,-22.83252283484134
8.822641664,0.9999349943927266,-23.186087418572868
8.837735424,0.9999394302162841,-23.539744715097626
8.852830208,0.9999466163345233,-23.893501899780556
8.867924992,0.9999561474046987,-24.247388369878866
8.883018752,0.9999677168325326,-24.601444983379583
8.898113536,0.9999808121933126,-24.955677556065
8.913207296,0.9999947081910939,-25.310130589718597
8.92830208,1.0000090797521388,-25.664769038186748
8.94339584,1.0000229350785956,-26.019622165015736
8.958490624,1.0000360171327578,-26.374658203466534
8.973585408,1.0000474971348292,-26.729911569724084
8.988679168,1.0000570622486,-27.085309202600477
9.003773952,1.000064200422131,-27.440856588243825
9.018867712,1.0000683939722324,-27.796508049272898
9.033962496,1.0000696992762117,-28.152210102670427
9.049056256,1.0000680749131081,-28.507944502552807
9.06415104,1.0000634620160689,-28.863720605523767
9.0792448,1.0000560645941245,-29.219441678353746
9.094339584,1.0000461272317207,-29.575088452603868
9.109434368,1.0000342690766313,-29.930652241372446
9.124528128,1.0000209658589847,-30.28609642413918
9.139622912,1.0000066108261136,-30.64141763449162
9.154716672,0.9999919820806827,-30.996582622018625
9.169811456,0.9999777801897206,-31.351643126304314
9.184905216,0.9999644653245646,-31.70653465579239
9.2,0.9999527553276981,-32.06134697107023
9.215094784,0.9999431194581074,-32.416053765543644
9.230188544,0.9999359649703977,-32.77068674163645
9.245283328,0.9999317574785481,-33.12529976035575
9.260377088,0.9999304412218649,-33.479917471217895
9.275471872,0.9999322684506173,-33.83457781529976
9.290565632,0.9999371423047664,-34.18931192488948
9.305660416,0.999944797562216,-34.54415407275704
9.3207552,0.9999549489807098,-34.89913611960784
9.33584896,0.9999671782911612,-35.25429626522093
9.350943744,0.999980985360075,-35.6096479288157
9.366037504,0.9999955807877753,-35.965234386724006
9.381132288,1.0000104600408337,-36.3209998158916
9.396226048,1.0000251939596327,-36.67699984063571
9.411320832,1.0000386097771887,-37.0332211917524
9.426414592,1.0000506056503826,-37.3896094231185
9.441509376,1.000060377778783,-37.74616621594066
9.45660416,1.000067650124023,-38.10290540138948
9.47169792,1.000071906129989,-38.45973026865487
9.486792704,1.0000731092811082,-38.81660401487933
9.501886464,1.0000711654978416,-39.17353580187922
9.516981248,1.000066086930822,-39.53047244334586
9.532075008,1.0000580897010691,-39.88737647564841
9.547169792,1.0000475778990203,-40.24421353776804
9.562264576,1.0000350612987838,-40.600920164509155
9.577358336,1.000020928307513,-40.95754071418542
9.59245312,1.0000058598178467,-41.31398688459458
9.60754688,0.9999906367669881,-41.67032224492485
9.622641664,0.9999756614177084,-42.02649677084833
9.637735424,0.9999617773503542,-42.382565007761805
9.652830208,0.9999496608331144,-42.73848799310581
9.667924992,0.9999396639588071,-43.09431701605461
9.683018752,0.9999324241453895,-43.45007908129478
9.698113536,0.999928119809336,-43.80581661243957
9.713207296,0.9999269847169567,-44.16158870073616
9.72830208,0.9999291216216737,-44.51736707634878
9.74339584,0.9999343630915288,-44.87323439129103
9.758490624,0.9999426563909403,-45.229205890753974
9.773585408,0.9999533766750768,-45.58536487343422
9.788679168,0.9999664139124145,-45.941703310183804
9.803773952,0.9999809795281348,-46.2982142473303
9.818867712,0.9999962815412023,-46.65497645198538
9.833962496,1.0000120857702266,-47.01196247796646
9.849056256,1.0000273235379329,-47.36917622568198
9.86415104,1.0000414237889457,-47.7266121497547
9.8792448,1.00005387754462,-48.084246028827096
9.894339584,1.0000639952998396,-48.442055008307186
9.909434368,1.0000714570591347,-48.80001824273318
9.924528128,1.000075726909686,-49.15808719321232
9.939622912,1.0000768350293936,-49.51624295443087
9.954716672,1.0000744677272126,-49.87444157883218
9.969811456,1.0000689915623073,-50.2326019659777
9.984905216,1.0000605015232107,-50.590728735513125
10.0,1.0000493001892903,-50.948800843721074
10.015094784,1.0000359302759352,-51.30677334850622
10.030188544,1.0000210138263963,-51.66458768556339
10.045283328,1.0000051634581437,-52.02227183972018
10.060377088,0.9999891081987138,-52.37980582815343
10.075471872,0.9999734923708228,-52.73719110679293
10.090565632,0.9999590783948542,-53.09444184094951
10.105660416,0.9999462874989494,-53.45156913431678
10.1207552,0.9999360184710484,-53.808569474550296
10.13584896,0.999928560807705,-54.165556173884774
10.150943744,0.9999242697634466,-54.52245827255847
10.166037504,0.9999233197970223,-54.87939454931394
10.181132288,0.9999257985195702,-55.23639903814267
10.196226048,0.999931486936394,-55.59345995136193
10.211320832,0.9999403977343345,-55.950661588497994
10.226414592,0.9999519183196395,-56.3080342404059
10.241509376,0.9999657958625504,-56.665609924866075
10.25660416,0.9999811703838933,-57.023381712797175
10.27169792,0.9999974451259556,-57.381402402806785
10.286792704,1.0000139362723264,-57.73966520521937
10.301886464,1.0000299558533596,-58.09816437076825
10.316981248,1.0000448351623088,-58.45687998214463
10.332075008,1.0000578214605524,-58.815826509048414
10.347169792,1.0000682648152044,-59.1749234957169
10.362264576,1.0000759677614814,-59.53421891892245
10.377358336,1.000080234807134,-59.89362153479578
10.39245312,1.0000811711733741,-60.25308055173013
10.40754688,1.0000784479940834,-60.612586715417706
10.422641664,1.0000725055044208,-60.97209342891149
10.437735424,1.000063285508528,-61.33154636422589
10.452830208,1.0000513011004954,-61.69092135234501
10.467924992,1.000037083587555,-62.050182824083976
10.483018752,1.000021261155846,-62.409311348533706
10.498113536,1.0000044681174047,-62.76826977522872
10.513207296,0.9999875147712641,-63.127081163874365
10.52830208,0.9999709924459815,-63.485724617283054
10.54339584,0.9999557943660521,-63.84422710431676
10.558490624,0.9999425686972443,-64.20260530497033
10.573585408,0.9999318261914046,-64.56088426549158
10.588679168,0.9999241379661047,-64.91908208496854
10.603773952,0.9999197330542823,-65.27725945414365
10.618867712,0.9999189839733799,-65.63545352654472
10.633962496,0.9999218067030681,-65.9936944785535
10.649056256,0.9999280289276751,-66.35203431340888
10.66415104,0.9999376105838773,-66.71050197654706
10.6792448,0.9999500052241481,-67.06915286242335
10.694339584,0.9999647628930323,-67.42801531997776
10.709434368,0.999981058972662,-67.78710934390651
10.724528128,0.9999983644357512,-68.14646093071802
10.739622912,1.0000158781058992,-68.50603546084606
10.754716672,1.0000328048887643,-68.8659098681691
10.769811456,1.0000483725507376,-69.22599040627719
10.784905216,1.0000619634840386,-69.58631080058679
10.8,1.0000728988197825,-69.94680782820457
10.815094784,1.0000807098123472,-70.30748226340106
10.830188544,1.0000852149886266,-70.66827808363753
10.845283328,1.0000858836224227,-71.029151286801
10.860377088,1.0000828803862745,-71.39004368053466
10.875471872,1.0000762970386268,-71.7509373632123
10.890565632,1.0000663797846465,-72.11178505985336
10.905660416,1.000053510149289,-72.47253305894736
10.9207552,1.000038389068235,-72.83316715691784
10.93584896,1.0000215249276438,-73.19362433850775
10.950943744,1.0000036313282308,-73.55396408847446
10.966037504,0.9999856643835623,-73.91411514231336
10.981132288,0.9999682910864154,-74.27409472288448
10.996226048,0.9999522993253026,-74.63392085817382
11.011320832,0.9999383641276349,-74.99362271333113
11.026414592,0.9999270996151406,-75.35319029654859
11.041509376,0.9999191546962711,-75.7127005215654
11.05660416,0.9999147042126197,-76.07220453947741
11.07169792,0.9999141139201924,-76.43169848155674
11.086792704,0.9999173179636719,-76.7912677788307
11.101886464,0.9999241721109271,-77.15091937341433
11.116981248,0.9999345064833671,-77.51074665278242
11.132075008,0.999947910542433,-77.87073936428895
11.147169792,0.99996359354095,-78.23095754189029
11.162264576,0.9999809082616222,-78.59142891113846
11.177358336,0.9999993957285764,-78.9521658910247
11.19245312,1.0000179659141988,-79.3131903890808
11.20754688,1.000035873724521,-79.67443920870554
11.222641664,1.0000522876966162,-80.03596762092366
11.237735424,1.0000665748863318,-80.39773168230461
11.252830208,1.000078136613486,-80.75971144821851
11.267924992,1.0000861618508845,-81.12182907406846
11.283018752,1.0000906021759077,-81.48409422628616
11.298113536,1.00009126183248,-81.84645594768817
11.313207296,1.0000878051259685,-82.2088110080966
11.32830208,1.0000805647043067,-82.57116449872859
11.34339584,1.0000698462032462,-82.93347782665121
11.358490624,1.0000560340276463,-83.2956932789802
11.373585408,1.0000397767345597,-83.65775658473255
11.388679168,1.0000217266285591,-84.01966162051777
11.403773952,1.000002651925259,-84.38140067515499
11.418867712,0.9999836039582719,-84.74297155286033
11.433962496,0.9999650014656614,-85.10435155369147
11.449056256,0.9999481386789706,-85.46556761469078
11.46415104,0.9999334436125394,-85.82662910808698
11.4792448,0.9999216381734588,-86.18760276773617
11.494339584,0.9999132598019784,-86.54847267741712
11.509434368,0.9999087916834575,-86.90933464229747
11.524528128,0.9999083889395894,-87.27022567190558
11.539622912,0.9999119531807837,-87.63114217109809
11.554716672,0.9999195479762536,-87.99220234376143
11.569811456,0.99993069353078,-88.35340233970052
11.584905216,0.9999451128222271,-88.71482448811074
11.6,0.9999619938750123,-89.0764606026859
11.615094784,0.9999806844608568,-89.43839015968977
11.630188544,1.0000002756104134,-89.80057668478219
11.645283328,1.0000201430255125,-90.16306045828657
11.660377088,1.000039250954625,-90.52581557902282
11.675471872,1.0000566204834138,-90.88885477991317
11.690565632,1.0000717971240891,-91.25214993657964
11.705660416,1.00008388068366,-91.61564533606888
11.7207552,1.0000923848736358,-91.97932496335956
11.73584896,1.0000969628000702,-92.3431312991495
11.750943744,1.000097314132316,-92.70702534403479
11.766037504,1.0000934659464988,-93.0709569271518
11.781132288,1.0000855661069952,-93.43484393500468
11.796226048,1.0000738914808462,-93.79869752879067
11.811320832,1.0000590084045635,-94.16242518299637
11.826414592,1.000041503382972,-94.52602296090318
11.841509376,1.0000221569198942,-94.88945850661791
11.85660416,1.0000017479094832,-95.25267035326242
11.87169792,0.9999812373844128,-95.61571906720572
11.886792704,0.9999615005776132,-95.97857042591681
11.901886464,0.9999434683305947,-96.34122623610438
11.916981248,0.9999278321808567,-96.7037461161046
11.932075008,0.9999154133932457,-97.06612594462663
11.947169792,0.9999066939378841,-97.42845029251977
11.962264576,0.9999021724744787,-97.7907191247307
11.977358336,0.9999018313429441,-98.15303855048293
11.99245312,0.9999059240604392,-98.51539317606323
12.00754688,0.9999142876072632,-98.87790486623675
12.022641664,0.9999264318199685,-99.24056171635738
12.037735424,0.9999419438875606,-99.60346260646944
