freq,mag,phase
6.0,1.000205288303022,-140.89780185929172
6.002285568,1.0000943733832386,-141.0381715149373
6.004571648,0.9999778537656834,-141.1768921662476
6.006857216,0.9998629193497295,-141.3139122117014
6.009142784,0.9997570378361057,-141.44932002727546
6.011428352,0.9996668904707123,-141.58328554463432
6.013714432,0.9995982753674447,-141.71612978503563
6.016,0.9995554676465171,-141.8481476555306
6.018285568,0.9995412758260912,-141.97973750938647
6.020571648,0.9995565814504492,-142.11133733000267
6.022857216,0.9996004018749315,-142.2433548793827
6.025142784,0.9996699888297298,-142.376233831163
6.027428352,0.999760969794566,-142.5102540667444
6.029714432,0.9998675160472189,-142.64570916043257
6.032,0.9999829569325734,-142.78277099174912
6.034285568,1.0000998471123017,-142.92154581555116
6.036571648,1.0002108617811738,-143.06194322608812
6.038857216,1.0003088546787258,-143.20390231471208
6.041142784,1.0003876929402278,-143.3471333702077
6.043428352,1.0004422745416013,-143.49130708246108
6.045714432,1.0004692760486262,-143.6360984661646
6.048,1.0004668083319261,-143.78107375636205
6.050285568,1.0004350608322767,-143.92579318681143
6.052571648,1.0003760734631553,-144.06985051563464
6.054857216,1.0002936028950224,-144.212912008048
6.057142784,1.0001927557747297,-144.35458173586798
6.059428352,1.0000799939942617,-144.49472844155142
6.061714432,0.999962380838785,-144.63319626121057
6.064,0.9998475447465873,-144.76997870485343
6.066285568,0.9997426779026022,-144.9051601512509
6.068571648,0.9996545063487714,-145.0389143508498
6.070857216,0.9995885527289391,-145.17153718020248
6.073142784,0.9995490887985883,-145.30341143511637
6.075428352,0.9995385796074077,-145.43492280364015
6.077714432,0.9995577791773425,-145.5664771710458
6.08,0.9996054321861318,-145.6985270527238
6.082285568,0.9996785817829839,-145.8314564077187
6.084571648,0.9997725206120184,-145.96560918551663
6.086857216,0.9998813195101953,-146.1011835654598
6.089142784,0.9999980256026197,-146.23842235884376
6.091428352,1.0001153125644868,-146.37739211542527
6.093714432,1.0002256257727502,-146.51798641904023
6.096,1.0003221066200403,-146.66010963283256
6.098285568,1.0003985470064878,-146.80347484574278
6.100571648,1.000450057004836,-146.9477725597226
6.102857216,1.0004734117149527,-147.09262589254223
6.105142784,1.0004670640212858,-147.23757412607316
6.107428352,1.0004314749042724,-147.38223006419128
6.109714432,1.0003687685652936,-147.52615197513236
6.112,1.0002830175533042,-147.66903885549195
6.114285568,1.0001795660890156,-147.81051786403722
6.116571648,1.000065132593222,-147.95040941611484
6.118857216,0.9999467565928266,-148.08862690425954
6.121142784,0.9998320440161282,-148.22513638046567
6.123428352,0.9997283930868588,-148.3600489422843
6.125714432,0.9996421489930937,-148.49359832442173
6.128,0.9995790554914616,-148.62599659783982
6.130285568,0.999543090945081,-148.75772198933646
6.132571648,0.9995363647304916,-148.88913154574783
6.134857216,0.9995595107517646,-149.02064803571201
6.137142784,0.9996110950779371,-149.15269233726497
6.139428352,0.9996875840829121,-149.28566772458782
6.141714432,0.9997844497314159,-149.41990746898998
6.144,0.9998954400966065,-149.55567121050288
6.146285568,1.000013372615729,-149.69309414002143
6.148571648,1.0001309547845076,-149.83221993791673
6.150857216,1.0002405664651999,-149.97298657756423
6.153142784,1.000335367150096,-150.115244261626
6.155428352,1.0004093276879285,-150.25874294116386
6.157714432,1.0004575603363164,-150.40309619828668
6.16,1.0004772430174105,-150.54796813301888
6.162285568,1.0004669498466687,-150.69291096035218
6.164571648,1.0004274757536407,-150.83748680181975
6.166857216,1.0003611208164083,-150.9812626345595
6.169142784,1.0002721893045883,-151.12395539080455
6.171428352,1.0001662189073923,-151.26519495959735
6.173714432,1.0000500934500596,-151.40483067766093
6.176,0.9999310370865025,-151.54276961888067
6.178285568,0.9998166959773147,-151.67899800918798
6.180571648,0.9997141682836441,-151.81363605177415
6.182857216,0.9996302207721665,-151.9468745694507
6.185142784,0.9995700653105541,-152.07913108370767
6.187428352,0.9995375184034003,-152.21067203979786
6.189714432,0.9995347415138398,-152.341940476814
6.192,0.9995618082405956,-152.47337932624762
6.194285568,0.9996171825700142,-152.60543918797129
6.196571648,0.9996972587189797,-152.73849646344627
6.198857216,0.9997968731275192,-152.87281833239953
6.201142784,0.999909893020187,-153.00869089310643
6.203428352,1.0000289567152743,-153.14624567748422
6.205714432,1.0001467039648957,-153.28555250647938
6.208,1.000255510130469,-153.42647307541148
6.210285568,1.0003484884104714,-153.5688551400776
6.212571648,1.000419788559685,-153.7124892551167
6.214857216,1.0004648333795136,-153.8568774720267
6.217142784,1.0004807432665135,-154.00175121672427
6.219428352,1.0004664555442728,-154.14665461977702
6.221714432,1.000422967130832,-154.2911138305693
6.224,1.000353017322772,-154.4347440897601
6.226285568,1.000260869409452,-154.5772135187713
6.228571648,1.0001525465496777,-154.71819892783375
6.230857216,1.0000348514848845,-154.85754484622672
6.233142784,0.9999152467478263,-154.99518544214794
6.235428352,0.9998012598664792,-155.1310902506121
6.237714432,0.999700202130014,-155.26543905648722
6.24,0.9996185444552353,-155.39844317269194
6.242285568,0.9995613356338747,-155.5304283594261
6.244571648,0.999532381133018,-155.66179112205964
6.246857216,0.9995334912826571,-155.79295542534612
6.249142784,0.9995646028180317,-155.92433386312194
6.251428352,0.999623740630453,-156.05636712113775
6.253714432,0.9997072559163489,-156.18943578571785
6.256,0.9998096886033065,-156.32386943754702
6.258285568,0.9999246075002551,-156.45987037721795
6.260571648,1.0000447147212308,-156.5975660169731
6.262857216,1.0001624103135935,-156.73697559530405
6.265142784,1.000270286637573,-156.8780455138685
6.267428352,1.0003613846368682,-157.02056884629388
6.269714432,1.0004298591333638,-157.16421316696255
6.272,1.0004716198479562,-157.30870235164238
6.274285568,1.0004836997119702,-157.45357452132586
6.276571648,1.000465398351948,-157.59835681337407
6.278857216,1.0004179716668051,-157.7427057513678
6.281142784,1.0003443424604743,-157.88614220354833
6.283428352,1.0002491549423569,-158.02836672422745
6.285714432,1.0001384956784396,-158.1690836308795
6.288,1.000019324685177,-158.3081284714334
6.290285568,0.9998991563273153,-158.4453972364299
6.292571648,0.9997857376784094,-158.58100736799466
6.294857216,0.9996862268732518,-158.71505849533696
6.297142784,0.9996069853463224,-158.84777677557682
6.299428352,0.9995529677380186,-158.9795436441318
6.301714432,0.9995276085731634,-159.11069799094463
6.304,0.9995327917834159,-159.24171386103612
6.306285568,0.9995678869625388,-159.37303215527186
6.308571648,0.9996308762727834,-159.50504451417368
6.310857216,0.9997176573157545,-159.6381414734617
6.313142784,0.9998228255479364,-159.77261199926022
6.315428352,0.9999395550214368,-159.9087296184207
6.317714432,1.0000606180842242,-160.04656218820568
6.32,1.0001782736658833,-160.18611435232916
6.322285568,1.0002849995559004,-160.3272998362822
6.324571648,1.000373965879793,-160.4699025983611
6.326857216,1.0004397012187078,-160.61364839504955
6.329142784,1.0004778942004757,-160.75810977339373
6.331428352,1.000485990734128,-160.90293447646692
6.333714432,1.0004637897073434,-161.0476316888032
6.336,1.0004124150815703,-161.1918013621867
6.338285568,1.0003351431440632,-161.3350496381847
6.340571648,1.0002370183636773,-161.47698877796535
6.342857216,1.0001240300631535,-161.61743241200185
6.345142784,1.0000035568822483,-161.75614004307704
6.347428352,0.9998830191450402,-161.89310548972867
6.349714432,0.9997703427533666,-162.02835112694646
6.352,0.9996724244673758,-162.1620571762717
6.354285568,0.9995956558380175,-162.29448550697504
6.356571648,0.9995449039416893,-162.42598635985044
6.358857216,0.9995233715427867,-162.55694820267803
6.361142784,0.999532434155319,-162.68785299624648
6.363428352,0.9995716287921957,-162.81905146195925
6.365714432,0.9996383608838544,-162.9510471770907
6.368,0.9997284638556917,-163.08415177515565
6.370285568,0.9998362551397698,-163.2187284700577
6.372571648,0.9999548458260336,-163.3549094310513
6.374857216,1.0000767072524779,-163.49283874768238
6.377142784,1.0001940713751982,-163.632510636116
6.379428352,1.0002996229895116,-163.7738227995789
6.381714432,1.0003864080796514,-163.91649163447772
6.384,1.0004492098279107,-164.06025280111942
6.386285568,1.000483775667116,-164.20472856769874
6.388571648,1.0004880399080516,-164.34947547351211
6.390857216,1.000461693996661,-164.49406814438572
6.393142784,1.0004063797173581,-164.63805836596865
6.395428352,1.0003255994520734,-164.78106949062123
6.397714432,1.0002244209074438,-164.92273008900574
6.4,1.0001092990819744,-165.0628308276059
6.402285568,0.9999875232337272,-165.2011839832137
6.404571648,0.9998668920885292,-165.3378033536771
6.406857216,0.9997549153156478,-165.47268168900786
6.409142784,0.9996587693651785,-165.6060611137124
6.411428352,0.9995846455184362,-165.73818979113824
6.413714432,0.999537237903631,-165.86942534375603
6.416,0.9995194713103991,-166.00017620522382
6.418285568,0.9995327100658626,-166.13091346014892
6.420571648,0.9995759623867967,-166.26203029782107
6.422857216,0.9996465136563288,-166.39396582346004
6.425142784,0.9997397952681621,-166.52707857782858
6.427428352,0.9998501121732749,-166.6616903330181
6.429714432,0.9999703758031623,-166.7979711354688
6.432,1.0000929022558844,-166.93599264106757
6.434285568,1.0002098890468043,-167.07578779805607
6.436571648,1.0003141188575815,-167.2171713072697
6.438857216,1.0003986666490268,-167.3599112242852
6.441142784,1.0004583003783356,-167.50369518544386
6.443428352,1.0004892258061229,-167.64812712890935
6.445714432,1.0004894917415075,-167.79280742055548
6.448,1.0004591124850275,-167.93724913728016
6.450285568,1.000399804576978,-168.08102529806808
6.452571648,1.0003154855753322,-168.2237680566043
6.454857216,1.0002114831880975,-168.3651200782195
6.457142784,1.0000942412334877,-168.50488597015806
6.459428352,0.9999713110203194,-168.64288827939984
6.461714432,0.9998505629900146,-168.77912582241848
6.464,0.9997395254872106,-168.91364053351947
6.466285568,0.999645272209818,-169.04666177964322
6.468571648,0.9995739149031694,-169.1784791333292
6.470857216,0.9995299561292201,-169.30942204351803
6.473142784,0.9995161704492203,-169.4399742402149
6.475428352,0.9995335139894188,-169.5705103622932
6.477714432,0.999580692574328,-169.70154106631475
6.48,0.9996550275379749,-169.8334270880929
6.482285568,0.9997516397226972,-169.96653693007426
6.484571648,0.9998644101535008,-170.10119199674767
6.486857216,0.999986231257517,-170.23756088932433
6.489142784,1.0001093639740006,-170.3756926109716
6.491428352,1.0002258071483627,-170.51552704254104
6.493714432,1.0003284402741675,-170.6569729246192
6.496,1.0004106807792152,-170.79979100302555
6.498285568,1.000467078885096,-170.9435632168703
6.500571648,1.0004943265892496,-171.0879475216582
6.502857216,1.0004905601860976,-171.23253783614615
6.505142784,1.0004559433953415,-171.37679642859806
6.507428352,1.0003927558275436,-171.52035440942115
6.509714432,1.0003048551735712,-171.6628111804079
6.512,1.0001980565972295,-171.80386746516234
6.514285568,1.0000789172167603,-171.94324060586985
6.516571648,0.9999549801907707,-172.08083839868144
6.518857216,0.9998342016841963,-172.21668830469747
6.521142784,0.9997242437256542,-172.35081368239662
6.523428352,0.9996320636138577,-172.4834644827546
6.525714432,0.9995635949068655,-172.61496017458128
6.528,0.9995231254963666,-172.7456247111104
6.530285568,0.9995133394401943,-172.87593380306544
6.532571648,0.9995348392927983,-173.0063320338265
6.534857216,0.9995861345342734,-173.13723665177193
6.537142784,0.999664137004292,-173.26905813798186
6.539428352,0.9997639501117911,-173.40218646637535
6.541714432,0.9998791314755161,-173.53688831435406
6.544,1.0000024232828753,-173.67329024729938
6.546285568,1.0001258978848577,-173.8114775768603
6.548571648,1.0002418611638402,-173.9514232695666
6.550857216,1.0003427838440466,-174.09291308203873
6.553142784,1.0004224771941048,-174.2357388194748
6.555428352,1.0004756962953167,-174.37950997326251
6.557714432,1.0004990364511075,-174.52380824425435
6.56,1.0004910082599316,-174.66824569335878
6.562285568,1.0004523171801505,-174.81232839578283
6.564571648,1.0003851872947234,-174.95564543799782
6.566857216,1.0002938857073995,-175.09780978956036
6.569142784,1.0001842971845458,-175.23850695418236
6.571428352,1.000063217050014,-175.3774986207659
6.573714432,0.9999384028094189,-175.51472846773532
6.576,0.9998177429812268,-175.6501218040943
6.578285568,0.9997090054626223,-175.7838718610108
6.580571648,0.9996190130337438,-175.91613855789873
6.582857216,0.9995534782986482,-176.04727933167592
6.585142784,0.9995166964652845,-176.17768555091874
6.587428352,0.9995109550658906,-176.3077294223972
6.589714432,0.9995365788221646,-176.4379399865929
6.592,0.999592011747576,-176.56872719915003
6.594285568,0.9996736642630719,-176.70051204465594
6.596571648,0.9997766879154661,-176.8336087976128
6.598857216,0.9998940341237537,-176.96831801788468
6.601142784,1.0000186664535853,-177.10478640456822
6.603428352,1.0001424112065664,-177.2430594626846
6.605714432,1.000257656873753,-177.38301992487013
6.608,1.0003569143644866,-177.52460720513622
6.610285568,1.0004337999635975,-177.66737381391434
6.612571648,1.0004836531686145,-177.81112871567206
6.614857216,1.0005030470229133,-177.95537386435532
6.617142784,1.0004909532686839,-178.09964436643983
6.619428352,1.0004480811064698,-178.24352878063644
6.621714432,1.0003770035302022,-178.38655615923363
6.624,1.000282364390578,-178.52837065340103
6.626285568,1.0001699653671652,-178.6686940607686
6.628571648,1.0000472077660922,-178.8073078255375
6.630857216,0.9999216010495836,-178.9440995343245
6.633142784,0.9998012496155617,-179.0791114821971
6.635428352,0.9996938424312156,-179.2124147059992
6.637714432,0.999606141480289,-179.34431305877547
6.64,0.9995438319338915,-179.47507942049384
6.642285568,0.999510715055813,-179.60516643258126
6.644571648,0.9995090579738259,-179.73499931563032
6.646857216,0.9995389308286254,-179.86500902218697
6.649142784,0.9995985655686728,-179.99567245767636
6.651428352,0.999683884376124,179.87260260814745
6.653714432,0.9997897942711496,179.7395259654145
6.656,0.9999094615386751,179.60482111776662
6.658285568,1.0000353692580908,179.46830848159053
6.660571648,1.0001593411378769,179.3299855238146
6.662857216,1.0002736569544002,179.1899449236851
6.665142784,1.0003709151566211,179.04836482448988
6.667428352,1.0004450096212776,178.90556023230235
6.669714432,1.0004914314531026,178.76189106908183
6.672,1.0005069028636429,178.61775630400066
6.674285568,1.000490519609266,178.47368174694088
6.676571648,1.000443404867946,178.33000903013294
6.678857216,1.0003684235693249,178.1872715628591
6.681142784,1.0002703384240847,178.04576560418624
6.683428352,1.0001553674212849,177.90586009912533
6.685714432,1.0000309144840587,177.7676720727678
6.688,0.9999047184779014,177.63133012216775
6.690285568,0.9997847689638277,177.49677045745685
6.692571648,0.9996788201602042,177.36387180011755
6.694857216,0.9995935041083542,177.23238822916448
6.697142784,0.9995343615916904,177.10194105450287
6.699428352,0.9995051704446873,176.97219150678566
6.701714432,0.9995076153451415,176.8426155496143
6.704,0.9995418126636174,176.71278957093193
6.706285568,0.9996053472338687,176.58226345501868
6.708571648,0.9996945769439628,176.4506282618706
6.710857216,0.9998033976740318,176.31754516614495
6.713142784,0.99992516494272,176.18282669334644
6.715428352,1.0000521208093087,176.04629198157878
6.717714432,1.0001761439612342,175.90793029362524
6.72,1.000289342496664,175.76787663751557
6.722285568,1.0003846832744163,175.62627465649766
6.724571648,1.0004559767415664,175.48350265009196
6.726857216,1.0004986591020326,175.3398817221312
6.729142784,1.0005100245814358,175.19589302731052
6.731428352,1.0004894492556027,175.0519676500422
6.733714432,1.0004380422919283,174.90860381295482
6.736,1.0003591720011398,174.76614273857203
6.738285568,1.0002577749386135,174.62503004964137
6.740571648,1.0001403866848946,174.48550210542763
6.742857216,1.0000142925550697,174.34779340951766
6.745142784,0.9998874467627186,174.21187909382868
6.747428352,0.9997681815782996,174.07779843409176
6.749714432,0.9996639034500933,173.94534868754985
6.752,0.999581088939898,173.81427076619332
6.754285568,0.9995253253874258,173.68420188385474
6.756571648,0.9994999804910897,173.55475129965365
6.758857216,0.9995067496095292,173.42543802287008
6.761142784,0.9995452415955295,173.29578325653287
6.763428352,0.9996129812673318,173.16542273730863
6.765714432,0.9997056811083382,173.03385496817035
6.768,0.9998174477019015,172.90082822851952
6.770285568,0.9999412315577089,172.7660869324122
6.772571648,1.000069197966674,172.62952673573076
6.774857216,1.0001930302090503,172.491126983396
6.777142784,1.000305209202276,172.3510380851279
6.779428352,1.0003983019501104,172.20946113199517
6.781714432,1.0004665619405222,172.06672706420915
6.784,1.0005054993227858,171.9231919944525
6.786285568,1.0005127107526937,171.77938390231978
6.788571648,1.000487847030052,171.63564981426293
6.790857216,1.0004321946946872,171.49256338582836
6.793142784,1.0003494100234211,171.35042722355328
6.795428352,1.000244900058032,171.20970476527242
6.797714432,1.0001249463683501,171.07062519322724
6.8,0.9999974075373754,170.93334029842572
6.802285568,0.9998702562685173,170.79791514500582
6.804571648,0.9997516168972961,170.66430044174575
6.806857216,0.9996490053167699,170.5322903060965
6.809142784,0.9995689585961839,170.40163731581436
6.811428352,0.9995167446789109,170.2719491879117
6.813714432,0.9994953768893645,170.14280267302792
6.816,0.99950653014941,170.01376089524626
6.818285568,0.9995492764317333,169.88431278492538
6.820571648,0.9996210843807106,169.7540778923764
6.822857216,0.9997173378354316,169.62258789022957
6.825142784,0.9998319068358855,169.4896203270592
6.827428352,0.9999576563877339,169.3548611646275
6.829714432,1.0000863941449027,169.21829087969496
6.832,1.0002101460567336,169.07989477928317
6.834285568,1.00032090454062,168.93978977248332
6.836571648,1.000411707674417,168.79823757230002
6.838857216,1.0004767274593729,168.65554136153972
6.841142784,1.000511856387086,168.51213538709567
6.843428352,1.0005149232211634,168.3684331907608
6.845714432,1.0004856281447068,168.22498174392996
6.848,1.0004257831957513,168.08215835523882
6.850285568,1.000339213962524,167.94042112191792
6.852571648,1.000231393781,167.80007999227715
6.854857216,1.0001091655147147,167.6614434332553
6.857142784,0.9999801943149226,167.52462963377474
6.859428352,0.9998528275806069,167.38970716409975
6.861714432,0.9997350317607918,167.25656488917593
6.864,0.9996343378520975,167.12501102473766
6.866285568,0.9995570999307918,166.99477844800498
6.868571648,0.9995084228810719,166.86548496178472
6.870857216,0.9994912078478103,166.7366763163967
6.873142784,0.9995067359078055,166.60789410616448
6.875428352,0.9995537854474723,166.47866618158181
6.877714432,0.9996298356686006,166.34854032635798
6.88,0.9997295884594022,166.21717004500115
6.882285568,0.9998468566385592,166.08421225478108
6.884571648,0.9999743434357261,165.94947575384847
6.886857216,1.0001039093057185,165.81290873063136
6.889142784,1.000227214245561,165.67448883872387
6.891428352,1.0003365437595015,165.5343797370363
6.893714432,1.0004247993221986,165.39285678840082
6.896,1.0004865938799081,165.2502378014817
6.898285568,1.0005178040698108,165.10695176087964
6.900571648,1.0005165179636608,164.96347701481258
6.902857216,1.0004828216858794,164.82026825981202
6.905142784,1.0004187288580153,164.6777481118462
6.907428352,1.0003283439847854,164.53636600191922
6.909714432,1.0002174031540711,164.39647729532447
6.912,1.000092882440533,164.2582774472096
6.914285568,0.9999628154208128,164.1219589610514
6.916571648,0.9998352919883435,163.98752848640007
6.918857216,0.9997184349169352,163.85489269494306
6.921142784,0.9996198518640501,163.72381121703543
