freq,mag,phase
6.0,0.9989653314583519,10.471255163087251
6.009501184,0.9989574824800073,10.212563646399285
6.019002368,0.9990032092697422,9.953671810975514
6.028503552,0.9991005741214455,9.693828394840827
6.038004736,0.9992446543464444,9.432354708801014
6.04750592,0.9994278403937993,9.168713103248631
6.057007104,0.9996407475540191,8.902459170779126
6.066508288,0.9998721267682547,8.633287092312138
6.076009472,1.0001101141526516,8.360971669741604
6.085510656,1.0003421769507244,8.08550422948581
6.09501184,1.0005563861581899,7.807183634107566
6.104513024,1.0007415903264736,7.526176921646299
6.114014208,1.0008880439379888,7.242942618137275
6.123515392,1.0009881435673853,6.958132233204469
6.133016576,1.0010367780999028,6.672250811186216
6.14251776,1.0010313552792605,6.386104365080289
6.152018944,1.000971877769871,6.100370720079682
6.161520128,1.0008617825780972,5.815674242368661
6.171021312,1.0007065320900248,5.532735004148135
6.180522496,1.0005140271129274,5.252018842714583
6.19002368,1.0002943770447303,4.974026567684825
6.199524864,1.000058970673752,4.698989208358279
6.209026048,0.9998200749520721,4.427059669146549
6.218527232,0.9995901245889802,4.15819547897395
6.228028416,0.9993810093383882,3.8921923814443824
6.2375296,0.9992036217785845,3.6287534729813067
6.247030784,0.9990672829861401,3.3673566777371517
6.256531968,0.99897914439856,3.1073463316696555
6.266033152,0.998943900688914,2.848227789479318
6.275534336,0.9989633208422644,2.589150997659895
6.28503552,0.9990365111753189,2.3295004996803526
6.294536704,0.9991595810539219,2.068506972152345
6.304037888,0.999326431354892,1.8055863495269444
6.313539072,0.9995280900385669,1.5402162963417663
6.323040256,0.9997542050932632,1.2719955605106579
6.33254144,0.9999929688851684,1.000744131026771
6.342042624,1.0002321253218285,0.7263438208678323
6.351543808,1.0004590143391738,0.44882337615641926
6.361044992,1.0006620019607269,0.1684428209784513
6.370546176,1.0008303786824377,-0.11435285010197821
6.38004736,1.0009555481492247,-0.3991184179619179
6.389548544,1.0010308711052092,-0.6852588480676346
6.399049728,1.0010524282929176,-0.9720225579081871
6.408550912,1.0010191525714693,-1.2587196988968503
6.418052096,1.0009324727376716,-1.544667819754609
6.42755328,1.0007970496423066,-1.829217975624391
6.437054464,1.0006199412914227,-2.1117234597430428
6.446555648,1.000410068321361,-2.3916951696492514
6.456056832,1.000178452421053,-2.6687820784523515
6.465558016,0.9999370793841436,-2.9428267714982015
6.4750592,0.9996985185502434,-3.2136930697136377
6.484560384,0.9994752689895056,-3.481537515931448
6.494061568,0.9992787216208865,-3.746683494184764
6.503562752,0.9991193739996747,-4.009449989057535
6.513063936,0.9990054793785423,-4.270448242430927
6.52256512,0.9989429913096333,-4.530288185810369
6.532066304,0.9989352908414838,-4.789682384018759
6.541567488,0.99898278777748,-5.049397365133556
6.551068672,0.9990829291807555,-5.3100272791966106
6.560569856,0.9992308306636037,-5.572337579592667
6.57007104,0.9994185818517263,-5.836872108389796
6.579572224,0.9996363734667582,-6.104125545061876
6.589073408,0.9998731354409707,-6.37435938849712
6.598574592,1.0001163584004158,-6.647769413926481
6.608075776,1.0003535306969342,-6.924357576700313
6.61757696,1.0005721079434877,-7.203983927597095
6.627078144,1.0007609850845878,-7.486276923821044
6.636579328,1.000910173201519,-7.7708432154619
6.646080512,1.0010119597703826,-8.057084315538066
6.655581696,1.001061008862075,-8.344316677403564
6.66508288,1.0010546163166774,-8.631880081270614
6.674584576,1.0009932385569036,-8.919015560905654
6.68408576,1.0008799823700336,-9.20499423766884
6.693586944,1.0007205083641018,-9.489261091440245
6.703088128,1.0005232885312436,-9.77116863112619
6.712589312,1.0002983513747707,-10.050380267292098
6.722090496,1.0000575377020893,-10.326486200873697
6.73159168,0.9998132937450341,-10.599493231363361
6.741092864,0.9995781757747627,-10.869333727611712
6.750594048,0.9993645244324401,-11.13625663588226
6.760095232,0.9991835246837366,-11.400575834567388
6.769596416,0.9990446200888033,-11.662823257154507
6.7790976,0.9989550841133643,-11.923528852379068
6.788598784,0.9989196593708215,-12.18350069937193
6.798099968,0.998940136874192,-12.443325493543748
6.807601152,0.9990157645114042,-12.703824867416168
6.817102336,0.9991423328740068,-12.965670053480146
6.82660352,0.999313318716473,-13.229500027704526
6.836104704,0.9995200266784398,-13.495814380317839
6.845605888,0.999751657520866,-13.765076725843105
6.855107072,0.9999961632134022,-14.03743785529699
6.864608256,1.000240823481118,-14.313089974170252
6.87410944,1.0004729041574836,-14.59185368807622
6.883610624,1.0006801848968379,-14.873553351757351
6.893111808,1.0008522871934722,-15.157723802575722
6.902612992,1.0009797426748979,-15.443916396483933
6.912114176,1.001056336720823,-15.731494170074505
6.92161536,1.0010777779578426,-16.019725517562886
6.931116544,1.0010429610474725,-16.307915460957634
6.940617728,1.0009538101670894,-16.595284140233026
6.950118912,1.000814607934428,-16.88120644539392
6.959620096,1.000632851143203,-17.165030010632133
6.96912128,1.0004176018615993,-17.446294853604748
6.978622464,1.0001804032362835,-17.724610295321416
6.988123648,0.9999331705895804,-17.9997597965553
6.997624832,0.9996890434366716,-18.271693435720028
7.007126016,0.9994604053311307,-18.540562662495194
7.0166272,0.9992595221209538,-18.806613642216252
7.026128384,0.9990967750436935,-19.070254413260717
7.035629568,0.9989807088853875,-19.332065330687488
7.045130752,0.9989171668059857,-19.592722711767998
7.054631936,0.9989098084862232,-19.852937823659097
7.06413312,0.9989589977242074,-20.113452234303228
7.073634304,0.99906220390858,-20.375013512646863
7.083135488,0.9992140688766209,-20.6382331576719
7.092636672,0.9994066726372686,-20.903724172327284
7.102137856,0.9996301982852311,-21.172003682602828
7.11163904,0.9998728882021977,-21.443363828016167
7.121140224,1.0001221348548,-21.7179711785382
7.130641408,1.0003649255240084,-21.995856988929354
7.140142592,1.00058879927978,-22.276826331141656
7.149643776,1.00078202196026,-22.56054936135297
7.15914496,1.0009344792958967,-22.846576472851343
7.168646144,1.0010382447186483,-23.134324539322606
7.178147328,1.0010879612208072,-23.423081209227583
7.187648512,1.0010811311192753,-23.712148502485665
7.197149696,1.0010176708144922,-24.00079728334589
7.20665088,1.0009011088180142,-24.288284275571993
7.216152064,1.0007373253106457,-24.573959852049644
7.225653248,1.0005349426265133,-24.85726639826191
7.235154432,1.0003041773502868,-25.13774934596878
7.244655616,1.000057222748878,-25.415134802182074
7.2541568,0.9998066578068038,-25.6892538933397
7.263657984,0.9995657245112771,-25.960178808601448
7.273159168,0.9993468719073035,-26.22808754602765
7.282660352,0.9991616661142273,-26.49334190890695
7.292161536,0.9990195186580493,-26.756487879506633
7.30166272,0.9989281484671753,-27.01808426230953
7.311163904,0.9988922365434144,-27.27887562104971
7.320665088,0.9989137205030854,-27.539554297055272
7.330166272,0.9989916371739538,-27.800932147670096
7.339667456,0.999121828497757,-28.063689158174803
7.34916864,0.99929766720563,-28.328481668772742
7.358669824,0.9995098413437863,-28.595866501217298
7.368171008,0.9997476816515035,-28.866234330669304
7.377672192,0.9999985689917634,-29.139820988569987
7.387173376,1.0002495706700605,-29.41671658049507
7.39667456,1.0004874515293862,-29.69688775449694
7.406175744,1.0007000106280715,-29.98000274790053
7.415676928,1.000876156346328,-30.265721909091223
7.425178112,1.0010067277025125,-30.55346812834
7.434679296,1.0010848774915104,-30.842617913186572
7.44418048,1.001106625191724,-31.132433906689464
7.453681664,1.0010705476383959,-31.422213111280282
7.463182848,1.0009786240195264,-31.711164948682462
7.472684032,1.0008354833113464,-31.99863647187296
7.482185216,1.000648599816861,-32.2839539479059
7.4916864,1.0004276176326248,-32.56659284805204
7.501187584,1.0001838547880566,-32.846256664425354
7.510688768,0.9999300455372842,-33.12266817097528
7.520189952,0.9996794101600776,-33.39577118675696
7.529691136,0.999444958562775,-33.66568692217365
7.53919232,0.9992387747006457,-33.93274540385387
7.548693504,0.9990719808436362,-34.197343231369125
7.558194688,0.9989529628608493,-34.46009069391275
7.567695872,0.9988881547197762,-34.72167543422008
7.577197056,0.9988809647969025,-34.98270892382825
7.58669824,0.9989316623436042,-35.24411453644053
7.596199424,0.9990380827439462,-35.50656580209497
7.605700608,0.9991942811156466,-35.77076433986347
7.615201792,0.9993922683882437,-36.03733059899795
7.624702976,0.9996220570989764,-36.30671446250755
7.63420416,0.9998714092437013,-36.57926999550004
7.643705344,1.000127432019526,-36.85516748775473
7.653206528,1.000376873466012,-37.13443456850074
7.662707712,1.0006067084597716,-37.416843028533364
7.672208896,1.0008050689918937,-37.70212610087915
7.68171008,1.0009615275271,-37.989755651816544
7.691211264,1.0010679503508477,-38.27912673257733
7.700712448,1.0011188757573721,-38.56955681703057
7.710213632,1.0011113841669814,-38.86032952478995
7.719714816,1.001045975188538,-39.15063986616213
7.729216,1.0009259491116587,-39.43977933394051
7.738717184,1.0007575455502848,-39.72702032023857
7.748218368,1.0005492899979527,-40.011843162508015
7.757719552,1.0003120414558107,-40.29376058356823
7.767220736,1.0000579896604083,-40.572508458435095
7.77672192,0.9998005067973262,-40.84790772477026
7.786223104,0.9995529019874531,-41.11998653379879
7.795724288,0.9993279563853809,-41.38898624925596
7.805225472,0.9991376950275662,-41.65530120631212
7.814726656,0.9989917491092347,-41.91940231612224
7.82422784,0.99889791733108,-42.18190974582081
7.833729024,0.9988613017222673,-42.443588197427445
7.843230208,0.9988835592507482,-42.70517424549428
7.852731392,0.9989637831900746,-42.9675057806511
7.862232576,0.9990978254323728,-43.23121664865882
7.87173376,0.9992787973259146,-43.49703908737176
7.881234944,0.9994973023203554,-43.76552708184032
7.890736128,0.9997418696571532,-44.03707017169078
7.900237312,0.9999999278335007,-44.31196750634433
7.909738496,1.0002579594145862,-44.590246489279394
7.91923968,1.0005027667768378,-44.87189443626467
7.928740864,1.0007213956753687,-45.15656667282297
7.938242048,1.0009025079755693,-45.44393130259274
7.947743232,1.0010367351518672,-45.73336763057455
7.957244416,1.0011170160405016,-46.02425975439382
7.9667456,1.0011391598052348,-46.315830495525105
7.976246784,1.001101972160184,-46.60737775142142
7.985747968,1.001007288588413,-46.89805469134605
7.995249152,1.0008598833099274,-47.18720276093815
8.004750848,1.0006674501559092,-47.47415157552145
8.014252032,1.0004399345454051,-47.75837326938038
8.023753216,1.0001889639088617,-48.03947394671724
8.0332544,0.9999277777978052,-48.317225843152045
8.042755584,0.9996698375338132,-48.59161439641293
8.052256768,0.9994283409078074,-48.862741550638084
8.061757952,0.9992161655753871,-49.13087559724494
8.071259136,0.9990444122908582,-49.39654374652578
8.08076032,0.9989220527054069,-49.66024360738901
8.090261504,0.9988553351672037,-49.92273530406941
8.099762688,0.9988479503742582,-50.18473641084794
8.109263872,0.9989003327633252,-50.44710123874882
8.118765056,0.9990098710583888,-50.71050077652723
8.12826624,0.9991707188497427,-50.97573345607088
8.137767424,0.9993748748170805,-51.24335567333518
8.147268608,0.9996113944492921,-51.51395450204278
8.156769792,0.9998682567409668,-51.787796248856225
8.166270976,1.0001320553518802,-52.06508059288803
8.17577216,1.0003890129856683,-52.345820975429724
8.185273344,1.0006256655894585,-52.62982784891628
8.194774528,1.0008301027409559,-52.91674949353598
8.204275712,1.0009912359068793,-53.2061146546889
8.213776896,1.0011009879692851,-53.497295229482326
8.22327808,1.0011534032984997,-53.78954806507469
8.232779264,1.0011456825324199,-54.08215781741897
8.242280448,1.0010782986089244,-54.37430604957276
8.251781632,1.000954606330249,-54.66522331321919
8.261282816,1.0007810701454962,-54.95425087664187
8.270784,1.0005664448875575,-55.24072221954714
8.280285184,1.0003219809363417,-55.52422002192019
8.289786368,1.0000601382758758,-55.804435734367615
8.299287552,0.9997947017245744,-56.08122411613335
8.308788736,0.9995393672355622,-56.35458212294918
8.31828992,0.9993076373066544,-56.6247947238053
8.327791104,0.9991112131013729,-56.89219989884375
8.337292288,0.9989607458015889,-57.15732833948459
8.346793472,0.9988638722696572,-57.42083440725717
8.356294656,0.9988258975244453,-57.683474636904236
8.36579584,0.9988489444552524,-57.946050443077446
8.375297024,0.9989316372245057,-58.20931967689243
8.384798208,0.9990697632020866,-58.47410100753561
8.394299392,0.9992563361628747,-58.74099077663211
8.403800576,0.9994815992675973,-59.01063697804993
8.41330176,0.9997339371536027,-59.28344342230608
8.422802944,0.9999999841823753,-59.55971452015289
8.432304128,1.0002663292744367,-59.83947944919182
8.441805312,1.0005188563867293,-60.1227115213053
8.451306496,1.0007444876896514,-60.4090890617646
8.46080768,1.0009315369048317,-60.69820988842368
8.470308864,1.0010701025832254,-60.98948831533707
8.479810048,1.001153112332583,-61.282275689028594
8.489311232,1.0011760278449793,-61.57579749238267
8.498812416,1.0011378865939409,-61.86924090750328
8.5083136,1.001040308074788,-62.161854485501856
8.517814784,1.0008883809093105,-62.45283467621868
8.527315968,1.0006899130856268,-62.741557756948545
8.536817152,1.0004551380656859,-63.02751288654225
8.546318336,1.0001961740372545,-63.31021453989494
8.55581952,0.9999264820041953,-63.58947190250704
8.565320704,0.9996600489305306,-63.86526580791968
8.574821888,0.9994108173892753,-64.13765283516378
8.584323072,0.999191631714467,-64.40700701424691
8.593823744,0.9990141606337009,-64.67375163727282
8.60332544,0.9988874472394971,-64.93850103501552
8.612826112,0.99881829312675,-65.20201782841531
8.622327808,0.9988103819586569,-65.46502034736355
8.63182848,0.9988642276985094,-65.7283487963483
8.641330176,0.9989770754463583,-65.99277816192091
8.650830848,0.9991431163797917,-66.25906752241062
8.660332544,0.9993538119511967,-66.52788639986264
8.66983424,0.9995980413637353,-66.79968168724378
8.679334912,0.9998633423389722,-67.074904858491
8.688836608,1.0001358173455792,-67.35366404491793
8.69833728,1.0004013108943257,-67.63601845891829
8.707838976,1.00064618353843,-67.92171245630296
8.717339648,1.0008574258421565,-68.21045163555021
8.726841344,1.0010242530161533,-68.50168575208636
8.736342016,1.0011378341251251,-68.79481653302172
8.745843712,1.0011923820645154,-69.08907487616855
8.755344384,1.0011848235156116,-69.38368926471087
8.76484608,1.0011154813433156,-69.67783386859156
8.774346752,1.0009879407971927,-69.97072952145105
8.783848448,1.0008088940324757,-70.26163644130159
8.79334912,1.0005871833483093,-70.54996696100196
8.802850816,1.000334488810302,-70.83523304466857
8.812351488,1.0000639918633938,-71.1170530240629
8.821853184,0.9997895320395555,-71.39535596501177
8.831353856,0.9995253971428356,-71.6701265618746
8.840855552,0.9992853575967656,-71.94162376833127
8.850356224,0.9990820346992823,-72.21022492932124
8.85985792,0.9989261084255813,-72.47645561870246
8.869358592,0.9988256519868769,-72.74102259737434
8.878860288,0.9987859397346522,-73.0046679215614
8.88836096,0.9988092366262976,-73.26825073359421
8.897862656,0.9988942882897044,-73.53254537992024
8.907363328,0.9990368353732417,-73.79837059468966
8.916865024,0.9992296337010032,-74.06641902351993
8.926365696,0.9994622972774065,-74.33732158345394
8.935867392,0.9997231892254453,-74.61148540759544
8.945368064,0.9999986350654091,-74.88919152238307
8.95486976,1.0002742206507111,-75.17054638997625
8.964370432,1.0005357294635973,-75.45547765963178
8.973872128,1.0007694708304158,-75.74367022102636
8.9833728,1.000963331693435,-76.03475062214703
8.992874496,1.0011073070869136,-76.32802256610702
9.002375168,1.0011936080363244,-76.62285850311862
9.011876864,1.001218043534354,-76.91848203875014
9.021377536,1.0011789712867016,-77.21405438745074
9.030879232,1.0010783959625444,-77.5087252710003
9.040379904,1.0009215426866032,-77.8017708080335
9.0498816,1.0007164236349186,-78.0924410380623
9.059382272,1.0004736084889536,-78.38025508455132
9.068883968,1.0002055685603015,-78.66473438853397
9.07838464,0.9999264404490069,-78.94563225049616
9.087886336,0.9996504455852945,-79.22291019842294
9.097387008,0.9993919166404085,-79.49674049468138
9.106888704,0.9991645560088197,-79.76736701513455
9.116389376,0.998980314038156,-80.03530502884507
9.125891072,0.9988485109548499,-80.30118871276207
9.135391744,0.998776316479873,-80.56572956465713
9.14489344,0.9987674855361096,-80.82977128035449
9.154394112,0.9988226897190037,-81.09414769288067
9.163895808,0.9989390254435456,-81.35964335230823
9.17339648,0.999110482165342,-81.62706687829665
9.182898176,0.9993283610801446,-81.89709163662913
9.192398848,0.9995812096613725,-82.17026542364562
9.201900544,0.9998560361763115,-82.44688464804233
9.211401216,1.0001385067437172,-82.72721285764433
9.220902912,1.000413822687923,-83.01126332704224
9.230403584,1.0006678806756621,-83.29879592025067
9.23990528,1.0008873612067324,-83.58948779483558
9.249405952,1.0010609462596518,-83.88277144954422
9.258907648,1.0011793348336875,-84.17802662267252
9.26840832,1.0012365423888177,-84.4744628669278
9.277910016,1.001229398594716,-84.77130129994579
9.287410688,1.0011581659703837,-85.06763800591699
9.296912384,1.0010266628572009,-85.36269058607495
9.306413056,1.0008413723664136,-85.65569572466384
9.315914752,1.0006119924867,-85.94605062538253
9.325415424,1.0003502913778108,-86.23317655042484
9.33491712,1.0000697332207145,-86.51682941104939
9.344417792,0.9997848813909999,-86.79676458080189
9.353919488,0.9995106840243203,-87.07307515382772
9.36342016,0.9992613912507775,-87.34594167633097
9.372921856,0.999049803311809,-87.61581830529397
9.382422528,0.9988873266571285,-87.88324521584533
9.391924224,0.9987822355131004,-88.14892615853974
9.401424896,0.9987402532669722,-88.41365014940068
9.410926592,0.9987635801425297,-88.67827399466564
9.420427264,0.9988510617014213,-88.94365805538712
9.42992896,0.9989982681674221,-89.2106005782609
9.439429632,0.9991977663618481,-89.4798664991164
9.448931328,0.9994389438472375,-89.75202684548324
9.458432,0.9997094244390474,-90.0276359848557
9.467933696,0.9999952696298416,-90.30687459372037
9.477434368,1.0002814253870342,-90.58992920690648
9.486936064,1.0005533133137274,-90.87669670789992
9.496436736,1.0007965470215645,-91.16685470833205
9.505938432,1.0009984924437465,-91.45998230787585
9.515439104,1.001148766501182,-91.75547230206546
9.5249408,1.0012393989810868,-92.05255247227501
9.534441472,1.001265599354085,-92.35046754644767
9.543943168,1.0012260026929845,-92.64833269327465
9.55344384,1.0011225172167129,-92.94529212659596
9.562945536,1.000960399678643,-93.2405757359922
9.572446208,1.0007479365713179,-93.5334356137145
9.581947904,1.0004961274758528,-93.82326538262777
9.591448576,1.000217967814875,-94.10968266823225
9.600950272,0.9999278623335529,-94.39241147884516
9.610450944,0.9996407170898083,-94.67136167789589
9.61995264,0.9993718580601221,-94.94667743640555
9.629453312,0.9991349212619646,-95.2187018895714
9.638955008,0.9989424904247763,-95.48791784940688
9.64845568,0.9988044700391338,-95.75498046148137
9.657957376,0.9987284256267887,-96.02064071481735
9.667458048,0.9987182142091398,-96.28576554191635
9.676959744,0.9987745246899976,-96.55119980472419
9.686460416,0.998894510163323,-96.81782812988067
9.695962112,0.9990720198921282,-97.08642830848808
9.705462784,0.9992978904362133,-97.35774250339573
9.71496448,0.9995604441650907,-97.63226155743308
9.724465152,0.999845966819937,-97.9104179471647
9.733966848,1.0001396761476307,-98.19243218275993
9.74346752,1.0004263707153824,-98.47829814052028
9.752969216,1.0006911268422454,-98.76781213006615
9.762469888,1.0009202351627653,-99.06057430287244
9.771971584,1.0011016874037444,-99.35610559731498
9.781472256,1.001225990406447,-99.65368656218207
9.790973952,1.001286604577364,-99.95251511231899
9.800474624,1.001280402199297,-100.25174582477564
9.80997632,1.0012075423660314,-100.55049041193824
