freq,mag,phase
6.0,0.999572540227523,-19.144265543141387
6.01619456,0.999699959134489,-19.70612473801348
6.032388608,0.9998435417131759,-20.269776946445972
6.048583168,0.9999945373946826,-20.83548352892986
6.064777216,1.0001464187045148,-21.40315974434588
6.080971776,1.0002929163883412,-21.972854807177526
6.097165824,1.0004276767635518,-22.54446613959147
6.113360384,1.0005451821900813,-23.117786403376186
6.129554432,1.0006402624398665,-23.692671223419456
6.145748992,1.00070918523117,-24.268730316995196
6.161943552,1.0007485455160612,-24.845668409931402
6.1781376,1.0007568133595033,-25.42315877108362
6.19433216,1.0007334257868687,-26.000812507557566
6.210526208,1.0006795029513398,-26.578271464991545
6.226720768,1.0005967683870243,-27.155206543009534
6.242914816,1.0004890754336047,-27.73125876008541
6.259109376,1.0003606333185369,-28.306177781378715
6.275303424,1.0002165069431013,-28.87976305366643
6.291497984,1.0000631180527173,-29.451844520530727
6.307692544,0.9999066721828704,-30.022351484820536
6.323886592,0.9997536825369975,-30.591260912258253
6.340081152,0.9996106525567724,-31.158641203817478
6.3562752,0.9994837080007031,-31.724746743017946
6.37246976,0.9993781357497233,-32.289667986543215
6.388663808,0.9992986070402161,-32.8537438904704
6.404858368,0.9992483604725085,-33.41728765527838
6.421052416,0.9992297859818654,-33.98066669729042
6.437246976,0.9992435618129881,-34.544229243023366
6.453441536,0.999289606040211,-35.10840001292026
6.469635584,0.9993656888072435,-35.6735194823125
6.485830144,0.9994689950903596,-36.23997231805509
6.502024192,0.9995951048305644,-36.80799993709121
6.518218752,0.9997388808162161,-37.37785467002972
6.5344128,0.9998943494493886,-37.94978172145735
6.55060736,1.0000550742311263,-38.52376436779704
6.566801408,1.0002140525157701,-39.099946616175025
6.582995968,1.000364965854482,-39.67820921791026
6.599190528,1.0005013189357377,-40.25836390067656
6.615384576,1.0006172190589366,-40.84035105424288
6.631579136,1.0007079316115002,-41.42378725065866
6.647773184,1.000769352447708,-42.00844704860413
6.663967744,1.0007988825845768,-42.593883256268256
6.680161792,1.0007953737030055,-43.17976055335962
6.696356352,1.0007583244347085,-43.765663663314974
6.7125504,1.0006897586975356,-44.35124344702532
6.72874496,1.000592220001064,-44.93612433651648
6.74493952,1.000469399871268,-45.520010603841904
6.761133568,1.0003266822749082,-46.1025758008632
6.777328128,1.000169913016216,-46.68365032538497
6.793522176,1.0000055360044913,-47.263144942065594
6.809716736,0.9998404024216007,-47.84093367420132
6.825910784,0.9996815072268422,-48.41710993500026
6.842105344,0.9995356628851849,-48.99169284982173
6.858299392,0.999408709466368,-49.56498276711194
6.874493952,0.9993062854012088,-50.137139395696806
6.890688512,0.9992327075610105,-50.708555156561985
6.90688256,0.9991914363381158,-51.27952926579779
6.92307712,0.9991840079986827,-51.85042581172759
6.939271168,0.999210941369091,-52.42173404830986
6.955465728,0.9992712633844592,-52.993815083325785
6.971659776,0.9993626321682977,-53.56704385386647
6.987854336,0.9994812990372719,-54.141764840218336
7.004048384,0.9996223509784579,-54.71828646703782
7.020242944,0.9997799753065854,-55.2968301968582
7.036436992,0.9999476026968687,-55.87760001112628
7.052631552,1.0001183092944885,-56.46061254700773
7.068826112,1.0002849006530647,-57.045883184001895
7.08502016,1.000440298249685,-57.63334033116525
7.10121472,1.0005781848421698,-58.22280312737019
7.117408768,1.0006924611462564,-58.81407993127855
7.133603328,1.0007783222580198,-59.40679452753573
7.149797376,1.000832231451642,-60.00064721749442
7.165991936,1.0008516583412983,-60.595214072167515
7.182185984,1.0008356200289092,-61.19012982534213
7.198380544,1.0007848592753585,-61.78493172522409
7.214575104,1.0007008947874387,-62.37928037992824
7.230769152,1.0005877100907858,-62.97274231143193
7.246963712,1.000449427230798,-63.565017510087394
7.26315776,1.0002919390776501,-64.15587789137562
7.27935232,1.000121755870214,-64.74510226751853
7.295546368,0.9999459636461009,-65.3325630682768
7.311740928,0.9997718059849616,-65.91827322420939
7.327934976,0.9996067295002199,-66.50223456201165
7.344129536,0.999457525803991,-67.0846762777698
7.360324096,0.9993306382581957,-67.66572869261985
7.376518144,0.9992313878590456,-68.24571777406135
7.392712704,0.9991642747737266,-68.82499904216989
7.408906752,0.999131983558611,-69.40397099594625
7.425101312,0.999136006215624,-69.98306912099626
7.44129536,0.9991764760366738,-70.56265860342387
7.45748992,0.999251882098861,-71.14325629688628
7.473683968,0.9993590832996764,-71.72516446023153
7.489878528,0.9994937914323213,-72.30878249852728
7.506073088,0.9996505864456331,-72.89441446873788
7.522267136,0.9998226031051777,-73.48225661691542
7.538461696,1.0000030196587233,-74.07246898930293
7.554655744,1.000184233543239,-74.66513327559174
7.570850304,1.0003587580891118,-75.26016434554796
7.587044352,1.0005192452543643,-75.8574784560845
7.603238912,1.0006587538749614,-76.45688352260537
7.61943296,1.0007715991357775,-77.05806790180034
7.63562752,1.0008527310263178,-77.6606959488789
7.65182208,1.00089889255902,-78.26443036236437
7.668016128,1.000907710833116,-78.86878145708246
7.684210688,1.0008788903151877,-79.47336380778899
7.700404736,1.000813417057591,-80.07768462103023
7.716599296,1.000713788950353,-80.68140344039448
7.732793344,1.0005841773562796,-81.28407155610655
7.748987904,1.0004295716757632,-81.88538313623977
7.765181952,1.000256654799641,-82.48508658108777
7.781376512,1.0000722016133847,-83.08305318566795
7.797571072,0.9998842838667604,-83.67908816673307
7.81376512,0.9997004905149598,-84.27322964499396
7.82995968,0.9995286064023671,-84.86561058107367
7.846153728,0.9993756960763099,-85.45636726343429
7.862348288,0.9992484661890708,-86.04574671060914
7.878542336,0.9991523921331072,-86.63413163586362
7.894736896,0.9990914136297901,-87.22185000840389
7.910930944,0.9990684230663516,-87.80936600748424
7.927125504,0.9990844438127914,-88.39714757098908
7.943320064,0.9991391366933187,-88.98559933009912
7.959514112,0.9992301906880595,-89.57520907849361
7.975708672,0.9993539865866878,-90.16638251119241
7.99190272,0.9995055938131675,-90.75949529627384
8.00809728,0.9996788046442854,-91.35475978468247
8.024291328,0.9998663900247069,-91.9525121138526
8.040485888,1.0000605443264963,-92.55280450343541
8.056679936,1.0002533142025447,-93.15569541884993
8.072874496,1.0004364681361917,-93.76108694252996
8.089069056,1.0006025457509065,-94.36886598588403
8.105263104,1.0007443404552108,-94.9788143732128
8.121457664,1.0008559637662475,-95.59055833180591
8.137651712,1.0009325583238504,-96.20374818004032
8.153846272,1.000970836820583,-96.81796174959442
8.17004032,1.0009689258513705,-97.43274313125198
8.18623488,1.0009268813948282,-98.04760225054784
8.202428928,1.000846039142827,-98.6620946696815
8.218623488,1.000729850405504,-99.27575629753862
8.234818048,1.0005827915116554,-99.88822038193946
8.251012096,1.0004109237725873,-100.49916976777493
8.267206656,1.0002212436209377,-101.10830384679623
8.283400704,1.0000217312892978,-101.71551033944134
8.299595264,0.9998204092024797,-102.32066300371673
8.315789312,0.9996258687284011,-102.9238301140696
8.331983872,0.9994461966345346,-103.52508909188103
8.34817792,0.9992889034200798,-104.12468989499675
8.36437248,0.9991608746226743,-104.72292950531589
8.38056704,0.9990673995399593,-105.32012144848919
8.396761088,0.9990126582349961,-105.91678167346424
8.412955648,0.9989989867913384,-106.51333314607102
8.429149696,0.9990273982063065,-107.11024691927096
8.445344256,0.9990967026530935,-107.7080597330597
8.461538304,0.9992042937874456,-108.3071907577189
8.477732864,0.9993457565433345,-108.90811996108991
8.493926912,0.9995154110075926,-109.51118639219709
8.510121472,0.9997063888014744,-110.11668473658179
8.526316032,0.999910706197462,-110.72484863484713
8.54251008,1.0001199614956584,-111.33573135968723
8.55870464,1.000325511808051,-111.94941318420781
8.574898688,1.0005185319681007,-112.56575928044789
8.591092736,1.000691303744201,-113.18462167657553
8.607287296,1.0008362293648552,-113.80569422394855
8.623481856,1.0009472902787835,-114.42858451506002
8.639676416,1.0010196116460797,-115.05291198378035
8.655869952,1.0010501180516966,-115.67824792892294
8.672064512,1.001037282571691,-116.30406350714505
8.688259072,1.0009813534743341,-116.92979883506239
8.704453632,1.0008845949539533,-117.55501193884301
8.720648192,1.0007506451110202,-118.1792475901867
8.736841728,1.0005850667922092,-118.80209061779848
8.753036288,1.0003944714842146,-119.42319093611479
8.769230848,1.0001866095131962,-120.04231632638302
8.785425408,0.9999701889122451,-120.65929933781531
8.801618944,0.9997540873983893,-121.27407814533377
8.817813504,0.9995473108930659,-121.88670150206812
8.834008064,0.9993585954067491,-122.49732698561802
8.850202624,0.9991958063039675,-123.10622833849801
8.866397184,0.9990658890105415,-123.71368565749961
8.88259072,0.9989744775480347,-124.32020309823213
8.89878528,0.9989256316258155,-124.92616947176384
8.91497984,0.998921437632779,-125.53212774723788
8.9311744,0.9989624175073453,-126.13862212603438
8.947367936,0.9990470926066719,-126.74619217807148
8.963562496,0.9991721952531267,-127.35528830188343
8.979757056,0.9993326271702543,-127.96639730099622
8.995951616,0.9995219256214286,-128.57987125660225
9.012146176,0.9997323003640481,-129.1960305371866
9.028339712,0.9999551870745255,-129.81506482739016
9.044534272,1.0001813346356083,-130.43709299823297
9.060728832,1.0004013106705567,-131.06206893888927
9.076923392,1.0006060185978707,-131.68989868990866
9.093116928,1.0007868265196802,-132.32036530689726
9.109311488,1.00093611264499,-132.95312422048895
9.125506048,1.001047524554382,-133.58775851927456
9.141700608,1.001116296683175,-134.22386173648854
9.157895168,1.0011392555617926,-134.8608730075634
9.174088704,1.0011151965333116,-135.49826891465852
9.190283264,1.0010449829336217,-136.13551273915004
9.206477824,1.0009311499478684,-136.7720452033769
9.222672384,1.0007782760405222,-137.40741008692206
9.23886592,1.0005925148216306,-138.04117611007752
9.25506048,1.0003812724654741,-138.67295434275323
9.27125504,1.0001532992019146,-139.30255334664898
9.2874496,0.9999178951480499,-139.92981964316056
9.30364416,0.9996848535298603,-140.55464867349085
9.319837696,0.9994637751123285,-141.17717264586915
9.336032256,0.9992641030563272,-141.7975827059727
9.352226816,0.9990940298730564,-142.41614333834684
9.368421376,0.9989610765228509,-143.03322676042413
9.384614912,0.9988707017723283,-143.64932847015004
9.400809472,0.9988271388231148,-144.26496442165836
9.417004032,0.9988324470940061,-144.88070701018225
9.433198592,0.99888651498162,-145.49708206680933
9.449393152,0.9989874395886508,-146.1147486416676
9.465586688,0.9991312235490996,-146.73411250017682
9.481781248,0.9993122834049961,-147.35575454579597
9.497975808,0.9995231235945358,-147.9800234326548
9.514170368,0.9997552519513091,-148.60725045258405
9.530363904,0.9999990772242123,-149.23760746061308
9.546558464,1.0002445702601177,-149.87116620032074
9.562753024,1.0004815300156782,-150.50794581684622
9.578947584,1.0007000676672855,-151.1477792464632
9.595142144,1.0008910463304106,-151.79037494483836
9.61133568,1.0010464416277978,-152.4353853584186
9.62753024,1.0011594907655608,-153.08234069745313
9.6437248,1.0012254081495524,-153.7307693592886
9.65991936,1.0012412623349547,-154.3800932650453
9.676112896,1.0012058705004432,-155.0296683384588
9.692307456,1.001120528386315,-155.67897444115644
9.708502016,1.000988544020084,-156.32741079776704
9.724696576,1.0008149885898534,-156.97445114918764
9.740891136,1.0006068715741885,-157.61965962578216
9.757084672,1.0003725745246999,-158.262686969149
9.773279232,1.0001216637454116,-158.903231909306
9.789473792,0.9998644419366022,-159.5411738501482
9.805668352,0.999611600207625,-160.17650493432535
9.821861888,0.9993735261359618,-160.80930733639792
9.838056448,0.9991602036198232,-161.43982100555894
9.854251008,0.9989807959724887,-162.06834837149685
9.870445568,0.9988427773369384,-162.69534983264953
9.886640128,0.9987522950121291,-163.3213512435162
9.902833664,0.9987132415522271,-163.94691248193695
9.919028224,0.9987277120334853,-164.57263799787867
9.935222784,0.9987953262858307,-165.19919304680164
9.951417344,0.9989136341798697,-165.82715017895015
9.96761088,0.9990779734211429,-166.45712654475867
9.98380544,0.9992818279932494,-167.08959033804607
10.0,0.9995169889351768,-167.72496400525975
10.01619456,0.9997738293092063,-168.36359143575706
10.03238912,1.000041746094239,-169.00566048099952
10.048582656,1.0003099102117206,-169.65122532743024
10.064777216,1.00056707865633,-170.30024315785212
10.080971776,1.000802653974788,-170.95254620952002
10.097166336,1.0010065889195978,-171.60782247147063
10.113359872,1.0011703627574573,-172.26566688038224
10.129554432,1.0012871149154163,-172.92554609667715
10.145748992,1.0013514878728353,-173.58688989539814
10.161943552,1.0013605999162614,-174.24911608459507
10.178138112,1.001313604290096,-174.9115433829785
10.194331648,1.0012123442601053,-175.57352760115174
10.210526208,1.0010605345896306,-176.23446658429557
10.226720768,1.0008641023856377,-176.89379630459257
10.242915328,1.0006309008920224,-177.55102718855375
10.259108864,1.0003702333537607,-178.20578291965288
10.275303424,1.000092803502066,-178.85778856312103
10.291497984,0.999809933421618,-179.50689409507586
10.307692544,0.9995334671652703,179.84688692483843
10.323887104,0.9992745630370901,179.20343469575982
10.34008064,0.9990443518382964,178.56251553407205
10.3562752,0.998852432595749,177.92371545098476
10.37246976,0.9987069638467193,177.2865512301035
10.38866432,0.9986144815267014,176.65042654965697
10.404857856,0.9985789671177875,176.01475268933382
10.421052416,0.9986025198004889,175.37880247187869
10.437246976,0.9986843286452596,174.74190919652392
10.453441536,0.9988213999266841,174.1033892390032
10.469636096,0.9990085040297171,173.4626308837284
10.485829632,0.9992380533281712,172.8190834605299
10.502024192,0.9995010570489778,172.17227721640472
10.518218752,0.9997866563914357,171.52191818244398
10.534413312,1.0000831605839344,170.86774857184423
10.550606848,1.0003784621397864,170.20975127054217
10.566801408,1.00066020343245,169.54795990291268
10.582995968,1.0009168539050024,168.88260151970312
10.599190528,1.0011376684046243,168.21406759370774
10.615385088,1.001313103118424,167.5427598744981
10.631578624,1.0014358791257447,166.86927660031333
10.647773184,1.0015003199799108,166.19426596235616
10.663967744,1.001503511174106,165.51839256775887
10.680162304,1.0014449137486834,164.8423972692413
10.69635584,1.001326487566728,164.16698943985608
10.7125504,1.0011526989155832,163.49282540377004
10.72874496,1.0009303817494506,162.8205201338586
10.74493952,1.0006681574219833,162.15060171812692
10.76113408,1.000376735856861,161.48348426795766
10.777327616,1.000067951134617,160.81944816453756
10.793522176,0.9997543814643434,160.15865835581803
10.809716736,0.9994488657388801,159.50108596175392
10.825911296,0.9991643020566379,158.8465984841907
10.842104832,0.9989122404872931,158.19488389686845
10.858299392,0.998703774250439,157.5455009799549
10.874493952,0.9985475788461882,156.8978982549738
10.890688512,0.9984507013947983,156.2514541833192
10.906883072,0.9984173355688468,155.60543745218123
10.923076608,0.9984494753035779,154.95909288410724
10.939271168,0.99854618351386,154.3116299166087
10.955465728,0.9987040017392762,153.6623471218848
10.971660288,0.9989168235264995,153.01053765040075
10.987853824,0.9991761143339594,152.35560401066365
11.004048384,0.9994715671044476,151.69703971105008
11.020242944,0.9997913330813968,151.0344873143421
11.036437504,1.0001221235781317,150.3677542143715
11.052632064,1.0004503812524927,149.69673505100192
11.0688256,1.000762925120577,149.02157683335645
11.08502016,1.0010462289424813,148.3424729825101
11.10121472,1.0012888617987619,147.65985562601819
11.11740928,1.0014803073090839,146.9742505636127
11.133602816,1.0016124287631143,146.2862921184591
11.149797376,1.0016792133858656,145.5966695277444
11.165991936,1.001677523432831,144.9062103665463
11.182186496,1.0016069536520547,144.2156572611142
11.198381056,1.0014698938284576,143.5258182502182
11.214574592,1.0012711858610859,142.83742931940043
11.230769152,1.0010188952454062,142.15120816271224
11.246963712,1.0007228085446556,141.46771389345957
11.263158272,1.0003947422513153,140.78737746876968
11.279351808,1.0000480535176854,140.11053183364342
11.295546368,0.9996968183409601,139.43734399701094
11.311740928,0.9993555037430839,138.76776835726488
11.327935488,0.9990382426399205,138.10164483980316
11.344130048,0.9987582930615342,137.43863823064623
11.360323584,0.9985276042243882,136.77824285093078
11.376518144,0.99835617770922,136.11983157887272
11.392712704,0.9982514496289477,135.46269744018713
11.408907264,0.9982182986296277,134.8060106717195
11.4251008,0.9982586815400515,134.14893279576202
11.44129536,0.9983715741734929,133.49058700404032
11.45748992,0.9985527208397859,132.8301754604456
11.47368448,0.9987952559348268,132.16689478046865
11.48987904,0.9990896658267118,131.5000887099758
11.506072576,0.999424168718206,130.8292208525527
11.522267136,0.9997852958470034,130.15384490970308
11.538461696,1.0001582995173903,129.4737726305569
11.554656256,1.0005279557990252,128.78892139059926
11.570849792,1.0008790262997038,128.09939312858035
11.587044352,1.001196818198258,127.40548621233552
11.603238912,1.001468227436159,126.70764613345692
11.619433472,1.0016814911825433,126.00647750979212
11.635628032,1.0018275880022451,125.30267171407446
11.651821568,1.0018998175356364,124.59707062701325
11.668016128,1.0018947301474366,123.89051425523658
11.684210688,1.0018118009284274,123.1839390301144
11.700405248,1.0016537185112389,122.47819769802368
11.716598784,1.0014265633421175,121.7741458446918
11.732793344,1.0011388163547352,121.07255467208799
11.748987904,1.0008018400392833,120.37407682732507
11.765182464,1.0004289313513341,119.67920296606675
11.781377024,1.000035363724215,118.988295454861
11.79757056,0.9996369132962196,118.3015293964158
11.81376512,0.9992501464380875,117.61888629418694
11.82995968,0.9988908367185608,116.94018575780692
11.84615424,0.9985742724019973,116.26497180891012
11.862347776,0.9983138054470312,115.59275937534136
11.878542336,0.9981207011878874,114.92280760503178
11.894736896,0.9980035307890248,114.25426622027267
11.910931456,0.9979678253670272,113.58624101091146
11.927126016,0.9980158033525834,112.91776500645379
11.943319552,0.9981461184006923,112.24784837928605
11.959514112,0.9983542714807722,111.57555845077057
11.975708672,0.9986321925171802,110.90001081414843
11.991903232,0.9989691238791082,110.22045144051965
12.008096768,0.9993515686913019,109.53623901732777
12.024291328,0.9997644151982695,108.84691611097497
12.040485888,1.000190593539276,108.15219889279436
12.056680448,1.0006128742467681,107.45203616374826
12.072873984,1.0010138449511314,106.74654727121094
12.089068544,1.0013770425515782,106.03604042817679
12.105263104,1.0016868734498274,105.32104781678294
12.121457664,1.0019304510968583,104.60223843530463
12.137652224,1.002097123889904,103.880419004067
12.15384576,1.0021792089900248,103.15652812191493
12.17004032,1.002172790619812,102.43155265885683
12.18623488,1.0020771559378026,101.70650943948114
12.20242944,1.0018954074166917,100.98243820646346
12.218622976,1.0016342084699066,100.26026968232611
12.234817536,1.0013033524713308,99.54089722938619
12.251012096,1.000915821107033,98.82507877583433
12.267206656,1.0004868235754767,98.11340548836031
12.283401216,1.0000337173069036,97.4062618220599
12.299594752,0.999574628834564,96.7038850040675
12.315789312,0.9991286790305128,96.0062227200268
12.331983872,0.9987141277374351,95.31309660434376
12.348178432,0.9983483786920333,94.6240023334957
12.364371968,0.998047031451569,93.93835568390976
12.380566528,0.9978231591210058,93.25531535867744
12.396761088,0.9976868158434189,92.57392586634316
12.412955648,0.9976444112246393,91.89313823700782
12.429150208,0.9976987683034741,91.21182198445582
