freq,mag,phase
6.0,0.9996605654070684,-21.362258675994063
6.002493952,0.999616689591832,-21.45603441658644
6.004987392,0.9995983164399738,-21.549363922879007
6.007481344,0.9996057225138825,-21.64259148147971
6.009975296,0.9996385030715854,-21.73613292960883
6.012468736,0.9996947516438799,-21.8304029471056
6.014962688,0.9997706651287596,-21.925603870370164
6.017456128,0.999861754077608,-22.022066334737946
6.01995008,0.9999618561046032,-22.119917235527502
6.022444032,1.0000649060002142,-22.219306020586796
6.024937472,1.000164182104842,-22.320164155526996
6.027431424,1.000253319470715,-22.42241361344166
6.029925376,1.0003268267077141,-22.525860211613498
6.032418816,1.000379982296411,-22.630252608393327
6.034912768,1.0004093334622366,-22.735280816971162
6.03740672,1.000413073359754,-22.840575425992114
6.03990016,1.000390895917988,-22.945732170274145
6.042394112,1.0003441009234355,-23.05045673304046
6.044887552,1.000275955510406,-23.15432333242315
6.047381504,1.0001904391834682,-23.257084576259754
6.049875456,1.0000932745376128,-23.35858868744884
6.052368896,0.9999904310122407,-23.45861338256515
6.054862848,0.9998884322411343,-23.557189464366857
6.0573568,0.9997938516240394,-23.654325380599285
6.05985024,0.9997126424773682,-23.75020883837721
6.062344192,0.9996500161193046,-23.845112012249626
6.064838144,0.9996099462742758,-23.93922543651308
6.067331584,0.9995952368974499,-24.03300441915267
6.069825536,0.9996063840138917,-24.126776724123282
6.072318976,0.9996430735998376,-24.220861819174928
6.074812928,0.9997025934853824,-24.315726618338836
6.07730688,0.9997816866681659,-24.411614388351953
6.07980032,0.9998747673649881,-24.508744741917997
6.082294272,0.9999764412477736,-24.607310571521765
6.084788224,1.0000800383386828,-24.70740196382734
6.087281664,1.0001788218091514,-24.809012184139053
6.089775616,1.0002665878843824,-24.912008330083435
6.092269568,1.000337845376053,-25.016131510637777
6.094763008,1.0003880539492505,-25.121164925989913
6.09725696,1.0004139811753994,-25.226823878578895
6.0997504,1.00041397324978,-25.332677529382924
6.102244352,1.0003880061653583,-25.438355729848805
6.104738304,1.0003376372820683,-25.543477749865577
6.107231744,1.0002661569006894,-25.647772119813705
6.109725696,1.0001780779913325,-25.750895060458376
6.112219648,1.0000789752845927,-25.85269390643351
6.114713088,0.9999752070181847,-25.95307665653341
6.11720704,0.9998731955227281,-26.051902849671986
6.119700992,0.9997795702803455,-26.14938085318102
6.122194432,0.9997002941051653,-26.24558188417732
6.124688384,0.9996403373037059,-26.340813076621487
6.127181824,0.9996037491349455,-26.43533845513543
6.129675776,0.9995925159552059,-26.5295779362313
6.132169728,0.9996074180349622,-26.62383776534189
6.134663168,0.9996478097943585,-26.718523413870482
6.13715712,0.9997109558548424,-26.813979908755126
6.139651072,0.9997929820517271,-26.910487867523017
6.142144512,0.9998883856206501,-27.008352857630573
6.144638464,0.9999913335334637,-27.107668757682898
6.147132416,1.0000950371404251,-27.20848342009375
6.149625856,1.000193453884726,-27.310810213037694
6.152119808,1.0002796079151808,-27.41449479962916
6.154613248,1.0003487165070157,-27.51933340209212
6.1571072,1.0003958003625237,-27.625046752349146
6.159601152,1.0004183575889078,-27.73130150785767
6.162094592,1.000414529482832,-27.83767914446881
6.164588544,1.0003846417055386,-27.943887168553925
6.167082496,1.0003306164882704,-28.049474696633702
6.169575936,1.0002559622563774,-28.15413694629182
6.172069888,1.0001654999215848,-28.25765377738306
6.17456384,1.0000646276228966,-28.359737588364162
6.17705728,0.9999599794312921,-28.460404623379816
6.179551232,0.999858123149648,-28.559575288869603
6.182044672,0.9997658782710575,-28.65734411374568
6.184538624,0.9996883355074587,-28.753890932302795
6.187032576,0.9996311632678637,-28.84950103545455
6.189526016,0.999597839526268,-28.944424769327604
6.192019968,0.9995902268564102,-29.039135576411297
6.19451392,0.9996091377359542,-29.13388732627014
6.19700736,0.9996531997264057,-29.229147475191937
6.199501312,0.9997198399478799,-29.325255798205912
6.201995264,0.9998046082580005,-29.422434471948282
6.204488704,0.9999018698446154,-29.52101328566949
6.206982656,1.0000061530495181,-29.621039181505477
6.209476096,1.0001103744963813,-29.722639751209883
6.211970048,1.000207773124556,-29.825687479404703
6.214464,1.0002925295850247,-29.930091245615518
6.21695744,1.0003590915051834,-30.03563306418505
6.219451392,1.0004032863103633,-30.14199150374457
6.221945344,1.0004219792823752,-30.2488446550959
6.224438784,1.000414254181056,-30.3557824109393
6.226932736,1.0003807968858602,-30.462462080114243
6.229426688,1.000323277003203,-30.568485983817695
6.231920128,1.0002454992752554,-30.673579750061368
6.23441408,1.0001525867431973,-30.777397184100767
6.23690752,1.0000502161805036,-30.879839828577907
6.239401472,0.9999448099878073,-30.980832502862548
6.241895424,0.9998432634097205,-31.080296688333203
6.244388864,0.9997519685477496,-31.178387861508906
6.246882816,0.9996767867010885,-31.275266288693565
6.249376768,0.9996226079038759,-31.37125279734463
6.251870208,0.9995925040434085,-31.466623485892583
6.25436416,0.9995885982395278,-31.56176414090604
6.2568576,0.9996113178005519,-31.657093223096474
6.259351552,0.999659073453373,-31.752941546130184
6.261845504,0.9997289481488656,-31.84968907946198
6.264338944,0.9998162799862322,-31.94750697679408
6.266832896,0.9999158249949401,-32.04678312670571
6.269326848,1.0000210650339971,-32.14755558498403
6.271820288,1.0001253905347165,-32.249900832679316
6.27431424,1.000222188351506,-32.35369247191116
6.276808192,1.0003050097092374,-32.45881666644553
6.279301632,1.0003690493424815,-32.56505730484571
6.281795584,1.0004101077106453,-32.672079957559745
6.284289024,1.0004252415843133,-32.77951644024948
6.286782976,1.0004138554626112,-32.88700471730772
6.289276928,1.0003765803370424,-32.99417634234806
6.291770368,1.0003153204805315,-33.10066613705211
6.29426432,1.0002346763448038,-33.20611115835174
6.296758272,1.0001393642463146,-33.310315866934154
6.299251712,1.0000354813650612,-33.41308672758249
6.301745664,0.9999296569319795,-33.51436211575728
6.304239616,0.9998284297722844,-33.61416288542161
6.306733056,0.9997383600605804,-33.71255180959321
6.309227008,0.9996655630065571,-33.809820393806014
6.311720448,0.9996140489789638,-33.90613047438181
6.3142144,0.9995874675814812,-34.00198277595985
6.316708352,0.9995873259687347,-34.09758673142935
6.319201792,0.9996139986695707,-34.19347304927032
6.321695744,0.9996654914161206,-34.28989509433245
6.324189696,0.9997384658646317,-34.38725186109297
6.326683136,0.9998286106487322,-34.48582202214798
6.329177088,0.9999299593060381,-34.58581146617426
6.33167104,1.0000361316625903,-34.68733779989421
6.33416448,1.0001405273659054,-34.79040583477648
6.336658432,1.0002362967775869,-34.89496660009807
6.339151872,1.0003174500360037,-35.000818581638576
6.341645824,1.0003787294186655,-35.10775340203363
6.344139776,1.0004164523366412,-35.2154168362823
6.346633216,1.0004280047095586,-35.323469769071124
6.349127168,1.0004128374111436,-35.43146740189845
6.35162112,1.0003715410087417,-35.539125894836076
6.35411456,1.0003071312407585,-35.64604729583371
6.356608512,1.0002234907809404,-35.75189944860039
6.359102464,1.000125880300208,-35.856420105262444
6.361595904,1.0000206452257818,-35.95957238391881
6.364089856,0.9999142839590662,-36.061166497663926
6.366583296,0.9998136696500586,-36.16127251331037
6.369077248,0.9997252855951566,-36.259995791102035
6.3715712,0.9996545450185351,-36.35759104009994
6.37406464,0.9996060676252257,-36.45433322060568
6.376558592,0.9995829603687445,-36.550582622493366
6.379052544,0.9995868451737435,-36.64672953447805
6.381545984,0.9996170563856995,-36.74309296667017
6.384039936,0.9996721186672217,-36.84012669989691
6.386533888,0.999748307841626,-36.93816619295165
6.389027328,0.9998410767381202,-37.03743148386222
6.39152128,0.9999442018197983,-37.13814536748049
6.39401472,1.000051261009005,-37.24041421667562
6.396508672,1.0001554041311482,-37.34424609319162
6.399002624,1.0002501479116914,-37.44954997528238
6.401496064,1.0003293451766881,-37.55612342967244
6.403990016,1.000387949768687,-37.66373863846199
6.406483968,1.0004224178627024,-37.77201582997496
6.408977408,1.0004302798099094,-37.88066526595604
6.41147136,1.0004112396379352,-37.98927776582488
6.413965312,1.0003662131398823,-38.097387401965676
6.416458752,1.0002985180771953,-38.204751183491425
6.418952704,1.0002120523676652,-38.310970632014445
6.421446144,1.00011218120943,-38.41588142886626
6.423940096,1.0000056098841372,-38.5192940597166
6.426434048,0.9998990560349624,-38.6212374182683
6.428927488,0.9997991288526202,-38.72162026796549
6.43142144,0.9997122700385312,-38.82072430723648
6.433915392,0.9996439499170426,-38.91868663978573
6.436408832,0.9995985395057851,-39.01581296402685
6.438902784,0.9995789848899177,-39.11253722288866
6.441396736,0.9995866102556228,-39.20913689312062
6.443890176,0.9996207106577405,-39.30610052217937
6.446384128,0.9996794105106261,-39.4037934218419
6.448877568,0.9997588609438114,-39.502446580236864
6.45137152,0.9998539131924735,-39.602430688575694
6.453865472,0.9999587018885661,-39.703883790395665
6.456358912,1.0000666482921095,-39.80690114262408
6.458852864,1.0001705819183744,-39.91148059927955
6.461346816,1.0002639334297239,-40.01756304373457
6.463840256,1.0003412466277677,-40.12482396673016
6.466334208,1.0003970486002025,-40.23312806998356
6.46882816,1.0004279901835123,-40.34208619946638
6.4713216,1.000432209941717,-40.4512984854735
6.473815552,1.0004092272776006,-40.560430440014116
6.476308992,1.0003605770598605,-40.669059869487164
6.478802944,1.0002894145672097,-40.77680717963294
6.481296896,1.0002001622284173,-40.883420075734726
6.483790336,1.0000984007647724,-40.98870702415567
6.486284288,0.9999907310395554,-41.09244897177917
6.48877824,0.9998838407074463,-41.194654309254815
6.49127168,0.9997847103995987,-41.29544590762679
6.493765632,0.9996994766802562,-41.394805238426855
6.496259584,0.9996336332189001,-41.49315447149005
6.498753024,0.9995912628858195,-41.59073699298384
6.501246976,0.9995754303647743,-41.687871107743106
6.503740416,0.9995868614052559,-41.78505993484395
6.506234368,0.9996248249274211,-41.88258140190273
6.50872832,0.9996870060135052,-41.98086598290041
6.51122176,0.9997693574833758,-42.08021630506546
6.513715712,0.999866909563184,-42.18087564869657
6.516209664,0.9999732606302969,-42.28307302797869
6.518703104,1.000081724727048,-42.38685296045175
6.521197056,1.0001852509206886,-42.49219893761136
6.523691008,1.0002775576654597,-42.59896885131146
6.526184448,1.000352518728058,-42.70701900211658
6.5286784,1.000405523195802,-42.8159968900029
6.53117184,1.0004329938879053,-42.92557864846439
6.533665792,1.0004335296485347,-43.035398194378814
6.536159744,1.0004067616722139,-43.1450414221093
6.538653184,1.0003545272721768,-43.25412244542099
6.541147136,1.0002798903462486,-43.362312070016245
6.543641088,1.000188050982775,-43.46930704820161
6.546134528,1.000084191712939,-43.57494660965208
6.54862848,0.9999755547823532,-43.67903411098614
6.551122432,0.999868656408136,-43.781559702426435
6.553615872,0.9997703130149753,-43.88262228599123
6.556109824,0.9996868700429864,-43.982387640175034
6.558603264,0.9996236564868509,-44.081114827108244
6.561097216,0.9995845523004747,-44.17908632661763
6.563591168,0.9995723850643855,-44.276734661348165
6.566084608,0.9995874399016966,-44.37439306277321
6.56857856,0.9996293978577073,-44.472469190353564
6.571072512,0.9996950340090193,-44.57140809557873
6.573565952,0.9997803149832186,-44.67143580451154
6.576059904,0.9998801805245124,-44.77281092462526
6.578553856,0.999987877190319,-44.875767130832834
6.581047296,1.0000968533744148,-44.9802895979586
6.583541248,1.0001999691793357,-45.08640975322215
6.586034688,1.0002908801442771,-45.193961577929386
6.58852864,1.0003636354973557,-45.30269493613068
6.591022592,1.0004135557979226,-45.41233541465501
6.593516032,1.0004376879280332,-45.52256166159103
6.596009984,1.000434322958671,-45.63295399578948
6.598503936,1.0004038153233257,-45.74314991200005
6.600997376,1.0003477948793833,-45.85269382741021
6.603491328,1.000270076776255,-45.961315439068585
6.60598528,1.0001754025745895,-46.06871981526744
6.60847872,1.0000700909749338,-46.17464648079543
6.610972672,0.9999603970744992,-46.27907605422913
6.613466112,0.9998533484358638,-46.38192014647811
6.615960064,0.9997561461278293,-46.48330460358373
6.618454016,0.9996746067172576,-46.58341748519229
6.620947456,0.9996139853846778,-46.68253507073111
6.623441408,0.9995783490651063,-46.78093148297395
6.62593536,0.9995696233195168,-46.87905750340963
6.6284288,0.9995887452507604,-46.97724200604654
6.630922752,0.9996342125789077,-47.0759612443773
6.633416704,0.9997033675290815,-47.1755156793201
6.635910144,0.999791618791636,-47.27622322342338
6.638404096,0.9998937137996644,-47.378366407536895
6.640897536,1.0000027387061912,-47.48204779140286
6.643391488,1.0001120172287115,-47.58733345376747
6.64588544,1.0002147488746975,-47.69417902846135
6.64837888,1.0003039230967177,-47.80244946274571
6.650872832,1.0003743369730667,-47.91192784296844
6.653366784,1.0004213620986768,-48.022274658383736
6.655860224,1.0004419362741768,-48.133116182480464
6.658354176,1.000434798178272,-48.24407418160204
6.660848128,1.000400327670032,-48.35477501273012
6.663341568,1.000340737860902,-48.46478989388993
6.66583552,1.0002598875249398,-48.57385694936631
6.66832896,1.0001627582244452,-48.68165249344225
6.670822912,1.00005553384773,-48.78794008588753
6.673316864,0.9999450797863498,-48.89265193742375
6.675810304,0.999838372261163,-48.99581364541051
6.678304256,0.9997421620895027,-49.09756752815351
6.680798208,0.9996626127648763,-49.198041270379925
6.683291648,0.9996048076158687,-49.2975224033976
6.6857856,0.9995725796359118,-49.396345888636596
6.688279552,0.9995675624194432,-49.49493779521476
6.690772992,0.9995902968962992,-49.593721600620874
6.693266944,0.9996397789250557,-49.69298017295271
6.695760384,0.9997121918509799,-49.793189723137075
6.698254336,0.9998033634391477,-49.894606761087864
6.700748288,0.9999073619640438,-49.99747886640099
6.703241728,1.0000177663977536,-50.10191064205743
6.70573568,1.0001272402158192,-50.20795595090882
6.708229632,1.000229116119972,-50.3155567076242
6.710723072,1.0003168237619364,-50.42459177412463
6.713217024,1.0003846714421207,-50.53479501526354
6.715710976,1.0004285959680368,-50.645786901964584
6.718204416,1.0004456580504717,-50.75723166201464
6.720698368,1.0004347087061778,-50.868779300655916
6.723191808,1.0003964399114655,-50.9800010770943
6.72568576,1.000333398806197,-51.090516849712756
6.728179712,1.0002492805998437,-51.19997412495553
6.730673152,1.000149836939776,-51.30807566295279
6.733167104,1.0000409815437878,-51.4147315856083
6.735661056,0.9999297976116347,-51.51980271141196
6.738154496,0.9998233559726545,-51.62329504600707
6.740648448,0.9997284036891566,-51.72536223438736
6.7431424,0.9996509153759009,-51.826202077813754
6.74563584,0.9995958789346826,-51.926073141806754
6.748129792,0.999566836554334,-52.025374049130036
6.750623232,0.9995657798523807,-52.12446978050752
6.753117184,0.9995924919235508,-52.22372389204586
6.755611136,0.99964543327308,-52.323629387726385
6.758104576,0.9997212830504348,-52.42448640876809
6.760598528,0.9998152290282389,-52.52661512292639
6.76309248,0.999921298324292,-52.63016878042724
6.76558592,1.0000327455516755,-52.73536274024599
6.768079872,1.000142324946605,-52.84221207700557
6.770573312,1.0002435085331947,-52.95055620230879
6.773067264,1.0003293302760343,-53.060326247121296
6.775561216,1.0003948282550725,-53.1712059166954
6.778054656,1.0004353811389903,-53.2828976938138
6.780548608,1.0004489042981508,-53.39498207186962
6.78304256,1.0004340366447602,-53.50709493064756
6.785536,1.00039206396102,-53.61881273822516
6.788029952,1.0003253830139487,-53.72978159378208
6.790523904,1.000238354421718,-53.83963329996334
6.793017344,1.0001365509425082,-53.948130308976246
6.795511296,1.0000261180749894,-54.05514182890828
6.798004736,0.9999144690266232,-54.1605199565445
6.800498688,0.9998083434125471,-54.26431789690489
6.80299264,0.9997147561336085,-54.36672310448623
6.80548608,0.9996394310707003,-54.46793776590804
6.807980032,0.9995874957925776,-54.56818262259804
6.810473984,0.9995618286342959,-54.66793157137991
6.812967424,0.9995645076825532,-54.76751397034111
6.815461376,0.9995949994882793,-54.86738535620711
6.817955328,0.9996516074450933,-54.96786896596924
6.820448768,0.9997308408506572,-55.06937347598078
6.82294272,0.9998273568729285,-55.172220343249045
6.82543616,0.99993522325535,-55.27653337182706
6.827930112,1.0000477656127802,-55.382495777223944
6.830424064,1.0001574211506834,-55.49005027121999
6.832917504,1.0002577014485263,-55.59919762719187
6.835411456,1.0003417648570283,-55.7097169228545
6.837905408,1.0004045426151638,-55.821287217187425
6.840398848,1.0004421082922328,-55.93363596918468
6.8428928,1.0004517845284933,-56.046328194487806
6.845386752,1.000433143841409,-56.15902715013248
6.847880192,1.0003874328638513,-56.27124865520101
6.850374144,1.000317255622341,-56.382619461618475
6.852867584,1.0002272386604194,-56.49288861310939
6.855361536,1.0001229977495585,-56.6017760596478
6.857855488,1.0000112816062348,-56.70909613754882
6.860348928,0.9998992209646851,-56.81481808419731
6.86284288,0.9997935437901718,-56.91897461253446
6.865336832,0.9997013058359702,-57.021705336343786
6.867830272,0.9996284561031427,-57.123272140217885
6.870324224,0.999579297775972,-57.22395799978053
6.872818176,0.9995573589111202,-57.32414844446145
6.875311616,0.9995636467915966,-57.42421066057613
6.877805568,0.9995981258852922,-57.52460944683877
6.880299008,0.9996584030625137,-57.62576625579021
6.88279296,0.9997407427021663,-57.727935652302094
6.885286912,0.9998399538739632,-57.831444972936374
6.887780352,0.999949551079961,-57.936527081401785
6.890274304,1.0000628379057024,-58.043207444710845
6.892768256,1.0001726605407786,-58.15160237441058
6.895261696,1.0002715816786913,-58.26146329958888
6.897755648,1.0003538266598013,-58.3727131252107
6.9002496,1.000413862105007,-58.485005988179175
6.90274304,1.0004480494497696,-58.59800664158719
6.905236992,1.0004540602521326,-58.71131303447552
6.907730432,1.0004316048834279,-58.824537008687415
6.910224384,1.000381976343408,-58.93724735827171
6.912718336,1.0003085241380025,-59.04908882378257
6.915211776,1.000215594125051,-59.15976402138282
6.917705728,1.0001092220179182,-59.26900050491325
6.92019968,0.9999962489127573,-59.37664270971627
6.92269312,0.9998836033716088,-59.482709970426434
6.925187072,0.999778662268525,-59.58718207050515
6.927681024,0.9996880906347302,-59.690261171870524
6.930174464,0.9996174576415257,-59.79219631609033
6.932668416,0.9995714360330789,-59.893278606522834
6.935161856,0.9995530936480475,-59.99389890674062
6.937655808,0.9995633624532587,-60.09452075824567
6.94014976,0.9996015111955219,-60.19549767783977
6.9426432,0.9996653672860037,-60.297229207427606
6.945137152,0.9997508857658054,-60.40010208641673
6.947631104,0.9998526751020944,-60.50431988272941
6.950124544,0.9999640383072588,-60.61013337732675
6.952618496,1.000077988730118,-60.71759177096301
6.955112448,1.000187508978436,-60.82673031086649
6.957605888,1.000285552035083,-60.9373381431024
6.96009984,1.0003657060479116,-61.04934377975843
6.96259328,1.0004229405544787,-61.1623290228009
6.965087232,1.0004538352145183,-61.27595972768504
6.967581184,1.000456036580116,-61.389893539506076
6.970074624,1.0004297639409676,-61.503641577261504
6.972568576,1.0003765459577185,-61.616827299184834
6.975062528,1.000299514418448,-61.72912044048298
6.977555968,1.0002038105179523,-61.84018626889938
6.98004992,1.0000954184678976,-61.94978810345589
6.982543872,0.9999811864532925,-62.05777928744519
6.985037312,0.9998683762103886,-62.16410225154016
6.987531264,0.9997641575907499,-62.26894063919757
6.990024704,0.9996752301748398,-62.372360052865076
6.992518656,0.9996070538870411,-62.47468658634679
6.995012608,0.9995641945968381,-62.57615485578371
