freq,mag,phase
6.0,0.9999876911443845,-70.80362114364979
6.041025536,0.9999881000422282,-72.62312277796045
6.082051072,0.9999883600798519,-74.44370346828562
6.12307712,0.9999887551468252,-76.2653901831792
6.164102656,0.9999892840944279,-78.08815277093026
6.205128192,0.9999899706568656,-79.91192818311299
6.246153728,0.9999907599902433,-81.73669065146484
6.287179264,0.9999917262057377,-83.56245357916923
6.328205312,0.9999927402558079,-85.38919051170915
6.369230848,0.9999939647544994,-87.21681679311043
6.410256384,0.999995385118851,-89.04538372085156
6.45128192,0.9999966901987531,-90.87479900699498
6.492307456,0.9999980559252548,-92.70504202957734
6.533333504,0.9999995036411418,-94.53607633749164
6.57435904,1.0000011280490033,-96.36792992925209
6.615384576,1.0000026887863265,-98.20048524987526
6.656410112,1.0000042210023925,-100.03379240083665
6.697435648,1.0000057104907456,-101.86776695305521
6.738461696,1.000007251978136,-103.70238833388805
6.779487232,1.0000087199441243,-105.53763119757836
6.820512768,1.0000101270567767,-107.37346574407138
6.861538304,1.0000114224671537,-109.20986605169126
6.902564352,1.0000126322296718,-111.0467715933754
6.943589888,1.0000137565426375,-112.88415484330105
6.984615424,1.0000147524434042,-114.72198966400302
7.02564096,1.000015638652388,-116.56022353083189
7.066666496,1.0000163036767626,-118.39888506252319
7.107692544,1.0000169202061724,-120.23783696766841
7.14871808,1.000017311066597,-122.07713676235535
7.189743616,1.0000176493593973,-123.91668848421767
7.230769152,1.0000176987719875,-125.75648750917817
7.271794688,1.000017600161779,-127.59649849122091
7.312820736,1.0000173716962195,-129.43666470315074
7.353846272,1.0000169772286425,-131.2769775693883
7.394871808,1.0000163959667634,-133.1173608357816
7.435897344,1.0000157639325362,-134.9578182964679
7.47692288,1.0000148376376088,-136.79828097557785
7.517948928,1.0000138912810594,-138.638764572539
7.558974464,1.000012769525326,-140.47916451686987
7.6,1.0000114809783476,-142.3195023575481
7.641025536,1.0000101570921722,-144.15970680227082
7.682051072,1.0000087435108105,-145.99974936498094
7.72307712,1.0000072719803461,-147.8396165068785
7.764102656,1.000005707082311,-149.6792645106837
7.805128192,1.000004117828006,-151.51863385508793
7.846153728,1.000002482744851,-153.35770849803558
7.887179264,1.00000086943884,-155.1964741971222
7.928205312,0.9999993012699818,-157.03486403147397
7.969230848,0.999997658846902,-158.87283481891654
8.010256384,0.9999961846408915,-160.71041794722316
8.05128192,0.999994771152283,-162.5474821471604
8.092307456,0.9999933811437139,-164.3841022844681
8.133333504,0.9999920545869025,-166.22014255281258
8.17435904,0.999990997686199,-168.0556490698374
8.215384576,0.9999899544589762,-169.89056757050415
8.256410112,0.9999890393603988,-171.72483159875856
8.297435648,0.9999882748464349,-173.55845057165007
8.338461696,0.9999877961716468,-175.39138657107793
8.379487232,0.9999872985441154,-177.22362693111845
8.420512768,0.9999870356896602,-179.0550797056908
8.461538304,0.999986929516732,179.11425028342737
8.502564352,0.9999871242894071,177.28435566115908
8.543589888,0.999987373857322,175.4552896705044
8.584615424,0.9999877632324883,173.62710971229583
8.625641472,0.9999884111482085,171.79982816080843
8.666667008,0.9999892136786882,169.97344172704413
8.707692544,0.9999902420595785,168.14801879569808
8.74871808,0.99999126571389,166.32356612723646
8.789743616,0.9999925653527515,164.5001014494877
8.830769152,0.9999937665656572,162.67766211006725
8.871794688,0.9999952855938902,160.8562838221369
8.912820224,0.9999968808214005,159.03598833245906
8.95384576,0.9999984175519756,157.21678770849633
8.994871296,1.000000053427656,155.39868404534332
9.035897856,1.0000017781389232,153.58176125258797
9.076923392,1.000003594644843,151.7659979386375
9.117948928,1.0000052578844043,149.95144144903549
9.158974464,1.0000070198694828,148.1380954440233
9.2,1.000008742178654,146.32597656209336
9.241025536,1.0000103742892303,144.51515438279947
9.282051072,1.000011938447101,142.7055922548834
9.323076608,1.0000132989752004,140.8973286407043
9.364102144,1.0000146934526115,139.0903867955779
9.405128704,1.00001591409397,137.28481375319478
9.44615424,1.0000170381700002,135.48058855584935
9.487179776,1.0000179369249234,133.67774470755472
9.528205312,1.0000187369954132,131.87631119669553
9.569230848,1.0000193079444628,130.07630219355215
9.610256384,1.000019794870235,128.27770795704308
9.65128192,1.00001993918644,126.4805734337097
9.692307456,1.0000200227063307,124.68492403911127
9.733332992,1.0000198509070717,122.89075957579176
9.774358528,1.000019558939089,121.09807477119084
9.815385088,1.0000189927692704,119.30691770770207
9.856410624,1.0000182226767804,117.51729041110234
9.89743616,1.0000173253739022,115.72920633066073
9.938461696,1.0000163353178015,113.9426721704131
9.979487232,1.0000151060879066,112.15771162487519
10.020512768,1.0000137051350648,110.37433439512375
10.061538304,1.000012238717561,108.59253522580589
10.10256384,1.0000106375434226,106.81232913681355
10.143589376,1.0000088817274688,105.03374371647514
10.184614912,1.0000070707390143,103.25677089379445
10.225641472,1.0000052221680527,101.4814388825193
10.266667008,1.0000033084233333,99.70771382302067
10.307692544,1.0000013342717933,97.93563497076495
10.34871808,0.9999993844707327,96.16522018600749
10.389743616,0.9999976274028073,94.3964240086221
10.430769152,0.9999957194077623,92.62929258582271
10.471794688,0.999993963684477,90.86382827134076
10.512820224,0.9999922317984297,89.10001657205909
10.55384576,0.9999905893867914,87.33785662070116
10.594871296,0.9999890685249749,85.57737649763914
10.635897856,0.9999877900152607,83.81856414930225
10.676923392,0.9999865710433071,82.06140495996185
10.717948928,0.9999855891760812,80.30590628066892
10.758974464,0.9999848652841664,78.55209507357122
10.8,0.9999842525951401,76.79993525206055
10.841025536,0.9999837762242211,75.04941197704642
10.882051072,0.999983612598903,73.3005758543533
10.923076608,0.9999835497250051,71.55338268978412
10.964102144,0.9999837674774615,69.80784881670266
11.005128704,0.999984253670706,68.06393334008823
11.04615424,0.999984862792591,66.32169606311244
11.087179776,0.9999857595450258,64.58106115928005
11.128205312,0.999986762702405,62.84207822387617
11.169230848,0.9999879780079033,61.104700359798045
11.210256384,0.9999893987447575,59.36895304078929
11.25128192,0.9999910331665842,57.634803804304646
11.292307456,0.9999927668583103,55.90228675755072
11.333332992,0.9999945958122777,54.17134225492237
11.374358528,0.9999965876213935,52.44198152005605
11.415385088,0.9999985203447603,50.714208954790145
11.456410624,1.0000006505239634,48.98797223898477
11.49743616,1.0000028391990323,47.26333230210161
11.538461696,1.0000049415824883,45.540226002258024
11.579487232,1.000007142609613,43.81868571698158
11.620512768,1.0000091905331878,42.0986672097594
11.661538304,1.0000112827434882,40.38016718062808
11.70256384,1.0000131417974731,38.66316937007909
11.743589376,1.000015059816075,36.94768415670879
11.784614912,1.000016756016272,35.23368522045404
11.825641472,1.000018419978717,33.52118118819488
11.866667008,1.0000198003052463,31.810125358788117
11.907692544,1.0000210417613011,30.100528909452233
11.94871808,1.0000219089980449,28.392391378030478
11.989743616,1.0000227824859294,26.68567130687757
12.030769152,1.0000233900022129,24.98038242669838
12.071794688,1.0000236104536522,23.276506384361078
12.112820224,1.000023746667824,21.57400417120743
12.15384576,1.0000235957362154,19.87291581694785
12.194871296,1.0000230790399993,18.17316166439212
12.235897856,1.0000224885369398,16.474797551267184
12.276923392,1.0000215531328065,14.777756967917648
12.317948928,1.0000204999808149,13.082060306987817
12.358974464,1.000019108479604,11.387648563359702
12.4,1.000017525530864,9.69456325469323
12.441025536,1.0000157755033525,8.002757128884538
12.482051072,1.0000138123636686,6.312218114531611
12.523076608,1.0000117320917457,4.622926611392922
12.564102144,1.0000094989411414,2.934860044850153
12.605128704,1.0000071495541778,1.2480256248542827
12.64615424,1.000004787922543,-0.43760042648676095
12.687179776,1.0000022378639057,-2.1220500303628027
12.728205312,0.9999997523046571,-3.8053353961516962
12.769230848,0.9999972460707423,-5.487480474062648
12.810256384,0.999994800799537,-7.168489656766028
12.85128192,0.9999923356451008,-8.848374885231708
12.892307456,0.9999900037103171,-10.52717721345981
12.933332992,0.9999878182666586,-12.20490894731421
12.974358528,0.9999856534183496,-13.881584227620372
13.015385088,0.9999837607691466,-15.557247285613961
13.056410624,0.9999820026061719,-17.231881212268778
13.09743616,0.9999804827668053,-18.90553054280327
13.138461696,0.9999791648294627,-20.578215407960457
13.179487232,0.9999781445407947,-22.24996014552234
13.220512768,0.9999774087115954,-23.920775178769777
13.261538304,0.9999768717269193,-25.590696728493622
13.30256384,0.9999766579843706,-27.259728049382264
13.343589376,0.9999767937218331,-28.92791228421125
13.384614912,0.9999771004364236,-30.59525784870146
13.425641472,0.999977852282222,-32.2617811780843
13.466667008,0.9999787413077045,-33.92754658474534
13.507692544,0.9999800035420188,-35.59253867781987
13.54871808,0.9999815612759738,-37.25677168265545
13.589743616,0.9999832147815249,-38.92029863597169
13.630769152,0.9999852661056399,-40.58313606657501
13.671794688,0.9999875874261007,-42.24530279149782
13.712820224,0.9999899705546413,-43.906817974680955
13.75384576,0.9999925940722458,-45.56771258614027
13.794871296,0.9999954088279989,-47.228009670011296
13.835897856,0.9999982951487973,-48.88772949615544
13.876923392,1.000001186690022,-50.54689087588409
13.917948928,1.0000042291820384,-52.20552558488404
13.958974464,1.000007248512759,-53.863656171257965
14.0,1.000010261290435,-55.52128961481486
