freq,mag,phase
6.0,1.0009227739960869,56.38935670639383
6.002287616,1.0009700092011649,56.22313210840413
6.004575232,1.0009559934440784,56.05664202612009
6.006862848,1.000881598293292,55.890739688741185
6.009150464,1.0007514148653296,55.72631558455038
6.011438592,1.0005735772068287,55.56410403872026
6.013726208,1.0003594522596742,55.40470967625208
6.016013824,1.0001224079747677,55.24854703638742
6.01830144,0.999877361798902,55.095859129149
6.020589056,0.9996399176607228,54.94667318186488
6.022876672,0.9994250681534433,54.800749995497654
6.025164288,0.9992463289962888,54.65764567126597
6.027451904,0.9991152355224947,54.51680104419291
6.029740032,0.9990398565357825,54.37743185697919
6.032027648,0.9990251810064649,54.23869217142067
6.034315264,0.9990722799807735,54.09970485435679
6.03660288,0.9991779754179352,53.95959173551585
6.038890496,0.9993356932622532,53.81754910892059
6.041178112,0.9995355755032155,53.672876275614016
6.043465728,0.9997648062532506,53.52505570581725
6.045753344,1.000009055859164,53.3737794920127
6.04804096,1.000252793475299,53.218937278875096
6.050329088,1.00048081508594,53.0606310519626
6.052616704,1.000678413763643,52.89923130451004
6.05490432,1.0008332909567956,52.7352615021275
6.057191936,1.0009355410831828,52.569375187129786
6.059479552,1.0009788303756908,52.402407295912866
6.061767168,1.0009602481151627,52.235256554300314
6.064054784,1.0008810062100466,52.06876953272499
6.0663424,1.0007461254486942,51.90379068085022
6.068630016,1.000563898992873,51.741089443716405
6.070918144,1.000345900070292,51.581270976160596
6.07320576,1.0001058077759386,51.42474038268417
6.075493376,0.9998589205740162,51.27170976363377
6.077780992,0.999620596663883,51.12217710938948
6.080068608,0.9994061836714695,50.975928728875246
6.082356224,0.9992291009365432,50.83248200277924
6.08464384,0.9991005930654182,50.69125032096152
6.086931456,0.9990288738714704,50.55142481272798
6.089219584,0.9990185371429928,50.41220397595929
6.0915072,0.9990702825162958,50.27264972669772
6.093794816,0.9991807498783104,50.131885172350074
6.096082432,0.9993432242795479,49.98911771615549
6.098370048,0.9995472059585875,49.8436704523712
6.100657664,0.9997799502782269,49.69500596459699
6.10294528,1.0000266147625512,49.54284948989364
6.105232896,1.000271740832044,49.38707328411549
6.107520512,1.0004997553140598,49.227848039358825
6.10980864,1.0006963719943007,49.065502831284036
6.112096256,1.0008490780771933,48.9006154153564
6.114383872,1.0009481863775835,48.73384713960352
6.116671488,1.0009874891184019,48.566066197650436
6.118959104,1.0009643865399553,48.39812305948246
6.12124672,1.0008802970187485,48.23092523998339
6.123534336,1.0007406362970372,48.06529873296368
6.125821952,1.0005539764812048,47.90201606015673
6.128109568,1.000332200361641,47.7416585883858
6.130397696,1.0000892146694977,47.58463217808498
6.132685312,0.9998404047773849,47.43116495109244
6.134972928,0.9996014177017544,47.28118977355876
6.137260544,0.9993873429507877,47.134468791252125
6.13954816,0.9992119366769475,46.99057219828881
6.141835776,0.9990861205928081,46.84883608400943
6.144123392,0.9990180077201607,46.70848113153514
6.146411008,0.9990120129904438,46.568646062257535
6.148699136,0.9990684126375114,46.42840299996535
6.150986752,0.9991837055817577,46.28688759148953
6.153274368,0.9993507277058714,46.14329420044117
6.155561984,0.9995587909404006,45.99694346295177
6.1578496,0.9997948528351115,45.847326948886106
6.160137216,1.0000440432533724,45.69416498042358
6.162424832,1.0002904092667344,45.53736787417013
6.164712448,1.0005186487868947,45.37710120180779
6.167000064,1.000714127196114,45.21372752483938
6.169288192,1.0008645944838541,45.0478014182272
6.171575808,1.0009605109399575,44.880063928512676
6.173863424,1.00099584915734,44.71130519984324
6.17615104,1.0009682698729572,44.54249576433658
6.178438656,1.0008794731991608,44.37446235491805
6.180726272,1.0007350624388163,44.208087210770984
6.183013888,1.0005439982655604,44.04412308608677
6.185301504,1.0003184580681574,43.88310185468532
6.18758912,1.000072566543846,43.725504266770265
6.189877248,0.9998217922326951,43.57144620755002
6.192164864,0.999582160687735,43.420923970799876
6.19445248,0.9993686823562921,43.27365166347017
6.196740096,0.9991948902067881,43.129167491073744
6.199027712,0.9990717896426325,42.986815507448405
6.201315328,0.9990073442357487,42.84581498920409
6.203602944,0.9990055896719211,42.705232148188536
6.20589056,0.9990666575709554,42.564214851255684
6.208178688,0.9991867148923046,42.421830552306474
6.210466304,0.9993582568814479,42.27729454277217
6.21275392,0.9995704980037683,42.12992272366185
6.215041536,0.999809793043662,41.979248973485355
6.217329152,1.000061321988025,41.824979632742306
6.219616768,1.000309078118239,41.66705004853621
6.221904384,1.000537280278195,41.50559405196525
6.224192,1.000731691434795,41.34107891997201
6.226479616,1.0008798906069734,41.17403404256695
6.228767744,1.0009726631461888,41.00517639148321
6.23105536,1.00100400437489,40.83540139823692
6.233342976,1.0009718797657785,40.66558877217376
6.235630592,1.000878375156006,40.49662165944693
6.237918208,1.0007292834679453,40.329383966568834
6.240205824,1.0005339611714608,40.164605840870934
6.24249344,1.0003047302222676,40.00284417842378
6.244781056,1.0000559736155132,39.84452598400285
6.247068672,0.9998034229852625,39.68978549430901
6.2493568,0.9995631141120571,39.53860145909332
6.251644416,0.9993501205013967,39.390667880429646
6.253932032,0.9991779993238498,39.24547880995365
6.256219648,0.9990577083594591,39.10241001114781
6.258507264,0.9989968372632404,38.96061735372915
6.26079488,0.9989993433108687,38.81919798288734
6.263082496,0.9990650878814112,38.677258120036
6.265370112,0.9991899187090783,38.53391120032979
6.26765824,0.9993658737159338,38.38830112157986
6.269945856,0.9995821726545889,38.239837609888575
6.272233472,0.9998247782176041,38.08799413384935
6.274521088,1.0000786475459698,37.93247688917077
6.276808704,1.0003274851808446,37.773292392375524
6.27909632,1.0005558421910477,37.61059371443943
6.281383936,1.0007491348775168,37.444802576991606
6.283671552,1.000895110955647,37.276516646776386
6.285959168,1.0009847018261053,37.106472120039825
6.288247296,1.00101205196132,36.935517861403135
6.290534912,1.0009755231369453,36.76459546590862
6.292822528,1.0008773339538803,36.594608957752676
6.295110144,1.000723612993832,36.42638025979788
6.29739776,1.0005240038806402,36.26066634035261
6.299685376,1.0002910935210716,36.09805195574535
6.301972992,1.000039582073169,35.93889981119004
6.304260608,0.9997852767432499,35.78336624756536
6.306548224,0.9995442783302324,35.63139071678114
6.308836352,0.999331848645624,35.48267644674598
6.311123968,0.9991614236549484,35.33669362614041
6.313411584,0.9990438482202932,35.192777428067025
6.3156992,0.9989865222770293,35.05007789824085
6.317986816,0.9989932630639077,34.90771057010875
6.320274432,0.999063568407216,34.76475893934907
6.322562048,0.9991930645476645,34.62030846234587
6.324849664,0.9993735476323186,34.47353803471206
6.327137792,0.9995937323405782,34.32382398229548
6.329425408,0.9998396191275397,34.17069282614781
6.331713024,1.000095723755543,34.01385243595742
6.33400064,1.0003458530008307,33.85330268061783
6.336288256,1.0005741745800154,33.689216502656144
6.338575872,1.0007663392718777,33.52205889093401
6.340863488,1.0009101299151597,33.3524211304337
6.343151104,1.0009965088472474,33.18105512763776
6.34543872,1.001020057732553,33.008837768907156
6.347726848,1.0009790889752368,32.836712137951324
6.350014464,1.0008762993486542,32.66554913888829
6.35230208,1.0007180135297673,32.49624086722752
6.354589696,1.0005142191250502,32.32949688486626
6.356877312,1.0002776864557654,32.16589711998516
6.359164928,1.000023388339134,32.0057792260577
6.361452544,0.9997672647578815,31.84934635876683
6.36374016,0.9995257150553043,31.696473688426916
6.366027776,0.9993138106909155,31.54685365040476
6.368315904,0.9991450846880106,31.399950990059814
6.37060352,0.9990301020166699,31.255052581457843
6.372891136,0.9989763667506045,31.11136542540893
6.375178752,0.9989872425137669,30.96791675825697
6.377466368,0.9990620906707756,30.823834714095554
6.379753984,0.9991962149933968,30.678148379106684
6.3820416,0.999381201603514,30.530111947494518
6.384329216,0.9996052793166188,30.379045822889182
6.386617344,0.999854273690824,30.22450342687017
6.38890496,1.0001125807771163,30.066226921318567
6.391192576,1.000363926354899,29.90421145960403
6.393480192,1.0005923242771746,29.73865460648032
6.395767808,1.000783313950134,29.570009956747345
6.398055424,1.0009250380444124,29.39889591606737
6.40034304,1.0010082745886795,29.226099015855812
6.402630656,1.0010279269304019,29.052496135309806
6.404918272,1.0009826320774202,28.879034955316786
6.4072064,1.0008752930471876,28.70660382219306
6.409494016,1.0007124715982088,28.53608461905871
6.411781632,1.000504530102353,28.368191212535297
6.414069248,1.0002644368133755,28.203491595680987
6.416356864,1.0000074243554482,28.04232484213124
6.41864448,0.999749627704658,27.88487449714587
6.420932096,0.9995074278323935,27.73096764213788
6.423219712,0.9992960497406279,27.580309471607098
6.425507328,0.9991288553896471,27.432378473824244
6.427795456,0.9990166540064974,27.286402167417943
6.430083072,0.9989663935873893,27.141577578686434
6.432370688,0.9989813357708994,26.9969524286021
6.434658304,0.99906068805834,26.851582043876245
6.43694592,0.9991992460993182,26.704592727715777
6.439233536,0.9993885407880918,26.55515142508807
6.441521152,0.9996164521867761,26.402642206400476
6.443808768,0.999868691075747,26.246593432566083
6.446096896,1.0001292773279884,26.086758273371164
6.448384512,1.000381749974736,25.923136239305435
6.450672128,1.0006102073475844,25.755992573907687
6.452959744,1.0008001066650363,25.585756431633076
6.45524736,1.0009395894717217,25.413059704595614
6.457534976,1.0010198724570505,25.238713745526354
6.459822592,1.0010357526183895,25.06362757221948
6.462110208,1.0009861856352016,24.888716356870816
6.464397824,1.0008743493393308,24.71490584251144
6.466685952,1.0007071444035915,24.543057780795817
6.468973568,1.0004951457020428,24.373898596765578
6.471261184,1.0002515255961475,24.207963443916487
6.4735488,0.999991867934879,24.045634164903397
6.475836416,0.9997324178115943,23.887001320655774
6.478124032,0.999489495290546,23.731964444341543
6.480411648,0.9992786844318446,23.580161379051756
6.482699264,0.9991131461632209,23.431062508127123
6.48498688,0.9990034557878901,23.28389896708889
6.487275008,0.9989564956472538,23.13780981028288
6.489562624,0.9989754425637996,22.99187930203155
6.49185024,0.9990591282475909,22.84514298951802
6.494137856,0.9992022579523557,22.69669312048685
6.496425472,0.9993957109346956,22.545772234296507
6.498713088,0.9996274688036662,22.391679392094893
6.501000704,0.9998827061625686,22.234007232943945
6.50328832,1.0001455172784532,22.072492407550705
6.505576448,1.0003990887392769,21.907198725575867
6.507864064,1.0006276019098888,21.73833040632295
6.51015168,1.0008165043007777,21.566379257869958
6.512439296,1.0009540163579638,21.39200157756146
6.514726912,1.001031228101222,21.216004315507146
6.517014528,1.0010434243242545,21.03930479907277
6.519302144,1.0009896843740413,20.86282245690736
6.52158976,1.0008734390265959,20.687499936374675
6.523877376,1.0007019093393277,20.514202922027252
6.526165504,1.0004858498164786,20.343660700111272
6.52845312,1.0002388367317208,20.176381481820904
6.530740736,0.9999765071437018,20.01274431893344
6.533028352,0.999715396587045,19.852839876795763
6.535315968,0.9994718414585129,19.69653602449468
6.537603584,0.999261415277021,19.543489392651747
6.5398912,0.9990973870383316,19.393091001597167
6.542178816,0.9989901989080651,19.24459695942069
6.544466432,0.9989466111212497,19.097147446929167
6.54675456,0.9989694755628465,18.9497962949442
6.549042176,0.9990574875120705,18.801569779875187
6.551329792,0.9992048520097356,18.651577133912145
6.553617408,0.999402531825287,18.499019377271562
6.555905024,0.9996379659325539,18.343249622117167
6.55819264,0.9998962600756162,18.183829800632775
6.560480256,1.0001611955215504,18.020537250641954
6.562767872,1.0004160232071437,17.853435054576384
6.565056,1.0006446557946542,17.68273822657994
6.567343616,1.00083256064663,17.50897194455767
6.569631232,1.0009680443085263,17.332788677112468
6.571918848,1.0010423967227773,17.155027974768583
6.574206464,1.0010510275224742,16.9765807653758
6.57649408,1.0009932831836237,16.798421358549465
6.578781696,1.0008727113123406,16.62149990810829
6.581069312,1.000696993120083,16.44662355367092
6.583356928,1.0004769960542157,16.274546319167012
6.585645056,1.000226558061034,16.105826678421952
6.587932672,0.9999616528755655,15.94076266383093
6.590220288,0.999698780616598,15.779441435349343
6.592507904,0.9994545708130157,15.621760311417368
6.59479552,0.9992445181411023,15.467320951935887
6.597083136,0.9990819645034928,15.315497899847655
6.599370752,0.9989771980033555,15.165575254095211
6.601658368,0.9989368182929492,15.016644661396489
6.603945984,0.9989635330674295,14.867723289018427
6.606234112,0.9990555067346443,14.717915254478376
6.608521728,0.9992071973641298,14.566244134408398
6.610809344,0.9994089550330338,14.411954173357277
6.61309696,0.9996480585367096,14.254376795275174
6.615384576,0.999909393781264,14.093100255597106
6.617672192,1.000176488279935,13.927935644059646
6.619959808,1.0004324867229997,13.758882865861365
6.622247424,1.0006612447928376,13.58628388033543
6.624535552,1.000848373446961,13.410580551461813
6.626823168,1.000981950076617,13.232496745314121
6.629110784,1.0010536011580566,13.052829579165307
6.6313984,1.0010587881191042,12.87253103011669
6.633686016,1.0009970935351222,12.692579128732818
6.635973632,1.0008723716921726,12.513897367634716
6.638261248,1.0006925154850448,12.337325626216993
6.640548864,1.0004686493416683,12.163629230110933
6.64283648,1.0002149499878397,11.993298474703545
6.645124608,0.9999474057584551,11.826673044068713
6.647412224,0.999682756591511,11.663839129101923
6.64969984,0.999437918342633,11.504636633451591
6.651987456,0.9992281558181123,11.348674897575675
6.654275072,0.9990669228913014,11.195321772254252
6.656562688,0.9989644001458247,11.043827609112787
6.658850304,0.9989270486346973,10.89329139870105
6.66113792,0.9989574065035808,10.742733906151612
6.663426048,0.9990534325869319,10.591167685580245
6.665713664,0.9992092378361727,10.437726382943076
6.66800128,0.9994150111190299,10.281569754200135
6.670288896,0.999657707621265,10.122101913841218
6.672576512,0.9999219862779046,9.958876902606328
6.674864128,1.0001912167780018,9.791700279599498
6.677151744,1.0004484959998037,9.620623553110638
6.67943936,1.0006774456475152,9.445969330660184
6.681726976,1.0008637453057134,9.268217316614649
6.684015104,1.000995604291485,9.088083800048288
6.68630272,1.0010647225563636,8.906416067480736
6.688590336,1.001066531654806,8.724166605903473
6.690877952,1.0010010069572914,8.542282870624032
6.693165568,1.000872289915858,8.361729111460244
6.695453184,1.000688399151068,8.183352694835776
6.6977408,1.0004608357072942,8.00788369819801
6.700028416,1.0002038544071903,7.835844149500773
6.702316032,0.9999337021329564,7.6675322520978915
6.70460416,0.9996673297890548,7.503036999385529
6.706891776,0.9994216896598966,7.342194396441797
6.709179392,0.9992121653543434,7.1845815436981635
6.711467008,0.9990522037007475,7.029566754738767
6.713754624,0.9989517554923225,6.876400972250182
6.71604224,0.9989173934697962,6.724115051147057
6.718329856,0.9989511817021897,6.571767054414582
6.720617472,0.999051212588676,6.418380374954005
6.7229056,0.9992109458256629,6.263029304771992
6.725193216,0.9994205572790611,6.104920317359431
6.727480832,0.9996667954646343,5.9434237237882055
6.729768448,0.9999339383084384,5.778122770484381
6.732056064,1.0002054535538805,5.608829575794414
6.73434368,1.000463946448171,5.435622054565805
6.736631296,1.0006932352014346,5.258799548696602
6.738918912,1.000878851529368,5.078899449176508
6.741206528,1.001009008711839,4.896633153238664
6.743494656,1.001075638282216,4.712816055983808
6.745782272,1.0010743282691565,4.528481730585731
6.748069888,1.0010052525559483,4.344554402110884
6.750357504,1.000872628955629,4.162015349658236
6.75264512,1.0006848113025928,3.9816990759667124
6.754932736,1.000453657189218,3.804330792128722
6.757220352,1.0001933203025095,3.6304306296332958
6.759507968,0.9999206040863281,3.4603088944263556
6.761795584,0.9996526190513956,3.2940526553301543
6.764083712,0.9994060277110537,3.1314211314778704
6.766371328,0.9991966472018781,2.972040180474505
6.768658944,0.9990377396284795,2.8152508178208646
6.77094656,0.9989392394655375,2.660251876112244
6.773234176,0.9989076373488976,2.5061410178147026
6.775521792,0.9989447953446419,2.35189495324652
6.777809408,0.9990485181812857,2.196554686688447
6.780097024,0.9992121573740232,2.039182869391498
6.782385152,0.999425517812197,1.878987013174735
6.784672768,0.9996751015494542,1.7153825408399426
6.786960384,0.9999452588922593,1.5478723070013345
6.789248,1.0002188480455094,1.3763782263217919
6.791535616,1.0004786774529488,1.2009112726134494
6.793823232,1.0007084564061286,1.0218314789718366
6.796110848,1.0008935350543382,0.8396323753813956
6.798398464,1.0010223225267045,0.6550962492191975
6.80068608,1.0010866420362543,0.469062776430655
6.802974208,1.0010824307040405,0.28251605320774686
6.805261824,1.001009928279455,0.09642932014100832
6.80754944,1.0008735601379941,-0.08822514461902337
6.809837056,1.0006819540012863,-0.27063680754092806
6.812124672,1.000447017932962,-0.4500157564711648
6.814412288,1.0001836529040593,-0.6258885567547268
6.816699904,0.9999083821929993,-0.7979627530631856
6.81898752,0.999638512229071,-0.9661320002254183
6.821275136,0.9993909945498852,-1.1306571626255175
6.823563264,0.9991816576275246,-1.291949562499597
6.82585088,0.9990236693060005,-1.4506575775741786
6.828138496,0.9989269478546313,-1.6075743248570749
6.830426112,0.9988978513134535,-1.7636709315792913
6.832713728,0.9989381024791859,-1.9199267427752973
6.835001344,0.9990452742720463,-2.077343125942655
6.83728896,0.9992126619389128,-2.236835065534485
6.839576576,0.9994297251630031,-2.3992083038641105
6.841864704,0.999682660082052,-2.5650810484788957
6.84415232,0.9999556990876743,-2.7348489985721196
6.846439936,1.0002315346000625,-2.90868660625182
6.848727552,1.0004928381207598,-3.0865107671588397
6.851015168,1.000723018183726,-3.267974704697207
6.853302784,1.0009077156669548,-3.4525437427078467
6.8555904,1.0010352401230882,-3.639456053913298
6.857878016,1.0010974207274406,-3.827845398854456
6.860165632,1.001090504280757,-4.0167198226597955
6.86245376,1.0010147652546713,-4.205103269213323
6.864741376,1.0008748969325238,-4.392007715035209
6.867028992,1.000679659372186,-4.576604530523218
6.869316608,1.0004413974678914,-4.758141978002894
6.871604224,1.0001747842184459,-4.936120869088543
6.87389184,0.9998969132381549,-5.110265026578887
6.876179456,0.9996251013810861,-5.28049032974587
6.878467072,0.9993766713857357,-5.447030480541112
6.880754688,0.9991671432117005,-5.610348645526285
6.883042816,0.9990098243855797,-5.771080065064506
6.885330432,0.9989147927495596,-5.930079995278729
6.887618048,0.9988879745574064,-6.088258570694977
6.889905664,0.9989311604421373,-6.24664944077158
6.89219328,0.999041700596743,-6.406241739428305
6.894480896,0.9992126578168358,-6.5679738183905405
6.896768512,0.9994331988402928,-6.732638561622934
6.899056128,0.9996895264141501,-6.900858838664659
6.901344256,0.9999653346519504,-7.073040427600291
6.903631872,1.0002433946915588,-7.249300645122224
6.905919488,1.0005062041479713,-7.429603817914893
6.908207104,1.0007370604262318,-7.613545187976735
6.91049472,1.0009215827995877,-7.800604898140255
6.912782336,1.0010480352189732,-7.9900240518019485
6.915069952,1.0011083615954686,-8.180861265391096
6.917357568,1.001098887104019,-8.372191008203078
6.919645184,1.0010200804158984,-8.56298522252772
6.921933312,1.0008769519314042,-8.752267909004372
6.924220928,1.000678169524498,-8.939176978864305
6.926508544,1.000436396512227,-9.123002619769524
6.92879616,1.0001668945503315,-9.303226614046732
