freq,mag,phase
6.0,0.9996086299608801,38.500929719417265
6.006728192,0.9995984744336586,38.34636332009892
6.013456896,0.9996107688005317,38.19178440215214
6.020185088,0.9996451317986099,38.03686373475863
6.02691328,0.9996995883489527,37.88138909062231
6.033641472,0.9997710563623873,37.72499504211075
6.040370176,0.9998553836854899,37.567498288753946
6.047098368,0.9999478508668616,37.408808299971014
6.05382656,1.0000431845582451,37.24882225664201
6.060555264,1.0001359140378325,37.08754193613035
6.067283456,1.0002207851439724,36.92499896821781
6.074011648,1.0002929388624509,36.76138331970642
6.080740352,1.0003483609288206,36.596886604798
6.087468544,1.000383633780087,36.4317641199344
6.094196736,1.0003969706443294,36.26632506181779
6.100924928,1.000387581056677,36.10083308759213
6.107653632,1.0003558759855173,35.93562144443474
6.114381824,1.0003037243493262,35.770952310016156
6.121110016,1.0002341069731695,35.60715898806194
6.12783872,1.0001508709515012,35.444404748729085
6.134566912,1.0000588609641599,35.28279705841208
6.141295104,0.999963245482812,35.122516294230486
6.148023296,0.9998696097001813,34.96354485607793
6.154752,0.9997830355842926,34.80578498573961
6.161480192,0.9997087003001075,34.64917237280663
6.168208384,0.9996508041287747,34.49344866317335
6.174937088,0.9996124788905476,34.33838528793082
6.18166528,0.9995961091205535,34.1836583373707
6.188393472,0.999602597826731,34.02904630138459
6.195122176,0.9996316749591379,33.874169266186875
6.201850368,0.9996814412200885,33.71874107343623
6.20857856,0.9997492598987737,33.562455441503346
6.215306752,0.9998312983468346,33.40518706851583
6.222035456,0.9999227880738492,33.24670560062378
6.228763648,1.0000184804257355,33.08694416984473
6.23549184,1.0001130359451784,32.92586090331151
6.242220544,1.0002010617212855,32.76351836130097
6.248948736,1.0002773928197397,32.60000320673035
6.255676928,1.0003378701705004,32.43557979316525
6.262405632,1.0003789453549121,32.270429018616056
6.269133824,1.0003982133421032,32.10488837390168
6.275862016,1.0003946933941914,31.93919204424608
6.282590208,1.0003684938325605,31.77375000707736
6.289318912,1.0003210682115113,31.608753615418998
6.296047104,1.000255178899993,31.44452813503718
6.302775296,1.0001744973888658,31.2813349286051
6.309504,1.000083700220536,31.11931364343169
6.316232192,0.999987835410318,30.958585466102598
6.322960384,0.9998925159622581,30.799171399164884
6.329688576,0.9998030864720622,30.640989987393343
6.33641728,0.999724621571244,30.48396888215074
6.343145472,0.9996615441756471,30.32794647959932
6.349873664,0.9996176395159501,30.17261625769116
6.356602368,0.9995953092268748,30.017749359291894
6.36333056,0.9995958585044584,29.86305938291852
6.370058752,0.9996193320560508,29.708211308989256
6.376787456,0.9996642958261726,29.552831975766917
6.383515648,0.9997281507458164,29.39670696967849
6.39024384,0.999807462081862,29.23960742508178
6.396972032,0.9998975847862612,29.081369825191988
6.403700736,0.9999934013013757,28.921810659757693
6.410428928,1.0000894738663904,28.760925877572266
6.41715712,1.0001802008023868,28.598761702597955
6.423885824,1.0002606323624676,28.435394522310677
6.430614016,1.0003260416436877,28.271045098915728
6.437342208,1.0003727096410862,28.105898718664914
6.4440704,1.000398049794714,27.940257069519177
6.450799104,1.0004004633420056,27.774409547688013
6.457527296,1.0003798642396162,27.608684003596576
6.464255488,1.0003373726349316,27.443385747717738
6.470984192,1.0002755839942297,27.278783181832374
6.477712384,1.0001978464137689,27.115191939185813
6.484440576,1.000108509146997,26.952688360742112
6.49116928,1.0000128070410763,26.791461532546997
6.497897472,0.9999161488340527,26.631560506756696
6.504625664,0.9998239764624712,26.472981380763198
6.511353856,0.9997416267958046,26.315557200092446
6.51808256,0.9996737540120924,26.159203478938384
6.524810752,0.9996242667715625,26.003624251981037
6.531538944,0.999595916678465,25.84859378340804
6.538267648,0.9995905150306056,25.693778630619576
6.54499584,0.9996081508314559,25.538846146533743
6.551724032,0.9996480329268759,25.383604779359747
6.558452736,0.999707797078439,25.227626587538314
6.565180928,0.9997839719492128,25.07072351489353
6.57190912,0.9998724207296931,24.912618707616524
6.578637312,0.9999679237037548,24.753282917136502
6.585366016,1.0000651847469413,24.592623827895025
6.592094208,1.0001585228990317,24.430635021116952
6.5988224,1.0002426301967509,24.267444703702715
6.605551104,1.0003128875368328,24.10315170264668
6.612279296,1.0003650973815879,23.93801785577619
6.619007488,1.0003962928251957,23.772299495207076
6.62573568,1.0004047990801443,23.606299140821026
6.632464384,1.0003900050602272,23.44035526263861
6.639192576,1.0003528255573584,23.274759176225825
6.645920768,1.0002953207521816,23.109799398400952
6.652649472,1.0002207711416216,22.945720096740803
6.659377664,1.000133433881071,22.782793089440975
6.666105856,1.0000381609592595,22.62109827551992
6.67283456,0.9999404976339185,22.46071869636099
6.679562752,0.999845992502796,22.30164465266094
6.686290944,0.9997599605582406,22.14382760605802
6.693019136,0.9996873669825986,21.9871072975635
6.69974784,0.9996324338718173,21.831279909945874
6.706476032,0.9995981099517895,21.67604725982476
6.713204224,0.9995865830455571,21.521105710103324
6.719932928,0.9995984376818877,21.3661626908436
6.72666112,0.9996328731407547,21.210939753117888
6.733389312,0.999688172482444,21.055042147603807
6.740117504,0.9997609976879677,20.898288682697693
6.746846208,0.9998473232498647,20.74040597275562
6.7535744,0.9999422586013922,20.581298541967477
6.760302592,1.0000402229836458,20.420846581158788
6.767031296,1.0001358053521796,20.259067451442416
6.773759488,1.0002234668345735,20.09600485219748
6.78048768,1.000298276222148,19.931785843514184
6.787216384,1.0003559983003143,19.766729639146423
6.793944576,1.0003931932515897,19.600944660809937
6.800672768,1.0004077872222163,19.43482378667537
6.80740096,1.0003989445857464,19.268643390320687
6.814129664,1.000367239419738,19.10275493129929
6.820857856,1.0003143008470576,18.937424990390596
6.827586048,1.0002433070193222,18.772937006476834
6.834314752,1.0001581582291297,18.609527431258517
6.841042944,1.0000637439026983,18.447332874193837
6.847771136,0.9999654357996548,18.286494450438344
6.854499328,0.9998688321421537,18.126970647087493
6.861228032,0.9997794455676517,17.96872893178461
6.867956224,0.9997023783075244,17.811609830652525
6.874684416,0.9996420585225385,17.655453764396974
6.88141312,0.9996018041420904,17.500009850537392
6.888141312,0.9995841981245925,17.344919733442566
6.894869504,0.9995898698971372,17.189914326258286
6.901598208,0.9996188480689956,17.03470781000619
6.9083264,0.999669374634532,16.878901881076015
6.915054592,0.9997384851434281,16.722279881419677
6.921782784,0.9998224642801687,16.564626256211394
6.928511488,0.9999162539341853,16.405707455899975
6.93523968,1.0000147803411548,16.24549420074607
6.941967872,1.0001123113487869,16.083883228511553
6.948696576,1.0002032010908015,15.920979551110532
6.955424768,1.0002824126923684,15.756923870158975
6.96215296,1.0003453562061673,15.59186177606239
6.968881664,1.000388477004342,15.42604100105023
6.975609856,1.000409286524921,15.259811365708973
6.982338048,1.0004065022583717,15.093425144111647
6.98906624,1.0003804171855688,14.927271367119287
6.995794944,1.0003323962748132,14.761587755483228
7.002523136,1.0002652019009115,14.596660259162547
7.009251328,1.0001827311713345,14.432809477499124
7.015980032,1.0000894410367334,14.270139173813456
7.022708224,0.9999908826545922,14.108814085149529
7.029436416,0.999892559781457,13.948786498329232
7.036164608,0.9998000809017886,13.790105921887276
7.042893312,0.9997187038196009,13.632614056995719
7.049621504,0.9996530820526319,13.476135619874363
7.056349696,0.9996070177214476,13.320402229288803
7.0630784,0.9995831330990846,13.165145881039516
7.069806592,0.9995827193403017,13.01006059758392
7.076534784,0.9996059210779945,12.854845567540128
7.083263488,0.9996514756903527,12.699122733278632
7.08999168,0.9997166034948667,12.542622882674936
7.096719872,0.9997977956135836,12.385141867813214
7.103448064,0.9998902388250672,12.226408034949335
7.110176768,0.9999887790304758,12.066383902982679
7.11690496,1.0000878631211296,11.905000488424616
7.123633152,1.0001818839833738,11.742300252953601
7.130361856,1.0002652786866841,11.578336118107963
7.137090048,1.000333287285592,11.41333588986325
7.14381824,1.0003822616288272,11.247542163450053
7.150546432,1.0004092322198155,11.081194584003988
7.157275136,1.0004127374675347,10.914632548877817
7.164003328,1.0003924948354397,10.748205142794385
7.17073152,1.0003496162697991,10.582171783148903
7.177460224,1.000286556094011,10.416850043772046
7.184188416,1.0002069967711522,10.252546761241737
7.190916608,1.0001153109055239,10.08936518897318
7.197645312,1.0000167670703928,9.927533297722327
7.204373504,0.9999170004855188,9.7670368961613
7.211101696,0.9998217654314712,9.607863513831212
7.217829888,0.9997363646303894,9.44995158832088
7.224558592,0.999665618848874,9.293111663816763
7.231286784,0.9996137714787128,9.137110130487544
7.238014976,0.9995836682626782,8.981652052007139
7.24474368,0.9995770642445624,8.826488115752175
7.251471872,0.9995943143608339,8.67118833010985
7.258200064,0.9996345609151481,8.515565532052348
7.264928256,0.9996954131554981,8.3591958406715
7.27165696,0.9997733973935281,8.201861253899576
7.278385152,0.999864225239134,8.043359878143828
7.285113344,0.9999624650093996,7.8835698880013005
7.291842048,1.0000627558971524,7.722359669989616
7.29857024,1.0001594260592686,7.559811176729939
7.305298432,1.0002467605688807,7.395989862535798
7.312027136,1.0003197872878955,7.2310808608545685
7.318755328,1.000374461556044,7.065267148266391
7.32548352,1.0004077137081364,6.898838296037758
7.332211712,1.0004174275113726,6.732107037169899
7.338940416,1.0004031901164554,6.5654283463923075
7.345668608,1.0003657733355549,6.399064238657591
7.3523968,1.0003072659140482,6.23333613139232
7.359125504,1.0002309676540069,6.068576800453257
7.365853696,1.0001412043886295,5.904930427209506
7.372581888,1.00004308597788,5.742563559268032
7.379310592,0.9999422894953626,5.581576409616604
7.386038784,0.9998444806715687,5.421932704619188
7.392766976,0.9997552320413718,5.263573784588081
7.399495168,0.9996796777244694,5.106346930514877
7.406223872,0.9996220437385054,4.950075097724623
7.412952064,0.9995857509633529,4.794377413735031
7.419680256,0.9995728821210124,4.639060714561442
7.42640896,0.9995840015286966,4.483757167018473
7.433137152,0.9996187175684618,4.32813673836494
7.439865344,0.9996748528969692,4.171871826357114
7.446593536,0.9997494358711181,4.014664876048557
7.45332224,0.9998381575793525,3.8563503945437687
7.460050432,0.9999358617731033,3.6967733778241167
7.466778624,1.0000371092842482,3.5358156544045625
7.473507328,1.0001360452569634,3.3734492147957997
7.48023552,1.000227022134788,3.2097851756237086
7.486963712,1.000304975548194,3.044938147759263
7.493692416,1.0003652266540466,2.8791434500191166
7.500420608,1.0004046731939746,2.7126483264103323
7.5071488,1.0004207068087196,2.5457841614147663
7.513876992,1.0004127080557443,2.3788379952670358
7.520605696,1.0003808571714286,2.2121323068542775
7.527333888,1.000327094235102,2.046049633630498
7.53406208,1.000254441862221,1.8808146324312272
7.540790784,1.0001669724453432,1.716696776210517
7.547518976,1.0000697657243058,1.5538172305356963
7.554247168,0.9999682357657931,1.3923010080730809
7.56097536,0.9998682187221615,1.2321933813133095
7.567704064,0.9997754309114758,1.0733817133516803
7.574432256,0.999695196290296,0.9157623833095929
7.581160448,0.9996319372214688,0.7591097368396639
7.587889152,0.9995895296500628,0.6032285940055132
7.594617344,0.999570132988149,0.4477330262659678
7.601345536,0.9995750336867737,0.2923115379027661
7.60807424,0.9996040904711154,0.13671193309202648
7.614802432,0.9996552449693125,-0.019490553153472853
7.621530624,0.999726032522698,-0.1765071871933601
7.628258816,0.9998123081010032,-0.3346123071671425
7.63498752,0.9999089616695392,-0.494040314201414
7.641715712,1.0000106448409785,-0.6547898244688707
7.648443904,1.00011166603769,-0.8169133683583546
7.655172608,1.0002061557777708,-0.9804287798706144
7.6619008,1.0002886079139874,-1.1451876928552425
7.668628992,1.0003544599531848,-1.3109419023827213
7.675357696,1.0004000712957979,-1.4774853048165952
7.682085888,1.0004225228380996,-1.6444720693175197
7.68881408,1.0004207279529214,-1.8116579042341014
7.695542272,1.0003948259194289,-1.978642005307135
7.702270976,1.00034606446292,-2.145112165013404
7.708999168,1.0002773822555346,-2.3107914209725005
7.71572736,1.0001926829049474,-2.4754105384650447
7.722456064,1.0000966294057252,-2.6388188276282953
7.729184256,0.9999948030795727,-2.8008543537043966
7.735912448,0.9998929579075818,-2.9615108782477804
7.74264064,0.9997968334273547,-3.120763031415909
7.749369344,0.9997119780260528,-3.2788118267111286
7.756097536,0.9996434250080083,-3.4357806002641387
7.762825728,0.9995947751419547,-3.5919854751663074
7.769554432,0.9995690431673468,-3.7476442080545045
7.776282624,0.9995675275022068,-3.9031514887746237
7.783010816,0.9995904481910409,-4.058789452510535
7.78973952,0.9996365629804809,-4.214915402152807
7.796467712,0.999703162230602,-4.371810949490864
7.803195904,0.9997865344137028,-4.529773058260092
7.809924096,0.9998819327961818,-4.6889213804713865
7.8166528,0.9999837085589771,-4.849479402334843
7.823380992,1.0000864203515663,-5.011427799011325
7.830109184,1.0001840752728468,-5.174781530879453
7.836837888,1.0002709153866813,-5.339407021736999
7.84356608,1.0003422046245642,-5.505120875286826
7.850294272,1.0003937509182292,-5.671697722606439
7.857022464,1.0004226783959866,-5.8388390180127985
7.863751168,1.0004274639267121,-6.006169848776157
7.87047936,1.0004075632382954,-6.173463088775639
7.877207552,1.0003641830393561,-6.34030621156661
7.883936256,1.0002998766929152,-6.506402273081484
7.890664448,1.000218101786129,-6.67154310092052
7.89739264,1.0001235318768054,-6.835459530300286
7.904121344,1.0000218592473966,-6.998015197046929
7.910849536,0.9999184573358872,-7.159182969498535
7.917577728,0.9998193456127017,-7.318954050093259
7.92430592,0.9997303450617798,-7.477439112988343
7.931034624,0.999656379920577,-7.634814717709566
7.937762816,0.9996016906925882,-7.791280735974027
7.944491008,0.9995694600147093,-7.947176935211828
7.951219712,0.9995614131252464,-8.102785453310306
7.957947904,0.9995783567496431,-8.258455034719784
7.964676096,0.9996189591488217,-8.414543090956773
7.971404288,0.999681137352865,-8.571325024497062
7.978132992,0.9997611718359392,-8.729121661704273
7.984861184,0.9998548154290052,-8.888105725444909
7.991589376,0.9999563546996785,-9.048433367354866
7.99831808,1.0000604405457412,-9.21018945279115
8.005046272,1.000160751347792,-9.373348818097051
8.011774464,1.0002517746580104,-9.537837694220414
8.018503168,1.000328364891281,-9.703490589102033
8.02523136,1.0003859490506157,-9.870065969093067
8.031959552,1.000421446955513,-10.037315141693423
8.038687744,1.0004327523905583,-10.204855354591004
8.045416448,1.0004191052068756,-10.372391084049838
8.05214464,1.0003813434832696,-10.539615722590133
8.058872832,1.0003215280689215,-10.706170747934857
8.065601536,1.0002431174227113,-10.871772908610067
8.072329728,1.0001506750862592,-11.036210425170198
8.07905792,1.0000493306272167,-11.199338848744276
8.085786624,0.9999448547968885,-11.361010322993504
8.092514816,0.9998430873033441,-11.521305516635103
8.099243008,0.9997500976938082,-11.68024211979876
8.1059712,0.9996709786295457,-11.838015043670861
8.112699904,0.9996102964301712,-11.994795013633041
8.119428096,0.9995715433481036,-12.150941896108717
8.126156288,0.9995569081303958,-12.306709125889483
8.132884992,0.9995674338590117,-12.462450557616078
8.139613184,0.9996023403450283,-12.618504263324127
8.146341376,0.9996596579451076,-12.775200506082076
8.153069568,0.999736194213681,-12.932839391664466
8.159798272,0.9998275961929505,-13.091603236927105
8.166526464,0.9999286848285601,-13.251720222355564
8.173254656,1.000033527472234,-13.41325886969697
8.17998336,1.0001364605189156,-13.576264305933321
8.186711552,1.0002313909225438,-13.740581556332062
8.193439744,1.0003129577966694,-13.906179165161008
8.200168448,1.000376529576348,-14.072776005908255
8.20689664,1.000418410391087,-14.240068415978435
8.213624832,1.000436366467234,-14.407779680574077
8.220353024,1.0004291801314997,-14.575613435840864
8.227081728,1.0003972169509203,-14.743176145342844
8.23380992,1.0003424076025893,-14.910123045158171
8.240538112,1.0002679022957168,-15.07621176815659
8.247266816,1.0001777739437574,-15.241168324882297
8.253995008,1.0000771591204363,-15.404832734142145
8.2607232,0.9999718208913382,-15.567087666907232
8.267451392,0.9998678548760993,-15.727896649714824
8.274180096,0.9997710214924945,-15.887340000605874
8.280908288,0.9996868536818893,-16.04551973043322
8.28763648,0.9996204014201496,-16.202679772852715
8.294365184,0.9995752424421558,-16.35907945584863
8.301093376,0.9995540105401852,-16.51499999903478
8.307821568,0.9995579174466469,-16.670819502767863
8.314550272,0.9995868358859676,-16.826871968803957
8.321278464,0.9996391474556818,-16.983491854119524
8.328006656,0.9997116595978993,-17.140988066167633
8.334734848,0.9998005647705187,-17.29958145922206
8.341463552,0.9999006102364766,-17.45949694080189
8.348191744,1.0000061426324234,-17.62082565058746
8.354919936,1.000111230659983,-17.78359788965549
8.36164864,1.000209701738672,-17.94781480734387
8.368376832,1.0002960730074024,-18.113294618347414
8.375105024,1.000365495641916,-18.279855708432766
8.381833728,1.00041380999415,-18.447239481914103
8.38856192,1.0004385517264582,-18.615102590039502
8.395290112,1.000437824999282,-18.783179382341263
8.402018304,1.0004121225079003,-18.951045601084186
8.408747008,1.0003624306468197,-19.118445727647334
8.4154752,1.0002921214224025,-19.285005864334313
8.422203392,1.0002046294122402,-19.4504952975663
8.428932096,1.0001053530770858,-19.614688701094085
8.435660288,0.9999997596978272,-19.7774961646818
8.44238848,0.9998937068011529,-19.93884828851039
8.449116672,0.9997933805423141,-20.09880466544283
8.455845376,0.9997046465889453,-20.25744800169886
8.462573568,0.9996322661932526,-20.414997909508376
8.46930176,0.9995807201182839,-20.571679902970313
8.476030464,0.9995527287035313,-20.727819868902632
8.482758656,0.9995500570224655,-20.883742407786972
8.489486848,0.9995726606995554,-21.03982513209281
8.496215552,0.9996194646659471,-21.19636755699482
8.502943744,0.9996878264476133,-21.35374103927725
8.509671936,0.9997736851881114,-21.51215750501987
8.516400128,0.9998724131508838,-21.671854377712275
8.523128832,0.9999780908579764,-21.832981239666342
8.529857024,1.0000849899271516,-21.995577237684934
8.536585216,1.0001867626253977,-22.159596724309747
8.54331392,1.0002778246374602,-22.324970982932303
8.550042112,1.0003529130994062,-22.49148499028053
8.556770304,1.00040768525648,-22.658926640029968
8.563498496,1.0004390045502087,-22.82694017169367
8.5702272,1.0004452423877432,-22.99522824772979
8.576955392,1.0004257261087868,-23.163440074617867
8.583683584,1.000381686486689,-23.33123782360265
8.590411776,1.0003157811320735,-23.49826592704519
8.59714048,1.000231554321331,-23.664258307360633
8.603869184,1.0001336660878013,-23.829047347250075
8.610596864,1.0000281223091974,-23.99240453854385
8.617325568,0.9999204131921411,-24.154320808596108
8.624054272,0.9998170922148405,-24.314768998812358
8.630781952,0.9997236898026632,-24.473894408834735
8.637510656,0.9996457709073332,-24.63183123001818
8.64423936,0.9995879460853416,-24.788824645641153
8.65096704,0.999553109785201,-24.94520743564517
8.657695744,0.999543577842769,-25.101288320212056
8.664423424,0.9995597719976822,-25.25739345142271
8.671152128,0.9996007922060564,-25.41392044915586
8.677880832,0.9996645188229292,-25.571191221385448
8.684608512,0.9997470788376082,-25.72943872100768
8.691337216,0.9998439961899923,-25.88894664305648
8.69806592,0.9999495564388164,-26.049849478249335
8.7047936,1.0000577316998602,-26.2122454821159
