freq,mag,phase
6.0,1.0002912339392682,-14.165859311898119
6.003968,1.000187231674644,-14.315669547901727
6.007936512,1.0000710163770923,-14.463971759839461
6.011904512,0.9999505670643396,-14.610580810258618
6.015873024,0.9998331816715043,-14.755540768750036
6.019841024,0.9997261521372743,-14.898967676551742
6.023809536,0.9996359657097387,-15.041033946849103
6.027777536,0.9995681628849326,-15.18196259579968
6.031746048,0.9995267864503978,-15.322182040251189
6.035714048,0.9995144986651074,-15.462047707987065
6.03968256,0.9995319675816096,-15.601999721813348
6.04365056,0.9995782297079073,-15.742420190433716
6.047619072,0.9996503731795869,-15.883735149468704
6.051587072,0.9997442156947929,-16.02626447285992
6.055555584,0.9998539192714951,-16.170298188711072
6.059523584,0.9999725930250141,-16.315973647318557
6.063492096,1.0000933358179964,-16.463400689090644
6.067460096,1.0002086619652946,-16.612564609926174
6.071428608,1.0003115399307791,-16.7633048266018
6.075396608,1.000395514976554,-16.91540297398346
6.07936512,1.0004558112677393,-17.068639684648183
6.08333312,1.0004885358474591,-17.222519736592485
6.087301632,1.0004916234711825,-17.376673496642766
6.091269632,1.000464957686161,-17.53075882631838
6.095238144,1.000410167096664,-17.684264429650113
6.099206144,1.0003305232722417,-17.836853778001142
6.103174656,1.0002307839690514,-17.9882292773219
6.107142656,1.0001173083738242,-18.138116563941228
6.111111168,0.9999966732225581,-18.286381372706412
6.115079168,0.9998764127504626,-18.4329566131194
6.11904768,0.999763754641941,-18.57788088201038
6.12301568,0.9996657471347906,-18.7214014640739
6.126984192,0.9995882386414329,-18.86367961542937
6.130952192,0.9995359854213293,-19.005032873774642
6.134920704,0.9995121142863507,-19.1459562781597
6.138888704,0.9995184109268107,-19.28670939586236
6.142857216,0.9995540670081418,-19.427861397837546
6.146825216,0.9996172777413833,-19.569703155973645
6.150793728,0.9997041319675576,-19.71269772610375
6.154761728,0.9998093115494341,-19.857113963389725
6.15873024,0.9999262284905994,-20.003085717591354
6.16269824,1.0000479487979628,-20.15083113762591
6.166666752,1.0001671519724118,-20.300348440598658
6.170634752,1.0002764020386694,-20.451524397964416
6.174603264,1.0003691018680796,-20.60417731431241
6.178571264,1.0004393896968646,-20.75801457062723
6.182539776,1.000483237898563,-20.912724411779276
6.186507776,1.0004979838512742,-21.067867655935473
6.190476288,1.0004825144664458,-21.22309694674437
6.194444288,1.000437739265858,-21.37791250221588
6.1984128,1.0003666020712305,-21.531890502856815
6.2023808,1.0002732416921538,-21.68484423658471
6.206349312,1.0001633418453892,-21.836332759116416
6.210317312,1.0000438069459927,-21.986223700198657
6.214285824,0.9999214017017091,-22.134427288090706
6.218253824,0.999804265739358,-22.280962774240972
6.222222336,0.9996989397194657,-22.425962017809983
6.226190336,0.9996122088573334,-22.56963674296763
6.230158848,0.9995493478441655,-22.7122746959794
6.234126848,0.9995141598119903,-22.854208708120385
6.23809536,0.9995087647596946,-22.99597156804762
6.24206336,0.9995334589912628,-23.137846465119363
6.246031872,0.9995868883975946,-23.280348000422638
6.249999872,0.9996657525853655,-23.423790628169172
6.253968384,0.999765284001722,-23.56858075635674
6.257936384,0.9998795224469084,-23.71491107000739
6.261904896,1.0000011764687968,-23.863002907592225
6.265872896,1.0001232306431347,-24.012868368145533
6.269841408,1.0002379964491712,-24.164412127128813
6.273809408,1.0003383963015788,-24.317564954466132
6.27777792,1.0004184128697946,-24.472026097426564
6.28174592,1.0004733880120908,-24.627519911799837
6.285714432,1.000499772716415,-24.783600361940746
6.289682432,1.0004959334136843,-24.939875964810096
6.293650944,1.0004619297520478,-25.095995589441294
6.297618944,1.0004000052370574,-25.25137734308864
6.301587456,1.0003139069994915,-25.405847315560496
6.305555456,1.0002090344744416,-25.558948227252188
6.309523968,1.000091334568669,-25.710451811412327
6.313491968,0.9999681577345576,-25.860351452724878
6.31746048,0.9998471083284771,-26.008556687904544
6.32142848,0.9997356956926658,-26.15508697810305
6.325396992,0.9996403222983645,-26.300206136390134
6.329364992,0.9995672259106285,-26.444188137323906
6.333333504,0.9995204553698266,-26.587329555815085
6.337301504,0.9995032530422748,-26.730054820333084
6.341270016,0.9995165933391729,-26.87281634705464
6.345238016,0.9995595426390418,-27.0159553231909
6.349206528,0.9996297965908487,-27.160005204232
6.353174528,0.9997225895661672,-27.30521669886331
6.35714304,0.9998328541912089,-27.451886152946862
6.36111104,0.9999535180187303,-27.600330050968918
6.365079552,1.0000771759683225,-27.75048133717665
6.369047552,1.00019652118607,-27.902442266141836
6.373016064,1.0003041299233326,-28.056072353917102
6.376984064,1.0003935197053337,-28.211086173249747
6.380952576,1.0004591569341537,-28.36730163319321
6.384920576,1.0004971361856996,-28.524286623359327
6.388889088,1.0005050155764472,-28.68163139317603
6.392857088,1.0004824044408607,-28.838923022906226
6.3968256,1.0004304244678013,-28.995702182845278
6.4007936,1.0003526226743475,-29.15166876452889
6.404762112,1.0002533855383726,-29.306332794360348
6.408730112,1.0001388938829558,-29.459524482019386
6.412698624,1.000016012137527,-29.61113508747521
6.416666624,0.9998924359580301,-29.76097840296491
6.420635136,0.9997753567800679,-29.90917257657781
6.424603136,0.9996722235253807,-30.05580008417445
6.428571648,0.9995892290352091,-30.201139710190468
6.432539648,0.9995314334496891,-30.345540207015638
6.43650816,0.9995023310349367,-30.48933713335826
6.44047616,0.9995038384713841,-30.632987252884575
6.444444672,0.9995357450694371,-30.776954039032383
6.448412672,0.9995963706467126,-30.921559128114726
6.452381184,0.9996817679870255,-31.067300967458316
6.456349184,0.999786811037267,-31.21438858709393
6.460317696,0.9999051796387579,-31.36314092467581
6.464285696,1.0000296498846026,-31.513613889123537
6.468254208,1.0001523917814212,-31.66593371593086
6.472222208,1.0002663291643834,-31.820000648866472
6.47619072,1.0003643271860294,-31.975580164283663
6.48015872,1.0004404095904225,-32.13245571123208
6.484127232,1.0004898191806488,-32.290292491161495
6.488095232,1.0005096371566404,-32.4486250018261
6.492063744,1.0004988056378152,-32.60708848081959
6.496031744,1.0004576802276803,-32.76521137757424
6.499999744,1.0003887645525298,-32.92255667961359
6.503968256,1.0002965570907585,-33.07888095871844
6.507936256,1.0001862433995488,-33.23377137198068
6.511904768,1.0000648112955184,-33.387043159886574
6.515872768,0.9999396239679009,-33.53861031504359
6.51984128,0.9998181960482945,-33.68844566440595
6.52380928,0.9997078820228048,-33.83668802341348
6.527777792,0.9996156203070647,-33.98350142095404
6.531745792,0.9995470143889109,-34.129210482913436
6.535714304,0.9995061311799943,-34.27417843559424
6.539682304,0.9994954679468131,-34.418847093575344
6.543650816,0.9995160226631897,-34.563627939022126
6.547618816,0.9995662129910815,-34.70890420699689
6.551587328,0.9996430225821679,-34.85515737959763
6.555555328,0.9997419155969156,-35.00269722692211
6.55952384,0.9998568685794758,-35.15178134509441
6.56349184,0.9999808155529186,-35.30263550221689
6.567460352,1.0001061300581116,-35.45531723604461
6.571428352,1.000225467111958,-35.6097517910843
6.575396864,1.000331372032418,-35.765843722604345
6.579364864,1.0004172029322118,-35.92335849156774
6.583333376,1.0004778895205637,-36.081943751693125
6.587301376,1.0005098929004002,-36.241242821632504
6.591269888,1.0005109627888455,-36.4008229548574
6.595237888,1.0004812913592203,-36.56024759645086
6.5992064,1.0004222623361283,-36.71902970605805
6.6031744,1.0003377632288617,-36.876936510407475
6.607142912,1.0002328636351325,-37.0334912981293
6.611110912,1.0001140588862916,-37.18848649349353
6.615079424,0.9999883709405135,-37.34174134914558
6.619047424,0.99986347084917,-37.493329054434795
6.623015936,0.9997470280964359,-37.64319374905394
6.626983936,0.9996460546042196,-37.79155024413896
6.630952448,0.99956699335907,-37.938675585433444
6.634920448,0.9995144968664879,-38.084891237121326
6.63888896,0.9994917017499753,-38.23060027719203
6.64285696,0.9995001197007013,-38.37624626667574
6.646825472,0.9995391523613004,-38.5223281425647
6.650793472,0.9996066711708184,-38.66915245595122
6.654761984,0.9996984959695169,-38.81713279373675
6.658729984,0.9998087479420146,-38.96661346265385
6.662698496,0.999931173728325,-39.117856864990294
6.666666496,1.0000580050902563,-39.270814190020225
6.670635008,1.000181616317479,-39.425677543377695
6.674603008,1.0002944327205987,-39.582253381470295
6.67857152,1.0003896706233513,-39.74031387930753
6.68253952,1.0004614054526206,-39.89965495355831
6.686508032,1.0005053878727894,-40.059837974183516
6.690476032,1.0005187630640875,-40.22048528001443
6.694444544,1.0005009079983544,-40.38114471139841
6.698412544,1.0004525639576565,-40.54138313565013
6.702381056,1.0003770108891121,-40.70076359519283
6.706349056,1.0002786540841115,-40.85895830261927
6.710317568,1.0001633686426585,-41.01569572909997
6.714285568,1.0000384418006834,-41.17071320650484
6.71825408,0.9999111589579034,-41.32404107239763
6.72222208,0.9997896263400575,-41.47557727874711
6.726190592,0.9996807748738914,-41.62556172819155
6.730158592,0.9995917722467608,-41.774165572330986
6.734127104,0.9995277260088496,-41.92167278253291
6.738095104,0.9994927241966756,-42.068525850893884
6.742063616,0.9994887897323022,-42.21520740487051
6.746031616,0.999516264470486,-42.362037041351165
6.750000128,0.9995735603726099,-42.50950808788843
6.753968128,0.9996570447897185,-42.658032239547765
6.75793664,0.999761724583298,-42.807964336415274
6.76190464,0.9998812418109139,-42.95952367118721
6.765873152,1.000008249958221,-43.1128949941526
6.769841152,1.0001351570213601,-43.26808576920256
6.773809664,1.0002542190056056,-43.42508382137393
6.777777664,1.0003579404862468,-43.58369881355212
6.781746176,1.0004401997341512,-43.74370134919976
6.785714176,1.0004960105256464,-43.90474444294876
6.789682688,1.0005218178271107,-44.06640155013911
6.793650688,1.0005160913033078,-44.228240625100185
6.7976192,1.0004793293542829,-44.38978854038258
6.8015872,1.0004134344146907,-44.55070762136741
6.805555712,1.0003225694337932,-44.7105459917916
6.809523712,1.0002124058161534,-44.868960051368674
6.813492224,1.0000891825842781,-45.025783326014896
6.817460224,0.9999608363031528,-45.18084724685358
6.821428736,0.9998349137948821,-45.3341690148363
6.825396736,0.9997192240684523,-45.48578516207973
6.829365248,0.9996208227818963,-45.63592367545196
6.833333248,0.9995456864641077,-45.78486974032079
6.83730176,0.9994985162626784,-45.932974061332104
6.84126976,0.9994819125153693,-46.08066438944327
6.845238272,0.9994972915693562,-46.22837340973919
6.849206272,0.9995435074943145,-46.37656799824165
6.853174784,0.9996178035180773,-46.52569398102471
6.857142784,0.9997157465716502,-46.67605653200933
6.861111296,0.9998312087421677,-46.827995440496565
6.865079296,0.9999573869436938,-46.981674181265
6.869047808,1.000086332907004,-47.137262784154565
6.873015808,1.000210376649069,-47.294679471064725
6.87698432,1.0003219683225086,-47.45379879363155
6.88095232,1.0004143016707898,-47.614401695705496
6.884920832,1.0004816909908967,-47.776200507134824
6.888888832,1.0005199831680853,-47.93880055696429
6.892857344,1.0005269745046517,-48.101767601755995
6.896825344,1.0005020173531436,-48.26466603393482
6.900793856,1.0004467809066182,-48.4270185627803
6.904761856,1.0003644635440425,-48.588442391010666
6.908730368,1.0002602557032827,-48.74858816350121
6.912698368,1.0001402907334802,-48.90717150104249
6.91666688,1.0000119863453647,-49.064029067026695
6.92063488,0.9998829168458274,-49.219137124194056
6.924603392,0.9997613201173831,-49.372490840571274
6.928571392,0.9996541923068046,-49.52419013736221
6.932539904,0.9995685609798537,-49.67460463434843
6.936507904,0.9995092578809623,-49.824026031862225
6.940476416,0.9994801621594815,-49.97285989837413
6.944444416,0.9994826779926902,-50.12155667815416
6.948412928,0.999517245828923,-50.270520580777536
6.952380928,0.999581395236297,-50.42024449839175
6.95634944,0.9996714224338419,-50.5711159069779
6.96031744,0.9997816880263003,-50.72346538368407
6.964285952,0.9999056408706235,-50.87748432061838
6.968253952,1.000035498754345,-51.033414503594976
6.972222464,1.0001636925650779,-51.191185690454525
6.976190464,1.0002821500725703,-51.350762390903064
6.980158976,1.0003837001213542,-51.51197247102499
6.984126976,1.000462473848689,-51.67449154150823
6.988095488,1.0005129946159808,-51.837993828935275
6.992063488,1.0005328268004818,-52.00200185777213
6.996032,1.0005204014110487,-52.16613033105723
7.0,1.0004764864241051,-52.32991640668906
7.003968,1.0004037439642797,-52.492910876134715
7.007936512,1.0003066660209392,-52.65473788437141
7.011904512,1.0001910323318406,-52.81510753751109
7.015873024,1.0000639589312688,-52.973773226834545
7.019841024,0.9999330759516986,-53.130657002635914
7.023809536,0.9998063871597175,-53.28577767116897
7.027777536,0.999691689490662,-53.43916547908711
7.031746048,0.9995959783352945,-53.59110458779333
7.035714048,0.9995249424170088,-53.741923756957284
7.03968256,0.9994830707555871,-53.89195493509216
7.04365056,0.9994730247546376,-54.04167687876624
7.047619072,0.9994951327434277,-54.19152564442605
7.051587072,0.9995483425818826,-54.34191898840941
7.055555584,0.9996293317857669,-54.493334381638626
7.059523584,0.9997331569657277,-54.64613538147264
7.063492096,0.99985366666184,-54.80051955467189
7.067460096,0.9999832787749621,-54.95676660178298
7.071428608,1.000114322362746,-55.114880193334024
7.075396608,1.0002387385830183,-55.27490731241325
7.07936512,1.0003488664360909,-55.436633500327154
7.08333312,1.0004381888921579,-55.599804954669935
7.087301632,1.0005009921062726,-55.76411897027689
7.091269632,1.0005337162400112,-55.92914428751905
7.095238144,1.0005340530345666,-56.094454443850225
7.099206144,1.0005023020230834,-56.259596360049294
7.103174656,1.0004400916022016,-56.424117505102075
7.107142656,1.0003513091537448,-56.58760792667878
7.111111168,1.000241256554374,-56.74972328502298
7.115079168,1.0001167225481278,-56.910210160151436
7.11904768,0.9999853001752568,-57.068923458114355
7.12301568,0.9998546985247702,-57.22580762987367
7.126984192,0.9997331789782041,-57.38094843551861
7.130952192,0.9996280713132066,-57.53453763363567
7.134920704,0.9995457067254377,-57.68677351962966
7.138888704,0.999491291233856,-57.838155840027284
7.142857216,0.9994680024168652,-57.98894414100254
7.146825216,0.9994774764411989,-58.139717649923675
7.150793728,0.9995190144872032,-58.29087169072863
7.154761728,0.9995900135006303,-58.442888608730506
7.15873024,0.9996862709357505,-58.596128884143454
7.16269824,0.9998019488790038,-58.750931958511664
7.166666752,0.9999300659904847,-58.90749107987462
7.170634752,1.0000628226104422,-59.065986142759826
7.174603264,1.0001919341439425,-59.226385323717274
7.178571264,1.0003097069193572,-59.388571265516134
7.182539776,1.000409170122586,-59.55234598064893
7.186507776,1.0004838441848947,-59.71740360657189
7.190476288,1.0005294515171983,-59.883376017338115
7.194444288,1.000542998276021,-60.04981108725911
7.1984128,1.0005237782626477,-60.216268068892695
7.2023808,1.0004730321101993,-60.38223955992297
7.206349312,1.0003935936888797,-60.54735048985054
7.210317312,1.0002904358506566,-60.711206759648796
7.214285824,1.0001697064205965,-60.87351321317962
7.218253824,1.0000387568946707,-61.03405132165746
7.222222336,0.999905666968548,-61.192779621818396
7.226190336,0.9997784007490857,-61.34969852035463
7.230158848,0.9996646446651511,-61.50494041111475
7.234126848,0.9995717405121303,-61.65873017312882
7.23809536,0.9995049240485102,-61.81143159441798
7.24206336,0.999468533699269,-61.963451428269174
7.246031872,0.9994646996359943,-62.11520773023766
7.249999872,0.9994936520693135,-62.26720822750813
7.253968384,0.9995537736140149,-62.41986369338923
7.257936384,0.9996413160095259,-62.57362199324233
7.261904896,0.9997511364436342,-62.72881431662587
7.265872896,0.9998763414634287,-62.8857157110348
7.269841408,1.000009447207275,-63.04455006748819
7.273809408,1.0001422765127705,-63.20527388331498
7.27777792,1.0002666724510925,-63.367937556646176
7.28174592,1.0003753743620365,-63.53225027296604
7.285714432,1.0004614580804507,-63.6979964695719
7.289682432,1.0005197234582772,-63.864813628165514
7.293650944,1.000546715246135,-64.03230074386873
7.297618944,1.0005407547010876,-64.1999724633808
7.301587456,1.0005019926477399,-64.36738255212543
7.305555456,1.0004328806095615,-64.53406670182571
7.309523968,1.0003376437306157,-64.69963577852035
7.313491968,1.0002220940046085,-64.86372720667835
7.31746048,1.000093253167079,-65.02611576625858
7.32142848,0.9999586058873036,-65.18672020223406
7.325396992,0.9998267837198788,-65.34543215088632
7.329364992,0.9997055371500877,-65.50241916876799
7.333333504,0.9996025172425324,-65.65780303351404
7.337301504,0.9995236446724417,-65.81198340363164
7.341270016,0.9994741212671251,-65.96524074840535
7.345238016,0.9994568054280141,-66.11805323534152
7.349206528,0.9994728112453072,-66.27096685028339
7.353174528,0.9995211905773823,-66.42433289065262
7.35714304,0.9995989197788019,-66.5786490937867
7.36111104,0.9997015125612969,-66.73425925041317
7.365079552,0.9998225987101304,-66.89154548671729
7.369047552,0.9999546517132759,-67.05068382443038
7.373016064,1.0000898321458076,-67.21177053456614
7.376984064,1.0002200968582973,-67.37475168345193
7.380952576,1.0003370861404215,-67.53957693726585
7.384920576,1.000433936725213,-67.70591971857779
7.388889088,1.0005047386226198,-67.87357790563702
7.392857088,1.0005451629434803,-68.04200469051534
7.3968256,1.0005526504499975,-68.21084663045426
7.4007936,1.0005267167173109,-68.3795806438781
7.404762112,1.000468927486829,-68.54779857879679
7.408730112,1.0003829348661344,-68.71503510651459
7.412698624,1.0002736984145286,-68.88091723319782
7.416666624,1.0001479792931218,-69.04517894071186
7.420635136,1.000013498520979,-69.20763717546318
7.424603136,0.9998782616694883,-69.36819074415261
7.428571648,0.9997504857594197,-69.5269422127388
7.432539648,0.9996381022596075,-69.68401700271323
7.43650816,0.9995479511322307,-69.83969045385014
7.44047616,0.9994854702002333,-69.99432342671129
7.444444672,0.999454463038651,-70.14831281327105
7.448412672,0.9994568733717879,-70.30216055157021
7.452381184,0.9994927265200272,-70.45627384870845
7.456349184,0.9995597671310078,-70.6111969419513
7.460317696,0.9996537196345924,-70.76733683573293
7.464285696,0.9997692362063705,-70.92496983027621
7.468254208,0.9998991888662543,-71.08442952820506
7.472222208,1.0000354871461679,-71.24580292615151
7.47619072,1.0001700913499318,-71.40915572765266
7.48015872,1.0002945260730989,-71.57439915132925
7.484127232,1.0004015013759624,-71.74132912431853
7.488095232,1.000484337236282,-71.9096440103421
7.492063744,1.0005379608736993,-72.07898466927674
7.496031744,1.0005592806367496,-72.2489079790486
7.500000256,1.0005468088536573,-72.41893770128011
7.503968256,1.0005012401770592,-72.5886038983918
7.507936256,1.0004254119693001,-72.75748304425237
7.511904768,1.0003238693982093,-72.92511675704614
7.515872768,1.0002027204293884,-73.09120054057304
7.51984128,1.0000694353257997,-73.25549812603812
7.52380928,0.9999320478801262,-73.41796190327254
7.527777792,0.9997989952649514,-73.57853154075173
7.531745792,0.9996781537120869,-73.73734724701359
7.535714304,0.9995771149423145,-73.89461910570796
7.539682304,0.9995020973016662,-74.05063776588842
7.543650816,0.9994574284491234,-74.20587166377952
7.547618816,0.9994460823976309,-74.36075290667789
7.551587328,0.9994686788081896,-74.51572985291632
7.555555328,0.9995238490196104,-74.67132234097535
7.55952384,0.9996082418792618,-74.82796892767627
7.56349184,0.9997170677938365,-74.98596099091327
7.567460352,0.9998432383082512,-75.14574234408089
7.571428352,0.9999791808961207,-75.307415171467
7.575396864,1.0001170011353375,-75.47108130466628
7.579364864,1.0002477617328784,-75.63671487998032
7.583333376,1.0003640573150216,-75.80412993272249
