freq,mag,phase
6.0,0.9996668987326391,48.186820405699606
6.002287616,0.9995956466161632,48.023917137076474
6.004575232,0.9995494945793701,47.86182854046134
6.006862848,0.9995311495438494,47.70020967606844
6.009150464,0.9995419545311413,47.53860968162343
6.011438592,0.9995811474530074,47.37663458323188
6.013726208,0.9996463137545345,47.213886608322035
6.016013824,0.9997334212169494,47.05001601340822
6.01830144,0.9998368579841784,46.88473175197009
6.020589056,0.9999502507973318,46.717859078723755
6.022876672,1.0000663313247846,46.54929544448544
6.025164288,1.000177865084357,46.37905657535836
6.027451904,1.0002777836068355,46.20726161614763
6.029740032,1.0003597862073454,46.03412521538821
6.032027648,1.0004187750404032,45.85995044675181
6.034315264,1.0004507783307715,45.685084002324366
6.03660288,1.000454034619012,45.50992633335248
6.038890496,1.0004281344747723,45.33493398530509
6.041178112,1.0003747150171913,45.1604832372574
6.043465728,1.0002971863117593,44.986937201456755
6.045753344,1.0002003154375438,44.81462807473462
6.04804096,1.0000902847687418,44.6437980082614
6.050329088,0.9999739174528286,44.47459260608645
6.052616704,0.9998586662409575,44.307039588749525
6.05490432,0.9997515879101536,44.14106032445979
6.057191936,0.9996596942514401,43.97651315211274
6.059479552,0.9995886922230722,43.81310712919945
6.061767168,0.999543127842299,43.65055083455231
6.064054784,0.9995257263119897,43.488427159248964
6.0663424,0.9995378332345685,43.326296485690854
6.068630016,0.9995786105452308,43.16378601628871
6.070918144,0.9996455209748786,43.000458539547004
6.07320576,0.9997343677227448,42.83596830089008
6.075493376,0.9998395286894265,42.6700553816978
6.077780992,0.9999544630358863,42.502516745847856
6.080068608,1.0000718793577787,42.33329285846542
6.082356224,1.0001843650248279,42.16233094227231
6.08464384,1.0002848406045703,41.98982302469552
6.086931456,1.00036698111593,41.8159657624677
6.089219584,1.0004255649280498,41.64107103318821
6.0915072,1.0004568819546193,41.465471689580035
6.093794816,1.000458891673489,41.28960096699352
6.096082432,1.0004315732307127,41.11388909028902
6.098370048,1.0003764962900448,40.93873684497609
6.100657664,1.0002972122704734,40.764547790805956
6.10294528,1.0001984986573895,40.59160085142179
6.105232896,1.000086814967811,40.42014294461523
6.107520512,0.9999689753287925,40.25032102668912
6.10980864,0.9998525046015259,40.08218874346481
6.112096256,0.9997447529727526,39.9156391794486
6.114383872,0.999652492592036,39.750523465334766
6.116671488,0.9995815677849236,39.58656086297801
6.118959104,0.9995365234819971,39.42340118406294
6.12124672,0.9995202146558683,39.260686927934564
6.123534336,0.9995335908632407,39.097960795794776
6.125821952,0.9995759923384032,38.934792216753735
6.128109568,0.9996446135499611,38.770787383085526
6.130397696,0.9997352299840193,38.605601986450104
6.132685312,0.9998421851986943,38.43896191258637
6.134972928,0.9999586890814226,38.2706738304534
6.137260544,1.0000774102831735,38.10063564151807
6.13954816,1.000190929752963,37.92890977737095
6.141835776,1.0002919065831082,37.75557110227911
6.144123392,1.0003741609602943,37.58088293875773
6.146411008,1.0004324415116466,37.405138265076495
6.148699136,1.0004629698591279,37.22871358772838
6.150986752,1.0004638564902006,37.05204700681432
6.153274368,1.0004350114560447,36.875532149901304
6.155561984,1.000378365311955,36.699621684851124
6.1578496,1.0002971586204161,36.52463783350558
6.160137216,1.000196720769723,36.350975437158915
6.162424832,1.000083312086279,36.17880050050131
6.164712448,0.9999640482573855,36.008301457915344
6.167000064,0.9998464180032491,35.83946524613009
6.169288192,0.9997378925700394,35.67224702572001
6.171575808,0.9996452771485004,35.50645841006518
6.173863424,0.9995744864729549,35.341840176523384
6.17615104,0.9995300503773985,35.17799017059857
6.178438656,0.9995145254425964,35.0145790937175
6.180726272,0.9995292724632283,34.851121485010175
6.183013888,0.9995731640185801,34.68721879224791
6.185301504,0.9996435789256137,34.52245515996814
6.18758912,0.9997360442824549,34.35648084007437
6.189877248,0.9998448170986475,34.18902455541229
6.192164864,0.9999628627893626,34.01986772517525
6.19445248,1.0000829391751613,33.848961458749294
6.196740096,1.0001973876034758,33.67631344462506
6.199027712,1.0002989883413775,33.50208132774441
6.201315328,1.0003813944736561,33.32646513003255
6.203602944,1.0004392178992687,33.14981024675331
6.20589056,1.0004689804142093,32.97245747662776
6.208178688,1.0004688003872297,32.79486192659362
6.210466304,1.000438533634501,32.61747069792208
6.21275392,1.0003800822265108,32.44065679920482
6.215041536,1.0002971969731784,32.26484202231612
6.217329152,1.0001949555247758,32.09032357180044
6.219616768,1.0000798517675213,31.91735776417928
6.221904384,0.9999590968269573,31.746049895096064
6.224192,0.9998403193940218,31.57644687817786
6.226479616,0.9997309664813053,31.40844691672907
6.228767744,0.9996380029099544,31.24189885231908
6.23105536,0.999567307166264,31.076503269204117
6.233342976,0.9995233391162276,30.91189585240177
6.235630592,0.9995088970224325,30.74769479090974
6.237918208,0.9995248649251885,30.58342084449914
6.240205824,0.9995704610026607,30.41868643240256
6.24249344,0.9996426402363835,30.253063254094656
6.244781056,0.9997369016586373,30.086200134702384
6.247068672,0.9998473660924013,29.91782452680854
6.2493568,0.9999671192389561,29.74771563317336
6.251644416,1.0000884217445727,29.575829653678742
6.253932032,1.0002039003929502,29.402202052879428
6.256219648,1.0003060855784351,29.226930524498968
6.258507264,1.000388568696584,29.050317006970477
6.26079488,1.0004461355259127,28.872626633177955
6.263082496,1.0004751976166508,28.694268177870285
6.265370112,1.000473897771604,28.51568224309399
6.26765824,1.000442158173386,28.337277175520857
6.269945856,1.0003820375400605,28.15948982708432
6.272233472,1.000297357808822,27.982711773905205
6.274521088,1.0001932842186687,27.80727319341545
6.276808704,1.0000764681152818,27.63337673550663
6.27909632,0.9999542824393178,27.46119568390401
6.281383936,0.9998342694007639,27.290685459384363
6.283671552,0.9997240460982796,27.12186625288075
6.285959168,0.9996307505843277,26.95444581339396
6.288247296,0.9995601205545458,26.788190334077598
6.290534912,0.9995167143261307,26.62271389627044
6.292822528,0.9995031177572508,26.457619488321193
6.295110144,0.9995204842751204,26.292444097671005
6.29739776,0.9995675194533694,26.1268008050355
6.299685376,0.9996414681197259,25.96019866748813
6.301972992,0.9997375237443374,25.792345174107407
6.304260608,0.9998498224271292,25.622945289918448
6.306548224,0.9999711161016286,25.451804027816575
6.308836352,1.0000938648959719,25.27886472333662
6.311123968,1.0002102255103749,25.104123051438513
6.313411584,1.0003130804761042,24.92777950739453
6.3156992,1.0003957670430572,24.750025587572
6.317986816,1.00045304154519,24.57121409026744
6.320274432,1.0004813288759808,24.39175710172177
6.322562048,1.0004788626438614,24.212056144958087
6.324849664,1.0004457793440127,24.032574478158523
6.327137792,1.0003840150229282,23.853701190572494
6.329425408,1.0002975258792404,23.675889595009878
6.331713024,1.0001915828593346,23.499397099151096
6.33400064,1.0000731515832766,23.324510714696203
6.336288256,0.999949370918529,23.151336793970135
6.338575872,0.9998282655252516,22.979890622903948
6.340863488,0.9997172673776688,22.810068388105265
6.343151104,0.9996234630107804,22.64171165373517
6.34543872,0.9995529183337892,22.47448463094992
6.347726848,0.9995099670775383,22.308064584820112
6.350014464,0.9994974003922318,22.141977264925565
6.35230208,0.9995159526999884,21.975827681366443
6.354589696,0.9995645690711434,21.809128124781363
6.356877312,0.999640320080865,21.641494077651927
6.359164928,0.9997381628407497,21.472564891131942
6.361452544,0.9998522208873107,21.3020686066719
6.36374016,0.9999751296607191,21.12977473686563
6.366027776,1.0000991906457513,20.95565745247068
6.368315904,1.0002166704698943,20.77975586254378
6.37060352,1.0003200831118686,20.602200159434826
6.372891136,1.0004029722380186,20.423238146853162
6.375178752,1.0004600392949654,20.243221714153325
6.377466368,1.0004876666836207,20.06254541296382
6.379753984,1.0004841441292658,19.881635841299214
6.3820416,1.000449586790899,19.700962246422733
6.384329216,1.0003861094734174,19.52094584090072
6.386617344,1.000297919339623,19.341974647172968
6.38890496,1.000190224920059,19.164369566585346
6.391192576,1.0000700196301793,18.98838649072748
6.393480192,0.9999447595765838,18.81410870520544
6.395767808,0.999822317027081,18.64160212960649
6.398055424,0.9997105881037571,18.470717866538173
6.40034304,0.9996164005805898,18.30129547864476
6.402630656,0.9995458676200543,18.133036743962364
6.404918272,0.9995033607763092,17.965549839763256
6.4072064,0.9994916140067553,17.798418164019225
6.409494016,0.9995114949566323,17.631156696778174
6.411781632,0.9995617445757734,17.463353453651944
6.414069248,0.9996390674175636,17.294572810690898
6.416356864,0.9997387223091404,17.124474023054834
6.41864448,0.9998545629376631,16.95275170640979
6.420932096,0.9999791582337798,16.779253618305713
6.423219712,1.000104606499025,16.60386853421445
6.425507328,1.0002231302105997,16.426691631257466
6.427795456,1.0003271908107856,16.247838325569333
6.430083072,1.000410256740547,16.06758611004171
6.432370688,1.000467143995126,15.886266101191879
6.434658304,1.0004941455298442,15.704281417501875
6.43694592,1.0004894548100023,15.52208558556438
6.439233536,1.000453572492971,15.340117629452408
6.441521152,1.0003884802419476,15.158850828878487
6.443808768,1.0002984090063687,14.978630369049005
6.446096896,1.0001889524375054,14.799809488051018
6.448384512,1.0000670413064736,14.622609958346514
6.450672128,0.9999401781004826,14.447177353591481
6.452959744,0.9998165637723397,14.273480323565108
6.45524736,0.9997038768667796,14.10148421869518
6.457534976,0.9996092683009926,13.930907716948584
6.459822592,0.9995387118309185,13.76150040619562
6.462110208,0.9994966781405021,13.592850163832791
6.464397824,0.9994857983834547,13.42452667296091
6.466685952,0.9995068310916286,13.256100630786388
6.468973568,0.9995585203022836,13.087107322212985
6.471261184,0.9996376356298129,12.917083182108128
6.4735488,0.9997391469813365,12.745701150897515
6.475836416,0.999856758317563,12.572711063346441
6.478124032,0.9999828902261247,12.397891218449367
6.480411648,1.0001097508724481,12.22117088568434
6.482699264,1.0002294175642201,12.042613532232124
6.48498688,1.0003342111995412,11.862379247793863
6.487275008,1.0004175458629745,11.680731830337479
6.489562624,1.0004741388436036,11.498004651753194
6.49185024,1.0005004949700893,11.314624774284715
6.494137856,1.0004948739584125,11.131042544476683
6.496425472,1.0004575802229825,10.947713561432046
6.498713088,1.0003908693456864,10.765073071902306
6.501000704,1.0002990726723258,10.583518420355219
6.50328832,1.0001878087797336,10.403388217642838
6.505576448,1.000064202645709,10.224912001781576
6.507864064,0.9999358871801375,10.048191606943563
6.51015168,0.99981092184499,9.87324248668875
6.512439296,0.9996973316537224,9.699993460205944
6.514726912,0.9996022369544637,9.528187704919313
6.517014528,0.9995315219866723,9.357543805313322
6.519302144,0.99948989645272,9.187645957303332
6.52158976,0.9994798789989032,9.018086582487886
6.523877376,0.9995020956706773,8.84837540201363
6.526165504,0.9995552509449331,8.678077497232657
6.52845312,0.9996360136661309,8.506727121625085
6.530740736,0.9997393855686492,8.334013771097148
6.533028352,0.9998586119271006,8.159640465645687
6.535315968,0.999986543756751,7.98338791232235
6.537603584,1.0001148523331511,7.805246661064532
6.5398912,1.0002356032867739,7.625238759599891
6.542178816,1.0003410650516666,7.443522583209718
6.544466432,1.0004247303469522,7.260383356993069
6.54675456,1.0004812512400858,7.076165997637918
6.549042176,1.000506974273441,6.89131103888396
6.551329792,1.0005003446314171,6.706245543931709
6.553617408,1.0004617244822216,6.521443112753922
6.555905024,1.0003935369061405,6.33735228924798
6.55819264,1.0002999790519291,6.154369547062905
6.560480256,1.0001868470526105,5.972834870334543
6.562767872,1.0000614256972589,5.792961037300081
6.565056,0.9999315340157521,5.614885485583501
6.567343616,0.9998053595460394,5.438593610524761
6.569631232,0.9996908257507725,5.263983324032185
6.571918848,0.9995951308859462,5.090860683214747
6.574206464,0.9995243820358619,4.91887845199372
6.57649408,0.9994830291323317,4.74765366472182
6.578781696,0.9994737495688465,4.5767629288348735
6.581069312,0.9994971411803326,4.4056828345167895
6.583356928,0.9995517714522436,4.233991191908135
6.585645056,0.9996342502369002,4.061251933972703
6.587932672,0.9997393273906434,3.8870918841685893
6.590220288,0.9998604460054892,3.711226516820828
6.592507904,0.9999898918678733,3.5335074788814578
6.59479552,1.0001196748593544,3.3538261207584465
6.597083136,1.000241554758524,3.172274302756263
6.599370752,1.0003478804303232,2.989013001453218
6.601658368,1.0004319524110408,2.8043023742027473
6.603945984,1.0004882777325548,2.6184853450049683
6.606234112,1.0005135569306962,2.432066759094579
6.608521728,1.0005059048062894,2.2454312893342223
6.610809344,1.0004660333755393,2.0590613886484346
6.61309696,1.0003963268960385,1.8734312204384633
6.615384576,1.000300989530262,1.6889416572473088
6.617672192,1.0001861749155587,1.5058963932042149
6.619959808,1.00005901195475,1.3245295018612215
6.622247424,0.9999275626207881,1.1449954319528015
6.624535552,0.9998000405886951,0.9672679915146157
6.626823168,0.9996844680211006,0.7912397368635242
6.629110784,0.9995881552758376,0.6166894410757501
6.6313984,0.9995172569142154,0.4433009835091383
6.633686016,0.9994761992770235,0.27064998682181024
6.635973632,0.9994675328291875,0.09830931496985611
6.638261248,0.9994921720653674,-0.07419880106317918
6.640548864,0.999548095224536,-0.24737172784998945
6.64283648,0.999632122632742,-0.42160577347235356
6.645124608,0.9997390135684027,-0.5972892644973871
6.647412224,0.9998618569322852,-0.7746950425226914
6.64969984,0.9999930653944628,-0.9540189506755549
6.651987456,1.000124379562808,-1.1352790426479114
6.654275072,1.0002474175574798,-1.3184711067577155
6.656562688,1.0003545934934077,-1.503376590429715
6.658850304,1.0004389811399805,-1.689764852529203
6.66113792,1.0004953429445766,-1.8772202235917432
6.663426048,1.0005201324152593,-2.0653261615891756
6.665713664,1.0005116983100257,-2.2536164199960096
6.66800128,1.0004705476106668,-2.441626327226552
6.670288896,1.0003992741109182,-2.6288755809689537
6.672576512,1.0003023038335659,-2.814990930949151
6.674864128,1.000185733955374,-2.9996239744700772
6.677151744,1.00005684650526,-3.1825544007199094
6.67943936,0.9999236854489676,-3.3636473687539326
6.681726976,0.9997948914702516,-3.542897709658654
6.684015104,0.9996782508928804,-3.720434514212445
6.68630272,0.9995813656452944,-3.896501871393712
6.688590336,0.9995101176878942,-4.071400925466357
6.690877952,0.9994693287012887,-4.245527896646474
6.693165568,0.999461360542474,-4.419427153579247
6.695453184,0.9994869263660432,-4.593448208146998
6.6977408,0.9995442173701503,-4.768168864271374
6.700028416,0.9996298363177696,-4.943983993302702
6.702316032,0.9997384735179973,-5.121274703587366
6.70460416,0.9998630987896435,-5.300308244031111
6.706891776,0.9999959677527146,-5.4812863146662325
6.709179392,1.0001288221117683,-5.664264019058416
6.711467008,1.0002530776836493,-5.84914454665374
6.713754624,1.0003611105713506,-6.035783256810299
6.71604224,1.0004460502079782,-6.223917740580145
6.718329856,1.0005024922299042,-6.41312076350983
6.720617472,1.0005268601089963,-6.602972695653903
6.7229056,1.0005176274115464,-6.79302203594634
6.725193216,1.0004752769965761,-6.982740945069322
6.727480832,1.0004026200473626,-7.171733115519084
6.729768448,1.0003039780378646,-7.359538098800508
6.732056064,1.0001856371826547,-7.545859504907916
6.73434368,1.0000549977107032,-7.7304375134203065
6.736631296,0.9999202748653384,-7.913167622615427
6.738918912,0.9997899462382477,-8.094029069985707
6.741206528,0.9996723083916116,-8.273185350053906
6.743494656,0.999574596240385,-8.450834530380169
6.745782272,0.9995031449269514,-8.627313538393546
6.748069888,0.9994623862332843,-8.803071118448134
6.750357504,0.9994550404148685,-8.978531383649404
6.75264512,0.9994814684653683,-9.154189415582143
6.754932736,0.9995401281323899,-9.330533793190197
6.757220352,0.9996273445934233,-9.508011385757445
6.759507968,0.9997377024363999,-9.686961152956307
6.761795584,0.9998640508203486,-9.86772637423819
6.764083712,0.9999986373591384,-10.050434965049064
6.766371328,1.0001329972000066,-10.23517608410944
6.768658944,1.0002585497703034,-10.421850521699978
6.77094656,1.00036755271371,-10.610294008521832
6.773234176,1.0004529920561884,-10.800231521937889
6.775521792,1.000509599662417,-10.991282395255565
6.777809408,1.0005336239687388,-11.182972180452529
6.780097024,1.000523711657872,-11.37483460858175
6.782385152,1.0004802861289779,-11.56640506981651
6.784672768,1.0004061600400793,-11.757186127393052
6.786960384,1.0003058442910542,-11.946773693941028
6.789248,1.0001857358178499,-12.134848993438386
6.791535616,1.0000533806742868,-12.321184588667277
6.793823232,0.9999170625639195,-12.505624500723703
6.796110848,0.9997853813467754,-12.688204070986133
6.798398464,0.9996664245040283,-12.869020450415627
6.80068608,0.9995679998631054,-13.04834700223575
6.802974208,0.9994961414691229,-13.226511491431452
6.805261824,0.9994554567235884,-13.403933582901523
6.80754944,0.9994486530174932,-13.58106620302207
6.809837056,0.9994759226068024,-13.758423489549754
6.812124672,0.9995358776709278,-13.936454544501672
6.814412288,0.9996245207347182,-14.115664153430346
6.816699904,0.9997364364446627,-14.296395163964915
6.81898752,0.9998646109559163,-14.478935963788704
6.821275136,1.0000009213358492,-14.663470381313418
6.823563264,1.000136841625373,-14.850024494415456
6.82585088,1.0002638047080918,-15.038580354442274
6.828138496,1.0003737612302976,-15.22891074685866
6.830426112,1.0004598958508457,-15.420753447144627
6.832713728,1.000516651400664,-15.613690790145318
6.835001344,1.0005404857300582,-15.80728618544591
6.83728896,1.0005298559886278,-16.00108039274834
6.839576576,1.0004854193912684,-16.194532611487244
6.841864704,1.000409951738986,-16.387200552508975
6.84415232,1.0003080880766027,-16.57868259585204
6.846439936,1.000186304119024,-16.76858613794302
6.848727552,1.000052180346423,-16.956726162492913
6.851015168,0.9999141330273947,-17.142958644813497
6.853302784,0.9997808859200812,-17.32733273010147
6.8555904,0.9996608324002253,-17.509942054626073
6.857878016,0.9995614452449019,-17.691007979354165
6.860165632,0.9994892221787973,-17.87090918309202
6.86245376,0.9994484217586942,-18.050074078799103
6.864741376,0.9994419169641405,-18.228954341752345
6.867028992,0.9994701077131806,-18.408064936842276
6.869316608,0.9995311703825971,-18.587907836621547
6.871604224,0.9996212945337067,-18.768918731904392
6.87389184,0.9997349460864555,-18.9514524465068
6.876179456,0.9998647985627174,-19.135870470237474
6.878467072,1.0000028475323217,-19.322259799908583
6.880754688,1.0001404394995652,-19.510757805398267
6.883042816,1.0002688589516482,-19.701229363239847
6.885330432,1.0003798172702179,-19.893507813854832
6.887618048,1.0004667278436417,-20.087327780048632
6.889905664,1.0005236738830714,-20.282237460957077
6.89219328,1.0005474448364688,-20.477841046382586
6.894480896,1.0005363158132468,-20.67358912993297
6.896768512,1.0004909274957836,-20.869021670284468
6.899056128,1.000414116936523,-21.063650887702522
6.901344256,1.0003107823202524,-21.257062509357205
6.903631872,1.0001872406191519,-21.448928648106904
6.905919488,1.000051358010005,-21.63893796596899
6.908207104,0.9999115742750346,-21.82708538027305
6.91049472,0.9997767587718771,-22.013310638379984
6.912782336,0.9996553845896716,-22.197745786936995
6.915069952,0.9995550370223792,-22.380630778421732
6.917357568,0.9994821789904276,-22.56236700387304
6.919645184,0.9994413444976883,-22.743331368676973
6.921933312,0.9994351362071351,-22.9240541248423
6.924220928,0.9994639999841538,-23.104993027062186
