freq,mag,phase
6.0,1.0001686386350968,170.58544896517373
6.002285056,1.0000966827225684,170.42821938979532
6.004570112,1.0000182818637786,170.27210267082503
6.006855168,0.9999389919239047,170.11718485100783
6.009140224,0.9998639430579541,169.96339439328136
6.01142528,0.9997976965823887,169.81067514429765
6.013710336,0.9997445952737752,169.65881766600853
6.015995392,0.9997079581110266,169.50766287056095
6.018280448,0.9996902144083022,169.35692727133326
6.020565504,0.9996923435322409,169.20634281391634
6.02285056,0.9997144252266316,169.05561758850345
6.025135616,0.9997548899334271,168.9044606427066
6.027420672,0.9998113554095217,168.7526199025132
6.029705728,0.9998801497299572,168.5999109889264
6.031990784,0.9999570466386614,168.4461422017941
6.03427584,1.0000370229564899,168.2912994858204
6.036560896,1.0001150744572198,168.13529518522068
6.038845952,1.0001863190371154,167.97827279644565
6.041131008,1.0002461879014342,167.82031482477748
6.043416064,1.0002910122535897,167.6615646559616
6.04570112,1.0003177477443204,167.50240490090263
6.047986176,1.000324673845581,167.3429996494027
6.050271232,1.0003115156906446,167.18364751415197
6.052556288,1.0002788897964698,167.0246235574021
6.054841344,1.0002290678792025,166.86629451051473
6.0571264,1.0001651178638882,166.70875886997226
6.059411456,1.0000907296022192,166.55228660378205
6.061696512,1.0000111146228972,166.39693744302107
6.063981568,0.9999309526988481,166.24281023345515
6.066266624,0.9998554359953227,166.08978472178575
6.06855168,0.9997894502715138,165.937875549164
6.070836736,0.9997370589457443,165.78684085789618
6.073121792,0.9997017049800199,165.6364525586308
6.075406848,0.9996853925056862,165.48645818053785
6.077691904,0.9996895329673581,165.33662507379202
6.07997696,0.9997136227988297,165.18661136183806
6.082262016,0.9997561732957493,165.03610128879583
6.084547072,0.999814770623149,164.8849346657087
6.086832128,0.9998854219434172,164.73280791396104
6.089117184,0.999963627536342,164.57967371090916
6.09140224,1.0000447465016824,164.42537323381083
6.093687296,1.0001235125049315,164.2699666000701
6.095972352,1.0001948125769213,164.11349016803777
6.098257408,1.0002542538243395,163.95606711526213
6.100542464,1.0002980319141117,163.7979541047516
6.10282752,1.0003231520199563,163.63934673843167
6.105112576,1.00032846228151,163.48054356215775
6.107397632,1.0003132746876118,163.32184950546102
6.1096832,1.0002785696667413,163.1635366023981
6.111968256,1.000226593221087,163.0058756800353
6.114253312,1.000160525115628,162.8491065231226
6.116538368,1.0000846126296299,162.69339259111194
6.118823424,1.0000036094414642,162.53883643397387
6.12110848,0.9999226735041485,162.38550119124764
6.123393536,0.9998469415989997,162.23330959054857
6.125678592,0.9997811231765176,162.082188262961
6.127963648,0.999729475837715,161.93193936362087
6.130248704,0.9996953141406262,161.7823634353953
6.13253376,0.9996807157612855,161.63316850613535
6.134818816,0.999686757110035,161.48405075642847
6.137103872,0.9997130523924382,161.33471908829048
6.139388928,0.999757784317295,161.1849308111146
6.141673984,0.9998184338948282,161.034398621745
6.14395904,0.9998908931200061,160.88293855229222
6.146244096,0.9999706970659321,160.73038713312977
6.148529152,1.0000528708954202,160.57665600779714
6.150814208,1.0001321307004571,160.42180838069564
6.153099264,1.0002034079494562,160.26592869805395
6.15538432,1.00026231078794,160.10906889923038
6.157669376,1.0003049527186774,159.95151594536395
6.159954432,1.0003288242138808,159.79353889694517
6.162239488,1.0003320138853646,159.6353734222015
6.164524544,1.0003147519029127,159.47732817190317
6.1668096,1.0002780318935018,159.3196932733783
6.169094656,1.0002238438606192,159.1627642526331
6.171379712,1.0001556555503912,159.00673279014427
6.173664768,1.0000782267081711,158.8517948725887
6.175949824,0.9999958357102299,158.6980645230829
6.17823488,0.999914097848572,158.54551661900655
6.180519936,0.9998380930848104,158.39415214071187
6.182804992,0.9997726018980266,158.2438524415492
6.185090048,0.9997217989795409,158.09443567446394
6.187375104,0.9996890681966132,157.9456571920947
6.18966016,0.9996761843386326,157.79722637094343
6.191945216,0.9996842399305473,157.64888428680422
6.194230272,0.9997126624312104,157.50030612971605
6.196515328,0.9997597283567987,157.35118227789374
6.198800384,0.9998223905187198,157.20130230716242
6.20108544,0.9998967218760515,157.05045586599695
6.203370496,0.9999779927815838,156.89851741440395
6.205655552,1.0000611413230804,156.74541484697102
6.207940608,1.0001409915270467,156.5911330149297
6.210225664,1.000212195343383,156.43579625075554
6.21251072,1.0002703830751225,156.279556215518
6.214795776,1.000311962144104,156.12258398044946
6.217080832,1.0003342109647737,155.96523390627735
6.219365888,1.0003356584964909,155.80769035492781
6.221650944,1.0003161094233928,155.65030187579285
6.223936,1.0002770424796574,155.4933873538566
6.226221056,1.0002206969664953,155.33721318814113
6.228506112,1.0001506115935621,155.18190440964395
6.230791168,1.0000713567227544,155.02775781448565
6.233076224,0.9999877592120291,154.8748420677233
6.23536128,0.9999051370109545,154.72315186393513
6.237646336,0.9998290810988105,154.5726207045472
6.239931392,0.9997639850581566,154.4231484583524
6.242216448,0.9997140684481776,154.27455829670754
6.244501504,0.9996826870679442,154.12659394910622
6.24678656,0.9996717129579419,153.97893161806456
6.249071616,0.9996817705360547,153.83135451591906
6.251356672,0.9997124996141933,153.68349523761427
6.253641728,0.9997617308532128,153.53508725060726
6.255926784,0.9998265577949181,153.38586126539877
6.25821184,0.9999027858351389,153.23563775940224
6.260496896,0.9999855666798151,153.08431243673272
6.262781952,1.0000697620989536,152.93180544710617
6.265067008,1.0001498336546975,152.7781175285241
6.267352064,1.0002210409976777,152.6233657079009
6.26963712,1.000278625245542,152.46770059688296
6.271922176,1.000318894762164,152.3113411687368
6.274207232,1.0003394635826603,152.15456980113893
6.276492288,1.0003389684338662,151.9977039352198
6.278777344,1.000317185841093,151.84097496368568
6.2810624,1.0002758406676693,151.68477651561574
6.283347456,1.0002172628798258,151.52929540057343
6.285632512,1.0001451397573367,151.37483748630004
6.287917568,1.00006429322058,151.22146616657045
6.290202624,0.9999794779342654,151.06938078054333
6.29248768,0.9998962716882478,150.91849843976925
6.294772736,0.9998198781290548,150.76884259737335
6.297057792,0.999755281877399,150.62022510396585
6.299342848,0.9997063940659725,150.47246201333655
6.301627904,0.9996763598523625,150.32528650917874
6.30391296,0.9996672856667697,150.1784667415738
6.306198016,0.9996796079639075,150.03162083403416
6.308483072,0.9997125813983883,149.88451121689818
6.310768128,0.9997642107784682,149.73675584294415
6.313053184,0.9998311151815086,149.58822168374954
6.31533824,0.9999091569422708,149.4386481635538
6.317623296,0.9999934107617532,149.2879266023865
6.319908352,1.0000785554710714,149.13599873300078
6.322193408,1.0001591171088755,148.98290493022384
6.324478976,1.0002300116121872,148.82872378993775
6.326764032,1.000286823058594,148.67365034187367
6.329049088,1.0003258958865142,148.51788063735074
6.331334144,1.0003446526960582,148.36175192289238
6.3336192,1.0003419557775117,148.20551255249882
6.335904256,1.0003180679481596,148.04952223276226
6.338189312,1.000274222126791,147.8940331324966
6.340474368,1.0002134010417199,147.73932697848565
6.342759424,1.000139337328843,147.58562774630624
6.34504448,1.0000567204760196,147.43308497724584
6.347329536,0.9999707566873942,147.2817900726548
6.349614592,0.9998869212042379,147.13178725557896
6.351899648,0.9998104697587757,146.98297360218734
6.354184704,0.9997463728565861,146.83520114080855
6.35646976,0.999698514619321,146.68826645997967
6.358754816,0.9996702342887969,146.54191353766544
6.361039872,0.9996629832515092,146.3958760911496
6.363324928,0.9996776508809874,146.24981187252212
6.365609984,0.9997129394535561,146.10338724226244
6.36789504,0.9997668735850667,145.95636709967502
6.370180096,0.9998360223993055,145.80847758231323
6.372465152,0.9999159092634722,145.65955305188
6.374750208,1.0000015794918915,145.50941351939133
6.377035264,1.0000875922936292,145.358075461506
6.37932032,1.0001685992465996,145.20556822711518
6.381605376,1.000239248406474,145.0519594967257
6.383890432,1.0002952988419094,144.89747140713143
6.386175488,1.000332808943767,144.7423370952565
6.388460544,1.0003498115470797,144.58684836415898
6.3907456,1.0003449767000916,144.43126951661193
6.393030656,1.0003186306506884,144.2759385241878
6.395315712,1.0002724978428763,144.12118259397903
6.397600768,1.0002094454553987,143.96724101361391
6.399885824,1.0001333488160058,143.81431876037823
6.40217088,1.0000489970471413,143.6626126053962
6.404455936,0.9999618903415896,143.51218413662903
6.406740992,0.999877429175185,143.36301367361852
6.409026048,0.9998009229699006,143.21506362975626
6.411311104,0.9997374303676836,143.068126007911
6.41359616,0.9996907929870931,142.9220569417622
6.415881216,0.9996641003643618,142.77653066801938
6.418166272,0.999658994340583,142.63125178257178
6.420451328,0.9996758799476999,142.48593796289165
6.422736384,0.9997136368642243,142.34026763790916
6.42502144,0.9997699693895666,142.19393732623718
6.427306496,0.9998411819813522,142.04671590564516
6.429591552,0.9999229561730704,141.89839670708776
6.431876608,1.0000100854548364,141.74887659071152
6.434161664,1.0000970381342837,141.59815129477667
6.43644672,1.0001782565464303,141.44619879241984
6.438731776,1.000248614209692,141.29317065584655
6.441016832,1.0003035400355065,141.13927712948563
6.443301888,1.0003397780956576,140.98477074052835
6.445586944,1.000354774275458,140.82987077871678
6.447872,1.0003478723571193,140.67496090080044
6.450157056,1.0003190737196053,140.5203305437865
6.452442112,1.0002704775145217,140.36629155951445
6.454727168,1.0002050238126665,140.21311130072544
6.457012224,1.0001267566787775,140.06101203046325
6.45929728,1.0000409697648378,139.9101202091696
6.461582336,0.9999526436381568,139.76051129396575
6.463867392,0.9998676866503341,139.61221102259603
6.466152448,0.999791328386861,139.46509423636482
6.468437504,0.9997284020458982,139.31904064078785
6.47072256,0.9996831079788983,139.17378286155534
6.473007616,0.9996580879457837,139.02908900386697
6.475292672,0.9996550760799969,138.8846403280232
6.477577728,0.9996742944076619,138.74007653730877
6.479862784,0.9997146283402567,138.59510789683605
6.48214784,0.9997733031711128,138.44946212430943
6.484432896,0.9998468654046407,138.30289687847838
6.486717952,0.999930592032628,138.155205933468
6.489003008,1.0000189302537026,138.00629181083073
6.491288064,1.0001067381012418,137.85611549962127
6.49357312,1.0001881319387367,137.70474809008158
6.495858176,1.000258070869011,137.55232490271263
6.498143232,1.0003120197978328,137.39901058684185
6.500428288,1.0003466246479649,137.24507284073132
6.502713344,1.0003596910113852,137.09082292308779
6.5049984,1.0003503710109534,136.93659448671502
6.507283456,1.0003192486769164,136.7826793337813
6.509568512,1.0002680343546044,136.62937259141773
6.511853568,1.000200270858486,136.47695087242906
6.514138624,1.000120009907846,136.32561993055913
6.51642368,1.0000324349510432,136.17555779863784
6.518708736,0.9999431670543019,136.02682937174148
6.520993792,0.9998575704443863,135.8793703579734
6.523278848,0.9997814437320652,135.73311934005412
6.525563904,0.9997192719862578,135.58791034771298
6.52784896,0.9996752659217722,135.4435051928703
6.530134016,0.9996521589968609,135.29963467036794
6.532419072,0.9996512955024741,135.15593951239163
6.534704128,0.9996731143541442,135.01213610598376
6.536989184,0.9997159146860665,134.8679070211827
6.53927424,0.9997770408436942,134.7229336613325
6.541559808,0.99985278577575,134.57699699948498
6.543844864,0.9999381667117825,134.42993076580336
6.54612992,1.000028098012539,134.28160198027368
6.548414976,1.0001165997947927,134.1320067124038
6.550700032,1.0001982606228785,133.98121525705994
6.552985088,1.0002675887084065,133.82936930849948
6.555270144,1.0003205721580197,133.6766380348181
6.5575552,1.000353420503957,133.52328253660136
6.559840256,1.00036446600714,133.369688136907
6.562125312,1.000352761618979,133.2160979601386
6.564410368,1.0003190117366627,133.0628785981572
6.566695424,1.0002652667588046,132.91029381444616
6.56898048,1.0001950880946624,132.75867024817518
6.571265536,1.000112992776006,132.60815808244138
6.573550592,1.0000237306633242,132.45890138485638
6.575835648,0.9999333208445556,132.31101201875117
6.578120704,0.999847336803007,132.1644156953259
6.58040576,0.9997714198269001,132.0190294703952
6.582690816,0.9997101057762039,131.87466611555757
6.584975872,0.999667577717305,131.73110580057343
6.587260928,0.9996464412630118,131.58802142757426
6.589545984,0.9996479274230787,131.44512337131798
6.59183104,0.9996722182004534,131.30208715229574
6.594116096,0.9997174732404583,131.15852475675132
6.596401152,0.9997812154033664,131.01424537796044
6.598686208,0.9998591362938555,130.86892808965806
6.600971264,0.9999464444935697,130.722470100497
6.60325632,1.0000377223398085,130.57474364014078
6.605541376,1.000126956881703,130.42572878550604
6.607826432,1.0002085473942512,130.2754717441497
6.610111488,1.0002772832124578,130.12417467776322
6.612396544,1.000329038444083,129.97202267594878
6.6146816,1.000360332812442,129.81930348049127
6.616966656,1.0003690354865493,129.66632460608736
6.619251712,1.0003548656200119,129.5133905494847
6.621536768,1.0003184249807233,129.36084976090825
6.623821824,1.0002621796582383,129.20901382269395
6.62610688,1.0001897669537825,129.0581256236144
6.628391936,1.0001053196323135,128.90843616541022
6.630676992,1.0000145864599297,128.7600394978574
6.632962048,0.9999232081890456,128.61295001393114
6.635247104,0.9998369041290981,128.46725166469662
6.63753216,0.9997611726080695,128.3226972236634
6.639817216,0.9997009018734851,128.17919377101492
6.642102272,0.9996598168430912,128.036448171467
6.644387328,0.9996407066150619,127.89417443470356
6.646672384,0.9996446243446375,127.75205072399211
6.64895744,0.9996713856218243,127.60972668629051
6.651242496,0.9997193254347354,127.46689383831057
6.653527552,0.999785618869726,127.32325296865757
6.655812608,0.9998658815811216,127.1785906419071
6.658097664,0.9999551131044268,127.03269795023225
6.66038272,1.0000474229198675,126.88553120765903
6.662667776,1.0001372988758428,126.73706585306138
6.664952832,1.0002189390319016,126.58738864602304
6.667237888,1.000287184851674,126.43665677695003
6.669522944,1.0003375358161375,126.28505460087933
6.671808,1.000366957439474,126.13293333318764
6.674093056,1.0003735384239787,125.98056744646694
6.676378112,1.00035679193433,125.8283122895322
6.678663168,1.0003176167495853,125.67646318972436
6.680948224,1.000258844501402,125.52535225033107
6.68323328,1.0001837402436626,125.37524724635688
6.685518336,1.0000975362929643,125.22634490761588
6.687803392,1.0000050756401013,125.0787510201578
6.690088448,0.9999127655645942,124.93256103931625
6.692373504,0.999826170310113,124.78767430513861
6.69465856,0.9997508547502315,124.6439858121015
6.696943616,0.9996915750145596,124.501318572614
6.699228672,0.9996521569325278,124.35939937702976
6.701513728,0.9996351656401371,124.21793788721659
6.703798784,0.9996414879026542,124.07655960068996
6.70608384,0.9996710068012801,123.93496468594495
6.708368896,0.999721722268982,123.7928042358159
6.710653952,0.9997904711111164,123.6498324928022
6.712939008,0.9998729616861518,123.50578096577844
6.715224064,0.9999639832670764,123.3604685083781
6.71750912,1.0000575932506333,123.21386222557604
6.719794176,1.0001480519693589,123.06594290616552
6.722079232,1.0002296194259321,122.91678164312626
6.724364288,1.0002970325743237,122.76659037409262
6.726649344,1.0003461009188785,122.61556940737697
6.7289344,1.0003734793383814,122.46403391301793
6.731219456,1.0003776310025358,122.31226157316802
6.733504512,1.0003583124346398,122.16065804181548
6.735789568,1.0003165877180606,122.00951086536021
6.738074624,1.000254925440919,121.8591327942417
6.74035968,1.0001775468839071,121.70979823492831
6.742644736,1.0000891834468268,121.56166041459876
6.744929792,0.9999953133248515,121.41492849424505
6.747214848,0.9999020075558519,121.26954539445765
6.749499904,0.9998152592399303,121.1255085930673
6.75178496,0.9997403779027498,120.98268723645093
6.754070016,0.9996822711853725,120.84087254103238
6.756355072,0.9996445629237979,120.69976431881038
6.75864064,0.9996297516835606,120.55908436229052
6.760925696,0.9996386969950432,120.41843829630483
6.763210752,0.9996708602314043,120.27755251946157
6.765495808,0.9997243290529294,120.13607408490383
6.767780864,0.9997956915279331,119.9937263828611
6.77006592,0.9998805061822915,119.85024679727042
6.772350976,0.9999732164753701,119.70553610932171
6.774636032,1.000067990443927,119.55947601042075
6.776921088,1.000159117056666,119.412072965312
6.779206144,1.000240428944684,119.2634718682483
6.7814912,1.0003070363685616,119.11380741155875
6.783776256,1.0003544689556805,118.9633063945185
6.786061312,1.0003799476486586,118.81236607970939
6.788346368,1.0003816827280025,118.6612085683056
6.790631424,1.0003596305454132,118.51023617969643
6.79291648,1.000314976974441,118.35977404365771
6.795201536,1.0002507894037953,118.21013881461215
6.797486592,1.000170964347806,118.06154855035737
6.799771648,1.0000804743132468,117.91421315215266
6.802056704,0.999985120735242,117.76830794809737
6.80434176,0.9998911520498314,117.62375466238639
6.806626816,0.9998040674423878,117.48055728318421
6.808911872,0.9997298011341623,117.33858512111537
6.811196928,0.9996729008782286,117.19758334210754
6.813481984,0.9996371193294242,117.05729539981827
6.81576704,0.9996245893802796,116.91735428624804
6.818052096,0.9996361661399705,116.77746928650164
6.820337152,0.9996711007584884,116.63727543075642
6.822622208,0.9997274404872227,116.49645315671866
6.824907264,0.9998014069140657,116.35471820135615
6.82719232,0.9998884403995819,116.21183442825296
6.829477376,0.9999828905467891,116.06765584377999
6.831762432,1.0000789282843614,115.92213394431938
6.834047488,1.0001704667668672,115.775224255212
6.836332544,1.0002515116828112,115.62714904346636
6.8386176,1.0003170877066485,115.4779920756992
6.840902656,1.0003630897354316,115.32806872686608
6.843187712,1.0003864181015367,115.17766875111336
6.845472768,1.0003854878389697,115.02711896779554
6.847757824,1.0003605487589404,114.87679267713838
6.85004288,1.0003131600324635,114.72700632785642
6.852327936,1.0002462873916318,114.57808033834715
6.854612992,1.0001639654290007,114.43026461953474
6.856898048,1.0000715302177507,114.28371694036422
6.859183104,0.99997457538239,114.13860977714934
6.86146816,0.9998798372655329,113.99490032913671
6.863753216,0.999792748912428,113.8525232065223
6.866038272,0.9997191836018898,113.7113699013616
6.868323328,0.9996635461988715,113.5711822947236
6.870608384,0.9996296362805454,113.4316872833833
6.87289344,0.9996195024103486,113.29252984891352
6.875178496,0.9996338376545997,113.15335734775117
6.877463552,0.9996717697768408,113.01385155963179
6.879748608,0.999730891059959,112.87367114116613
6.882033664,0.9998075568712466,112.73250837377013
6.88431872,0.9998967449885032,112.59022096642717
6.886603776,0.9999929517141531,112.44655765734404
6.888888832,1.000090195865794,112.30153296467849
6.891173888,1.000181996962182,112.1551511062272
6.893458944,1.0002627484327737,112.0075634556522
6.895744,1.0003272161468857,111.85891059191677
6.898029056,1.0003714972165345,111.70952485933427
6.900314112,1.0003924857827382,111.55966527800356
6.902599168,1.000389060503884,111.40971741167957
6.904884224,1.0003613432354552,111.26001482750962
6.90716928,1.0003110650789342,111.11089268433538
6.909454336,1.0002411815153005,110.96267919476499
6.911739392,1.0001564223091424,110.81560614178458
6.914024448,1.0000619967918023,110.66984229938295
6.916309504,0.999963821227255,110.5255457026295
6.91859456,0.9998682041748121,110.38267775257832
6.920879616,0.9997811767198858,110.24112944143634
6.923164672,0.9997082764694243,110.10080410366261
