freq,mag,phase
6.0,0.9996074081450927,2.1278915600966535
6.010840064,0.9997795813879767,1.8004643747099016
6.021680128,0.9999616366646107,1.4706790840807473
6.032520192,1.000145347496368,1.138499745589369
6.043360256,1.0003215090296091,0.80393315101389
6.05420032,1.0004816056143433,0.4671883266466237
6.065040896,1.0006176347803657,0.1284574708822496
6.07588096,1.0007226905442583,-0.21182133530481767
6.086721024,1.0007917297975673,-0.5533430383463688
6.097561088,1.0008209247186375,-0.8955067946920318
6.108401152,1.0008092273456903,-1.2378697394320095
6.119241216,1.0007569972800254,-1.579850398362345
6.13008128,1.0006666880589705,-1.921003506772695
6.140921344,1.0005429250532711,-2.260852000995634
6.151761408,1.0003915490479613,-2.5989738971066183
6.162601472,1.0002200949819875,-2.935098840901016
6.173441536,1.000037150093457,-3.2690381585688235
6.1842816,0.9998518428518759,-3.6006112061447118
6.195122176,0.9996730772072934,-3.929945779921402
6.20596224,0.9995098948878904,-4.257129822386847
6.216802304,0.9993704107754852,-4.582403478674747
6.227642368,0.9992617019090222,-4.906154940897796
6.238482432,0.9991890477719153,-5.228737503218742
6.249322496,0.999156076318964,-5.550745078150319
6.26016256,0.9991645854326852,-5.872615455736044
6.271002624,0.9992140184674441,-6.194934720183718
6.281842688,0.9993021921214035,-6.518197156942746
6.292682752,0.9994247402422536,-6.842821334801082
6.303522816,0.9995755191387679,-7.169272797565258
6.314363392,0.9997471050654657,-7.497854138695273
6.325203456,0.9999310680947093,-7.828780073588831
6.33604352,1.0001181079448245,-8.162107234120386
6.346883584,1.0002991445984784,-8.497931416792625
6.357723648,1.000465159321978,-8.835944666266165
6.368563712,1.0006078913136898,-9.176057460826417
6.379403776,1.0007201692605088,-9.51783373097046
6.39024384,1.0007965195249098,-9.860929902867243
6.401083904,1.0008329711143724,-10.204784780366484
6.411923968,1.0008278448942296,-10.54887697304148
6.422764032,1.0007812956735587,-10.892741428628296
6.433604096,1.0006954820173954,-11.23579640759955
6.444444672,1.0005747397895897,-11.577626065107067
6.455284736,1.000424821647253,-11.917762557566553
6.4661248,1.0002532581117403,-12.255881242681687
6.476964864,1.0000685891536898,-12.591815471603908
6.487804928,0.9998797494689212,-12.925380266388053
6.498644992,0.9996962114683066,-13.256616331639748
6.509485056,0.9995271076204848,-13.585640720553316
6.52032512,0.9993807782975448,-13.912689882867976
6.531165184,0.9992646533614897,-14.238136189299942
6.542005248,0.9991843576993498,-14.562345058619494
6.552845312,0.9991438868437021,-14.88583618597209
6.563685888,0.9991457470695702,-15.20913024426273
6.574525952,0.9991893061508546,-15.53275539703214
6.585366016,0.999272918318571,-15.85726754013866
6.59620608,0.9993922200583985,-16.183145281367953
6.607046144,0.9995412744959246,-16.51080645067172
6.617886208,0.9997130765753401,-16.840558724768698
6.628726272,0.9998988464356571,-17.17265431904788
6.639566336,1.0000893744965311,-17.507270199807593
6.6504064,1.000275155821358,-17.84432842574549
6.661246464,1.0004472349354376,-18.18376623804863
6.672086528,1.0005969764894855,-18.525280619808925
6.682926592,1.0007167309523861,-18.868640721671753
6.693767168,1.0008008892876155,-19.213345913720538
6.704607232,1.000844917500766,-19.558928660637626
6.715447296,1.0008468681578069,-19.904908592146718
6.72628736,1.0008062483663802,-20.250702277604812
6.737127424,1.0007253160383054,-20.59576803076692
6.747967488,1.000607965114674,-20.939631132512346
6.758807552,1.0004597752238211,-21.281873086171778
6.769647616,1.0002883015052504,-21.62208227797776
6.78048768,1.0001018227196787,-21.960118906463634
6.791327744,0.9999095774639789,-22.29576665709498
6.802167808,0.9997210607349607,-22.62902100634971
6.813008384,0.9995457370494321,-22.960026446173124
6.823848448,0.9993923122284097,-23.288934929439588
6.834688512,0.9992684244042402,-23.616139044801237
6.845528576,0.9991803127792935,-23.942038735168556
6.85636864,0.9991322112743131,-24.26711571958752
6.867208704,0.9991267037723819,-24.591902235246867
6.878048768,0.9991641267426373,-24.916923021524568
6.888888832,0.9992425484294069,-25.242776876295505
6.899728896,0.9993583790116559,-25.569923788199606
6.91056896,0.9995056346242479,-25.89882790597998
6.921409024,0.9996773938094385,-26.2298291153093
6.932249088,0.9998646826627289,-26.56318459233436
6.943089664,1.0000586597796797,-26.899082495748026
6.953929728,1.000249586686921,-27.23747938627263
6.964769792,1.0004279414957031,-27.57830411085164
6.975609856,1.0005848214089492,-27.921379251689718
6.98644992,1.000712501301681,-28.266327671427625
6.997289984,1.000804756453405,-28.6127515016326
7.008130048,1.0008568050577542,-28.960154679368838
7.018970112,1.0008660523720265,-29.308035810186613
7.029810176,1.0008320493690783,-29.655818401146195
7.04065024,1.00075623387657,-30.002995760179413
7.051490304,1.0006425470959222,-30.348981318913594
7.062330368,1.0004964399288319,-30.693386375204437
7.073170944,1.0003250130275614,-31.03587472485444
7.084011008,1.0001368520284546,-31.37606260803963
7.094851072,0.9999412546468388,-31.71388805671332
7.105691136,0.9997477018031834,-32.04928851497463
7.1165312,0.9995662553346925,-32.382332055218136
7.127371264,0.9994053568593441,-32.71323536725153
7.138211328,0.999273306652593,-33.04230226325276
7.149051392,0.9991768321040589,-33.36997580710904
7.159891456,0.9991205460794472,-33.696671367484385
7.17073152,0.999107409626881,-34.02307101678081
7.181571584,0.9991382098937518,-34.34958051340337
7.19241216,0.9992113118171857,-34.676786197084084
7.203252224,0.9993231440683443,-35.005288577339186
7.214092288,0.999468469687769,-35.33550217221034
7.224932352,0.9996397660830684,-35.66779796123009
7.235772416,0.9998288302594818,-36.00244388171614
7.24661248,1.0000261418027256,-36.33968181770051
7.257452544,1.0002221270574547,-36.67947976719244
7.268292608,1.0004068123005352,-37.02178929995711
7.279132672,1.0005713032371364,-37.36639967597034
7.289972736,1.0007073717885318,-37.71302397885635
7.3008128,1.0008079755857078,-38.06121207709545
7.311652864,1.0008683539650503,-38.41051673336696
7.32249344,1.0008855648517645,-38.7603748472937
7.333333504,1.0008583449998998,-39.11023934528057
7.344173568,1.00078825333697,-39.45957968620948
7.355013632,1.0006785956844713,-39.80781270494097
7.365853696,1.0005348057956334,-40.1545384901273
7.37669376,1.000363815740782,-40.49929829938124
7.387533824,1.0001739966972656,-40.84183064872789
7.398373888,0.9999749362514546,-41.18191760472429
7.409213952,0.9997764862965599,-41.519510097049995
7.420054016,0.999588305047106,-41.85472847311221
7.43089408,0.9994198762082757,-42.187650105701
7.441734656,0.9992795461520096,-42.51872118774766
7.45257472,0.9991742172277481,-42.84822585251522
7.463414784,0.9991094009867308,-43.17673143517586
7.474254848,0.999088108302319,-43.50469244151913
7.485094912,0.9991117381018169,-43.832762787286676
7.495934976,0.9991790388359602,-44.16147105818078
7.50677504,0.999286659486386,-44.49135327565071
7.517615104,0.99942941016559,-44.82290805684444
7.528455168,0.99960032627833,-45.15654175322456
7.539295232,0.9997908325563,-45.49256429503203
7.550135296,0.9999916201059077,-45.831186633102206
7.56097536,1.0001926444398481,-46.17242573638194
7.571815936,1.0003841371138091,-46.516237509216
7.582656,1.0005562518347135,-46.862476196566
7.593496064,1.0007007735034719,-47.21082573091006
7.604336128,1.000810389961967,-47.5608518926545
7.615176192,1.0008798119455564,-47.91210356090471
7.626016256,1.0009051722387745,-48.26402869085207
7.63685632,1.0008854359683226,-48.61607739279981
7.647696384,1.0008213608810779,-48.96767644301498
7.658536448,1.0007162592566616,-49.318268297251116
7.669376512,1.0005749317793726,-49.66735237180215
7.680216576,1.0004046602391539,-50.01452818140013
7.691057152,1.0002135742840457,-50.3594150890691
7.701897216,1.0000112160315873,-50.70189274764569
7.71273728,0.9998075596848782,-51.0418361516319
7.723577344,0.9996125690353002,-51.37930025485096
7.734417408,0.9994363897099711,-51.71438103687664
7.745257472,0.9992870608280293,-52.04750216035525
7.756097536,0.9991726306857583,-52.37898280708529
7.7669376,0.9990986536362345,-52.709278775600424
7.777777664,0.999068856391858,-53.03896967047569
7.788617728,0.9990846940439894,-53.36868067375732
7.799457792,0.9991455333579398,-53.698906335228834
7.810297856,0.9992485572847503,-54.0302492246746
7.821138432,0.9993885356061414,-54.363235115174795
7.831978496,0.9995587381070976,-54.698234268255405
7.84281856,0.9997505940801136,-55.03562879252849
7.853658624,0.999954608812923,-55.37569837785312
7.864498688,1.0001608428862314,-55.718419936678806
7.875338752,1.000359090331396,-56.063807167174026
7.886178816,1.0005393010040342,-56.4116972593079
7.89701888,1.0006929404369804,-56.76177312380088
7.907858944,1.000812048991684,-57.11372447027369
7.918699008,1.0008906892350458,-57.466996140480894
7.929539072,1.0009248566338018,-57.82106841060021
7.940379648,1.0009130196617384,-58.17535941157692
7.951219712,1.0008556674678577,-58.529265756118626
7.962059776,1.0007552082414255,-58.88231880804062
7.97289984,1.0006170650166082,-59.233842367060824
7.983739904,1.0004476869301377,-59.583501164009114
7.994579968,1.000255466057201,-59.930940529053416
8.005420032,1.000049668034515,-60.27590346146724
8.016260096,0.999840811668976,-60.61827296788001
8.02710016,0.9996390129508009,-60.9580521315176
8.037940224,0.9994544157172269,-61.295440848379336
8.048780288,0.999296133929568,-61.63069341415897
8.059620352,0.9991719527032485,-61.96419956342442
8.070460928,0.9990884194561104,-62.296425786703985
8.081300992,0.9990493389271318,-62.62791013905005
8.092141056,0.9990569779758682,-62.95930099164927
8.10298112,0.9991110930649487,-63.291111710413766
8.113821184,0.9992088756164744,-63.623938811017844
8.124661248,0.9993455439361771,-63.95839400544477
8.135501312,0.999514540433256,-64.2948567181421
8.146341376,0.9997075744214897,-64.63369728046507
8.15718144,0.9999149855638917,-64.97521075224314
8.168021504,1.0001264573671795,-65.31944404861655
8.178861568,1.0003316822990345,-65.66642818698054
8.189702144,1.0005204114252009,-66.0160363371977
8.200542208,1.0006832244115078,-66.36797401562526
8.211382272,1.0008122192053817,-66.72182885830381
8.222222336,1.0009007165080614,-67.07717738004564
8.2330624,1.0009445732654259,-67.43345343042567
8.243902464,1.0009412463429606,-67.79004507885273
8.254742528,1.0008909910430095,-68.14641871715862
8.265582592,1.0007960247595467,-68.50196176638843
8.276422656,1.0006613032732796,-68.85608463432858
8.28726272,1.0004932833892903,-69.20831781013742
8.298102784,1.000299865435077,-69.55837732602029
8.308942848,1.0000911162752404,-69.90592614743925
8.319783424,0.9998769275876459,-70.250829342107
8.330623488,0.9996681485118408,-70.59305033618512
8.341463552,0.9994749138348177,-70.93281059567794
8.352303616,0.9993070489897194,-71.27033310733678
8.36314368,0.9991727641028111,-71.60594969545136
8.373983744,0.9990788689652992,-71.94016446447877
8.384823808,0.9990299978339772,-72.27354177591525
8.395663872,0.9990287638647635,-72.60665301390216
8.406503936,0.9990754835601445,-72.94013219566756
8.417344,0.9991675371240135,-73.27454676310695
8.428184064,0.9993005622804682,-73.61047837336876
8.43902464,0.9994681882225593,-73.94841994590637
8.449864704,0.9996619721238097,-74.28873278800447
8.460704768,0.9998725815303179,-74.63172505656367
8.471544832,1.000089355301977,-74.97753063823075
8.482384896,1.0003017517358694,-75.32617925012758
8.49322496,1.0004992470854928,-75.67750977321015
8.504065024,1.0006719216861577,-76.03129401746861
8.514905088,1.0008112865612726,-76.38716103896274
8.525745152,1.0009103017562822,-76.74465922623286
8.536585216,1.0009641085414003,-77.1031956178255
8.54742528,1.0009700626839282,-77.46217476040607
8.558265344,1.0009276368642663,-77.82106728913654
8.56910592,1.0008386680341912,-78.1791641557123
8.579945984,1.0007079546458275,-78.53595945764854
8.590785536,1.0005413050742806,-78.8909319671551
8.6016256,1.0003473305991022,-79.24367810386134
8.612465664,1.0001354398657896,-79.5939111109916
8.623305728,0.9999158668228229,-79.94145327144783
8.634146816,0.9996998970781337,-80.28628135860272
8.64498688,0.9994978493488418,-80.62852174196674
8.655826944,0.9993199697260923,-80.96833356262506
8.666667008,0.9991749783360675,-81.30619015311463
8.677507072,0.9990701348056421,-81.6424968097034
8.688347136,0.9990110299221401,-81.97781118789557
8.6991872,0.9990002525345693,-82.31275589156063
8.710027264,0.9990386324617169,-82.64791348873993
8.720867328,0.9991244919120592,-82.98394522224407
8.731707392,0.9992533507000334,-83.32143670033189
8.742547456,0.9994191565540215,-83.66089871075964
8.75338752,0.9996135406271838,-84.00273099997736
8.764227584,0.9998271026186218,-84.34724745797362
8.775067648,1.000049298869313,-84.6946457787624
8.785907712,1.0002690296187349,-85.04493650115481
8.796747776,1.0004754509304603,-85.39805968333789
8.80758784,1.0006583587251374,-85.75374037319368
8.818427904,1.000808637464252,-86.11166116041348
8.829267968,1.0009189185126746,-86.47132045643119
8.840108032,1.0009836235547018,-86.83218190631312
8.850948096,1.000999309568203,-87.1936569504971
8.86178816,1.0009652772689448,-87.55512025143854
8.872628224,1.0008830812608722,-87.91588851062549
8.883469312,1.0007567933007238,-88.27544869515091
8.894309376,1.0005923588381498,-88.63322332958099
8.90514944,1.0003979066228685,-88.98881590404599
8.915989504,1.0001830525464244,-89.34183296690435
8.926829568,0.9999582876713164,-89.69213571079081
8.937669632,0.9997347601315927,-90.03963633234358
8.948509696,0.9995235466161125,-90.38441929290447
8.95934976,0.9993350884906675,-90.72672884325054
8.970189824,0.9991788835717763,-91.066857893821
8.981029888,0.9990625852267747,-91.4053503045831
8.991869952,0.998992191487379,-91.74266562285925
9.002710016,0.9989711872437034,-92.0794963226174
9.01355008,0.9990006660591665,-92.41644992066726
9.024390144,0.9990794796646575,-92.75413969308443
9.035230208,0.9992035687500768,-93.09323367493235
9.046070272,0.9993671097798924,-93.43421399703873
9.056910336,0.999561807156455,-93.77757378151487
9.0677504,0.9997782591094226,-94.12366630757569
9.078590464,1.0000056839960563,-94.47264791764451
9.089430528,1.0002329010129318,-94.82464990316642
9.100270592,1.0004486419650251,-95.17957077418163
9.111110656,1.0006424567744756,-95.53719348930414
9.12195072,1.000804309790917,-95.89716490889738
9.132791808,1.0009263207126657,-96.25907007885438
9.143631872,1.0010025480493525,-96.62234188523826
9.154471936,1.0010289898921905,-96.9863280320274
9.165312,1.0010041904788847,-97.3504460318419
9.176152064,1.0009294325827505,-97.71399001057804
9.186992128,1.0008081587258018,-98.0763808751114
9.197832192,1.0006462789058124,-98.43709001890453
9.208672256,1.0004518343926803,-98.79558767230557
9.21951232,1.0002342125766668,-99.15150864610901
9.230352384,1.0000041770493437,-99.5046687837546
9.241192448,0.9997730191081245,-99.85496826789796
9.252032512,0.9995523797989077,-100.20245326198813
9.262872576,0.9993529266454168,-100.54727512819798
9.27371264,0.9991847238723677,-100.88983961732907
9.284552704,0.9990561860392765,-101.23057260267753
9.295392768,0.9989737309933799,-101.57001018720763
9.306232832,0.9989416163786008,-101.90879177401335
9.317072896,0.9989615007598865,-102.24756576374467
9.32791296,0.9990324359629862,-102.58697477908585
9.338753024,0.9991511612699752,-102.92767276246256
9.349593088,0.9993117007936911,-103.2702290597916
9.360433152,0.999506376537253,-103.61516512467922
9.371273216,0.9997255359904382,-103.96278696739887
9.382114304,0.9999581854696564,-104.31342583491393
9.392954368,1.000193199879296,-104.66712294919598
9.403794432,1.0004186834267452,-105.02387034713101
9.414634496,1.000623488073206,-105.38345908992663
9.42547456,1.0007975957170008,-105.74556704951615
9.436314624,1.0009324518018907,-106.10971405410318
9.447154688,1.0010209747950132,-106.4753998369177
9.457994752,1.0010589147014448,-106.84198457587227
9.468834816,1.0010443183859097,-107.20883062197943
9.47967488,1.0009776877841208,-107.57522502111189
9.490514944,1.0008622046255689,-107.9405989614056
9.501355008,1.000703595217324,-108.304289209344
9.512195072,1.0005094153305063,-108.66583589029584
9.523035136,1.000289294374342,-109.02479051096844
9.5338752,1.000054021786707,-109.3809317144333
9.544715264,0.9998151770324037,-109.73414313091263
9.555555328,0.9995845906548874,-110.08439764219116
9.566395392,0.9993736457847987,-110.43188643898127
9.577235456,0.9991928151151369,-110.77697085119314
9.58807552,0.9990512969693705,-111.12003136898907
9.598915584,0.9989560118171762,-111.46164907261512
9.609755648,0.9989118511698578,-111.80244620940678
9.620595712,0.9989210778755019,-112.14307462722186
9.6314368,0.9989834924200828,-112.48424990293387
9.642276864,0.999095956028264,-112.82660641462563
9.653116928,0.9992530229299653,-113.17077507722348
9.663956992,0.9994471420094412,-113.51724255728048
9.674797056,0.9996685668293531,-113.86648823967033
9.68563712,0.9999065946121724,-114.21876346583136
9.696477184,1.000149351227292,-114.57418082708857
9.707317248,1.000384910477623,-114.93275089276034
9.718157312,1.000601657812406,-115.29432233734074
9.728997376,1.0007886983999275,-115.65854729191821
9.73983744,1.0009368510727652,-116.02501837895437
9.750677504,1.0010387312029276,-116.3931878245744
9.761517568,1.0010892147920665,-116.76242648322624
9.772357632,1.0010856091370228,-117.13207407358709
9.783197696,1.0010280518460197,-117.50141388980474
9.79403776,1.0009192715904545,-117.86981981659964
9.804877824,1.0007644407342373,-118.23662151137592
9.815717888,1.000571058546201,-118.60131033959433
9.826557952,1.0003487721431175,-118.96341480127805
9.837398016,1.0001083275232623,-119.32264472342081
9.84823808,0.9998615584419116,-119.6788638466724
9.859078144,0.9996207398478707,-120.03203571145758
9.869918208,0.9993977624461092,-120.38231246256639
9.880759296,0.9992036893360811,-120.72998317917923
9.89159936,0.9990482129021516,-121.07548316411606
9.902439424,0.9989390592945636,-121.41936618311448
9.913279488,0.9988818796202259,-121.76223369294058
9.924119552,0.9988795891360656,-122.10482366059225
9.934959616,0.998932395191418,-122.44778177599405
9.94579968,0.9990377210458962,-122.79183383158889
9.956639744,0.9991906781254236,-123.13760288378194
9.967479808,0.9993836801770171,-123.48567107215666
9.978319872,0.999607180911674,-123.83650191304284
9.989159936,0.9998503994801083,-124.19040111779395
10.0,1.0001011440277874,-124.54754786609307
10.010840064,1.000347138613561,-124.90797542212499
10.021680128,1.0005761733480796,-125.27150814603776
10.032520192,1.000776929802801,-125.6379079319004
10.043360256,1.0009394351000642,-126.00670885198886
10.05420032,1.0010557310431827,-126.37740982146508
10.065040384,1.0011196588505298,-126.74937652469957
10.075880448,1.001128175806074,-127.12189266563863
10.086720512,1.0010807269537607,-127.49425630337456
10.097560576,1.000979381703946,-127.8657730355506
10.10840064,1.0008291579039614,-128.23580121271064
10.119240704,1.0006372170667976,-128.60374054523953
10.130081792,1.0004129764574439,-128.96912049224304
10.140921856,1.0001674417669881,-129.33158691935444
10.15176192,0.9999127286623145,-129.69092550338507
10.162601984,0.9996612817247557,-130.04712851407146
10.173442048,0.9994256237078541,-130.40029610681998
10.184282112,0.9992174434017624,-130.75067131141074
10.195122176,0.9990470845025121,-131.0987123673492
10.20596224,0.9989230475250437,-131.44492134407355
10.216802304,0.9988517272115521,-131.789967685009
10.227642368,0.9988366864481502,-132.13451285754653
10.238482432,0.9988788789070674,-132.47930527806867
10.249322496,0.9989762704613351,-132.82506276208758
10.26016256,0.9991242383469506,-133.17249285044508
10.271002624,0.9993155126331762,-133.52214005163347
10.281842688,0.9995407959571367,-133.874551012064
10.292682752,0.9997889795162062,-134.23009005119843
10.303522816,1.0000478466374505,-134.58894093208522
10.31436288,1.0003046881190971,-134.95119894255507
10.325202944,1.0005467019532621,-135.31674917951497
