freq,mag,phase
6.0,1.00097404474795,-24.1438241314256
6.00926976,1.000828680393327,-24.492963258656278
6.018540032,1.0006391167189217,-24.839973993737857
6.027809792,1.0004159534069599,-25.184419740005094
6.037080064,1.0001709823543372,-25.52586311680807
6.046349824,0.9999167090935464,-25.86414315431565
6.055620096,0.9996666834814701,-26.199186730200147
6.064889856,0.9994336558660422,-26.53117990362571
6.074160128,0.9992298951409279,-26.86037879920057
6.083429888,0.9990658577446584,-27.187204964033867
6.092699648,0.9989504678949294,-27.512329582902073
6.10196992,0.9988893875716852,-27.836365040786426
6.11123968,0.9988862512636844,-28.160056322246394
6.120509952,0.9989409943340722,-28.48418652048208
6.129779712,0.9990509126850453,-28.80954204767516
6.139049984,0.9992103115287048,-29.1367187709619
6.148319744,0.9994109461583174,-29.466382555519687
6.157590016,0.9996423660421084,-29.79900161981181
6.166859776,0.9998924558076732,-30.134872936217644
6.176129536,1.0001485178622291,-30.47413181860799
6.185399808,1.0003968459635173,-30.81684081596938
6.194669568,1.000624941045551,-31.162790255100973
6.20393984,1.0008205587897672,-31.511585177328552
6.2132096,1.0009737183614837,-31.862827175420698
6.222479872,1.00107631838322,-32.21580134052679
6.231749632,1.0011234622001808,-32.56991179807706
6.241019904,1.0011118441591709,-32.92432694704481
6.250289664,1.0010427286192616,-33.27835297264491
6.259559424,1.0009193489657984,-33.63117032468985
6.268829696,1.0007479335577816,-33.982203049918226
6.278099456,1.000537487432403,-34.33082932888107
6.287369728,1.0002988797148886,-34.67659024181733
6.296639488,1.0000444251190386,-35.01922799266811
6.30590976,0.9997875701113681,-35.358625720925765
6.31517952,0.9995411572505138,-35.69481348958442
6.324449792,0.9993186846317349,-36.02797564077536
6.333719552,0.9991311641107502,-36.35855663876136
6.342989824,0.9989887547472657,-36.687077983146445
6.352259584,0.9988987627969756,-37.01413811550901
6.361529344,0.9988660516039639,-37.34051274313596
6.370799616,0.998892308549971,-37.666918681486365
6.380069376,0.9989762397135495,-37.99411301623071
6.389339648,0.9991134265022855,-38.32287476738147
6.398609408,0.9992968516907637,-38.65387698532085
6.40787968,0.9995171119804981,-38.98761745040824
6.41714944,0.9997625466106885,-39.32451895003114
6.426419712,1.0000206620548964,-39.66484191614723
6.435689472,1.0002777778230114,-40.00864158963006
6.444959232,1.000520771521233,-40.35586427400795
6.454229504,1.0007368168061905,-40.70617676412905
6.463499264,1.0009148673053485,-41.059183395506224
6.472769536,1.001045546229089,-41.414330994604626
6.482039296,1.0011219689625883,-41.77091856199297
6.491309568,1.0011401847932189,-42.128258276064805
6.500579328,1.0010991865318335,-42.48554895164892
6.5098496,1.0010012839168858,-42.84203759910503
6.51911936,1.0008510782188142,-43.197008464871274
6.52838912,1.000656603207768,-43.54982582056723
6.537659392,1.0004276129514589,-43.900024541051586
6.546929152,1.0001763123582146,-44.24712398673339
6.556199424,0.9999156273287374,-44.59097563998693
6.565469184,0.9996587590426339,-44.93154257054738
6.574739456,0.9994195852585288,-45.26890422105543
6.584009216,0.9992102314490933,-45.60345068439412
6.593279488,0.9990416936096407,-45.93558369100535
6.602549248,0.9989227882631168,-46.26593051406122
6.611819008,0.99885984937109,-46.59518401598703
6.62108928,0.9988562822214733,-46.92408105147548
6.63035904,0.9989120872644819,-47.253417952911285
6.639629312,0.9990245520695005,-47.58398404033804
6.648899072,0.9991877933683825,-47.91643175748072
6.658169344,0.9993935171282957,-48.251434224033424
6.667439104,0.9996308630823177,-48.58945757783359
6.676709376,0.9998876869057415,-48.93079430896489
6.685979136,1.000150549719177,-49.275691696944804
6.695248896,1.0004057864416134,-49.624080758329455
6.704519168,1.0006401816602506,-49.97580113712763
6.713788928,1.0008416942308394,-50.330456149587256
6.7230592,1.000999450070699,-50.68760687873845
6.73232896,1.001105819692036,-51.04660453907063
6.741599232,1.001154537750223,-51.40670508759003
6.750868992,1.0011435779299573,-51.767150797081804
6.760139264,1.0010732062370753,-52.12720980245369
6.769409024,1.0009471082307737,-52.48608255816027
6.778678784,1.0007717267837881,-52.84311181081441
6.787949056,1.0005558172683178,-53.197652278312
6.797218816,1.000311100221883,-53.54930967991815
6.806489088,1.0000498052954618,-53.89773409762086
6.815758848,0.9997855291799351,-54.242804900538246
6.82502912,0.9995321769811135,-54.58458897346382
6.83429888,0.9993030024818201,-54.92327298924969
6.843569152,0.9991095860193437,-55.25930901480591
6.852838912,0.998962364725721,-55.5932095665797
6.862108672,0.9988688600749231,-55.92556237767256
6.871378944,0.9988340935937359,-56.25721839476165
6.880648704,0.9988599770181659,-56.58891957141733
6.889918976,0.9989451789932109,-56.92141108669446
6.899188736,0.999085285952019,-57.25553363613264
6.908459008,0.999273020162469,-57.59184984976351
6.917728768,0.9994989462815446,-57.93102254328837
6.92699904,0.9997509769320083,-58.27345357959295
6.9362688,1.0000162521131373,-58.61937551433859
6.945539072,1.000280843886431,-58.96890637360911
6.954808832,1.0005310405532841,-59.32191547205179
6.964078592,1.0007541706590488,-59.67813918288666
6.973348864,1.000938289622812,-60.037134496425246
6.982618624,1.0010737914031316,-60.3983535586092
6.991888896,1.0011537281159222,-60.761057990841614
7.001158656,1.0011741524986182,-61.12455605469211
7.010428928,1.0011334910132181,-61.48805028646088
7.019698688,1.001033981233593,-61.85070351460342
7.02896896,1.0008807817902299,-62.21184985288717
7.03823872,1.0006816224791708,-62.5708159516467
7.04750848,1.0004468474665418,-62.92699377680511
7.056778752,1.0001886075628181,-63.28008449167299
7.066048512,0.9999203774348445,-63.629794822992324
7.075318784,0.9996557937419147,-63.97615955564758
7.084588544,0.9994087206047414,-64.31921656089213
7.093858816,0.9991923251298096,-64.65933520779346
7.103128576,0.9990173895931469,-64.9970024898643
7.112398848,0.9988935409347091,-65.33277169961482
7.121668608,0.9988270248559439,-65.66739357152306
7.130938368,0.9988214621231721,-66.00165344323636
7.14020864,0.9988770685016597,-66.33631810990002
7.1494784,0.9989911802998599,-66.6722085162101
7.158748672,0.9991576992921809,-67.01004718601267
7.168018432,0.9993683728746543,-67.35046803715397
7.177288704,0.9996119567343579,-67.69400525752292
7.186558464,0.9998758886187161,-68.04094533476265
7.195828736,1.0001467988128812,-68.39149713237548
7.205098496,1.0004101431615646,-68.74570982764642
7.214368256,1.0006525529624115,-69.10333005187097
7.223638528,1.0008613471026,-69.4640143647711
7.232908288,1.001025688794686,-69.82727760127614
7.24217856,1.0011370205076782,-70.19245697152643
7.25144832,1.0011896568305387,-70.55878885158536
7.260718592,1.0011804330036767,-70.9255236499397
7.269988352,1.0011101906959536,-71.29188256606707
7.279258624,1.0009821012084132,-71.65705394339103
7.288528384,1.0008030908196672,-72.02032083667514
7.297798144,1.000582154091169,-72.38105232413953
7.307068416,1.0003305944322596,-72.73884931329944
7.316338176,1.0000618250533133,-73.09330984978236
7.325608448,0.9997893078057377,-73.44431634665277
7.334878208,0.9995275300944203,-73.79196079002087
7.34414848,0.9992897758135624,-74.13639174674972
7.35341824,0.9990888358106446,-74.4780477132733
7.362688512,0.9989348378216619,-74.81745771255397
7.371958272,0.9988360631328155,-75.15529320337124
7.381228032,0.998797657210447,-75.49234580638661
7.390498304,0.9988218171611535,-75.82937828574744
7.399768064,0.9989070609385525,-76.16722485593672
7.409038336,0.9990492780833464,-76.50668715658654
7.418308096,0.9992409427933298,-76.84847296035372
7.427578368,0.9994723780839718,-77.19308777733329
7.436848128,0.9997314571712307,-77.54107969592576
7.4461184,1.0000047580409448,-77.89262822720758
7.45538816,1.0002781543434824,-78.24790058705494
7.46465792,1.0005373265943078,-78.60680189655785
7.473928192,1.000768979411057,-78.96898565634957
7.483197952,1.0009608978918891,-79.33408569070932
7.492468224,1.0011032676258873,-79.70148299021402
7.501737984,1.0011887007841584,-80.07050060645267
7.511008256,1.001212607932692,-80.44034051100593
7.520278016,1.0011737432716485,-80.81020017651588
7.529548288,1.00107387754009,-81.17922821035744
7.538818048,1.0009182382726773,-81.54675560429823
7.54808832,1.000714927051673,-81.91203238348695
7.55735808,1.0004741107526125,-82.27447069537051
7.56662784,1.0002084951141885,-82.63376760408062
7.575898112,0.9999316801819537,-82.9895685097834
7.585167872,0.9996579941275628,-83.34186203366619
7.594438144,0.9994017164756852,-83.69079761456828
7.603707904,0.9991761872388685,-84.03663271809425
7.612978176,0.9989931505172245,-84.37990833254416
7.622247936,0.9988621704658474,-84.72120158587371
7.631518208,0.9987901595918649,-85.06125680435005
7.640787968,0.9987809053471389,-85.40087770213444
7.650057728,0.9988349739062402,-85.74089256906072
7.659328,0.9989496142087068,-86.08210169576398
7.66859776,0.9991190332583522,-86.42529331276431
7.677868032,0.9993343465818281,-86.77111423686824
7.687137792,0.9995843724068061,-87.12011005350071
7.696408064,0.9998563065171064,-87.4726393047923
7.705677824,1.0001360546107128,-87.82885584144286
7.714948096,1.0004091846308396,-88.18883541663973
7.724217856,1.0006611415521462,-88.55238952787518
7.733487616,1.0008792859181983,-88.9191103164288
7.742757888,1.0010521919333408,-89.28852103067247
7.752027648,1.001170624068277,-89.65995782365387
7.76129792,1.0012286141664262,-90.03263730568382
7.77056768,1.0012230465454064,-90.40580480355362
7.779837952,1.001154113127862,-90.77859065168828
7.789107712,1.0010252006080749,-91.15021339141238
7.798377984,1.0008431400925029,-91.51988549304114
7.807647744,1.0006171330382607,-91.88700948765454
7.816917504,1.0003586923408574,-92.25109483915337
7.826187776,1.0000814416222585,-92.61171573222506
7.835457536,0.9997994753117572,-92.96882178541713
7.844727808,0.9995275884747592,-93.32240124760663
7.853997568,0.9992797545004788,-93.6726437581577
7.86326784,0.9990690258936799,-94.01996498752871
7.8725376,0.9989063147120052,-94.36494423836349
7.881807872,0.9988002328522303,-94.70824028174162
7.891077632,0.998756213080005,-95.0506582514818
7.900347392,0.9987769735810808,-95.39299063896678
7.909617664,0.9988610124628374,-95.7361231795337
7.918887424,0.9990044340796187,-96.08086809712637
7.928157696,0.9991996805482248,-96.42792063883547
7.937427456,0.9994366763939841,-96.77792446770027
7.946697728,0.9997032764373958,-97.13133480305471
7.955967488,0.9999855544753533,-97.48846074472544
7.96523776,1.000268955917054,-97.84938110920328
7.97450752,1.0005387496470761,-98.21405772528112
7.98377728,1.0007809049701297,-98.58221575663238
7.993047552,1.0009828690214586,-98.95336990554996
8.002317312,1.0011343080239927,-99.32697813492042
8.011587584,1.001227090944139,-99.70226418951391
8.020857344,1.001256562105906,-100.07847421609928
8.030127616,1.001220933426169,-100.45475459445545
8.039397376,1.001121955837113,-100.83029224970022
8.048667648,1.0009648621355398,-101.20424890213182
8.057937408,1.0007576140098313,-101.57597143659032
8.067207168,1.0005106856467876,-101.94483159247315
8.07647744,1.0002370590212268,-102.31034193870805
8.0857472,0.9999505890076321,-102.67228823479687
8.095017472,0.9996663972284108,-103.03064992149572
8.104287232,0.9993989916701368,-103.38544307950934
8.113557504,0.9991624570815378,-103.73701975917764
8.122827264,0.9989690240311109,-104.08589716773118
8.132097536,0.9988289117014492,-104.43263796584527
8.141367296,0.9987493061420922,-104.77805549649298
8.150637056,0.998734496893171,-105.12290553775419
8.159907328,0.9987854362493966,-105.46812652912857
8.169177088,0.9988994609274104,-105.81451799291061
8.17844736,0.9990708023817578,-106.16286160582334
8.18771712,0.9992905193513789,-106.51390261812972
8.196987392,0.9995474292441798,-106.86816950109284
8.206257152,0.9998279538114694,-107.22606329783773
8.215527424,1.0001179794884256,-107.58780430409652
8.224797184,1.0004021343850245,-107.95343474003616
8.234067456,1.000665855305458,-108.32275209180739
8.243337216,1.0008954649127682,-108.69537809937586
8.252606976,1.0010789573484151,-109.07085366792771
8.261877248,1.0012068436381882,-109.4485055319048
8.271147008,1.0012724994751756,-109.82748772758046
8.28041728,1.0012723285594423,-110.20703523547749
8.28968704,1.0012062652875084,-110.58625617489962
8.298957312,1.0010776876421454,-110.96434182464102
8.308227072,1.0008931802726684,-111.3404703952723
8.317497344,1.0006620847256695,-111.71398492862387
8.326767104,1.0003964358937638,-112.08439161729035
8.336036864,1.0001097615039685,-112.45126370357957
8.345307136,0.9998169467799181,-112.81439897481235
8.354576896,0.9995332445430716,-113.17388450192598
8.363847168,0.9992732719138665,-113.52991727984067
8.373116928,0.999050619348242,-113.88285686170322
8.3823872,0.9988768781974842,-114.2332589911309
8.39165696,0.998761164052922,-114.58187229380296
8.400927232,0.998709536029156,-114.92946114767008
8.410196992,0.998724797736523,-115.2768978639647
8.419466752,0.9988062310497803,-115.62508981779132
8.428737024,0.9989497528894083,-115.97482179035292
8.438006784,0.9991480012940922,-116.3269253859794
8.447277056,0.9993907145328216,-116.6820050045322
8.456546816,0.9996653007599084,-117.0405959539808
8.465817088,0.9999575556810736,-117.40298520586857
8.475086848,1.0002524784744578,-117.76934093342032
8.48435712,1.0005346980116923,-118.13957968265822
8.49362688,1.0007896309672648,-118.51345567451781
8.50289664,1.0010039780056723,-118.89048081137416
8.512166912,1.0011667358547374,-119.27011820139651
8.521436672,1.0012692815367603,-119.65158339082805
8.530706944,1.001306325964486,-120.03407872859097
8.539976704,1.0012758502523862,-120.41673446925311
8.549246976,1.0011793055337186,-120.79867860102125
8.558516736,1.0010215055561982,-121.17905882149797
8.567787008,1.0008107411863438,-121.55716190105856
8.577056768,1.0005575682424974,-121.93230007808044
8.586326528,1.000275165628194,-122.30407306609582
8.595596288,0.999977933995093,-122.67210889096613
8.60486656,0.9996815207163514,-123.0364001975761
8.614136832,0.9994010300103137,-123.39693645881567
8.623407104,0.999151185189712,-123.75414350346034
8.632676352,0.9989449549113298,-124.1084070182504
8.641946624,0.9987930185610193,-124.4604198153338
8.651216896,0.9987035941991186,-124.81092484453677
8.660487168,0.9986811891521944,-125.16078785920877
8.669756416,0.9987271934782496,-125.51088134400544
8.679026688,0.9988392405887061,-125.86209113266489
8.68829696,0.9990116662835445,-126.21528271031343
8.697566208,0.9992355636267423,-126.57115108770707
8.70683648,0.9994994600418573,-126.93034776815293
8.716106752,0.9997897088348116,-127.29325734910027
8.725377024,1.0000910776459964,-127.66012957054362
8.734646272,1.0003883230794153,-128.03106549058626
8.743916544,1.0006657523505902,-128.40585582303854
8.753186816,1.000909213585735,-128.78413237580574
8.762456064,1.0011059951377255,-129.1654360818496
8.771726336,1.0012457531733785,-129.5490260791935
8.780996608,1.0013213608177727,-129.93414188935597
8.79026688,1.001328694752964,-130.31989410724515
8.799536128,1.0012673854319551,-130.7054282695659
8.8088064,1.0011403883465515,-131.08983027325976
8.818076672,1.0009541189577316,-131.47231536481397
8.827346944,1.0007182587642363,-131.85211113824218
8.836616192,1.0004448455640917,-132.22869710124985
8.845886464,1.0001478748083312,-132.60163459234442
8.855156736,0.9998427470055674,-132.97073125551776
8.864425984,0.9995453167178079,-133.33596235920666
8.873696256,0.9992708714672827,-133.69753695277197
8.882966528,0.9990337327622286,-134.05584849470245
8.8922368,0.9988463584483961,-134.41141869264786
8.901506048,0.9987184348079958,-134.7650292266142
8.91077632,0.9986567542456694,-135.1174657970243
8.920046592,0.9986646437505973,-135.46963952582152
8.92931584,0.9987417828919898,-135.82243585113403
8.938586112,0.9988842936818851,-136.17676895603816
8.947856384,0.9990847761274891,-136.53344272312015
8.957126656,0.9993331276463204,-136.8931385046308
8.966395904,0.9996163249361406,-137.25644001217273
8.975666176,0.9999198212303321,-137.623697581335
8.984936448,1.0002279927628304,-137.99501576329573
8.99420672,1.0005247050862023,-138.37041123759178
9.003475968,1.0007948250249585,-138.74963464581097
9.01274624,1.0010241519279004,-139.13221043921
9.022016512,1.0012009076913502,-139.5175468668211
9.03128576,1.0013158023958924,-139.904916144701
9.040556032,1.0013628348018315,-140.29342525237857
9.049826304,1.0013395523725164,-140.68222005984782
9.059096576,1.0012469403304,-141.0703399873964
9.068365824,1.0010897295659815,-141.45696276289058
9.077636096,1.0008758419488015,-141.84123298641742
9.086906368,1.0006162661910352,-142.22253090917155
9.09617664,1.0003243466868112,-142.6003170400422
9.105445888,1.0000151799411823,-142.9742402940577
9.11471616,0.9997045824004157,-143.34421808734922
9.123986432,0.9994087977763677,-143.71029803942216
9.13325568,0.999143046231489,-144.07276745027482
9.142525952,0.9989211698607681,-144.43211906575706
9.151796224,0.9987549105190275,-144.78900363720243
9.161066496,0.9986528561810942,-145.14418436498318
9.170335744,0.9986204648011993,-145.49855776231288
9.179606016,0.9986595704781568,-145.85306679981238
9.188876288,0.9987681648258152,-146.20861123895727
9.198145536,0.9989406758141863,-146.56607785453937
9.207415808,0.9991684956293245,-146.92626858104498
9.21668608,0.9994396946240206,-147.28980777657188
9.225956352,0.9997403692300632,-147.65719710195395
9.2352256,1.0000548271156326,-148.02870005551864
9.244495872,1.000367092463606,-148.40442826629211
9.253766144,1.0006607748641776,-148.7842020007117
9.263036416,1.0009207077668492,-149.16767771465612
9.272305664,1.0011334918017656,-149.5543841233462
9.281575936,1.0012880801226418,-149.94356408868435
9.290846208,1.0013763050157007,-150.33443656587716
9.300115456,1.0013934895846157,-150.72609744260285
9.309385728,1.0013388125969997,-151.11763503193646
9.318656,1.0012147424167175,-151.50809445010785
9.327926272,1.0010276874910173,-151.89662223218684
9.33719552,1.0007870675955286,-152.28244137735493
9.346465792,1.000505417766899,-152.6649732132623
9.355736064,1.0001970346013995,-153.04372693240137
9.365005312,0.9998779050639061,-153.41843389031698
9.374275584,0.9995644115421467,-153.78910365208043
9.383545856,0.9992729311834454,-154.15587177025512
9.392816128,0.9990185661508911,-154.51916264089954
9.402085376,0.9988144826327048,-154.87945531018894
9.411355648,0.9986715561580671,-155.23758041202757
9.42062592,0.9985971155883674,-155.59432831290988
9.429896192,0.9985952673367745,-155.95062906904772
9.43916544,0.9986661620796934,-156.30750207492287
9.448435712,0.9988063651991224,-156.66580442484147
9.457705984,0.9990085730724273,-157.0264217644389
9.466975232,0.9992624902290896,-157.3901215862537
9.476245504,0.9995551009779293,-157.75747632151948
9.485515776,0.9998710496905665,-158.12893727894806
9.494786048,1.0001943709033847,-158.50464369354697
9.504055296,1.000508040668404,-158.88462604140565
9.513325568,1.0007960177379398,-159.26862487867123
9.52259584,1.001043272833137,-159.6562346106641
9.531865088,1.0012371205354345,-160.0468066432252
9.54113536,1.0013673002793204,-160.43960017681354
9.550405632,1.0014271345190815,-160.8337311083372
9.559675904,1.0014133188066063,-161.2282575550751
9.568945152,1.0013264092066299,-161.62223254947872
9.578215424,1.0011708216032185,-162.01472765867865
9.587485696,1.000954503341369,-162.4048861290724
9.596755968,1.0006882930362422,-162.791985101062
9.606025216,1.0003860295007894,-163.17544954039295
9.615295488,1.000063125467885,-163.55491328415596
9.62456576,0.9997364231112446,-163.93019773574215
9.633835008,0.9994227512207648,-164.3013504614229
9.64310528,0.9991382061999834,-164.66866995527496
9.652375552,0.9988976498321754,-165.0325954150301
9.661645824,0.9987138195795677,-165.393801226037
9.670915072,0.9985962268055154,-165.7530766578898
9.680185344,0.9985511489537399,-166.11137662684683
9.689455616,0.9985810335163323,-166.46959627782397
9.698725888,0.9986844230615998,-166.82878334729472
