freq,mag,phase
6.0,1.0007089034600618,-151.00240067355705
6.002287616,1.0006208899880995,-151.15999262584072
6.004575232,1.0004935988938006,-151.31599351842277
6.006862848,1.0003351478020817,-151.4699361258515
6.009150464,1.0001555266295317,-151.62132659040967
6.011438592,0.999966053352929,-151.77005468537337
6.013726208,0.9997788132757985,-151.91601340368928
6.016013824,0.9996057261569191,-152.0592945772822
6.01830144,0.9994576908127816,-152.2002067144838
6.020589056,0.9993441673409573,-152.33918696674925
6.022876672,0.9992723203135447,-152.47681065522218
6.025164288,0.9992467998591857,-152.61365662640648
6.027451904,0.9992692000458965,-152.75047352961028
6.029740032,0.9993381875327425,-152.88793866848553
6.032027648,0.9994492353263383,-153.02665047833722
6.034315264,0.9995953745061128,-153.16721023212378
6.03660288,0.9997673488560528,-153.31009993273128
6.038890496,0.999954190934338,-153.45553898415588
6.041178112,1.0001441746928743,-153.60366133018937
6.043465728,1.0003251016039083,-153.75449645016346
6.045753344,1.0004856058627924,-153.907760376341
6.04804096,1.000615424584767,-154.06312708403843
6.050329088,1.0007064441755877,-154.22003161148834
6.052616704,1.0007527682048478,-154.3779293606089
6.05490432,1.000751500979947,-154.53612081806833
6.057191936,1.0007027983455103,-154.69391364706345
6.059479552,1.0006095844810967,-154.85067069111338
6.061767168,1.0004778703578932,-155.00574592454947
6.064054784,1.0003159307711564,-155.1586649966067
6.0663424,1.0001339752372658,-155.30903103189794
6.068630016,0.9999436394507333,-155.4566802818321
6.070918144,0.9997569142344914,-155.60155095002145
6.07320576,0.9995857191641822,-155.74378224838281
6.075493376,0.9994408398729757,-155.88369776171143
6.077780992,0.9993315369651461,-156.02173582357827
6.080068608,0.9992646890454211,-156.1584041793967
6.082356224,0.9992447412360052,-156.29446849864166
6.08464384,0.9992728346889319,-156.43052809131123
6.086931456,0.9993471486438315,-156.56732896836868
6.089219584,0.9994630547059921,-156.7054467715327
6.0915072,0.9996131326985583,-156.84549046910394
6.093794816,0.9997879722215156,-156.98784884204363
6.096082432,0.9999764092208853,-157.13288243392344
6.098370048,1.0001664957490273,-157.28057083585705
6.100657664,1.000346171051657,-157.4309256774079
6.10294528,1.000504091163765,-157.58373352057384
6.105232896,1.0006300813432356,-157.73857502373497
6.107520512,1.0007162839018875,-157.89490008926722
6.10980864,1.0007572849169102,-158.05213096992344
6.112096256,1.0007503369902884,-158.2095901335774
6.114383872,1.0006960219712036,-158.36653734817978
6.116671488,1.0005976376315233,-158.52238425688492
6.118959104,1.0004614741444606,-158.6764316647036
6.12124672,1.0002960850615306,-158.8283400348856
6.123534336,1.000112040291894,-158.97765420785132
6.125821952,0.9999209168454942,-159.12418974220512
6.128109568,0.9997348746505201,-159.2679617999744
6.130397696,0.9995657258058229,-159.40912041030853
6.132685312,0.999424225308712,-159.5479864140001
6.134972928,0.999319321411538,-159.68500674228048
6.137260544,0.999257765522483,-159.82079077978565
6.13954816,0.999243321244532,-159.9559818569952
6.141835776,0.9992770656167123,-160.09127248742746
6.144123392,0.9993569218325115,-160.22735067966443
6.146411008,0.9994776593565711,-160.3649018071975
6.148699136,0.9996317029310292,-160.50438775368573
6.150986752,0.9998093481136878,-160.6462638772547
6.153274368,0.9999991342001202,-160.7907638133718
6.155561984,1.0001890844998158,-160.93802239304765
6.1578496,1.0003672659346388,-161.08790560094874
6.160137216,1.000522284849971,-161.24018238103778
6.162424832,1.0006443305206532,-161.3944605234059
6.164712448,1.0007256528277668,-161.5501398196003
6.167000064,1.0007611432228243,-161.70668126064567
6.169288192,1.000748510519936,-161.86333490951344
6.171575808,1.000688485597221,-162.01942378769968
6.173863424,1.0005849301924086,-162.17432489867355
6.17615104,1.00044438857171,-162.32738103692273
6.178438656,1.000275694281615,-162.47816177585094
6.180726272,1.000089637569082,-162.62633861104283
6.183013888,0.9998979018321101,-162.77176984742476
6.185301504,0.9997127477589096,-162.9143814605482
6.18758912,0.999545863088309,-163.0544217202242
6.189877248,0.9994078658328266,-163.1922149861996
6.192164864,0.9993074543498253,-163.32822100578096
6.19445248,0.9992512219494084,-163.4630292052144
6.196740096,0.9992426404820294,-163.597369221115
6.199027712,0.9992822337218457,-163.73187669720554
6.201315328,0.9993675390313463,-163.86728323485872
6.203602944,0.9994930995451833,-164.00416348227483
6.20589056,0.999651084757456,-164.1430933024453
6.208178688,0.9998311973216458,-164.28444401056015
6.210466304,1.0000222452610672,-164.428459802749
6.21275392,1.0002120446679295,-164.57522222296313
6.215041536,1.000388542380451,-164.72458986655266
6.217329152,1.0005404936154207,-164.87633207940405
6.219616768,1.0006583732964962,-165.03002108622465
6.221904384,1.0007346378273838,-165.18503031700243
6.224192,1.0007644512056388,-165.34082138599268
6.226479616,1.00074594234259,-165.49668443769292
6.228767744,1.000680267900305,-165.65184976839794
6.23105536,1.0005715001244329,-165.80573007575424
6.233342976,1.0004265491213467,-165.9577490796204
6.235630592,1.0002547057977957,-166.10741792445302
6.237918208,1.0000667754350268,-166.2544413653862
6.240205824,0.999874529321348,-166.3986691771287
6.24249344,0.9996904939825622,-166.5401399157043
6.244781056,0.9995260420462562,-166.67903421232484
6.247068672,0.9993917400421988,-166.81570307944924
6.2493568,0.999296235572625,-166.95066494180736
6.251644416,0.9992453727344481,-167.08451524474904
6.253932032,0.9992426762548396,-167.217948391604
6.256219648,0.9992881166268966,-167.35165799705644
6.258507264,0.9993789085047016,-167.4863535121672
6.26079488,0.9995092961396618,-167.6225640221755
6.263082496,0.9996708773331247,-167.760899870581
6.265370112,0.999853631386285,-167.90170347549
6.26765824,1.0000457631667,-168.04521017692318
6.269945856,1.0002350915170766,-168.191463861247
6.272233472,1.00040966196959,-168.34028803267256
6.274521088,1.0005584372198222,-168.4914881243083
6.276808704,1.0006720170410393,-168.64452262960162
6.27909632,1.000742981992328,-168.79888792279982
6.281383936,1.0007671007334298,-168.95387101757595
6.283671552,1.000742564040041,-169.1088135509844
6.285959168,1.0006711337621255,-169.2630776049212
6.288247296,1.0005571848450763,-169.4159290004108
6.290534912,1.0004080385554144,-169.56683977551756
6.292822528,1.0002330290457875,-169.71535683299987
6.295110144,1.0000433539159352,-169.86121324307797
6.29739776,0.9998509394520441,-170.00419911282737
6.299685376,0.9996680663056393,-170.1445094657614
6.301972992,0.9995062887028221,-170.28220456112695
6.304260608,0.9993760086422855,-170.4177560536154
6.306548224,0.9992852570634213,-170.55164344059742
6.308836352,0.9992402218118805,-170.68450872431814
6.311123968,0.999243386893683,-170.81703616031953
6.313411584,0.9992947968924992,-170.94993653608333
6.3156992,0.9993910834564769,-171.08386531667952
6.317986816,0.9995261733156315,-171.21947167369737
6.320274432,0.9996915160139933,-171.35717839197187
6.322562048,0.9998765666688113,-171.49742051893014
6.324849664,1.0000696072953275,-171.64039921469953
6.327137792,1.0002583668977485,-171.78612829503896
6.329425408,1.0004308878767434,-171.93440890445632
6.331713024,1.0005762857942275,-172.08499215533016
6.33400064,1.000685153290933,-172.23737776315758
6.336288256,1.0007507917110452,-172.39098053588845
6.338575872,1.0007689749650392,-172.54516876350132
6.340863488,1.0007385024756805,-172.69925072518353
6.343151104,1.0006612348143453,-172.85250374945412
6.34543872,1.000542127267108,-173.0042929775075
6.347726848,1.0003887182514166,-173.1540659414686
6.350014464,1.0002107600920738,-173.30139516872845
6.35230208,1.0000195729698644,-173.44601560740531
6.354589696,0.9998269570893267,-173.58781742343567
6.356877312,0.9996456084877686,-173.7268356015068
6.359164928,0.9994866669871296,-173.8633594854505
6.361452544,0.9993605083706008,-173.9977596804427
6.36374016,0.9992749390751575,-174.13056824897538
6.366027776,0.9992356127433959,-174.26243121214583
6.368315904,0.9992448731859155,-174.39406330170956
6.37060352,0.9993022643184287,-174.52613159063824
6.372891136,0.9994040739951859,-174.65931086923098
6.375178752,0.9995439128193507,-174.79422466450907
6.377466368,0.9997128511594919,-174.93135335346423
6.379753984,0.9999001152109531,-175.0710327461034
6.3820416,1.0000938595921207,-175.21343981481664
6.384329216,1.0002818690431874,-175.35858190205636
6.386617344,1.000452164151423,-175.50630808850346
6.38890496,1.0005938092348339,-175.6562583788349
6.391192576,1.000698084225154,-175.8079821844747
6.393480192,1.0007581085602286,-175.9608343933086
6.395767808,1.0007702028558834,-176.11419527910004
6.398055424,1.000733563236634,-176.26733742955872
6.40034304,1.0006504891534922,-176.41957368043444
6.402630656,1.000526311591898,-176.57027590768578
6.404918272,1.0003687736540354,-176.71885138610716
6.4072064,1.000187904350636,-176.8650101629751
6.409494016,0.9999952541886801,-177.00837090689416
6.411781632,0.9998028361578958,-177.14890413066465
6.414069248,0.9996230588762568,-177.28667451122575
6.416356864,0.9994673292117441,-177.42197483780853
6.41864448,0.9993454026110878,-177.55522026425461
6.420932096,0.9992651210768547,-177.68693080853592
6.423219712,0.9992317854297839,-177.81780820363656
6.425507328,0.9992471678983672,-177.9484636646761
6.427795456,0.9993105731132006,-178.07971502517174
6.430083072,0.9994178796671284,-178.2121251934293
6.432370688,0.9995623638644905,-178.34640139190026
6.434658304,0.9997347339309911,-178.48287660884066
6.43694592,0.9999241652776605,-178.62199184554393
6.439233536,1.000118497490722,-178.7638416130084
6.441521152,1.000305511483177,-178.90841730213398
6.443808768,1.0004731678541767,-179.05552789755964
6.446096896,1.0006109792950035,-179.20486543082927
6.448384512,1.0007101893252028,-179.3558552951241
6.450672128,1.0007645543156591,-179.50797069469664
6.452959744,1.000770621244863,-179.66042709892804
6.45524736,1.0007276407705914,-179.81261917109615
6.457534976,1.0006388037638199,-179.9638108064375
6.459822592,1.0005095515129747,179.88663652966386
6.462110208,1.0003480824641655,179.7392071460255
6.464397824,1.000164425117315,179.59432774449235
6.466685952,0.9999704743757875,179.45225034156442
6.468973568,0.9997784337107259,179.3130039394245
6.471261184,0.9996004810073167,179.17649706965537
6.4735488,0.9994479839787072,179.04243336343768
6.475836416,0.9993306263021399,178.91037273802354
6.478124032,0.999255947801749,178.77975659929078
6.480411648,0.9992285294771314,178.64991052110489
6.482699264,0.9992502693281292,178.52013901513226
6.48498688,0.999319838054259,178.3897467958923
6.487275008,0.9994326545904473,178.25808436132388
6.489562624,0.9995816605809499,178.12453481706427
6.49185024,0.9997573569131221,177.98864132291544
6.494137856,0.9999486556484929,177.85012487647464
6.496425472,1.0001433260363493,177.70887721199037
6.498713088,1.0003292322999329,177.56485134916966
6.501000704,1.0004941655579498,177.41833335302886
6.50328832,1.0006280143998756,177.26968025317456
6.505576448,1.0007221469539591,177.1193914236988
6.507864064,1.00077055797175,176.96812132447965
6.51015168,1.0007701660347221,176.81652014043362
6.512439296,1.0007211390385833,176.66532628246048
6.514726912,1.0006263820455459,176.51521387260064
6.517014528,1.0004920197681706,176.36680559715285
6.519302144,1.0003265199928397,176.22061934078963
6.52158976,1.0001402968424558,176.07702482196532
6.523877376,0.9999452156909897,175.9362396167717
6.526165504,0.9997537397926595,175.79827746256882
6.52845312,0.9995780557476179,175.66305551401453
6.530740736,0.9994289535400759,175.53022153231166
6.533028352,0.999316286998164,175.3993738078713
6.535315968,0.9992472556544559,175.2698472984591
6.537603584,0.9992261151325678,175.1410214944064
6.5398912,0.9992542377562974,175.01219342929025
6.542178816,0.9993299279992567,174.88266600385873
6.544466432,0.9994482495750057,174.75174195275258
6.54675456,0.9996018339029041,174.61885070784717
6.549042176,0.9997808465890626,174.48362436963404
6.551329792,0.999973947441841,174.34569896840486
6.553617408,1.0001687652753746,174.20502097839307
6.555905024,1.00035304341681,174.06160819549538
6.55819264,1.0005150804536622,173.91565818069733
6.560480256,1.000644634447614,173.76771248958954
6.562767872,1.000733351188922,173.61815114981655
6.565056,1.0007757760056415,173.4677248179751
6.567343616,1.0007689388860377,173.31704249725487
6.569631232,1.0007136294900396,173.1668684261689
6.571918848,1.0006130227413987,173.0178528773501
6.574206464,1.0004735861653762,172.87062654626212
6.57649408,1.000304284496851,172.72567815688367
6.578781696,1.0001156116003942,172.58337457270866
6.581069312,0.9999196720921302,172.44388755375974
6.583356928,0.9997289800166859,172.30726365036682
6.585645056,0.9995554261582112,172.17333936718762
6.587932672,0.9994101609982147,172.04178121995395
6.590220288,0.999302510756907,171.91209821978455
6.592507904,0.999239391760139,171.78369325657093
6.59479552,0.9992244915733971,171.65590635600998
6.597083136,0.9992592230036202,171.52802087237302
6.599370752,0.9993409397686235,171.39930293426133
6.601658368,0.9994647430187389,171.26913686520166
6.603945984,0.9996228116620247,171.13697397867668
6.606234112,0.9998048867068453,171.00234812910742
6.608521728,0.999999552794415,170.86501468871512
6.610809344,1.0001944295539438,170.72490911660526
6.61309696,1.000376912104206,170.58208568968143
6.615384576,1.0005357877173597,170.43681581001914
6.617672192,1.000660836934317,170.28950291481388
6.619959808,1.000744087758736,170.14075728113943
6.622247424,1.000780139145948,169.99113895492906
6.624535552,1.0007669381652646,169.84141739652313
6.626823168,1.000705171286359,169.69229274471385
6.629110784,1.000598603266911,169.54439211370067
6.6313984,1.0004543842487261,169.39835079326545
6.633686016,1.0002811982459434,169.2546783814804
6.635973632,1.0000902421274902,169.11369464749396
6.638261248,0.9998937078577428,168.9755440080663
6.640548864,0.9997039567822803,168.84025301336584
6.64283648,0.9995329049023406,168.7076347025945
6.645124608,0.9993917520515692,168.57732513166792
6.647412224,0.9992892555105435,168.44883256249076
6.64969984,0.999232107159673,168.32155565064406
6.651987456,0.9992237647892456,168.19479064424016
6.654275072,0.9992650065473466,168.0678155202604
6.656562688,0.9993529537730018,167.93997180628165
6.658850304,0.9994822812543175,167.81053255280997
6.66113792,0.999644531020264,167.6790454000977
6.663426048,0.9998296283837063,167.54505024053853
6.665713664,1.0000256553882183,167.40832526447434
6.66800128,1.0002201793488963,167.26879975477257
6.670288896,1.000400878815158,167.1265723468853
6.672576512,1.000556351297277,166.98194369466216
6.674864128,1.0006766416740565,166.8353508180388
6.677151744,1.0007540208201278,166.68736407569335
6.67943936,1.0007837677302134,166.53864035659132
6.681726976,1.0007639381000017,166.38987349045203
6.684015104,1.0006957765070925,166.2417841361631
6.68630272,1.0005833854000719,166.09502738429728
6.688590336,1.000434273018013,165.95024235207796
6.690877952,1.0002573533482255,165.8078549622385
6.693165568,1.000064291294137,165.66818850371985
6.695453184,0.9998673348993062,165.53137819496536
6.6977408,0.9996787846778291,165.39744287318254
6.700028416,0.9995105753588637,165.26612597359022
6.702316032,0.9993735705845994,165.13708559300682
6.70460416,0.9992765160892343,165.00980380586955
6.706891776,0.9992256418483709,164.8836501992397
6.709179392,0.9992239287768845,164.7578827743919
6.711467008,0.9992716766782183,164.6318284634935
6.713754624,0.9993659797726245,164.50479558746122
6.71604224,0.9995005816382577,164.3761282433252
6.718329856,0.9996671372311478,164.2452993345242
6.720617472,0.9998550515329405,164.1119246263531
6.7229056,1.0000521480059776,163.9758203721368
6.725193216,1.0002463321534107,163.83687362859027
6.727480832,1.0004249080160927,163.69524586623317
6.729768448,1.0005765632621062,163.55127663223456
6.732056064,1.0006918210457136,163.40538932138438
6.73434368,1.0007633222345251,163.2581884901924
6.736631296,1.0007865969251888,163.11033118262503
6.738918912,1.0007600376788406,162.96256658183256
6.741206528,1.000685245805001,162.8155664137584
6.743494656,1.0005671563957197,162.66996533549383
6.745782272,1.0004129696646789,162.5264121849459
6.748069888,1.0002328524587236,162.3853212534613
6.750357504,1.000037839862013,162.2469906678166
6.75264512,0.9998405220067977,162.11159693859716
6.754932736,0.9996534552132584,161.97900558291556
6.757220352,0.9994881989354042,161.84899388538068
6.759507968,0.9993557649607404,161.72122927173584
6.761795584,0.9992643364177303,161.59512392745765
6.764083712,0.9992197409042827,161.47008256632404
6.766371328,0.9992249046831432,161.3453372254718
6.768658944,0.9992794214837535,161.2202254801427
6.77094656,0.9993799100121757,161.093988356847
6.773234176,0.9995198373252785,160.96602151571494
6.775521792,0.9996905319595544,160.83589945123137
6.777809408,0.9998810998451991,160.70310331445452
6.780097024,1.000079277524221,160.567572103556
6.782385152,1.0002726309091945,160.429238108252
6.784672768,1.000448787516085,160.2882324326415
6.786960384,1.0005966105645219,160.14490244502778
6.789248,1.0007066790756538,159.99974886224493
6.791535616,1.0007720173321781,159.8533666283352
6.793823232,1.0007886004880728,159.70644346469777
6.796110848,1.0007552014466221,159.55963571486654
6.798398464,1.0006738352905171,159.4137077788371
6.80068608,1.000549929462752,159.26931282005242
6.802974208,1.0003911465250275,159.1270422483884
6.805261824,1.000207575761558,158.98727763745538
6.80754944,1.0000107189295164,158.85030230024242
6.809837056,0.999813536446519,158.71623280844966
6.812124672,0.9996280716909921,158.5850258154798
6.814412288,0.9994663930770358,158.45635425605934
6.816699904,0.9993386330329485,158.32985142581163
6.81898752,0.9992530154984378,158.20494073361866
6.821275136,0.9992149263951099,158.08095392923755
6.823563264,0.9992269228106,157.9572123088912
6.82585088,0.9992882177762364,157.8329891876483
6.828138496,0.9993949346464645,157.70757299550255
6.830426112,0.9995401972371737,157.5803694085222
6.832713728,0.9997148444651339,157.45083376485613
6.835001344,0.9999078301901143,157.3186884099778
6.83728896,1.0001067697733588,157.1837427758398
6.839576576,1.000299175015396,157.04598547248492
6.841864704,1.0004726397268038,156.9055798497604
6.84415232,1.0006161739569979,156.76291403980423
6.846439936,1.000720872282931,156.61853204348395
6.848727552,1.0007799179032895,156.4729500894449
6.851015168,1.0007895075514612,156.32688636494942
6.853302784,1.000749197951964,156.18112794478907
6.8555904,1.0006613272406428,156.03631206222488
6.857878016,1.0005316224506784,155.8931057990824
6.860165632,1.0003682669277234,155.7521024722365
6.86245376,1.0001816437735056,155.61366818586228
6.864741376,0.9999833145681519,155.47806144028635
6.867028992,0.9997861975974872,155.34539815826895
6.869316608,0.999602755182165,155.2155224128406
6.871604224,0.99944456204544,155.0881790861531
6.87389184,0.999321758575762,154.96294500168375
6.876179456,0.9992422304960356,154.8392029651946
6.878467072,0.9992109307895747,154.71633080573065
6.880754688,0.9992300253629294,154.59358644563707
6.883042816,0.9992979947017981,154.47023278469075
6.885330432,0.999410867064877,154.34560951701752
6.887618048,0.9995614897264941,154.2190911256552
6.889905664,0.9997399931601508,154.0902252328896
6.89219328,0.9999351940849932,153.95869477567277
6.894480896,1.0001346611421267,153.82429081056642
6.896768512,1.0003258018123096,153.68709876515618
6.899056128,1.000496314647367,153.54732359811308
6.901344256,1.0006355876659803,153.40532473628517
6.903631872,1.0007345543823893,153.26163679299745
6.905919488,1.000787045377845,153.11689623979674
6.908207104,1.0007896640232221,152.97178713882664
6.91049472,1.0007424295812963,152.82703013324257
6.912782336,1.0006479523474288,152.6833419606947
6.915069952,1.0005125441989169,152.54138219582077
6.917357568,1.000344611001782,152.40166129613831
