freq,mag,phase
6.0,1.0006706155819047,174.89598505188093
6.002287616,1.0007306211139664,174.7290172152646
6.004575232,1.0007442631342196,174.5615404233574
6.006862848,1.0007108910788538,174.3941658511624
6.009150464,1.0006326590126151,174.22764214397554
6.011438592,1.0005143190532084,174.06252424987466
6.013726208,1.0003633825121114,173.89934165437083
6.016013824,1.0001894559190918,173.73854542155783
6.01830144,1.000003520402464,173.58033876226614
6.020589056,0.9998173067435713,173.42484080944223
6.022876672,0.9996425205255219,173.2720074980437
6.025164288,0.9994904927304533,173.12150193125328
6.027451904,0.9993705496819559,172.97300786984025
6.029740032,0.9992905819362349,172.8259661538703
6.032027648,0.9992556255818067,172.67974747858398
6.034315264,0.9992676506556128,172.5337228426353
6.03660288,0.9993263230868259,172.38716652948116
6.038890496,0.9994275137458488,172.2394610255735
6.041178112,0.9995653131639167,172.09002351536833
6.043465728,0.9997304180002146,171.938395096487
6.045753344,0.9999129652861017,171.78422636688947
6.04804096,1.000100931498994,171.6273514337477
6.050329088,1.000282635892603,171.467803321178
6.052616704,1.000446477985283,171.30575832956376
6.05490432,1.0005823483195626,171.1415356611672
6.057191936,1.0006813782616006,170.97560939180718
6.059479552,1.000737297413498,170.8085627242529
6.061767168,1.0007466310866477,170.6410318937761
6.064054784,1.0007088510614957,170.4737138435181
6.0663424,1.0006262954325538,170.30726888744653
6.068630016,1.0005039695825457,170.1423326190183
6.070918144,1.0003497239625934,169.9793458819297
6.07320576,1.0001733929453918,169.8188096047026
6.075493376,0.9999861136071695,169.66090708028344
6.077780992,0.9997995551124921,169.50569265151094
6.080068608,0.9996257163009166,169.3531448115991
6.082356224,0.9994753503650723,169.20293385369095
6.08464384,0.9993584385571083,169.05466074242844
6.086931456,0.999282070338706,168.9078053819664
6.089219584,0.9992511092922275,168.76175003349528
6.0915072,0.9992677602005539,168.61578565659278
6.093794816,0.9993307242220674,168.4692335189166
6.096082432,0.9994362225618201,168.32151179446515
6.098370048,0.9995775862852136,168.17195729153192
6.100657664,0.9997456151632867,168.02016018903953
6.10294528,0.9999298892136324,167.86582499280144
6.105232896,1.0001187332405272,167.70875605933185
6.107520512,1.0003002292295202,167.54901528438347
6.10980864,1.000462836346057,167.386762189072
6.112096256,1.000596078425156,167.2223514900058
6.114383872,1.0006917348001827,167.05629835780016
6.116671488,1.0007437204877014,166.8891784556827
6.118959104,1.0007487773145132,166.72165085276583
6.12124672,1.0007065157392974,166.55440103968172
6.123534336,1.0006195178722186,166.38807411679355
6.125821952,1.000493293181204,166.22330493610627
6.128109568,1.0003359105363634,166.06056597365966
6.130397696,1.0001572011887019,165.90029109722204
6.132685312,0.9999685322476264,165.7426813626569
6.134972928,0.9997816814997671,165.5877915396983
6.137260544,0.9996087600001607,165.43554154518614
6.13954816,0.9994605044161513,165.28565209831024
6.141835776,0.9993464137170915,165.1376234701523
6.144123392,0.9992737506617483,164.99098449504223
6.146411008,0.9992470185126094,164.84507315601928
6.148699136,0.9992681197987754,164.69921724677016
6.150986752,0.9993356569292764,164.5526985735419
6.153274368,0.9994453450569581,164.4049098060528
6.155561984,0.9995901881985295,164.25526164731764
6.1578496,0.9997610533169216,164.103339454431
6.160137216,0.9999472911614904,163.94879498705566
6.162424832,1.0001368454898036,163.79155326337647
6.164712448,1.0003177968144819,163.6315942010113
6.167000064,1.0004787572815115,163.469185388169
6.169288192,1.0006095794645646,163.3046495607646
6.171575808,1.0007018786395303,163.1384871159428
6.173863424,1.0007499343177408,162.97132811037554
6.17615104,1.0007505699542556,162.80381168394334
6.178438656,1.0007036375051612,162.63661334006454
6.180726272,1.0006123428212874,162.47043243007755
6.183013888,1.00048213037676,162.30583528117904
6.185301504,1.000321638944755,162.1433943437088
6.18758912,1.0001405353503299,161.98338837347652
6.189877248,0.9999506619698035,161.82613044628323
6.192164864,0.9997637568789645,161.67157004856253
6.19445248,0.9995918193831709,161.519643514598
6.196740096,0.9994456101472186,161.37003750041674
6.199027712,0.9993346398026209,161.22229459549928
6.201315328,0.9992657578078623,161.07587418225384
6.203602944,0.9992433173005063,160.93011545314374
6.20589056,0.9992689810988349,160.78436527821052
6.208178688,0.9993409468393485,160.637875803571
6.210466304,0.9994547439823436,160.49005541209021
6.21275392,0.9996031768909506,160.34032852099415
6.215041536,0.999776789938455,160.18828120351256
6.217329152,0.9999646218656019,160.03358484154572
6.219616768,1.0001549095381745,159.87614982170135
6.221904384,1.000335446762693,159.71604033750708
6.224192,1.0004948428352551,159.55345024716055
6.226479616,1.0006230210101017,159.38876769092732
6.228767744,1.0007118393961565,159.22253210095687
6.23105536,1.0007556621767917,159.05532496531907
6.233342976,1.000751861739391,158.88785666649005
6.235630592,1.0007003846359575,158.72075531713554
6.237918208,1.0006047868487415,158.554738762896
6.240205824,1.0004707824499623,158.39038909060127
6.24249344,1.0003070447816462,158.22820146786648
6.244781056,1.0001237610233151,158.06854896152893
6.247068672,0.9999326410221481,157.9115871527967
6.2493568,0.9997457914662237,157.75739331036468
6.251644416,0.9995748923454456,157.60579672407192
6.253932032,0.9994309327190947,157.45652929228237
6.256219648,0.9993229980408884,157.30903953687763
6.258507264,0.9992580511071505,157.1628902329643
6.26079488,0.999239946115117,157.01728255359833
6.263082496,0.9992701541949923,156.87164583043563
6.265370112,0.9993466499361903,156.7252155127212
6.26765824,0.9994645004770699,156.57736286513276
6.269945856,0.9996164748855806,156.42756043874485
6.272233472,0.9997928547465192,156.2753854108824
6.274521088,0.999982442023957,156.12053615474548
6.276808704,1.0001731593885512,155.96295144470207
6.27909632,1.000353111612193,155.8026583394689
6.281383936,1.0005107723758175,155.63994407308542
6.283671552,1.0006361090794267,155.47514878868998
6.285959168,1.0007214073076234,155.30883146262596
6.288247296,1.000761156999559,155.14164055076438
6.290534912,1.0007527777690992,154.97418358188807
6.292822528,1.0006967613284758,154.80722210364723
6.295110144,1.0005967822003687,154.6413935661663
6.29739776,1.0004589450687211,154.47730058601462
6.299685376,1.0002920520639615,154.31537244000413
6.301972992,1.0001066509140115,154.15605575361454
6.304260608,0.9999144294946604,153.99947399594228
6.306548224,0.9997276321327968,153.8456603341099
6.308836352,0.9995579386032774,153.69442043670838
6.311123968,0.999416227782119,153.5454568922704
6.313411584,0.9993115477684368,153.39830560648315
6.3156992,0.9992504713262227,153.25234331339155
6.317986816,0.9992367651195455,153.10696297144514
6.320274432,0.9992716880526696,152.96141003954736
6.322562048,0.9993526707528435,152.81502923888178
6.324849664,0.9994745922339718,152.66718504111336
6.327137792,0.9996300873336323,152.51734428494623
6.329425408,0.9998090811270856,152.36504955605392
6.331713024,1.0000002554849432,152.2100562622839
6.33400064,1.0001914426461542,152.05232724712945
6.336288256,1.0003706785114854,151.89186987411355
6.338575872,1.000526566896247,151.729012867112
6.340863488,1.0006491337580619,151.56412090535852
6.343151104,1.0007307903971083,151.3977854787623
6.34543872,1.0007663555983535,151.23058417750457
6.347726848,1.000753353093384,151.06320735693888
6.350014464,1.000692677032463,150.8963891650789
6.35230208,1.0005883053511417,150.73074345546812
6.354589696,1.0004466581286624,150.5669114293593
6.356877312,1.0002767970546047,150.40531526768157
6.359164928,1.0000892702439392,150.2463505301207
6.361452544,0.9998960677930272,150.0901529176905
6.36374016,0.9997093103637601,149.93668745584404
6.366027776,0.9995410171638095,149.78584970007557
6.368315904,0.9994018124702602,149.6372351590743
6.37060352,0.9993004845323724,149.4903824731174
6.372891136,0.9992432576377324,149.3446892462965
6.375178752,0.9992341415792433,149.19947287712995
6.377466368,0.9992735278433024,149.0540717525158
6.379753984,0.9993591188742244,148.90774747412547
6.3820416,0.9994852546779552,148.75988693595787
6.384329216,0.9996441780922075,148.60997706243876
6.386617344,0.9998257296237437,148.45759717464327
6.38890496,1.0000184043489866,148.30249916760908
6.391192576,1.0002099507297038,148.14459255646003
6.393480192,1.0003883187321716,147.9840269944995
6.395767808,1.0005422773351926,147.82104691415557
6.398055424,1.0006619542048996,147.6560810551679
6.40034304,1.0007397924473667,147.48969104802802
6.402630656,1.0007709922809442,147.3225179684597
6.404918272,1.000753378298346,147.15524425632097
6.4072064,1.000688259478189,146.98857579217983
6.409494016,1.000579533158251,146.8231547708991
6.411781632,1.0004340713129178,146.6596046243914
6.414069248,1.000261074013371,146.49836044082244
6.416356864,1.0000716410571155,146.33975504249855
6.41864448,0.9998774810980491,146.1839367357417
6.420932096,0.9996910884484175,146.03089497021196
6.423219712,0.9995240496940653,145.88043034654183
6.425507328,0.9993873154462639,145.73217066160655
6.427795456,0.9992893214082739,145.58563981330707
6.430083072,0.9992364154361082,145.44022205827173
6.432370688,0.9992317970146746,145.29520873908834
6.434658304,0.9992759674288118,145.1499341948304
6.43694592,0.9993659928370361,145.00369064241704
6.439233536,0.9994962621803555,144.85583131393363
6.441521152,0.9996585536344792,144.7058805952733
6.443808768,0.999842562272055,144.55337466946997
6.446096896,1.0000366771087332,144.3981730596561
6.448384512,1.0002285784385725,144.24015235087737
6.450672128,1.0004059907586578,144.07943057421085
6.452959744,1.000557968241385,143.91635947423808
6.45524736,1.000674679743798,143.75134096685673
6.457534976,1.0007487530506625,143.58492356172533
6.459822592,1.000775438094913,143.41781732886568
6.462110208,1.0007532802508161,143.25062460059056
6.464397824,1.0006833077611759,143.08413994484206
6.466685952,1.0005702948751545,142.91898160166636
6.468973568,1.0004210180716244,142.7557184240234
6.471261184,1.0002451239899488,142.59483593069638
6.4735488,1.0000536055913292,142.43661865542416
6.475836416,0.9998587060019594,142.28121771063073
6.478124032,0.9996726562726793,142.12856327045284
6.480411648,0.9995072984950005,141.97850091789292
6.482699264,0.9993730209699185,141.83063779733132
6.48498688,0.999278558902244,141.6844255944337
6.487275008,0.9992297306709269,141.53927476033718
6.489562624,0.9992296765412916,141.39447561224972
6.49185024,0.9992786003819097,141.24935885636165
6.494137856,0.9993732869824146,141.103153259252
6.496425472,0.9995076722850864,140.9553300087728
6.498713088,0.999673328753245,140.80533038410618
6.501000704,0.9998598321564942,140.6527707177549
6.50328832,1.0000552030940788,140.49742336923123
6.505576448,1.000247286594983,140.33927782499222
6.507864064,1.0004237156353621,140.17846962909155
6.51015168,1.0005735592590081,140.01530277640268
6.512439296,1.000687105655886,139.85021986959316
6.514726912,1.0007573181583982,139.68381290033182
6.517014528,1.0007796223769383,139.5167318973547
6.519302144,1.0007525803519903,139.34969875271517
6.52158976,1.0006780597974694,139.18339328796648
6.523877376,1.000560688571199,139.0185191070732
6.526165504,1.0004075961039776,138.85558945921312
6.52845312,1.0002289025774977,138.69505593404315
6.530740736,1.0000354723991682,138.537246249748
6.533028352,0.9998397591719507,138.38225052612125
6.535315968,0.9996542205777073,138.230053142217
6.537603584,0.9994905348862528,138.08038961938647
6.5398912,0.9993590064899021,137.93291439992947
6.542178816,0.9992682030087557,137.78705063481183
6.544466432,0.999223621097835,137.64215695132125
6.54675456,0.9992282444763231,137.49757719659695
6.549042176,0.9992817501574216,137.35258752227165
6.551329792,0.9993810632796036,137.20650675591372
6.553617408,0.9995195353738019,137.05867455601728
6.555905024,0.9996885249477169,136.9086320015899
6.55819264,0.9998773793781798,136.75600873056564
6.560480256,1.0000740303063602,136.60056848902522
6.562767872,1.0002662291355724,136.44230479292673
6.565056,1.0004415629538552,136.28140631116636
6.567343616,1.0005891006387349,136.11816019507015
6.569631232,1.0006993436619087,135.9530229975837
6.571918848,1.0007655309408998,135.78663027512334
6.574206464,1.0007833042086653,135.61962536258105
6.57649408,1.0007515563518752,135.45273367655477
6.578781696,1.000672274031523,135.28666208412926
6.581069312,1.0005505833187753,135.1220463497884
6.583356928,1.0003938007379534,134.95944671266443
6.585645056,1.0002121320603035,134.79931611822894
6.587932672,1.0000169812222655,134.64194144692442
6.590220288,0.9998206628612847,134.48740530694525
6.592507904,0.9996357281562765,134.33562683407243
6.59479552,0.9994736881538534,134.1863965548789
6.597083136,0.9993450182173909,134.0393147631173
6.599370752,0.9992578143084184,133.89377199757536
6.601658368,0.9992176142911032,133.7492007467648
6.603945984,0.9992271133492425,133.60482435882844
6.606234112,0.9992854562181916,133.46000221085782
6.608521728,0.9993892943712437,133.3139995742891
6.610809344,0.999531801355162,133.16620422168245
6.61309696,0.99970404549558,133.0161146112431
6.615384576,0.9998952044577313,132.86342812230265
6.617672192,1.0000930168593813,132.70787363462273
6.619959808,1.0002852230290797,132.54953257808856
6.622247424,1.000459276083013,132.38851150284748
6.624535552,1.000604435138,132.22520103309807
6.626823168,1.0007115052641757,132.06006130793895
6.629110784,1.0007735052934523,131.8936978189801
6.6313984,1.000786665158139,131.72679664243955
6.633686016,1.0007501169128912,131.56007807872288
6.635973632,1.000666014757844,131.39422014363325
6.638261248,1.0005399395422065,131.22988711961946
6.640548864,1.0003795619404476,131.06765479229853
6.64283648,1.0001950798705657,130.90791953091215
6.645124608,0.9999982089925032,130.7509658500198
6.647412224,0.9998013662546354,130.5969054190703
6.64969984,0.999616979942037,130.44559623033962
6.651987456,0.999456932451032,130.29680640816636
6.654275072,0.9993311238699412,130.15008266757724
6.656562688,0.9992477505007156,130.00490254218562
6.658850304,0.9992119663103869,129.86061760727435
6.66113792,0.9992261670531092,129.7165013149314
6.663426048,0.9992894374391147,129.57180972025785
6.665713664,0.9993978082580608,129.42590463333786
6.66800128,0.9995443567195114,129.27815759006646
6.670288896,0.9997199107759097,129.1280515018412
6.672576512,0.9999133046210995,128.97525823584442
6.674864128,1.0001121846201924,128.81963711056514
6.677151744,1.0003041949246827,128.66121213276526
6.67943936,1.000477014777894,128.50011124759203
6.681726976,1.0006195798365445,128.3367443800771
6.684015104,1.0007232400095787,128.1716010438963
6.68630272,1.0007810824125976,128.00525984172532
6.688590336,1.0007895512768763,127.83847239294919
6.690877952,1.0007481461399461,127.67190180206511
6.693165568,1.0006593491463456,127.50631473556089
6.695453184,1.00052892873843,127.34229949250607
6.6977408,1.0003647996603233,127.18044473947785
6.700028416,1.0001776609979882,127.02113437104401
6.702316032,0.9999790949111721,126.86463350899605
6.70460416,0.9997818998676152,126.71102059485943
6.706891776,0.999598277620287,126.56018178288502
6.709179392,0.9994402445796892,126.41183269024017
6.711467008,0.9993174842563459,126.26553770663787
6.713754624,0.9992379231790971,126.12072758503868
6.71604224,0.9992067056198497,125.97675461211949
6.718329856,0.9992257420527695,125.83285950409714
6.720617472,0.9992939483416583,125.68833302042552
6.7229056,0.9994068543970681,125.54251290351364
6.725193216,0.9995573923875907,125.39478690318673
6.727480832,0.9997362155160564,125.24465298621789
6.729768448,0.9999317525082502,125.09181876624788
6.732056064,1.0001316373919773,124.93612365676054
6.73434368,1.0003233784588546,124.7776014261196
6.736631296,1.0004946591708788,124.61642430289999
6.738918912,1.0006347957169117,124.4529971452762
6.741206528,1.0007347877686492,124.28784665390569
6.743494656,1.000788385440098,124.1215758458453
6.745782272,1.0007920543828215,123.95492044156029
6.748069888,1.000745727687247,123.78856113352614
6.750357504,1.0006521398005346,123.62321011814998
6.75264512,1.0005173872742192,123.45953914912305
6.754932736,1.0003496984848788,123.29807413236368
6.757220352,1.0001598861105454,123.13920182667233
6.759507968,0.9999597806646472,122.98317435997433
6.761795584,0.999762235353307,122.83003762716224
6.764083712,0.9995795142170103,122.67966019169165
6.766371328,0.9994235308107471,122.53178185539844
6.768658944,0.9993039634906492,122.38591665567165
6.77094656,0.9992283502735634,122.24147049947221
6.773234176,0.9992017073145147,122.09778638286132
6.775521792,0.99922567577397,121.95412133070013
6.777809408,0.9992987087722254,121.80978304661649
6.780097024,0.9994163679436533,121.66403273865512
6.782385152,0.9995709616366611,121.51634894096162
6.784672768,0.9997528115098199,121.36620716897608
6.786960384,0.999950387321335,121.21332140847825
6.789248,1.0001512428606212,121.0575443495931
6.791535616,1.0003426068337566,120.8989124864305
6.793823232,1.0005124389064004,120.73769121408932
6.796110848,1.0006498169528477,120.57423694606287
6.798398464,1.0007460820890741,120.40908505717451
6.80068608,1.0007954251335205,120.24289885691852
6.802974208,1.0007941229690303,120.07636612782765
6.805261824,1.0007428968800034,119.9102177490184
6.80754944,1.0006445502512926,119.74514756365039
6.809837056,1.0005053462247993,119.58183480363665
6.812124672,1.0003341018088645,119.42075718994656
6.814412288,1.000141665796813,119.26233666392599
6.816699904,0.9999400687015024,119.10680240878222
6.81898752,0.9997422613313449,118.95413092651476
6.821275136,0.9995607087074232,118.8042619925045
6.823563264,0.9994068863288001,118.65683747639672
6.82585088,0.999290455215738,118.51140677214819
6.828138496,0.9992190726982458,118.36733850284315
6.830426112,0.9991971466271475,118.22397104726203
6.832713728,0.9992261136759639,118.0805381249873
6.835001344,0.9993040720148685,117.93635097067676
6.83728896,0.9994263474787722,117.7907129497585
6.839576576,0.9995848626723145,117.64305447449199
6.841864704,0.9997698925769827,117.49291202431527
6.84415232,0.9999695057304986,117.33996380638237
6.846439936,1.0001711762236087,117.18411371367873
6.848727552,1.00036201520644,117.02542449512325
6.851015168,1.0005300928636838,116.86413485059013
6.853302784,1.0006646588293184,116.70064444501071
6.8555904,1.0007573513427963,116.53553599720676
6.857878016,1.0008019829651964,116.36942760694295
6.860165632,1.0007959868031637,116.20304397046615
6.86245376,1.0007396978579797,116.03711559354385
6.864741376,1.0006364375264358,115.87235268073042
6.867028992,1.0004929899100519,115.70938578341946
6.869316608,1.0003182679616058,115.54871706605059
6.871604224,1.000123196721585,115.3907752784648
6.87389184,0.9999203810033748,115.23570587336077
6.876179456,0.9997223632148898,115.08357692404155
6.878467072,0.9995418461464964,114.93418484472815
6.880754688,0.9993904195268047,114.78725489902547
6.883042816,0.999277354602584,114.64224654673747
6.885330432,0.9992102979962497,114.4985470666803
6.887618048,0.9991931265641171,114.35548707232826
6.889905664,0.999227098595193,114.21229174894509
6.89219328,0.9993100962500281,114.0682808184854
6.894480896,0.9994368554655331,113.92275536209014
6.896768512,0.9995993411635964,113.77511152693826
6.899056128,0.9997874629470046,113.62494313406654
6.901344256,0.9999888650935032,113.47194908808599
6.903631872,1.0001912637155113,113.31602918416615
6.905919488,1.000381546958165,113.15728221616384
6.908207104,1.0005478591934616,112.99593437377378
6.91049472,1.0006794140096265,112.83245092173817
6.912782336,1.0007681318096366,112.66735372018903
6.915069952,1.000808358444442,112.50133867823382
6.917357568,1.0007973242762196,112.33512401763956
6.919645184,1.0007358961476163,112.16941506546102
6.921933312,1.000627876798286,112.00498102286323
6.924220928,1.0004801093697444,111.84239030584128
