freq,mag,phase
6.0,0.9999682919284424,-67.6962462574738
6.006116352,0.9999707591241457,-67.95368818333436
6.012232192,0.9999756833282157,-68.21123611409853
6.018348544,0.9999820702847123,-68.4688739597294
6.024464896,0.9999896795638831,-68.7266255875876
6.030581248,0.9999977706589563,-68.98447651532001
6.036697088,1.0000062529775608,-69.2424875164013
6.04281344,1.0000142851503953,-69.50059360318826
6.048929792,1.0000216389238998,-69.75882960834365
6.055045632,1.0000278826742235,-70.01712440858252
6.061161984,1.0000325713706373,-70.27552726073426
6.067278336,1.0000355564448964,-70.5340320128758
6.073394688,1.0000364525737948,-70.7925466401874
6.079510528,1.0000353386877678,-71.05107590328349
6.08562688,1.0000322380831435,-71.30962338834861
6.091743232,1.0000273911590183,-71.56805820917123
6.097859072,1.0000210812779784,-71.8264862594123
6.103975424,1.000013458544684,-72.08479829494479
6.110091776,1.000005329718062,-72.34301938353738
6.116208128,0.9999968139962883,-72.60115232236417
6.122323968,0.9999883993475182,-72.8591776927422
6.12844032,0.9999807902023814,-73.11706873333502
6.134556672,0.9999742822179631,-73.37491050110839
6.140673024,0.9999693865949364,-73.6326538751713
6.146788864,0.999965986254972,-73.89038303566018
6.152905216,0.9999648960723178,-74.14807452265404
6.159021568,0.999965753675099,-74.40579170360859
6.165137408,0.999968519274008,-74.66350922567774
6.17125376,0.9999732397884196,-74.9213128915202
6.177370112,0.9999794319944226,-75.17916872666514
6.183486464,0.9999869403833291,-75.43718591801968
6.189602304,0.9999952075223953,-75.69528152940791
6.195718656,1.000003851554415,-75.95353805511196
6.201835008,1.000012346195151,-76.21189182393155
6.207950848,1.0000202353794607,-76.47037494155259
6.2140672,1.000027086993257,-76.72895703122559
6.220183552,1.0000323693416,-76.98764555111303
6.226299904,1.0000359068225417,-77.24642072881765
6.232415744,1.0000374552660352,-77.50523159941416
6.238532096,1.000036847859619,-77.76406707106466
6.244648448,1.0000343558058058,-78.02291200413117
6.250764288,1.0000298116781465,-78.28168567189462
6.25688064,1.0000236303846444,-78.54035901741112
6.262996992,1.0000161336260118,-78.79903215030195
6.269113344,1.0000077826923999,-79.05757473002038
6.275229184,0.9999991237965727,-79.31598328898534
6.281345536,0.9999904036251304,-79.57430880175367
6.287461888,0.9999822061685345,-79.83251853601811
6.293577728,0.9999752113285224,-80.09062355042288
6.29969408,0.9999694972329116,-80.34871576586512
6.305810432,0.9999656411474234,-80.60666126992415
6.311926784,0.9999638322543003,-80.86464233811118
6.318042624,0.9999639632711763,-81.12261663894084
6.324158976,0.9999663098415017,-81.38059721379521
6.330275328,0.999970726188504,-81.63862171432628
6.33639168,0.9999767581829154,-81.89675982614237
6.34250752,0.9999842053469624,-82.15498528306114
6.348623872,0.9999926285009053,-82.41334521879492
6.354740224,1.000001510879089,-82.67179444212026
6.360856064,1.0000104450530427,-82.93039759417165
6.366972416,1.000018783994138,-83.1891139281362
6.373088768,1.000026068879139,-83.44798248715345
6.37920512,1.000032019353853,-83.70695624435129
6.38532096,1.0000361932118946,-83.96597042906838
6.391437312,1.0000384607230237,-84.22504333969532
6.397553664,1.0000385393730784,-84.48418053231795
6.403669504,1.0000364862401963,-84.74328890972465
6.409785856,1.000032317266661,-85.00236097187178
6.415902208,1.000026429148133,-85.26141329514984
6.42201856,1.00001895671467,-85.52035080032947
6.4281344,1.0000107272465268,-85.77916650467704
6.434250752,1.0000016395374307,-86.0379263324865
6.440367104,0.9999926766728039,-86.2965475245498
6.446482944,0.999983897859,-86.555061453194
6.452599296,0.9999763637521785,-86.8134615311806
6.458715648,0.999970018017946,-87.07178509880325
6.464832,0.999965516053445,-87.33001564053492
6.47094784,0.9999628868371373,-87.58825025042516
6.477064192,0.9999627525795115,-87.84645539879877
6.483180544,0.9999643786636868,-88.10465587068312
6.489296384,0.9999683102191067,-88.36295701603123
6.495412736,0.999974117633888,-88.62130764307223
6.501529088,0.9999813853508653,-88.87974298181294
6.50764544,0.9999898206017337,-89.13832675590436
6.51376128,0.9999988694077085,-89.39703066789205
6.519877632,1.0000081445748836,-89.65585450189025
6.525993984,1.000016960132059,-89.91481298621208
6.532110336,1.0000248725020284,-90.1739153293747
6.538226176,1.000031550588461,-90.43310145311261
6.544342528,1.0000364847747956,-90.69240543373762
6.55045888,1.0000393152270526,-90.95172640313123
6.55657472,1.0000399565453006,-91.21114939202786
6.562691072,1.0000383748463249,-91.47054987321054
6.568807424,1.0000347910219847,-91.72991016243758
6.574923776,1.0000291863124569,-91.98922092377714
6.581039616,1.0000218273687493,-92.24845936929788
6.587155968,1.0000135610279022,-92.50759123184667
6.59327232,1.0000043822131341,-92.76664618910804
6.59938816,0.9999949595402011,-93.02553348364845
6.605504512,0.9999858880030745,-93.28435571680156
6.611620864,0.9999775912052308,-93.54302673845164
6.617737216,0.9999706573798149,-93.8016256518442
6.623853056,0.9999655243636091,-94.06013791786926
6.629969408,0.9999622946291339,-94.31856987460822
6.63608576,0.9999613238637197,-94.57702209519388
6.6422016,0.9999625339497592,-94.83548220842151
6.648317952,0.9999659214615564,-95.09398852742333
6.654434304,0.9999712890596565,-95.35256332169324
6.660550656,0.9999785943733288,-95.61121064787139
6.666666496,0.999986920621374,-95.86998096898783
6.672782848,0.9999961984909019,-96.12888967207594
6.6788992,1.0000056942658044,-96.38794750002074
6.68501504,1.0000149446287308,-96.64712035111033
6.691131392,1.000023513580659,-96.90644960801869
6.697247744,1.000030792837406,-97.16589283325584
6.703364096,1.0000363452570695,-97.42541030633242
6.709479936,1.000039852102963,-97.68501861903049
6.715596288,1.000041357561814,-97.94465942999066
6.72171264,1.000040305280165,-98.20433049242295
6.727828992,1.0000371894491817,-98.4639711116828
6.733944832,1.0000318767608949,-98.72356343114701
6.740061184,1.0000248016594417,-98.98310095219284
6.746177536,1.0000164636156477,-99.24251553764759
6.752293376,1.0000071303636902,-99.50183229295568
6.758409728,0.9999974641943022,-99.76102369978227
6.76452608,0.9999880059447129,-100.02006441083495
6.770642432,0.9999791913616884,-100.27901280810606
6.776758272,0.9999715723499621,-100.53788233547142
6.782874624,0.9999656543177824,-100.79663425349577
6.788990976,0.9999616909373432,-101.0553372338894
6.795106816,0.9999599835583647,-101.31401496247534
6.801223168,0.9999607375745307,-101.57267894529404
6.80733952,0.9999635837167496,-101.83139887983285
6.813455872,0.9999685556309489,-102.09015110031389
6.819571712,0.9999754954428536,-102.3490234730005
6.825688064,0.9999839695987027,-102.6079950510777
6.831804416,0.9999932538131853,-102.86708147247654
6.837920256,1.0000030473811428,-103.12632685412565
6.844036608,1.0000128252193492,-103.3857183259349
6.85015296,1.000021975498239,-103.64526757141675
6.856269312,1.000029762487906,-103.90491485186013
6.862385152,1.0000359971997705,-104.16465995096378
6.868501504,1.0000402797094303,-104.42449714597224
6.874617856,1.0000424015482066,-104.6843961689735
6.880733696,1.000042097848709,-104.94430383103276
6.886850048,1.000039508887026,-105.20421726907652
6.8929664,1.0000346061029197,-105.46407323329625
6.899082752,1.000027869371156,-105.7238531862017
6.905198592,1.0000195593298715,-105.98355755960651
6.911314944,1.0000102343879904,-106.24313528379223
6.917431296,1.0000002773846106,-106.50261219298167
6.923547648,0.9999902885108787,-106.76193518838672
6.929663488,0.999980918154928,-107.02115650073313
6.93577984,0.9999727670268068,-107.28024657685339
6.941896192,0.9999661063420636,-107.53924191021713
6.948012032,0.9999614658838091,-107.79816697443702
6.954128384,0.9999590034534895,-108.0570671400013
6.960244736,0.9999589210435834,-108.31593846829696
6.966361088,0.9999612909412694,-108.57486214645337
6.972476928,0.9999659144177963,-108.83380599599602
6.97859328,0.9999724990588081,-109.09283909174209
6.984709632,0.9999807491681522,-109.35197520611017
6.990825472,0.9999901841389299,-109.6112794183787
6.996941824,1.0000002918028312,-109.87069855608269
7.003058176,1.0000104299272605,-110.13027148909714
7.009174528,1.0000199697595336,-110.390008587415
7.015290368,1.0000284365532437,-110.64983734258561
7.02140672,1.0000355386740531,-110.90982199093825
7.027523072,1.0000405735066211,-111.16984987220556
7.033638912,1.0000433222044212,-111.43000649909203
7.039755264,1.0000436995957962,-111.69015282374698
7.045871616,1.0000416046848795,-111.95030019725772
7.051987968,1.0000373739423583,-112.2103945782715
7.058103808,1.0000308319819964,-112.4704561074871
7.06422016,1.0000227228818273,-112.73040911645869
7.070336512,1.0000132805233581,-112.99024275149802
7.076452352,1.0000030832000655,-113.24995776692934
7.082568704,0.9999928490397768,-113.50954708245513
7.088685056,0.9999829726076619,-113.76900348876187
7.094801408,0.9999741182975378,-114.0283292164538
7.100917248,0.999966785865604,-114.28757127134014
7.1070336,0.9999612731475245,-114.54671608497134
7.113149952,0.9999581694467147,-114.80579460576217
7.119266304,0.9999574187432729,-115.06486978989705
7.125382144,0.9999591237924905,-115.32398953706208
7.131498496,0.9999632358737827,-115.58313426141041
7.137614848,0.9999694526869723,-115.84231785890016
7.143730688,0.9999775309902873,-116.10163857102717
7.14984704,0.9999868912400832,-116.3610985930542
7.155963392,0.9999971537134881,-116.62066254432753
7.162079744,1.000007697194179,-116.88039785893169
7.168195584,1.0000177911628594,-117.14031313280786
7.174311936,1.0000268879665721,-117.40034122178675
7.180428288,1.0000346876605728,-117.66050387983103
7.186544128,1.000040454615425,-117.92075351464946
7.19266048,1.0000440136589221,-118.18107600173873
7.198776832,1.000045237988014,-118.44143439114745
7.204893184,1.0000438563901068,-118.70183495056646
7.211009024,1.0000399902483694,-118.96216254109449
7.217125376,1.000033972022643,-119.22246024743687
7.223241728,1.0000260002286165,-119.48266571075858
7.229357568,1.0000165929550435,-119.74277799395661
7.23547392,1.0000063331733444,-120.00269287069982
7.241590272,0.9999956827338512,-120.26254763428697
7.247706624,0.9999853207115954,-120.52224720919634
7.253822464,0.9999758127293787,-120.7818079538057
7.259938816,0.9999677083882075,-121.04123039391501
7.266055168,0.9999615033726347,-121.30058828726477
7.272171008,0.9999575299911092,-121.55988526801903
7.27828736,0.9999559817667402,-121.81913762499805
7.284403712,0.9999570646936455,-122.07841356863138
7.290520064,0.9999606808305641,-122.3376877942432
7.296635904,0.9999664583794511,-122.59703807698868
7.302752256,0.9999743003787654,-122.85653330772423
7.308868608,0.9999835691727956,-123.11614932879691
7.31498496,0.999994029809813,-123.37589215552309
7.3211008,1.000004820910228,-123.63576329112658
7.327217152,1.000015415297749,-123.89581812235511
7.333333504,1.0000252555672358,-124.15601126941533
7.339449344,1.0000336739091766,-124.41631413213419
7.345565696,1.0000402451535702,-124.6767677287525
7.351682048,1.000044666442507,-124.93726750282369
7.3577984,1.0000465715383247,-125.19786087802518
7.36391424,1.000045882119495,-125.4584587286761
7.370030592,1.000042666442219,-125.71901526587835
7.376146944,1.000037051462167,-125.97951953417486
7.382262784,1.0000293970062548,-126.2399674202395
7.388379136,1.0000200206343337,-126.50028816122001
7.394495488,1.0000096799395584,-126.76046329868538
7.40061184,0.9999987234570084,-127.02053373570472
7.40672768,0.9999878921907898,-127.28043328332687
7.412844032,0.9999777484869471,-127.54020095200806
7.418960384,0.9999689608201627,-127.79987096075101
7.425076224,0.9999619629191043,-128.05939239434727
7.431192576,0.9999571735979408,-128.31887922566963
7.437308928,0.9999548554771762,-128.57830521359764
7.44342528,0.9999552017552502,-128.83772119196882
7.44954112,0.9999580948559188,-129.0971709938297
7.455657472,0.9999634687702876,-129.35670121119858
7.461773824,0.999971023432776,-129.61630379884443
7.467889664,0.99998020541061,-129.8760230852049
7.474006016,0.9999906887294973,-130.13590259596768
7.480122368,1.0000017834703203,-130.39592389736023
7.48623872,1.0000128910101242,-130.65609151367073
7.49235456,1.0000232427197089,-130.91644622338163
7.498470912,1.0000323800250701,-131.1769194334488
7.504587264,1.0000398566393764,-131.43752786118688
7.510703616,1.0000451007643723,-131.69820845517563
7.516819456,1.0000477851246001,-131.95897696958588
7.522935808,1.0000478974242304,-132.21973191331924
7.52905216,1.000045237251186,-132.48051887380802
7.535168,1.0000401758756805,-132.74124715868646
7.541284352,1.000032807623951,-133.00188560546465
7.547400704,1.0000236629881303,-133.26243512865938
7.553517056,1.00001321600288,-133.5228331893499
7.559632896,1.0000019668880553,-133.783118245449
7.565749248,0.9999907997803043,-134.04320781119642
7.5718656,0.9999800284820822,-134.30319680236326
7.57798144,0.9999705208398051,-134.56303994490264
7.584097792,0.9999627476516146,-134.82274652700303
7.590214144,0.999957015979148,-135.08241228257245
7.596330496,0.9999539037552871,-135.3420166068116
7.602446336,0.9999534383075157,-135.60156035405663
7.608562688,0.9999557152475453,-135.86114330885957
7.61467904,0.9999604981568234,-136.1207882588646
7.62079488,0.9999676851747653,-136.38052047967443
7.626911232,0.9999767056413679,-136.64033956510656
7.633027584,0.9999872074828692,-136.9003322791531
7.639143936,0.999998543338529,-137.16048012322617
7.645259776,1.000009982700417,-137.42077514937463
7.651376128,1.0000209764484835,-137.68122903549303
7.65749248,1.000030801786875,-137.9418448988876
7.66360832,1.0000390354597137,-138.20258697636996
7.669724672,1.0000451339283234,-138.46343728046972
7.675841024,1.0000486991526587,-138.72436332437067
7.681957376,1.0000495841873889,-138.98530538120804
7.688073216,1.0000477299256332,-139.24625428175523
7.694189568,1.0000432085293176,-139.50717608964646
7.70030592,1.0000362345877885,-139.76802636648566
7.706422272,1.0000272670944204,-140.0287639875748
7.712538112,1.0000167830860505,-140.2893932481694
7.718654464,1.000005405993889,-140.54985403888517
7.724770816,0.9999937339607878,-140.81017785705356
7.730886656,0.9999824727041421,-141.07033424567908
7.737003008,0.9999723176200539,-141.33035760009741
7.74311936,0.9999636830444162,-141.59024217564587
7.749235712,0.9999571420662133,-141.85005850806448
7.755351552,0.9999531177946316,-142.1097779697401
7.761467904,0.9999518075897598,-142.36948266954
7.767584256,0.9999533115737962,-142.6292018384779
7.773700096,0.9999575745440921,-142.88893177406095
7.779816448,0.9999642782617782,-143.14875148615556
7.7859328,0.9999731497418399,-143.40869863913284
7.792049152,0.9999835662977556,-143.66878747574944
7.798164992,0.9999950018467137,-143.92901984764865
7.804281344,1.0000068126166135,-144.18940171153395
7.810397696,1.000018377180691,-144.44996154640575
7.816513536,1.0000289690849726,-144.7106904127822
7.822629888,1.0000380005070046,-144.97155665775648
7.82874624,1.0000449139441818,-145.2325558354104
7.834862592,1.0000493524509266,-145.49360091070764
7.840978432,1.0000511069855675,-145.7547360522579
7.847094784,1.0000499972761117,-146.01583327693595
7.853211136,1.0000460975391696,-146.27692393451503
7.859326976,1.0000396343615436,-146.53795875165355
7.865443328,1.0000309638263873,-146.79886920305896
7.87155968,1.0000206096506712,-147.05969517401383
7.877676032,1.0000090582404964,-147.32031594043934
7.883791872,0.9999970624450399,-147.5808438816814
7.889908224,0.99998524911117,-147.84118709515343
7.896024576,0.9999743580097159,-148.1013626870288
7.902140928,0.9999648873970609,-148.3614424507725
7.908256768,0.9999575592721682,-148.62136066535672
7.91437312,0.9999526068461452,-148.8812141911617
7.920489472,0.9999504554083917,-149.14103752277907
7.926605312,0.9999511515487614,-149.40085547473677
7.932721664,0.9999547408599475,-149.66070042874674
7.938838016,0.9999608935595415,-149.92061560145797
7.944954368,0.9999693676011815,-150.18063714459853
7.951070208,0.9999797179557125,-150.44080235347377
7.95718656,0.9999912895581033,-150.70109487251466
7.963302912,1.0000035149031836,-150.96155278082048
7.969418752,1.0000154818442777,-151.2222093863119
7.975535104,1.0000268098360259,-151.4830296900997
7.981651456,1.0000365699785028,-151.74398585047288
7.987767808,1.000044470310287,-152.0050977741825
7.993883648,1.0000497767036016,-152.2662583829698
8.0,1.0000523793460332,-152.52753305876408
8.006116352,1.0000521351851903,-152.7887841383173
8.012232192,1.0000489845644465,-153.0500330103167
8.018348544,1.0000430239689713,-153.31120798091078
8.024464896,1.00003468919383,-153.57231051304316
8.030581248,1.0000244636394413,-153.833297294332
8.036697088,1.0000128422353134,-154.09412142582735
8.04281344,1.000000587981304,-154.3547963143261
8.048929792,0.9999882894991513,-154.61528434888206
8.055045632,0.9999767310270218,-154.87562643170972
8.061161984,0.9999665352281149,-155.1358354179422
8.067278336,0.9999581940216307,-155.3958993094356
8.073394688,0.9999524272791604,-155.65589219009885
8.079510528,0.9999493033028959,-155.91580649791257
8.08562688,0.9999492001777699,-156.17572089477304
8.091743232,0.9999519921536593,-156.43564639971072
8.097859072,0.9999576495706984,-156.69563363470965
8.103975424,0.9999657584344115,-156.95570864762334
8.110091776,0.999975916242697,-157.21592393020407
8.116208128,0.9999875477405681,-157.47628723164505
8.122323968,0.9999999332239482,-157.73682745911745
8.12844032,1.0000124976547853,-157.99752770124206
8.134556672,1.0000243510717466,-158.25840688376707
8.140673024,1.0000349620085527,-158.51947081560115
8.146788864,1.0000437749253774,-158.7806447248649
8.152905216,1.0000500772433736,-159.04194113130836
8.159021568,1.0000536349832476,-159.30327226058608
8.165137408,1.0000541481545433,-159.56467371234038
8.17125376,1.0000517156735025,-159.82607133964987
8.177370112,1.000046422603706,-160.08740928410518
8.183486464,1.0000385319031388,-160.34866100174114
8.189602304,1.0000285680415075,-160.6097761628367
8.195718656,1.000016873314079,-160.87077288355158
8.201835008,1.0000043526606626,-161.13158598816378
8.207950848,0.9999916020874982,-161.3922410876243
8.2140672,0.9999794503476264,-161.65272424972127
8.220183552,0.9999683859289719,-161.91305749605735
8.226299904,0.9999592677798366,-162.17324211679414
8.232415744,0.9999523948418219,-162.43333460365045
8.238532096,0.9999483874773077,-162.69336971258696
8.244648448,0.9999473282776054,-162.95333261007391
8.250764288,0.999949389129816,-163.21332058296858
8.25688064,0.999954415390745,-163.47336765271854
8.262996992,0.9999620760318351,-163.73349597912028
8.269113344,0.999971891103142,-163.99374682611102
8.275229184,0.9999835238285748,-164.25414809803178
8.281345536,0.9999962537748774,-164.51473246401628
8.287461888,1.0000091610759194,-164.77547346101636
8.293577728,1.0000216659331687,-165.03641634554128
8.29969408,1.0000330694687316,-165.29751496416503
8.305810432,1.000042631931348,-165.55875704410514
8.311926784,1.0000499668318923,-165.8201336439692
8.318042624,1.0000544359256829,-166.08156587617776
8.324158976,1.0000560428828573,-166.34309290261865
8.330275328,1.000054387661942,-166.60458849678528
8.33639168,1.000049759635825,-166.8660330647498
8.34250752,1.0000423962779106,-167.1274332675726
8.348623872,1.0000326355545066,-167.38870754749968
8.354740224,1.00002108557104,-167.64982403234518
8.360856064,1.0000083103206956,-167.91079169974844
8.366972416,0.9999951884614597,-168.17158341372178
8.373088768,0.9999823246094538,-168.432194141153
8.37920512,0.999970575570215,-168.69263242880277
8.38532096,0.9999605136003625,-168.95293662742668
8.391437312,0.9999527339962541,-169.21312286432584
8.397553664,0.999947778336746,-169.47320600794055
8.403669504,0.9999456843809698,-169.73326535849472
8.409785856,0.9999469171553651,-169.9932888579444
8.415902208,0.9999511935765885,-170.25337099236086
8.42201856,0.9999582488337391,-170.51352764634032
8.4281344,0.9999678643337725,-170.7738030484794
8.434250752,0.999979373727521,-171.03423402793186
