freq,mag,phase
6.0,0.9998860861184033,6.2619450177951865
6.007568384,0.999796105281442,6.0422226966253545
6.01513728,0.9997189020875699,5.823636367969968
6.022705664,0.9996574748600928,5.605943691839411
6.03027456,0.999615127673002,5.3889778141738836
6.037842944,0.9995945668635683,5.17247042953581
6.045411328,0.9995965760331361,4.956023159939391
6.052980224,0.9996211489753875,4.739404145352947
6.060548608,0.9996671500833436,4.522297445728042
6.068117504,0.9997319309866465,4.304443659934527
6.075685888,0.9998118314091368,4.085575347729292
6.083254272,0.9999024297771064,3.865524487822576
6.090823168,0.9999987561530992,3.644227909584557
6.098391552,1.0000955191347372,3.4215774937715757
6.105960448,1.0001872151062718,3.1976389670796093
6.113528832,1.0002688529269919,2.9725294991588864
6.121097216,1.0003359177450057,2.746397533922644
6.128666112,1.0003845642784026,2.519457591224365
6.136234496,1.0004121382338327,2.292003436852011
6.143803392,1.0004170317118035,2.064320056222595
6.151371776,1.0003991426647525,1.8366495251760597
6.15894016,1.0003592843841456,1.6094182421340133
6.166509056,1.0002995447990477,1.3828268623275384
6.17407744,1.000223526328173,1.157140299047544
6.181646336,1.0001351007996682,0.9325782686063504
6.18921472,1.0000394283729372,0.7092635670895898
6.196783104,0.9999416767310157,0.4871989157429313
6.204352,0.9998471993500361,0.2664810886906059
6.211920384,0.999761380518865,0.04694198659373873
6.21948928,0.9996889906803178,-0.17149463561806352
6.227057664,0.9996339498806576,-0.3890845863522465
6.234626048,0.9995994138841966,-0.6060842363441507
6.242194944,0.999587365477899,-0.8227848779222279
6.249763328,0.9995983061264088,-1.0394448091134982
6.257332224,0.9996319697932735,-1.2564705237327536
6.264900608,0.9996862539791237,-1.4740516865132636
6.272469504,0.9997582973446439,-1.6925412792684453
6.280037888,0.9998439008416374,-1.9120853833199232
6.287606272,0.9999384836791096,-2.1329166309157395
6.295175168,1.0000368455011392,-2.3549826131966767
6.302743552,1.000133447685308,-2.578427677935731
6.310312448,1.0002228909186595,-2.803166737864086
6.317880832,1.0003003491702223,-3.0290532120979567
6.325449216,1.0003613794769328,-3.2558898905259057
6.333018112,1.0004026477653303,-3.4833987766321055
6.340586496,1.0004217428979552,-3.711345246939899
6.348155392,1.0004177660354858,-3.939419159562702
6.355723776,1.000390732886166,-4.167301095499294
6.36329216,1.0003423268639875,-4.394690391975674
6.370861056,1.00027492106389,-4.621283288970328
6.37842944,1.0001925503379163,-4.846903539730446
6.385998336,1.0000995290532302,-5.07131322974121
6.39356672,1.0000011076248538,-5.294445489783504
6.401135104,0.9999027524019418,-5.516296334569244
6.408704,0.9998098687602333,-5.736788055800692
6.416272384,0.9997277831536061,-5.956134649585822
6.42384128,0.9996608420375128,-6.1744715634090825
6.431409664,0.9996129087224183,-6.392032214756965
6.438978048,0.9995865868429193,-6.6091044951571085
6.446546944,0.9995834943529989,-6.825982217328335
6.454115328,0.9996036794978783,-7.0429729012153475
6.461684224,0.9996461110386216,-7.260428622576783
6.469252608,0.9997085059782025,-7.478560353077573
6.476820992,0.999787221964455,-7.697719478235594
6.484389888,0.9998781633097918,-7.9180091894366225
6.491958272,0.9999760656051545,-8.139586610224262
6.499527168,1.000075623150701,-8.362556414005645
6.507095552,1.0001712817143422,-8.586807733818814
6.514663936,1.0002577480432613,-8.812319540872918
6.522232832,1.0003301520456453,-9.038969022516163
6.529801216,1.0003845845470325,-9.266435897633258
6.537370112,1.0004178862163629,-9.494546238232026
6.544938496,1.0004282791441352,-9.722980938801538
6.55250688,1.000415118155124,-9.95134798053638
6.560075776,1.0003790266443244,-10.1794836941751
6.56764416,1.0003220986048418,-10.40694141117483
6.575213056,1.0002474692861507,-10.633536003697916
6.58278144,1.000159240683673,-10.859039411714365
6.590349824,1.0000622365307932,-11.083271711870184
6.59791872,0.9999619118685995,-11.30622607528019
6.605487104,0.9998638562573742,-11.527826312529978
6.613056,0.9997733202897408,-11.748137991249116
6.620624384,0.9996955852964747,-11.967323994815024
6.628192768,0.9996349100206664,-12.185582884269124
6.635761664,0.9995945292903669,-12.40316248410143
6.643330048,0.9995768896180657,-12.620338954164916
6.650898944,0.9995829542578725,-12.837455752790515
6.658467328,0.999612346824027,-13.05483417593672
6.666035712,0.9996635521973913,-13.272750918790196
6.673604608,0.9997336875220231,-13.491534478964622
6.681172992,0.9998188692715078,-13.711360459646365
6.688741888,0.9999142584576987,-13.932416802186518
6.696310272,1.0000148829514874,-14.1548393600072
6.703878656,1.0001148219270692,-14.378616357225804
6.711447552,1.0002087867348841,-14.603745217344375
6.719015936,1.000291475113362,-14.830078407370166
6.726584832,1.000358180522062,-15.057424763954845
6.734153216,1.0004052944495194,-15.285553992448424
6.7417216,1.0004301964550948,-15.514201334468515
6.749290496,1.0004314881850553,-15.743041106633912
6.75685888,1.0004088821024788,-15.971791413471015
6.764427776,1.0003639616906705,-16.20000482976931
6.77199616,1.0002988972666904,-16.427576243255565
6.779565056,1.0002173987621097,-16.65412737370083
6.78713344,1.000123987812258,-16.87950836684368
6.794701824,1.0000236656739312,-17.103604097258227
6.80227072,0.9999221523301959,-17.326306374704203
6.809839104,0.9998250207892575,-17.547695531203026
6.817408,0.9997378440725856,-17.767820400504192
6.824976384,0.9996652376454822,-17.986874057646226
6.832544768,0.9996113126243376,-18.205068656565796
6.840113664,0.999579172949042,-18.422721368736166
6.847682048,0.999570524366714,-18.640076234435366
6.855250944,0.999585847341041,-18.857518437140275
6.862819328,0.999624533203227,-19.07530812223373
6.870387712,0.9996841793757597,-19.293783118899277
6.877956608,0.9997616967668921,-19.51320843430152
6.885524992,0.9998527766928883,-19.733776633067883
6.893093888,0.9999521415376776,-19.955652598643688
6.900662272,1.000054554979569,-20.178905930033693
6.908230656,1.0001542214728696,-20.403570498471673
6.915799552,1.0002455977559812,-20.62953802808703
6.923367936,1.000323653239785,-20.85663338986082
6.930936832,1.0003839861753847,-21.084729882883536
6.938505216,1.0004233405251277,-21.313502785079564
6.9460736,1.0004393832589713,-21.542675555191536
6.953642496,1.000431285711094,-21.771888102055545
6.96121088,1.0003994274672874,-22.000866790377998
6.968779776,1.0003454422547942,-22.229289794827583
6.97634816,1.0002726569317029,-22.456848654416582
6.983916544,1.0001847099327401,-22.6833571798994
6.99148544,1.0000865704819042,-22.908558790250773
6.999053824,0.9999838006983387,-23.132463720200242
7.00662272,0.9998820111905835,-23.354962460132704
7.014191104,0.9997867978522362,-23.576130060712728
7.021759488,0.9997035021796982,-23.796110737122472
7.029328384,0.9996368893232267,-24.015082189117457
7.036896768,0.9995902653951797,-24.233275618928186
7.044465664,0.999566871729541,-24.45099403360543
7.052034048,0.9995674479241371,-24.668624464513172
7.059602432,0.9995923573032397,-24.886372098238393
7.067171328,0.9996400328126104,-25.104681862913584
7.074739712,0.9997081023491726,-25.323768021047567
7.082308608,0.9997925500089053,-25.54388020990224
7.089876992,0.9998888075753496,-25.765197658629834
7.097445376,0.9999914938583748,-25.987965690404454
7.105014272,1.0000949596900945,-26.2121013177322
7.112582656,1.0001934386509417,-26.437622951294603
7.120151552,1.0002815146059711,-26.664448960036655
7.127719936,1.0003542252273196,-26.892322541761626
7.13528832,1.0004075586300807,-27.12112091825544
7.142857216,1.0004384893975533,-27.35048166085937
7.1504256,1.0004453696595468,-27.580133929300178
7.157994496,1.0004275911005875,-27.809732308277805
7.16556288,1.0003864550303907,-28.03895191294793
7.173131264,1.0003239952292504,-28.267439207504747
7.18070016,1.000243532970038,-28.494999396865246
7.188268544,1.0001497881161356,-28.72139462660222
7.19583744,1.0000476801527622,-28.946473580160898
7.203405824,0.9999431775799514,-29.170143170930018
7.210974208,0.9998417990283687,-29.392477270709715
7.218543104,0.9997491776385781,-29.613429728023032
7.226111488,0.9996707382499912,-29.833300408099195
7.233680384,0.9996105865343827,-30.052184229488635
7.241248768,0.9995721292938039,-30.270440121440707
7.248817152,0.9995576158294496,-30.4883355942398
7.256386048,0.9995679581611663,-30.706194148604606
7.263954432,0.9996023152905663,-30.924401662663378
7.271523328,0.9996591567078601,-31.143216482568626
7.279091712,0.9997349536889348,-31.362946467069413
7.286660608,0.9998258957138801,-31.583855206923825
7.294228992,0.9999267784818068,-31.80602858718356
7.301797376,1.0000319818728391,-32.029613219164126
7.309366272,1.0001356875940646,-32.254668501036356
7.316934656,1.0002321504570644,-32.4811114754584
7.324503552,1.0003160242415048,-32.708731486920485
7.332071936,1.000382694858117,-32.93741168972558
7.33964032,1.0004283833729162,-33.16688488435305
7.347209216,1.0004505300575097,-33.396826441690635
7.3547776,1.0004478378204698,-33.62692004642139
7.362346496,1.0004205869551335,-33.85682766607869
7.36991488,1.0003700523349437,-34.08621813188571
7.377483264,1.0002990750675957,-34.314801496756594
7.38505216,1.0002116969815813,-34.54232558150235
7.392620544,1.0001125954831835,-34.76862254684651
7.40018944,1.0000073825459594,-34.99349320542623
7.407757824,0.9999018563991985,-35.2169658080485
7.415326208,0.9998016913389388,-35.43909384216705
7.422895104,0.9997126459105209,-35.65990183587621
7.430463488,0.9996397244802933,-35.879605241857405
7.438032384,0.9995868141201645,-36.09850239663692
7.445600768,0.9995571067361938,-36.316827722833665
7.453169152,0.9995518541549905,-36.5349447843759
7.460738048,0.9995719678281247,-36.753153813012354
7.468306432,0.9996158924387539,-36.97183849714271
7.475875328,0.9996813531358418,-37.19124806366538
7.483443712,0.9997649464878476,-37.41167321200988
7.491012096,0.9998616914516161,-37.63335137572493
7.498580992,0.999966528344725,-37.85639669011124
7.506149376,1.0000735108656191,-38.0809213896034
7.513718272,1.0001767056503073,-38.30688736686091
7.521286656,1.0002702953044202,-38.534177815329606
7.52885504,1.0003493342460952,-38.76267497009963
7.536423936,1.0004092107896418,-38.99211271547008
7.54399232,1.0004465463104784,-39.22225645034834
7.551561216,1.0004594060886414,-39.45273296628129
7.5591296,1.0004469829567313,-39.6832187940969
7.566697984,1.0004099807920492,-39.913447901020874
7.57426688,1.0003502283565329,-40.14297043372934
7.581835264,1.000271277374174,-40.371580614628854
7.58940416,1.0001773573831942,-40.5990554887646
7.596972544,1.0000736827915981,-40.825174788613765
7.604540928,0.999965898306944,-41.04990158579589
7.612109824,0.999860131811893,-41.27316890135797
7.619678208,0.9997622142039901,-41.49508705908788
7.627247104,0.999677428424896,-41.71574957493225
7.634815488,0.9996106035816352,-41.935398648589505
7.642383872,0.9995657960042057,-42.15431585173071
7.649952768,0.999545041630387,-42.37276406427069
7.657521152,0.9995496314715997,-42.59114027232105
7.665090048,0.9995795431373566,-42.809757406719925
7.672658432,0.9996330850533807,-43.028970808522146
7.680226816,0.9997070472697177,-43.249003837335394
7.687795712,0.9997977181142726,-43.470207341276414
7.695364096,0.9998998374116377,-43.69272778928723
7.702932992,1.000007772681323,-43.91669650224834
7.710501376,1.0001156585442437,-44.14216026040733
7.71806976,1.000217421010181,-44.36902139071576
7.725638656,1.0003073382905565,-44.59720499886612
7.73320704,1.0003806860556799,-44.82653561665314
7.740775936,1.000433110361389,-45.056712031190486
7.74834432,1.0004616943026174,-45.28749482278098
7.755913216,1.0004648589109038,-45.51848260631825
7.7634816,1.0004425333121918,-45.74937092623578
7.771049984,1.0003958037048652,-45.97979140633695
7.77861888,1.0003270252622578,-46.20944532777592
7.786187264,1.0002405129560559,-46.43808178926041
7.79375616,1.0001406328823055,-46.665438233984254
7.801324544,1.0000329249200544,-46.89143634578626
7.808892928,0.9999234909472271,-47.1159164180497
7.816461824,0.9998183945173357,-47.33901519005538
7.824030208,0.9997233356857945,-47.560727128631896
7.831599104,0.9996436905109871,-47.78130610689879
7.839167488,0.9995841124977296,-48.00091900929749
7.846735872,0.9995475573470832,-48.2198867451911
7.854304768,0.999536266506237,-48.4385280248133
7.861873152,0.999551052300959,-48.65720147421713
7.869442048,0.9995908902532346,-48.876272473147274
7.877010432,0.9996536963202672,-49.09605866836173
7.884578816,0.9997358522869372,-49.31683554524586
7.892147712,0.9998330964707454,-49.53881949989217
7.899716096,0.9999397305534546,-49.76224744386169
7.907284992,1.000050283273322,-49.9871326486706
7.914853376,1.000158328489527,-50.21352750238442
7.92242176,1.00025772870191,-50.441348185806575
7.929990656,1.0003432187783503,-50.67047038339286
7.93755904,1.0004099626701637,-50.90058528724122
7.945127936,1.0004542877181895,-51.1314904202712
7.95269632,1.0004735885904403,-51.36286803831427
7.960264704,1.0004667719062956,-51.59431463381327
7.9678336,1.0004343848254145,-51.825537298435265
7.975401984,1.0003779360548473,-52.05617677962129
7.98297088,1.0003006098811096,-52.2859079210139
7.990539264,1.0002068011475025,-52.51450699601897
7.998107648,1.0001014691163677,-52.74177764275754
8.005676544,0.9999906242995517,-52.967570796879166
8.013244928,0.9998803947147971,-53.191896331271245
8.020813824,0.9997768056575892,-53.41476669980529
8.028382208,0.999685572586064,-53.63631135506709
8.035950592,0.9996119394886572,-53.85678146468694
8.043519488,0.9995599299189418,-54.076374273084504
8.051087872,0.9995325243362552,-54.29548234670629
8.058656768,0.9995312141509196,-54.514359129587554
8.066225152,0.9995561399426249,-54.7334251488618
8.073793536,0.9996057460071345,-54.953040450421675
8.081362432,0.9996776903641977,-55.17344780010643
8.088930816,0.9997677187230948,-55.39499621188731
8.096499712,0.9998709879208038,-55.61784170677012
8.104068096,0.9999816856298227,-55.84218764447953
8.11163648,1.000093858784901,-56.06803318702255
8.119205376,1.0002010278388345,-56.2954038077858
8.12677376,1.0002974058458058,-56.524160438377095
8.134342656,1.0003776122251378,-56.75414950176938
8.14191104,1.000437120533934,-56.9850809841571
8.149479424,1.0004726113990938,-57.21666819966569
8.15704832,1.000482082232918,-57.44861009123628
8.164616704,1.0004651812995158,-57.680533259812904
8.1721856,1.0004225114363237,-57.91200614057917
8.179753984,1.0003566201440337,-58.142806805816946
8.187322368,1.000271044942537,-58.37259965301194
8.194891264,1.0001703811512668,-58.60113389053351
8.202459648,1.0000605264592364,-58.82826167988679
8.210028544,0.999947174321943,-59.053891641755484
8.217596928,0.9998368470831291,-59.27799185412761
8.225165312,0.9997356110135285,-59.50067576075214
8.232734208,0.9996491699243314,-59.722117256831915
8.240302592,0.99958218799292,-59.94250436068129
8.247871488,0.9995385649466567,-60.16215762290119
8.255439872,0.9995206552544627,-60.38141371626523
8.263008768,0.9995295727208622,-60.600589720379794
8.270577152,0.9995647600114277,-60.82009805790242
8.278145536,0.9996243920248298,-61.04026870643969
8.285714432,0.9997051852840729,-61.26139610523138
8.293282816,0.9998025203889673,-61.48376244352092
8.300851712,0.9999111365681073,-61.707528842267344
8.308420096,1.0000250943319604,-61.93281566898418
8.31598848,1.0001379651348703,-62.15965938776437
8.323557376,1.0002436201075138,-62.38799733591037
8.33112576,1.0003359028471306,-62.61771463682163
8.338694656,1.0004100322590095,-62.84859020016338
8.34626304,1.0004615773607974,-63.08029332853455
8.353831424,1.000487676507421,-63.31255900474526
8.36140032,1.0004871602106307,-63.545021083610024
8.368968704,1.0004598320100746,-63.77731272864033
8.3765376,1.0004070181138855,-64.00908618282305
8.384105984,1.0003317095622093,-64.24001838320198
8.391674368,1.000238269966204,-64.4697817482558
8.399243264,1.0001314644525787,-64.69825605999442
8.406811648,1.000017606509637,-64.92521939285872
8.414380544,0.9999026400864275,-65.1506445055084
8.421948928,0.9997932207417882,-65.37454001626506
8.429517312,0.999695275401149,-65.59709198689069
8.437086208,0.9996142863707598,-65.81840287330765
8.444654592,0.9995547673008977,-66.0387579746263
8.452223488,0.9995201476920776,-66.25851387240245
8.459791872,0.9995122960710034,-66.47797721372176
8.467360256,0.9995317662040285,-66.69750961918551
8.474929152,0.9995773581567067,-66.91753832697682
8.482497536,0.9996466805359595,-67.13832640236228
8.490066432,0.9997358856448284,-67.36023371697858
8.497634816,0.9998400965147782,-67.58344886733727
8.5052032,0.999953563731333,-67.80814118780556
8.512772096,1.000069915346196,-68.03442540563354
8.52034048,1.0001826787416013,-68.26228478578476
8.527909376,1.0002857257099305,-68.49162107023986
8.53547776,1.0003731806916358,-68.72228214650612
8.543046144,1.0004403569059157,-68.95398599171789
8.55061504,1.000483286501133,-69.18649822031821
8.558183424,1.000499654948047,-69.41939389001655
8.56575232,1.000488516687115,-69.65234399214032
8.573320704,1.0004506020242199,-69.88502127750465
8.580889088,1.0003877797053922,-70.11699263808158
8.588457984,1.000303445342365,-70.3479945754103
8.596026368,1.0002024227044997,-70.57777246983422
8.603594752,1.0000902314834044,-70.80608589769571
8.61116416,0.9999730546240418,-71.03289304196969
8.618732544,0.9998574068679145,-71.25810963493072
8.626300928,0.9997497482290991,-71.48183384918954
8.633869312,0.999655938330183,-71.7042126610011
8.641437696,0.9995812071627812,-71.92545074979398
8.649007104,0.999530008355987,-72.14582974357505
8.656575488,0.9995049646312062,-72.36572349316343
8.664143872,0.999507465035364,-72.5854509130092
8.671712256,0.9995376515168217,-72.80541509389597
8.67928064,0.9995936225479377,-73.02596693931805
8.686850048,0.9996725565266247,-73.24749842721991
8.694418432,0.999769746094903,-73.47020066290969
8.701986816,0.9998802976311999,-73.69430392349923
8.7095552,0.9999977557942532,-73.92000875866773
8.717123584,1.0001156857081985,-74.14732918769276
8.724692992,1.0002274639657867,-74.37621115881912
8.732261376,1.000327042496513,-74.60654889179754
8.73982976,1.0004088205596988,-74.8381419700659
8.747398144,1.0004682355126184,-75.07070622836115
8.754966528,1.0005018900972216,-75.30394551298028
8.762535936,1.0005080806348303,-75.53744532975347
8.77010432,1.0004861790487816,-75.7708560809853
8.777672704,1.0004374967297305,-76.00382537413441
8.785241088,1.000364772077272,-76.23597173768285
8.792809472,1.0002718707128402,-76.4670394725158
8.80037888,1.0001639399889157,-76.69673737522604
8.807947264,1.0000468727522875,-76.92494232505726
8.815515648,0.9999272268872267,-77.1515495641562
8.823084032,0.9998117683848493,-77.3765596948222
8.830652416,0.9997067148159998,-77.60011056064374
8.838221824,0.999617966131562,-77.82234835092152
8.845790208,0.9995504423837561,-78.04354220189781
8.853358592,0.9995080691389403,-78.26400007142882
8.860926976,0.9994931747724431,-78.48405482058894
8.86849536,0.9995065049933097,-78.70413396797271
8.876064768,0.9995474693127084,-78.92457403754024
8.883633152,0.9996138339360655,-79.14579550980547
8.891201536,0.9997019156672489,-79.3680135094851
8.89876992,0.999806967882913,-79.59160810335207
8.906338304,0.9999230352535994,-79.81670694342132
8.913907712,1.0000435655823254,-80.0434331355581
8.921476096,1.0001623169159377,-80.2717841771783
8.92904448,1.0002723005475833,-80.5017095080263
8.936612864,1.000367543367813,-80.73305896029916
8.944181248,1.0004426811544953,-80.96556279213003
8.951750656,1.0004936166315348,-81.19897284269864
8.95931904,1.0005174632112392,-81.43287837700393
8.966887424,1.0005129582295993,-81.66696729329402
8.974455808,1.0004800124886102,-81.90080720709281
8.982024192,1.0004206294678164,-82.13404364056646
8.9895936,1.0003381699989973,-82.36633817769443
8.997161984,1.0002369368443305,-82.59742043701644
9.004730368,1.0001226243054389,-82.82703062622788
9.012298752,1.000001487637842,-83.05505702072466
9.019867136,0.9998803041501687,-83.28149268654813
9.027436544,0.9997659527732756,-83.50630312246756
