freq,mag,phase
6.0,1.0006082078262513,-124.14651677255503
6.002287616,1.0004177107070298,-124.30216762308685
6.004575232,1.0002014876829608,-124.45484678238243
6.006862848,0.9999724060585229,-124.60424336037954
6.009150464,0.999745156157382,-124.7503544483843
6.011438592,0.9995340790177144,-124.89322849468097
6.013726208,0.9993525323811254,-125.03324662759422
6.016013824,0.9992121784488358,-125.17092983672072
6.01830144,0.9991218430884342,-125.30688731259066
6.020589056,0.9990872997951081,-125.44191175950338
6.022876672,0.9991108461210161,-125.57684458323115
6.025164288,0.9991908468015726,-125.71254653233295
6.027451904,0.9993223906199068,-125.84975908944885
6.029740032,0.9994970174191771,-125.98919713515807
6.032027648,0.9997037765115288,-126.13139695555942
6.034315264,0.9999294618025723,-126.27674505209187
6.03660288,1.0001596112947384,-126.42536458513953
6.038890496,1.0003798531158912,-126.57728269169343
6.041178112,1.0005760949235945,-126.73221328299624
6.043465728,1.0007359982411503,-126.88968721464842
6.045753344,1.0008492454579356,-127.04914882502804
6.04804096,1.0009089593240061,-127.20986586857323
6.050329088,1.0009110949173405,-127.37100261995988
6.052616704,1.0008556454775364,-127.5317651211917
6.05490432,1.000745826813954,-127.69129161725563
6.057191936,1.000588944463577,-127.8488868510307
6.059479552,1.000394718708497,-128.00390923435927
6.061767168,1.0001754163000114,-128.1559374611606
6.064054784,0.9999450248663225,-128.30466084449816
6.0663424,0.9997180329859039,-128.4500574769717
6.068630016,0.9995090529474568,-128.59225319435015
6.070918144,0.999331170561699,-128.73162576950412
6.07320576,0.9991957041992449,-128.86873669704613
6.075493376,0.9991113594154807,-129.00418886019676
6.077780992,0.9990835430019099,-129.13880158282217
6.080068608,0.9991139321614281,-129.27342286332637
6.082356224,0.9992006752564251,-129.40889128942135
6.08464384,0.9993382275033565,-129.54598370693748
6.086931456,0.9995178847466212,-129.68536940623497
6.089219584,0.9997282759273772,-129.82758339748892
6.0915072,0.9999560604957034,-129.97297156368842
6.093794816,1.0001866674604798,-130.12168187073414
6.096082432,1.000405554078028,-130.27364306296622
6.098370048,1.0005989175229286,-130.42856402596465
6.100657664,1.0007543121405829,-130.5860311892747
6.10294528,1.0008620957526972,-130.74534473087678
6.105232896,1.0009152703952904,-130.90585476609522
6.107520512,1.0009105260768327,-131.06669459001364
6.10980864,1.0008481722100309,-131.2270819052887
6.112096256,1.0007321052721307,-131.3860951906316
6.114383872,1.0005696363061416,-131.54312433465196
6.116671488,1.0003710226929972,-131.6974888341112
6.118959104,1.0001489642062698,-131.84877233654836
6.12124672,0.999917269320817,-131.99673718114406
6.123534336,0.9996908892420656,-132.1413845585219
6.125821952,0.999484196263388,-132.28285766029472
6.128109568,0.9993101042644642,-132.42152743491798
6.130397696,0.9991797892235268,-132.55797883368214
6.132685312,0.9991015453878643,-132.69289826694202
6.134972928,0.9990804319672756,-132.82706260461117
6.137260544,0.9991177494040308,-132.9613278836752
6.13954816,0.9992112008832512,-133.09652528993254
6.141835776,0.999354801817685,-133.23346785863055
6.144123392,0.9995394252063632,-133.37270221519975
6.146411008,0.9997533305416968,-133.51490319826635
6.148699136,0.9999829520998501,-133.6602631479302
6.150986752,1.0002138432717218,-133.8089759171139
6.153274368,1.00043119271851,-133.9609439865585
6.155561984,1.0006213474957322,-134.1158195835225
6.1578496,1.0007722127146677,-134.27320262951716
6.160137216,1.0008741277242281,-134.43235072577406
6.162424832,1.00092086384223,-134.59260001093588
6.164712448,1.000909155791602,-134.7530676298941
6.167000064,1.0008399012047646,-134.91299645014618
6.169288192,1.000717468672067,-135.07147378181318
6.171575808,1.000549605047423,-135.22780940148579
6.173863424,1.0003468065074292,-135.38142678442154
6.17615104,1.0001219030178996,-135.53196026361562
6.178438656,0.9998893768155207,-135.67916480275346
6.180726272,0.9996637234882506,-135.82297947589842
6.183013888,0.9994594517313391,-135.96366833111747
6.185301504,0.9992893069020738,-136.10159599647238
6.18758912,0.9991644199104871,-136.23735002678058
6.189877248,0.9990925424034586,-136.37165287451862
6.192164864,0.9990783019397611,-136.50531539167167
6.19445248,0.9991226112195343,-136.63920575638335
6.196740096,0.9992227358016229,-136.7740434818211
6.199027712,0.9993722090480097,-136.91074014251947
6.201315328,0.9995616105743792,-137.04988987921357
6.203602944,0.9997789631300019,-137.19195434076684
6.20589056,1.000010422950654,-137.33732112379192
6.208178688,1.0002413180594392,-137.48596704886023
6.210466304,1.000456883560849,-137.6378586531125
6.21275392,1.0006436913458423,-137.79265398100137
6.215041536,1.00078971244767,-137.94990236412136
6.217329152,1.0008856801117934,-138.10882179052126
6.219616768,1.0009255754750113,-138.2687419785074
6.221904384,1.0009069423415868,-138.42881522094214
6.224192,1.0008308950294005,-138.58813859117456
6.226479616,1.0007021009806254,-138.745968178055
6.228767744,1.0005287415598507,-138.90164847337445
6.23105536,1.000321838826084,-139.05448884720542
6.233342976,1.000094511341016,-139.20417115051606
6.235630592,0.9998610989966229,-139.35046712973616
6.237918208,0.999636480337364,-139.49340114222596
6.240205824,0.9994348647711739,-139.6332830703836
6.24249344,0.9992689734692152,-139.77036694521772
6.244781056,0.9991495950375751,-139.90541230963723
6.247068672,0.9990841436357372,-140.0390676899641
6.2493568,0.9990769055916008,-140.1722061784831
6.251644416,0.999128256358516,-140.3056257510941
6.253932032,0.9992350746999805,-140.44018264233767
6.256219648,0.9993904698476799,-140.57662491576835
6.258507264,0.9995846223069296,-140.71552920447354
6.26079488,0.9998051883199996,-140.85749937977783
6.263082496,1.0000382334163236,-141.00270157664724
6.265370112,1.0002689129838154,-141.1513228049088
6.26765824,1.0004825253540521,-141.30314778709314
6.269945856,1.0006657103575551,-141.457784552153
6.272233472,1.0008067205667956,-141.61477839365006
6.274521088,1.0008966939264796,-141.77345623518607
6.276808704,1.0009298107071036,-141.9329253003512
6.27909632,1.0009040631707813,-142.092509384404
6.281383936,1.00082092658465,-142.2512494851628
6.283671552,1.0006858803436833,-142.40842166120373
6.285959168,1.0005072641050912,-142.56325296247985
6.288247296,1.0002964538960648,-142.71526585991714
6.290534912,1.000066632428346,-142.86403544702105
6.292822528,0.9998326551731612,-143.00940423538273
6.295110144,0.9996091582737994,-143.15144889175326
6.29739776,0.9994104501320245,-143.29036771555636
6.299685376,0.9992490774231096,-143.4266917165449
6.301972992,0.9991353822760434,-143.5609461344366
6.304260608,0.9990765449130642,-143.6939342126401
6.306548224,0.9990763163676504,-143.8264632283484
6.308836352,0.9991348421456723,-143.95936022793725
6.311123968,0.9992482835217867,-144.09355092653792
6.313411584,0.999409567592069,-144.22967079067115
6.3156992,0.9996082941098922,-144.3683809645402
6.317986816,0.9998319829302741,-144.51019455887987
6.320274432,1.0000665004839517,-144.6553001486199
6.322562048,1.0002966393694046,-144.80373617161246
6.324849664,1.0005081502132773,-144.95539614004161
6.327137792,1.0006875208790993,-145.10985886589887
6.329425408,1.0008232914649586,-145.2665849636427
6.331713024,1.0009069702638906,-145.42489072079005
6.33400064,1.0009331236035968,-145.58395902182687
6.336288256,1.0009002254592838,-145.74297428862906
6.338575872,1.000810133953492,-145.90106564484026
6.340863488,1.0006687115464707,-146.05746380116864
6.343151104,1.0004849114501089,-146.21146147284347
6.34543872,1.0002701379847505,-146.3625292094011
6.347726848,1.0000382626865307,-146.51035351191064
6.350014464,0.9998038355179357,-146.65476603671112
6.35230208,0.9995817857483847,-146.79582915044844
6.354589696,0.9993862359625729,-146.9338513939813
6.356877312,0.9992294914613309,-147.06923120076019
6.359164928,0.9991217192488691,-147.20267779897068
6.361452544,0.9990696238609486,-147.33496298501444
6.36374016,0.9990766050268229,-147.46682727711362
6.366027776,0.9991423123029196,-147.5992573038238
6.368315904,0.9992624631385382,-147.7329902862987
6.37060352,0.9994295042211487,-147.86879214287785
6.372891136,0.9996328731260388,-148.00724289506442
6.375178752,0.9998594431014466,-148.14885651428398
6.377466368,1.0000950813452116,-148.29374919023
6.379753984,1.0003246831435302,-148.44205381290357
6.3820416,1.0005338261411965,-148.59351096266911
6.384329216,1.00070899563611,-148.7476958835732
6.386617344,1.0008393684667716,-148.90408928394893
6.38890496,1.000916621733216,-149.06201804721982
6.391192576,1.0009356637104734,-149.22057228389653
6.393480192,1.0008955109582605,-149.37896721220528
6.395767808,1.0007984317100338,-149.53636307925214
6.398055424,1.0006507953994137,-149.69192646550223
6.40034304,1.0004617919622216,-149.84500099648014
6.402630656,1.0002434168059127,-149.99513855452676
6.404918272,1.0000094272078177,-150.1419530864941
6.4072064,0.9997747864230964,-150.2853289827756
6.409494016,0.9995543988003932,-150.4253404583891
6.411781632,0.9993621886049439,-150.56239183983524
6.414069248,0.9992103378261681,-150.69682188233028
6.416356864,0.9991086633194151,-150.82945139800123
6.41864448,0.9990634515461911,-150.96091939367517
6.420932096,0.9990778695119175,-151.0921757858785
6.423219712,0.9991507124446342,-151.22401662431338
6.425507328,0.99927756994367,-151.3573245896048
6.427795456,0.9994503498841978,-151.49271499067245
6.430083072,0.9996580364425997,-151.63093410767905
6.432370688,0.9998874750175414,-151.77229693742922
6.434658304,1.000124022563703,-151.9169945715251
6.43694592,1.0003528286195658,-152.06506404831342
6.439233536,1.0005592156443228,-152.21624160245648
6.441521152,1.0007301926749257,-152.37017259129112
6.443808768,1.0008549260751236,-152.52620805090592
6.446096896,1.000925507702974,-152.68362211406134
6.448384512,1.0009373124593666,-152.8416417862407
6.450672128,1.0008897676012198,-152.99936341461452
6.452959744,1.0007857166851948,-153.1559532540675
6.45524736,1.00063177123211,-153.31064431332808
6.457534976,1.0004377312403092,-153.4628017958116
6.459822592,1.0002158347312666,-153.61191922627143
6.462110208,0.9999801408873984,-153.75763080036307
6.464397824,0.9997455054681904,-153.89993558927685
6.466685952,0.9995269458729877,-154.03892322449443
6.468973568,0.9993383002581582,-154.1748884957941
6.471261184,0.9991916318710249,-154.30839293999298
6.4735488,0.9990961944917575,-154.4400718321049
6.475836416,0.9990581842736478,-154.57081066144002
6.478124032,0.9990798782743513,-154.70136121010205
6.480411648,0.9991600473829622,-154.83262750967992
6.482699264,0.9992936451028683,-154.9654189518584
6.48498688,0.9994719960014887,-155.1004353419332
6.487275008,0.9996839806101693,-155.23829918343304
6.489562624,0.9999160205056501,-155.37939396181937
6.49185024,1.0001533806944156,-155.52382847022335
6.494137856,1.0003810679782792,-155.67164866046156
6.496425472,1.000584658836962,-155.8225476716394
6.498713088,1.0007511069896038,-155.97612059641907
6.501000704,1.000870002162806,-156.13175643041788
6.50328832,1.0009337133352791,-156.2886784019719
6.505576448,1.0009381080931892,-156.44604626291206
6.507864064,1.000883085756512,-156.60302621733626
6.51015168,1.000772045827609,-156.75881496835567
6.512439296,1.0006119852916833,-156.91258113774327
6.514726912,1.0004129534596247,-157.06371951616663
6.517014528,1.0001876686594833,-157.21173263487498
6.519302144,0.9999503758542991,-157.35635456759525
6.52158976,0.9997159985497545,-157.4975326664807
6.523877376,0.9994995548465448,-157.635372244231
6.526165504,0.9993148217122336,-157.7702841432344
6.52845312,0.9991734298631375,-157.90277745832273
6.530740736,0.999084553510669,-158.0335808204054
6.533028352,0.9990537462281717,-158.16346722241548
6.535315968,0.9990830148590001,-158.29330180220617
6.537603584,0.9991704772757469,-158.4239657276731
6.5398912,0.9993107331997654,-158.55626738727364
6.542178816,0.9994947306331569,-158.69086831787584
6.544466432,0.9997107814435409,-158.82840583032896
6.54675456,0.9999451981106982,-158.96914304676397
6.549042176,1.0001831158536496,-159.1132958628884
6.551329792,1.0004095426002149,-159.26081636238504
6.553617408,1.0006099098020018,-159.41142690997992
6.555905024,1.0007716621127938,-159.5645827680897
6.55819264,1.0008843267455803,-159.7197648985386
6.560480256,1.0009410847515299,-159.8760843024079
6.562767872,1.000938080415215,-160.03283286801468
6.565056,1.0008755288506344,-160.18904923405708
6.567343616,1.000757414725694,-160.34390867405887
6.569631232,1.000591130804856,-160.49669174781306
6.571918848,1.0003872917843546,-160.64677529041847
6.574206464,1.0001587458078778,-160.79366212416195
6.57649408,0.9999200163043731,-160.9371197321037
6.578781696,0.9996861304650939,-161.07711213999414
6.581069312,0.999472124586462,-161.2138168408104
6.583356928,0.9992914766833676,-161.34763218466486
6.585645056,0.9991557181010952,-161.47910221606895
6.587932672,0.999073545345349,-161.60891339678486
6.590220288,0.9990501213539438,-161.73793493828111
6.592507904,0.9990869992924707,-161.86705327907947
6.59479552,0.9991819303458099,-161.9970535236354
6.597083136,0.9993287466269897,-162.1288171907172
6.599370752,0.9995182370921571,-162.2630368914595
6.601658368,0.999738315578894,-162.40015934589522
6.603945984,0.9999749731692332,-162.54054716709052
6.606234112,1.0002133418439496,-162.6844087058609
6.608521728,1.000437982394597,-162.83160134148602
6.610809344,1.0006350188268567,-162.9818250982733
6.61309696,1.0007916429104573,-163.13455529155445
6.615384576,1.0008981576100393,-163.28923494678256
6.617672192,1.0009476664136507,-163.4449825638004
6.619959808,1.0009369951482519,-163.60097473013784
6.622247424,1.0008668840283914,-163.75634620199267
6.624535552,1.0007417362010993,-163.9102835233322
6.626823168,1.0005694442299713,-164.06200977480773
6.629110784,1.0003608056733104,-164.21095286536874
6.6313984,1.0001291552330174,-164.35671546167467
6.633686016,0.9998892353189176,-164.49893258489072
6.635973632,0.9996561502536536,-164.63772381314163
6.638261248,0.9994447196558824,-164.7732538514813
6.640548864,0.9992685009589503,-164.90587730140354
6.64283648,0.9991385346136058,-165.03628476169982
6.645124608,0.9990633202279481,-165.16514986621607
6.647412224,0.9990475162722959,-165.29330570659198
6.64969984,0.9990920856747592,-165.42165337072717
6.651987456,0.9991944772232648,-165.5510304438349
6.654275072,0.9993478578661936,-165.68223088101198
6.656562688,0.9995428170506603,-165.81592656932852
6.658850304,0.9997666996148096,-165.95266241814565
6.66113792,1.0000054127419862,-166.09276253639715
6.663426048,1.0002438587888383,-166.23623485322855
6.665713664,1.0004667071552638,-166.38306710138846
6.66800128,1.0006600365515514,-166.5328921706547
6.670288896,1.0008113661988787,-166.68518224038954
6.672576512,1.0009113552506546,-166.83928618926885
6.674864128,1.0009535256073867,-166.9943661763591
6.677151744,1.0009350404417723,-167.14960189876632
6.67943936,1.0008572507348454,-167.30409546439407
6.681726976,1.0007250206476968,-167.45702088802994
6.684015104,1.0005466662273703,-167.60768981093986
6.68630272,1.0003335452419102,-167.75550560625652
6.688590336,1.0000990000871557,-167.90000636489796
6.690877952,0.999858107846772,-168.04100698380103
6.693165568,0.9996260511761093,-168.17852863169543
6.695453184,0.9994175253376407,-168.31280756694335
6.6977408,0.9992458938562478,-168.44428924838326
6.700028416,0.9991220920337768,-168.57360696740852
6.702316032,0.9990539557537536,-168.7014544246844
6.70460416,0.9990459261944657,-168.8287287609426
6.706891776,0.9990984053627902,-168.95626876126587
6.709179392,0.999208112449651,-169.08500028174686
6.711467008,0.9993682228948169,-169.21562808082345
6.713754624,0.9995683425474635,-169.34885543841582
6.71604224,0.9997959848787904,-169.4851563267251
6.718329856,1.0000364915784066,-169.62486454168652
6.720617472,1.000274670829927,-169.76799350199127
6.7229056,1.0004955237133182,-169.9144493172547
6.725193216,1.0006848338587353,-170.06381050526912
6.727480832,1.0008306666006994,-170.2156077024199
6.729768448,1.000923810009942,-170.369106812999
6.732056064,1.0009584080641114,-170.52348139967435
6.73434368,1.0009320594632418,-170.67791376466465
6.736631296,1.000846571703673,-170.8314742973471
6.738918912,1.0007072566790076,-170.98338442915534
6.741206528,1.0005229027910438,-171.1329050282145
6.743494656,1.0003052760813085,-171.27950261087778
6.745782272,1.000068170983081,-171.422723875066
6.748069888,0.9998264761883863,-171.5624480146551
6.750357504,0.9995956890340975,-171.6986809733163
6.75264512,0.9993904092091036,-171.83173553812705
6.754932736,0.9992236907225072,-171.96203195550234
6.757220352,0.9991061692218315,-172.09019404407005
6.759507968,0.999045391790751,-172.21704454745398
6.761795584,0.9990452021895754,-172.34339673148642
6.764083712,0.9991056429047886,-172.47017544735283
6.766371328,0.9992228983106819,-172.59818839379028
6.768658944,0.9993894792389422,-172.72825201185404
6.77094656,0.9995948425472175,-172.86094017692557
6.773234176,0.9998259503483589,-172.99683716091653
6.775521792,1.0000680312408063,-173.13612337196392
6.777809408,1.000305811515422,-173.27884330298474
6.780097024,1.0005242400725114,-173.42488964853646
6.782385152,1.0007092991444517,-173.57381781847312
6.784672768,1.000849366683278,-173.72506261798037
6.786960384,1.0009355274199094,-173.87791301163188
6.789248,1.0009623276263278,-174.03160048368835
6.791535616,1.0009279451499804,-174.1851234843347
6.793823232,1.0008347577775518,-174.33774821498199
6.796110848,1.0006882465173257,-174.48855626313497
6.798398464,1.0004981170487137,-174.6369026086135
6.80068608,1.0002761097989967,-174.78225152712994
6.802974208,1.0000364995744095,-174.92418107889222
6.805261824,0.9997943314355262,-175.06257982574544
6.80754944,0.9995650848808405,-175.19747459732434
6.809837056,0.9993633382239835,-175.32923364181067
6.812124672,0.9992018627205728,-175.4583210118404
6.814412288,0.9990909494848513,-175.58536574958492
6.816699904,0.9990377437388408,-175.7111460499291
6.81898752,0.9990455515011997,-175.83659236297578
6.821275136,0.999113988107094,-175.96254529248918
6.823563264,0.9992387692590947,-176.08986847620454
6.82585088,0.999411835936015,-176.21934833813356
6.828138496,0.9996222633417149,-176.35156746349065
6.830426112,0.999856559005827,-176.48698486273076
6.832713728,1.0001001444464026,-176.6258702662324
6.835001344,1.0003372495586291,-176.76819355132776
6.83728896,1.000552921352715,-176.91377025236883
6.839576576,1.0007334465258395,-177.06221578456936
6.841864704,1.000867559474467,-177.21287041454605
6.84415232,1.0009463854563465,-177.3650803489762
6.846439936,1.0009651804504618,-177.51794201125566
6.848727552,1.0009226980209098,-177.67059916622415
6.851015168,1.00082146279063,-177.82220205012524
6.853302784,1.0006682096585695,-177.9718736792634
6.8555904,1.0004722032946278,-178.11903328312442
6.857878016,1.0002461965692295,-178.26307153602528
6.860165632,1.0000043149776332,-178.40365132204232
6.86245376,0.9997619351368694,-178.5407222794733
6.864741376,0.9995344814060437,-178.67426062529657
6.867028992,0.9993364955370007,-178.8047148571497
6.869316608,0.999180390162447,-178.93254163365182
6.871604224,0.9990764532456821,-179.0583938307322
6.87389184,0.9990310212663086,-179.18317486356256
6.876179456,0.999047139098635,-179.30766644532432
6.878467072,0.9991235938036981,-179.43280502176532
6.880754688,0.9992558723812763,-179.5594344651992
6.883042816,0.9994353739640534,-179.68828664804474
6.885330432,0.9996507599275936,-179.82004284002744
6.887618048,0.999888251869929,-179.95498457530337
6.889905664,1.0001328168826495,179.9065934660678
6.89219328,1.0003689258010358,179.76468504293894
6.894480896,1.000581625228127,179.61956221428508
6.896768512,1.0007573255364806,179.47166741635638
6.899056128,1.000885080179267,179.3215625747783
6.901344256,1.000956391896203,179.17009813556444
6.903631872,1.0009670472360332,179.0180228697855
6.905919488,1.0009163135389516,178.86629960553208
