freq,mag,phase
6.0,0.9997516335051261,-72.70498868941432
6.006552064,0.9997889028026666,-73.02081322082174
6.013104128,0.9998386226285465,-73.33732042643939
6.019656192,0.9998973220974752,-73.65467935851757
6.026208256,0.9999620083740703,-73.97301873678232
6.032759808,1.000029165613814,-74.2923359747608
6.039311872,1.0000946446036716,-74.61266210706775
6.045863936,1.000155094822516,-74.93397152020945
6.052416,1.0002071617228232,-75.25614789384355
6.058968064,1.0002479732361997,-75.57909873883267
6.065520128,1.0002750733667058,-75.90260388057824
6.072072192,1.0002868654039463,-76.22646866679247
6.078624256,1.0002831746599627,-76.5504931751934
6.08517632,1.0002637785027957,-76.87449931286096
6.091727872,1.0002296342310002,-77.19827048837314
6.098279936,1.000182973894276,-77.52159913958454
6.104832,1.000126306948624,-77.84434032610868
6.111384064,1.0000626406607966,-78.16630968413632
6.117936128,0.9999955793764128,-78.48755753467184
6.124488192,0.9999286219210558,-78.80795393488846
6.131040256,0.9998660329359119,-79.12764544105586
6.13759232,0.9998109063305054,-79.44660965918521
6.144144384,0.9997664514890495,-79.76501146490278
6.150695936,0.9997350183267101,-80.08299710138877
6.157248,0.9997183554892884,-80.40076919779662
6.163800064,0.9997175987600607,-80.71853805896629
6.170352128,0.9997326253268348,-81.03651766134838
6.176904192,0.9997628819243387,-81.35488910117526
6.183456256,0.9998063190043412,-81.67388227381083
6.19000832,0.9998606208774231,-81.99363020294294
6.196560384,0.9999230637943168,-82.31431185692753
6.203112448,0.9999898161536596,-82.63594001667549
6.209664,1.0000574027906832,-82.95862103038375
6.216216064,1.0001219809870927,-83.28228602447889
6.222768128,1.0001798928527526,-83.6069165002918
6.229320192,1.0002279991045402,-83.93237681706529
6.235872256,1.0002638136108695,-84.25850759938066
6.24242432,1.0002848521676286,-84.58511217420376
6.248976384,1.0002901991273534,-84.91201387503115
6.255528448,1.0002795997420804,-85.23898435389053
6.262080512,1.000253588197595,-85.5658492570315
6.268632064,1.0002135688815754,-85.89234798946389
6.275184128,1.000161705012161,-86.21834709414156
6.281736192,1.000100977783174,-86.5436734274488
6.288288256,1.0000347455136356,-86.86824226960245
6.29484032,0.9999665411375364,-87.1919972254831
6.301392384,0.9999003523991876,-87.51495397860913
6.307944448,0.9998397442924782,-87.8371386457309
6.314496512,0.999788125735334,-88.15865604378341
6.321048576,0.9997484329481444,-88.47968655843002
6.327600128,0.9997227402508772,-88.80035029864935
6.334152192,0.9997125414997685,-89.12088624129964
6.340704256,0.9997184733533133,-89.44152194351126
6.34725632,0.999740255943923,-89.76240136751403
6.353808384,0.9997766580813359,-90.0838089807057
6.360360448,0.999825468809576,-90.40586486637476
6.366912512,0.9998842476696117,-90.72877820249607
6.373464576,0.999949586468945,-91.05264058911008
6.380016128,1.0000179863862801,-91.37752550096214
6.386568192,1.0000855691077728,-91.7034103975668
6.393120256,1.0001485814450142,-92.03030052361348
6.39967232,1.0002034350227058,-92.35810056720902
6.406224384,1.0002470604419416,-92.68667275752871
6.412776448,1.0002772003854732,-93.01585503721216
6.419328512,1.000291967825007,-93.34544968497693
6.425880576,1.0002908145504514,-93.67519784002903
6.43243264,1.000273366603279,-94.00497468945848
6.438984192,1.0002410060718392,-94.33448823096171
6.445536256,1.0001952875329345,-94.6636091762759
6.45208832,1.0001387319097477,-94.99209172458318
6.458640384,1.000074497486903,-95.31984685627722
6.465192448,1.0000062343468736,-95.6468455748624
6.471744512,0.9999376096974609,-95.97300524567274
6.478296576,0.9998725617067671,-96.2983033514966
6.48484864,0.9998146592339656,-96.62294917478629
6.491400704,0.9997670732292447,-96.94689295310575
6.497952256,0.9997324732547979,-97.27045788543205
6.50450432,0.9997128312104547,-97.59368605902291
6.511056384,0.9997092825044199,-97.91686003089869
6.517608448,0.9997219083151243,-98.24020406680005
6.524160512,0.9997502198172209,-98.56392034493959
6.530712576,0.9997924846350629,-98.8882122866934
6.53726464,0.9998464170479363,-99.21327415209863
6.543816704,0.9999090761015801,-99.53921760790585
6.550368768,0.9999769596640302,-99.86613741208163
6.55692032,1.000046315100121,-100.19411777997213
6.563472384,1.0001130861805136,-100.52308749558193
6.570024448,1.000173917151736,-100.85301724932393
6.576576512,1.0002250896917555,-101.18379848343868
6.583128576,1.0002639145045262,-101.51530484105048
6.58968064,1.0002883129359392,-101.84734563205167
6.596232704,1.0002966678525693,-102.17971510691022
6.602784768,1.0002887816504282,-102.51215745959604
6.609336832,1.0002647827204816,-102.8445262572918
6.615888384,1.0002262302688736,-103.17651635106976
6.622440448,1.0001750107053027,-103.50800206754579
6.628992512,1.0001143429830415,-103.83886365849362
6.635544576,1.000047221083559,-104.1688958118281
6.64209664,0.9999774624957742,-104.49813134282539
6.648648704,0.9999089255265052,-104.8265108508726
6.655200768,0.9998456721608456,-105.15405726687177
6.661752832,0.9997909535572316,-105.48093840532344
6.668304896,0.999747781049487,-105.80721796867024
6.674856448,0.9997187411260628,-106.1330875809745
6.681408512,0.9997054472274809,-106.45877279741366
6.687960576,0.9997085165222444,-106.78450331926442
6.69451264,0.999727971067532,-107.11041469405315
6.701064704,0.999762473931157,-107.4368630183769
6.707616768,0.9998104057383075,-107.76389466773277
6.714168832,0.9998689774049274,-108.0917673141212
6.720720896,0.9999350251096824,-108.42059484480018
6.72727296,1.0000047013226698,-108.7504356846198
6.733824512,1.0000743724789902,-109.08125940005418
6.740376576,1.0001399760824699,-109.4131576165385
6.74692864,1.0001979588425611,-109.745969336613
6.753480704,1.000245043333861,-110.07956233774004
6.760032768,1.000278685204951,-110.41380315858629
6.766584832,1.0002969983439571,-110.74850629970808
6.773136896,1.0002988530626873,-111.08341382758096
6.77968896,1.0002841865664014,-111.41833838945199
6.786241024,1.0002536749640931,-111.75303543297953
6.792792576,1.000209210767126,-112.08730063159652
6.79934464,1.0001530989841945,-112.42099647151407
6.805896704,1.0000885741875614,-112.75395844090373
6.812448768,1.0000190337344825,-113.08607495783295
6.819000832,0.999948578095842,-113.41733763640079
6.825552896,0.9998808956413091,-113.74775579223729
6.83210496,0.9998197575582217,-114.07736906723783
6.838657024,0.9997687568981505,-114.40634457107089
6.845209088,0.9997305063594857,-114.73473872641125
6.85176064,0.9997073376260726,-115.0628332211003
6.858312704,0.9997004149005633,-115.39079966450716
6.864864768,0.9997102738503351,-115.718882363004
6.871416832,0.9997362553439416,-116.0472508619238
6.877968896,0.9997769111691555,-116.37618384261644
6.88452096,0.9998301823277702,-116.7058412688802
6.891073024,0.9998929685394055,-117.03637413679287
6.897625088,0.9999617238703985,-117.36787384156695
6.904177152,1.0000328059873602,-117.7003924415886
6.910728704,1.0001022164782931,-118.03397533229962
6.917280768,1.0001659829629952,-118.36851606591844
6.923832832,1.0002206862833778,-118.70399044066562
6.930384896,1.0002632272344065,-119.04014597213158
6.93693696,1.0002912819759464,-119.37692172572659
6.943489024,1.0003032623547174,-119.71401303803346
6.950041088,1.000298364124473,-120.05123524957129
6.956593152,1.0002769757380228,-120.3883739947986
6.963145216,1.0002402776648116,-120.72520613016349
6.969696768,1.0001901925442547,-121.06151381236394
6.976248832,1.0001296250238603,-121.39717088834601
6.982800896,1.0000617552094817,-121.73201935166396
6.98935296,0.999990436915035,-122.06600311622354
6.995905024,0.999919635353943,-122.39909218739153
7.002457088,0.999853312855204,-122.73132785123829
7.009009152,0.9997950888067522,-123.06280827243775
7.015561216,0.9997482220377027,-123.39366636224216
7.022112768,0.9997152651902389,-123.72402685606619
7.028664832,0.999698188588456,-124.05410980690166
7.035216896,0.9996979989738999,-124.38415322567927
7.04176896,0.9997144513452798,-124.71441406748775
7.048321024,0.9997469119649685,-125.04507346301257
7.054873088,0.9997935321017944,-125.3763449140308
7.061425152,0.9998516411534037,-125.70838931535195
7.067977216,0.9999181407572509,-126.04134954396157
7.07452928,0.9999892477637724,-126.37533199648183
7.081080832,1.000061074442781,-126.71033962210655
7.087632896,1.0001296519210807,-127.046380109169
7.09418496,1.0001910573323973,-127.38335741489291
7.100737024,1.0002419539670557,-127.72120511660387
7.107289088,1.000279508372527,-128.05975097431337
7.113841152,1.0003016480509173,-128.3987497680945
7.120393216,1.0003071275807243,-128.7380040379929
7.12694528,1.0002955612410371,-129.0772873742331
7.133497344,1.00026750958017,-129.41638223821735
7.140048896,1.0002247660494064,-129.75508699809507
7.14660096,1.0001694609520302,-130.09316809105073
7.153153024,1.0001046713273847,-130.430517245237
7.159705088,1.000034022379336,-130.76705100558203
7.166257152,0.9999615417905083,-131.10259540928354
7.172809216,0.9998910989659424,-131.43732142423698
7.17936128,0.9998265771690144,-131.77115016451944
7.185913344,0.9997716815293205,-132.10425816973947
7.192465408,0.9997293923619289,-132.43675684676973
7.19901696,0.999702236211997,-132.7688684628454
7.205569024,0.9996914379050228,-133.10074152914189
7.212121088,0.9996979438203514,-133.43270599188594
7.218673152,0.9997211727533986,-133.7649168656305
7.225225216,0.9997599158186641,-134.09759692501243
7.23177728,0.9998120462684839,-134.43096511024325
7.238329344,0.9998747316554513,-134.76519227596776
7.244881408,0.9999443668233687,-135.1003952212942
7.251433472,1.0000172986833535,-135.43659428932048
7.257985024,1.0000892660873701,-135.77387575395193
7.264537088,1.0001564877709137,-136.11214778649818
7.271089152,1.000214978169867,-136.4513290264586
7.277641216,1.0002616688591934,-136.79131069167983
7.28419328,1.0002938837937487,-137.13188604813905
7.290745344,1.000309773512382,-137.4728355117827
7.297297408,1.0003086769271927,-137.81396277752344
7.303849472,1.0002902794948934,-138.15503976470228
7.310401536,1.0002558927819833,-138.495794125839
7.316953088,1.0002071766522045,-138.83609749081103
7.323505152,1.000146959763918,-139.17565420040253
7.330057216,1.0000785425737602,-139.51444524771728
7.33660928,1.000005700904719,-139.85231855999047
7.343161344,0.9999323894637405,-140.18927066295535
7.349713408,0.9998628278883712,-140.5253007677081
7.356265472,0.9998008199029683,-140.86050179196985
7.362817536,0.9997498064149375,-141.19497361956473
7.3693696,0.9997125402139845,-141.52891345144945
7.375921152,0.9996912596600094,-141.86251396409602
7.382473216,0.999687117949803,-142.19599511901737
7.38902528,0.9997003206321049,-142.52958558371847
7.395577344,0.999730178023825,-142.86352641149844
7.402129408,0.9997750634078681,-143.19803636900303
7.408681472,0.9998324122890183,-143.53330126270313
7.415233536,0.9998992105545419,-143.86944173875293
7.4217856,0.9999716558524885,-144.2066025933549
7.428337664,1.000045692452752,-144.54481199581863
7.434889216,1.0001173766935294,-144.8840660353849
7.44144128,1.000182577460452,-145.22427998790144
7.447993344,1.0002375705478037,-145.56539240771855
7.454545408,1.000279630555977,-145.90720557654737
7.461097472,1.000306095800599,-146.24953148925988
7.467649536,1.0003157100856805,-146.59218086759984
7.4742016,1.0003077470083472,-146.93488734766586
7.480753664,1.0002826320383407,-147.2774242087388
7.487305728,1.0002418339394317,-147.6195692794884
7.49385728,1.0001876144375828,-147.961126191916
7.500409344,1.0001228515124059,-148.3019081474909
7.506961408,1.000051250721165,-148.6418159383123
7.513513472,0.9999766163558642,-148.98075798421766
7.520065536,0.9999032565259741,-149.31877891313403
7.5266176,0.9998350886597096,-149.65592344166305
7.533169664,0.9997760365156994,-149.99219100688398
7.539721728,0.9997292667677928,-150.3277690990413
7.546273792,0.9996975680942134,-150.6629221743086
7.552825344,0.9996824928294901,-150.99774701962247
7.559377408,0.999685092978405,-151.3325802236491
7.565929472,0.9997050701021177,-151.66757694507803
7.572481536,0.9997414127947453,-152.00302759798768
7.5790336,0.999792224600382,-152.33908374990912
7.585585664,0.9998545250868248,-152.67596739210595
7.592137728,0.9999249892801931,-153.01378826301314
7.598689792,0.9999995798600173,-153.35266367177258
7.605241856,1.0000743788408197,-153.6925775312336
7.611793408,1.0001450353176782,-154.03351497637945
7.618345472,1.0002077359391843,-154.37541030362152
7.624897536,1.0002589962878468,-154.71812801109309
7.6314496,1.0002957710733709,-155.06149256679728
7.638001664,1.0003162417471956,-155.4052600539722
7.644553728,1.0003192507225822,-155.74927460428947
7.651105792,1.0003044394320932,-156.093236090216
7.657657856,1.000272659666055,-156.43692500667936
7.66420992,1.0002258284944465,-156.78009533072827
7.670761472,1.000166285322558,-157.1226371021909
7.677313536,1.0000973525235133,-157.46432105223587
7.6838656,1.0000229902507987,-157.8050447035832
7.690417664,0.9999472658496862,-158.1448524702549
7.696969728,0.9998742269754355,-158.4836206672846
7.703521792,0.9998081367663061,-158.82152073028698
7.710073856,0.9997525114603721,-159.15861079112005
7.71662592,0.9997105627641923,-159.4950920608436
7.723177472,0.9996846097923846,-159.83113531397953
7.729729536,0.9996760478025405,-160.16696562994014
7.7362816,0.9996854562238208,-160.50285109473552
7.742833664,0.9997123048345197,-160.83900025931848
7.749385728,0.9997550801502237,-161.175675395529
7.755937792,0.9998114100801142,-161.51302675611643
7.762489856,0.9998783426739258,-161.85127657749638
7.76904192,0.9999519121801715,-162.19052488679924
7.775593984,1.0000283384099873,-162.53078309767307
7.782145536,1.000103215810786,-162.8721389857303
7.7886976,1.000172367039687,-163.2144847533246
7.795249664,1.000232023172068,-163.55775121068862
7.801801728,1.0002788407079122,-163.9017595636546
7.808353792,1.000310168818133,-164.2463430437831
7.814905856,1.0003244143522203,-164.59129644295587
7.82145792,1.0003204888810766,-164.93631652661492
7.828009984,1.0002988135999722,-165.2812005164088
7.834562048,1.0002604319923027,-165.62573702048846
7.8411136,1.0002076234627726,-165.9696477077951
7.847665664,1.0001431118232755,-166.31280645141365
7.854217728,1.000070506166638,-166.65507755282712
7.860769792,0.9999938648856962,-166.9963303770583
7.867321856,0.9999174700843703,-167.3366062569573
7.87387392,0.9998454778698537,-167.6758976255387
7.880425984,0.9997819339932738,-168.01426922488986
7.886978048,0.9997302877634392,-168.35190271812962
7.893530112,0.9996934884434402,-168.68896577593455
7.900081664,0.9996736615747555,-169.0256529510281
7.906633728,0.9996718433169971,-169.36221711279998
7.913185792,0.9996881601749485,-169.69888606132696
7.919737856,0.9997217838527755,-170.03593401393502
7.92628992,0.9997707330233695,-170.37357454012363
7.932841984,0.9998324966229198,-170.7119661286684
7.939394048,0.9999035495250108,-171.0512911749192
7.945946112,0.9999799848853318,-171.3916370623815
7.952498176,1.0000575265109026,-171.73306734647622
7.959049728,1.0001319364026773,-172.07554825759487
7.965601792,1.0001990257240712,-172.41899917803661
7.972153856,1.0002551363122594,-172.76330748528827
7.97870592,1.0002971445182007,-173.10834543027707
7.985257984,1.0003225830431552,-173.45381370019302
7.991810048,1.0003301611724524,-173.7995496992111
7.998362112,1.0003193845522014,-174.14527518084086
8.004914176,1.000290799361754,-174.4907688202099
8.01146624,1.0002459328214728,-174.83576910625987
8.018017792,1.000187422241489,-175.18011459411267
8.024569856,1.0001183089159087,-175.52359763212178
8.03112192,1.0000424014569633,-175.8661312513936
8.037673984,0.9999640428518408,-176.20759182051208
8.044226048,0.9998875434943002,-176.54805660061024
8.050778112,0.9998170671694546,-176.88753229168142
8.057330176,0.9997566312886524,-177.22612535753595
8.06388224,0.9997094290508883,-177.56398178273068
8.070434304,0.9996782986754799,-177.9013345457809
8.076985856,0.99966492567587,-178.2384086827514
8.08353792,0.9996700736248018,-178.57543354875776
8.090089984,0.9996932899077028,-178.9126412062276
8.096642048,0.9997336123924813,-179.25031436271527
8.103194112,0.99978865882624,-179.58865252996907
8.109746176,0.9998554183181538,-179.92779087273638
8.11629824,0.9999302290537467,179.73205996898798
8.122850304,1.000008889882369,179.39086192854757
8.129402368,1.0000870940389437,179.0485851401822
8.13595392,1.000160511679911,178.70528638228268
8.142505984,1.0002250871878668,178.36101670022208
8.149058048,1.000277056426111,178.01599254251596
8.155610112,1.0003137765020897,177.67031074268755
8.162162176,1.000332936490299,177.32426143479893
8.16871424,1.000333731475522,176.9780437353136
8.175266304,1.0003158683797715,176.63190991456736
8.181818368,1.0002803204209916,176.28616075611842
8.188370432,1.0002291407256005,175.94098828825742
8.194921984,1.0001651348444003,175.59658652047762
8.201474048,1.0000918348336356,175.2530882370255
8.208026112,1.0000130525750373,174.9106441985477
8.214578176,0.9999336176084257,174.5692630361835
8.22113024,0.9998574405536026,174.22893476162852
8.227682304,0.9997891474185195,173.88956267428483
8.234234368,0.9997322021434139,173.55105776111753
8.240786432,0.9996900861888917,173.2132299114542
8.247338496,0.9996649920470658,172.87583281063573
8.253890048,0.999658251614869,172.53867668201016
8.260442112,0.9996704173043941,172.20148023090601
8.266994176,0.9997008847010131,171.86396720676035
8.27354624,0.9997477210203777,171.52595274974217
8.280098304,0.999808690827021,171.1871898518755
8.286650368,0.9998801357444324,170.84754240532905
8.293202432,0.9999583511615674,170.50686394251886
8.299754496,1.0000387213311048,170.16512488936897
8.30630656,1.0001170837022642,169.82234226267255
8.312858112,1.000188915986191,169.47846780769478
8.319410176,1.0002502078166615,169.13373468722722
8.32596224,1.0002977946706273,168.788219929049
8.332514304,1.0003287441542383,168.44221073755412
8.339066368,1.000341417874571,168.09586929067916
8.345618432,1.0003349489210587,167.74951866867397
8.352170496,1.0003099571996463,167.40336068539648
8.35872256,1.0002676496999547,167.05765774533128
8.365274112,1.0002102847524814,166.71267315184176
8.371826176,1.0001410023805548,166.36849588753742
8.37837824,1.0000639262967903,166.02535111789953
8.384930304,0.999982942294537,165.6832528937527
8.391482368,0.9999027349748787,165.3422735354242
8.398034432,0.9998276341272876,165.00235001143048
8.404586496,0.9997619451122717,164.66339714101278
8.41113856,0.9997092668082203,164.32522180305997
8.417690624,0.9996724341322941,163.9877054949919
8.424242176,0.9996537133286423,163.65057547662136
8.43079424,0.9996540546322831,163.3135500656191
8.437346304,0.9996734807289194,162.97641633638108
8.443898368,0.9997108547718647,162.63891579571478
8.450450432,0.9997643614166247,162.30080634487013
8.457002496,0.9998308038135567,161.9618840288148
8.46355456,0.9999066022879298,161.6220107898129
8.470106624,0.9999877232554222,161.28109857158375
8.476658688,1.0000693108320438,160.93907096863632
8.48321024,1.0001472976208923,160.59596859735504
8.489762304,1.0002168702883798,160.2518819621807
8.496314368,1.000274596823192,159.90692075238533
8.502866432,1.0003169142068122,159.56130989706756
8.509418496,1.000341784582062,159.21525507711158
8.51597056,1.0003475276347256,158.86898714929055
8.522522624,1.0003338710134448,158.52278503316722
8.529074688,1.0003016035865497,158.1769139249682
8.535626752,1.000252453850236,157.83159110013293
8.542178304,1.00018917019557,157.48704255254714
8.548730368,1.0001150232936404,157.14345771871763
8.555282432,1.00003446857665,156.800913322422
8.561834496,0.9999516386621239,156.4595132234217
8.56838656,0.9998713134861995,156.11921854356268
8.574938624,0.9997978044723984,155.77999216326802
8.581490688,0.999735281793123,155.44169937765486
8.588042752,0.9996872314889665,155.10419722757618
8.594594816,0.9996564301767832,154.76722481720506
8.601146368,0.9996444775232275,154.4305920758736
8.607698944,0.9996519804787155,154.0940110259457
8.614250496,0.9996788685873008,153.7572101264276
