freq,mag,phase
6.0,1.0000900702778772,-168.2559236516576
6.024315904,1.000096250815281,-169.70237609136245
6.04863232,1.0000997773675067,-171.14789368254588
6.072948224,1.000100703579961,-172.592480851125
6.09726464,1.0000988895764185,-174.0360869762787
6.121580544,1.0000944820349769,-175.47865024943948
6.145896448,1.0000875899493358,-176.92016024146608
6.170212864,1.000078485054803,-178.3606071651795
6.194528768,1.0000671328505881,-179.79991888500217
6.218845184,1.000054138097054,178.76186771737906
6.243161088,1.000039700042715,177.32487066751747
6.267476992,1.000024107028381,175.88903480457697
6.291793408,1.0000080898365211,174.45439832305073
6.316109312,0.9999916418555924,173.02096443009756
6.340425728,0.9999755549187825,171.58876500084716
6.364741632,0.9999600938371567,170.1577849408618
6.389057536,0.9999455881187618,168.72797823540992
6.413373952,0.9999326075140329,167.2994133624412
6.437689856,0.9999215122059266,165.87205598226714
6.462006272,0.9999125142350002,164.4458669173096
6.486322176,0.9999057606503969,163.02084724621443
6.51063808,0.9999016171994174,161.5969748745418
6.534954496,0.9999001977502889,160.1742194358361
6.5592704,0.999901269371167,158.75259598916253
6.583586816,0.9999052210497361,157.33203465956643
6.60790272,0.9999116788700213,155.9125700859137
6.632218624,0.9999205808930403,154.4940931923972
6.65653504,0.9999314935571927,153.07666253185667
6.680850944,0.9999443761083558,151.66022358794723
6.70516736,0.9999587874426151,150.2448127486314
6.729483264,0.999974519063019,148.83033767829815
6.753799168,0.9999908518915478,147.41684250236622
6.778115584,1.000007539323698,146.00430399621362
6.802431488,1.0000239797855126,144.59274927682299
6.826747904,1.0000399897694325,143.18212924676507
6.851063808,1.0000548800759081,141.7724950815384
6.875379712,1.0000684548947605,140.36383056817832
6.899696128,1.0000801430204038,138.9561645963396
6.924012032,1.0000897876539832,137.54951344451777
6.948328448,1.0000970383745944,136.1438827219434
6.972644352,1.0001019630908548,134.73929578135625
6.996960256,1.000103964788884,133.3357785418742
7.021276672,1.000103232287877,131.93338171450569
7.045592576,1.000099736717703,130.53207614442235
7.069908992,1.0000937081247538,129.13191422279058
7.094224896,1.0000850914140993,127.73293184460556
7.1185408,1.0000743213087122,126.33509507890464
7.142857216,1.0000614689048755,124.93844872334483
7.16717312,1.0000470427781127,123.5430241336836
7.191489536,1.0000312787202532,122.14880118538466
7.21580544,1.0000147096213758,120.75579098494615
7.240121344,0.9999977959073579,119.36400702415203
7.26443776,0.9999808885088597,117.9734393155355
7.288753664,0.9999645505513682,116.58405422812798
7.31307008,0.9999491483460665,115.19588439553141
7.337385984,0.9999351721106658,113.80888352497247
7.361701888,0.9999228165896189,112.4230251202807
7.386018304,0.9999125976861187,111.0383026889222
7.410334208,0.9999048402293816,109.65467664540071
7.434650624,0.9998996093444324,108.27212473752829
7.458966528,0.9998970929942458,106.89060111450063
7.483282432,0.9998974687482355,105.5100759202378
7.507598848,0.999900601763913,104.13051552529414
7.531914752,0.9999063249030773,102.75188679619913
7.556231168,0.9999147839409971,101.37416881994915
7.580547072,0.9999255700607986,99.99729790645658
7.604862976,0.999938366650401,98.62125952355463
7.629179392,0.9999529937394541,97.24604739792287
7.653495296,0.9999688114794963,95.87160941571176
7.677811712,0.9999856842984564,94.49791040223887
7.702127616,1.0000029641115453,93.1249738182741
7.72644352,1.000020322435618,91.75276526063318
7.750759936,1.0000370452327974,90.38129325789232
7.77507584,1.0000530409034778,89.01052531835407
7.799392256,1.0000676039118772,87.6404837915351
7.82370816,1.000080468291658,86.27116177914844
7.848024064,1.0000911422828014,84.90256825926645
7.87234048,1.0000994550559366,83.53470678102732
7.896656384,1.0001051949425626,82.16758236275173
7.9209728,1.0001081682967228,80.80124399239953
7.945288704,1.0001081729961192,79.43567211318033
7.969604608,1.0001053329218361,78.07090911559585
7.993921024,1.0000997815272554,76.70694393763034
8.018236928,1.0000914242377998,75.34378971912746
8.042553344,1.0000806810571095,73.9814734084391
8.066869248,1.0000678655194049,72.61999963319866
8.091185664,1.0000531094695888,71.25938243579562
8.115501568,1.0000369339066646,69.89961226183885
8.139817472,1.0000198378179992,68.54068912808239
8.164133888,1.0000022134073796,67.18259709526748
8.188449792,0.9999845556653222,65.82535709686026
8.212766208,0.9999672124388213,64.46893035354545
8.237082112,0.9999507443283161,63.11329750230111
8.261398016,0.99993577800049,61.75841419749324
8.285714432,0.9999224382316592,60.40430943377546
8.310030336,0.9999112391741335,59.05091673761317
8.334346752,0.99990248588026,57.69818805115408
8.358662656,0.999896422866447,56.34610132796147
8.38297856,0.9998931862277174,54.99461238116808
8.407294976,0.9998928294806476,53.64370229245109
8.43161088,0.9998955247365408,52.293280175748045
8.455927296,0.99990107750753,50.94334841278495
8.4802432,0.9999092322553633,49.59384017909474
8.504559104,0.9999201716926102,48.244724809891856
8.52887552,0.9999332283180027,46.895955037798224
8.553191424,0.9999481968896589,45.5475284368556
8.57750784,0.999964637621526,44.1993621190528
8.601823232,0.9999821266405851,42.85148275104695
8.62614016,1.0000003291903168,41.503824265976256
8.650456064,1.0000185327189117,40.15638591666088
8.674771968,1.0000363367995744,38.80915221737598
8.699087872,1.0000533036396806,37.462129157139
8.723403776,1.0000688222509864,36.11526767414575
8.747720704,1.0000826865380197,34.76862733570918
8.772036608,1.0000942918277616,33.42215538036058
8.796352512,1.0001035891432695,32.07589266190186
8.820668416,1.0001100615418497,30.729830784384948
8.84498432,1.0001136295656605,29.383991500002974
8.869301248,1.000114193790543,28.038387793668157
8.893617152,1.000111679135912,26.69302736289659
8.917933056,1.0001061755834955,25.34792108769312
8.94224896,1.0000978766585764,24.003085999331347
8.966564864,1.0000868860004846,22.65853044477153
8.990881792,1.0000736481885841,21.314239318428584
9.015197696,1.0000583601418829,19.970266419704153
9.0395136,1.0000415490618122,18.626566064120087
9.063829504,1.0000235672923627,17.283164375984985
9.088145408,1.0000049812706133,15.940066021012097
9.112462336,0.9999862038501025,14.597205938104489
9.13677824,0.9999679039841112,13.254617209336377
9.161094144,0.9999503651163056,11.91226267230804
9.185410048,0.9999342770934322,10.570119065805933
9.209725952,0.9999198596547352,9.228135943366983
9.23404288,0.9999077113160483,7.886310184826209
9.258358784,0.9998980663422021,6.5445751025895404
9.282674688,0.9998912848243657,5.202909778178722
9.306990592,0.9998873717221087,3.8612634935624794
9.331306496,0.9998867191562756,2.519583360655568
9.355623424,0.9998890524980404,1.177859908303414
9.379939328,0.9998945427642588,-0.16400082271436658
9.404255232,0.9999029500780786,-1.5060155455652662
9.428571136,0.9999141564249593,-2.8482333596958407
9.45288704,0.9999276904217357,-4.190686755049169
9.477203968,0.9999432806207695,-5.53342292187013
9.501519872,0.9999606351536914,-6.876470501181444
9.525835776,0.9999790976469548,-8.219862413078753
9.55015168,0.9999982719890594,-9.563622149228317
9.574467584,1.0000175742630326,-10.907762168546196
9.598784512,1.0000366011217183,-12.2523084063942
9.623100416,1.000054640455197,-13.597264535035006
9.64741632,1.0000714483205488,-14.942632121765252
9.671732224,1.0000863679842609,-16.28841901353504
9.696048128,1.0000990591568704,-17.63461339262251
9.720365056,1.0001091273466653,-18.98121118620774
9.74468096,1.0001162668823043,-20.328196785549366
9.768996864,1.0001204646934678,-21.675575342386935
9.793312768,1.0001213818614774,-23.023299077352043
9.817628672,1.000118961456081,-24.37139297991976
9.8419456,1.0001135817700504,-25.71981925076088
9.866261504,1.0001050311638497,-27.068554021193503
9.890577408,1.00009364641715,-28.41759319462724
9.914893312,1.0000797216456392,-29.76693334746669
9.939209216,1.0000635961820994,-31.11654665190871
9.963526144,1.0000459110248534,-32.466445889443314
9.987842048,1.000026798385567,-33.816642105397925
10.012157952,1.000006987663904,-35.16710720035415
10.036473856,0.999986997929006,-36.51786836826907
10.060790784,0.9999673752332771,-37.86893427491513
10.085106688,0.9999485969725508,-39.22032826344338
10.109422592,0.999931168980761,-40.5720717578074
10.133738496,0.9999156449095736,-41.92420561912248
10.1580544,0.9999023945904651,-43.27674795510776
10.182371328,0.9998917671796023,-44.62972185288202
10.206687232,0.9998841167564715,-45.983203502380945
10.231003136,0.9998797526626015,-47.33721583505962
10.25531904,0.9998785144857982,-48.691785755271006
10.279634944,0.9998807715580196,-50.04698567691332
10.303951872,0.9998861808062633,-51.402833697113955
10.328267776,0.9998949598655261,-52.75939739122171
10.35258368,0.9999065042520371,-54.11670298093479
10.376899584,0.9999207942960586,-55.474791466003374
10.401215488,0.9999372107180602,-56.833701763933995
10.425532416,0.9999554947026635,-58.19345669108272
10.44984832,0.9999752432901792,-59.55409223509111
10.474164224,0.9999955861562834,-60.915623737682814
10.498480128,1.0000162912405548,-62.27807010435897
10.522796032,1.0000367246059427,-63.64145393630851
10.54711296,1.0000562164310591,-65.00575144712074
10.571428864,1.0000742827548406,-66.37098635220319
10.595744768,1.0000905271212461,-67.73716447681349
10.620060672,1.00010446831823,-69.10424447402701
10.644376576,1.0001155072996966,-70.4722391343295
10.668693504,1.0001235825144204,-71.84111972506075
10.693009408,1.000128501684637,-73.2108502198881
10.717325312,1.0001298344695089,-74.58144462356712
10.741641216,1.0001278305181536,-75.95286518636071
10.76595712,1.0001223747054024,-77.32508332232432
10.790274048,1.0001137009774888,-78.69807370596607
10.814589952,1.0001017748593688,-80.07181628571946
10.838905856,1.000087188703956,-81.44628181972122
10.86322176,1.0000702895827047,-82.82148540089003
10.887537664,1.000051326658512,-84.19738991883828
10.911854592,1.0000310592678816,-85.5739948022523
10.936170496,1.0000099032896235,-86.95130329002016
10.9604864,0.9999884377628488,-88.32928723807274
10.984802304,0.9999672092975159,-89.70800372361823
11.009118208,0.9999467908512619,-91.08740814294471
11.033435136,0.9999278406594313,-92.46755617753502
11.05775104,0.9999108415819604,-93.84845446259149
11.082066944,0.9998961197045005,-95.23013658316357
11.106382848,0.9998842519495477,-96.61262912032024
11.130698752,0.9998755449209674,-97.99596430865601
11.15501568,0.9998701520127962,-99.38017564703085
11.179331584,0.9998683085674629,-100.76531398700868
11.203647488,0.9998701048089347,-102.15139315764837
11.227963392,0.9998753871400405,-103.5384737173495
11.252279296,0.9998840971690685,-104.92658364469705
11.276596224,0.9998960751964138,-106.31577845273455
11.300912128,0.9999109667924444,-107.70604750139967
11.325228032,0.9999283129181111,-109.09746883732035
11.349543936,0.9999477296013077,-110.49002341596547
11.37385984,0.9999686896519607,-111.88376789243769
11.398176768,0.999990639420823,-113.27870019927644
11.422492672,1.0000129783590812,-114.67482257978759
11.446808576,1.0000350568725016,-116.07217199463997
11.47112448,1.000056397809978,-117.47070375091705
11.495440384,1.0000763019391112,-118.87042365115059
11.519757312,1.0000943093429122,-120.27132924526795
11.544073216,1.000109908216599,-121.67340909128083
11.56838912,1.0001226010203594,-123.07659438982552
11.592705024,1.00013212523626,-124.48090826175687
11.617020928,1.0001382212463894,-125.88627821476179
11.641337856,1.0001406003596516,-127.29271270787413
11.66565376,1.0001392693264264,-128.7001530943172
11.689969664,1.0001342587072448,-130.1085529706832
11.714285568,1.0001256147435071,-131.51790602959437
11.738601472,1.0001135806710368,-132.92815588577128
11.7629184,1.000098513012499,-134.33926906301696
11.787234304,1.000080673705903,-135.75122381290743
11.811550208,1.0000607567693214,-137.16400410184704
11.835866112,1.0000390204832637,-138.5775651521947
11.860182016,1.000016299565942,-139.99190085198916
11.884498944,0.9999929874384023,-141.40701915516732
11.908814848,0.9999698145938123,-142.8228826769991
11.933130752,0.9999474171266953,-144.23951420191034
11.957446656,0.9999263896148349,-145.65689414466044
11.98176256,0.9999071357279105,-147.07506003437786
12.006079488,0.9998904667459891,-148.4940236356826
12.030395392,0.9998766629192021,-149.91379377133228
12.054711296,0.9998660791422646,-151.33438704406018
12.0790272,0.9998591288100012,-152.755852790541
12.103343104,0.9998560185014533,-154.17820219049486
12.127660032,0.9998566959576077,-155.60145538711018
12.151975936,0.9998613190785184,-157.02565197976168
12.17629184,0.9998696746849726,-158.45084611148243
12.200607744,0.9998816908460046,-159.87703347219374
12.224923648,0.9998969304397667,-161.30424571686382
12.249240576,0.9999150493297276,-162.732516395631
12.27355648,0.9999355396238806,-164.16184389483502
12.297872384,0.9999578837505944,-165.59224961939032
12.322188288,0.9999816491860191,-167.0237343813745
12.346504192,1.000005922448566,-168.45631936077305
12.37082112,1.0000303007387787,-169.88997635742945
12.395137024,1.0000539214184558,-171.3246949693703
12.419452928,1.0000764235635624,-172.7604729805681
12.443768832,1.0000968978885731,-174.1972669483
12.468084736,1.0001149862255192,-175.6350411170594
12.492401664,1.0001300838376936,-177.07379424906492
12.516717568,1.0001418752394275,-178.51345386211273
12.541033472,1.0001499302228418,-179.95398352555011
12.565349376,1.0001540547073964,178.60466627487074
12.58966528,1.0001541483493928,177.16254650638305
12.613982208,1.000150162116482,175.71969180306002
12.638298112,1.0001421725329764,174.2761660844735
12.662614016,1.0001303381635402,172.8320257476523
12.68692992,1.0001150440980455,171.38729468385174
12.711245824,1.0000965421913242,169.94204689205864
12.735562752,1.000075474676418,168.49631341047464
12.759878656,1.000052254359466,167.05011149861068
12.78419456,1.0000275640057188,165.60350444560427
12.808510464,1.0000020388578028,164.15649771158033
12.832826368,0.9999762823005424,162.70911812666023
12.857143296,0.9999511781025534,161.26137522622403
12.8814592,0.9999271090689628,159.8132831678968
12.905775104,0.9999049919269197,158.36485567985906
12.930091008,0.9998851842408647,156.9160486152078
12.954406912,0.9998685356961512,155.46690458355604
12.97872384,0.9998553240689977,154.01737082159278
13.003039744,0.999845884682487,152.56744306054452
13.027355648,0.9998405180060995,151.11710803420542
13.051671552,0.9998394309919312,149.66633122932302
13.075987456,0.9998426574650877,148.21509439741374
13.100304384,0.9998501520064137,146.7633770215823
13.124620288,0.9998616239355893,145.31117022181246
13.148936192,0.9998770547392698,143.8584326202799
13.173252096,0.9998958495706385,142.4051386546946
13.197568,0.9999175593354556,140.9513186860143
13.221884928,0.9999416299041012,139.49691069812667
13.246200832,0.9999676212118278,138.04196352441764
13.270516736,0.9999944822404091,136.58644271825287
13.29483264,1.0000217489056935,135.1303815461468
13.319148544,1.0000487449935127,133.6737976831423
13.343465472,1.0000745633580215,132.21669961033797
13.367781376,1.0000986060875008,130.75913630750694
13.39209728,1.000120229852845,129.3011282481792
13.416413184,1.000138786665546,127.84273362588311
13.440729088,1.0001538519534583,126.38399315425885
13.465046016,1.0001649191122588,124.92495871601275
13.48936192,1.0001716666828195,123.46570696620034
13.513677824,1.0001740683172542,122.00626705652903
13.537993728,1.00017166251961,120.54673141215547
13.562309632,1.0001648022112732,119.08713667791645
13.58662656,1.0001534724286443,117.62757165585037
13.610942464,1.0001380957334867,116.16806585488293
13.635258368,1.0001189312854706,114.70870724329261
13.659574272,1.0000964149758511,113.24952252759083
13.683890176,1.0000711852869795,111.79056504884058
13.708207104,1.0000439972463948,110.33188306739446
13.732523008,1.0000153879239044,108.87351583054922
13.756838912,0.9999862368742005,107.41549944112566
13.781154816,0.9999572519860286,105.95782732982019
13.80547072,0.9999293226021205,104.50054673440737
13.829787648,0.999902981970404,103.04364079892471
13.854103552,0.9998790439412925,101.58712934650036
13.878419456,0.9998583112446199,100.13098334120997
13.90273536,0.9998412161740832,98.67521958154553
13.927051264,0.9998281922752963,97.21981059584705
13.951368192,0.9998198061153702,95.76473672885326
13.975684096,0.999816161666848,94.30995446939446
14.0,0.9998174264490977,92.85545186743302
