freq,mag,phase
6.0,1.0000166893685833,96.07720055369045
6.002285568,1.0004018113435649,95.91166457297186
6.004571648,1.0007638581337377,95.74075107708667
6.006857216,1.0010776263351115,95.56494338714334
6.009142784,1.0013231236484723,95.3851184067825
6.011428352,1.0014849298253519,95.2023744523508
6.013714432,1.0015528560874285,95.01796800276001
6.016,1.0015226918209426,94.83333552650154
6.018285568,1.0013960521830976,94.64986427663145
6.020571648,1.0011810737439333,94.46887211265613
6.022857216,1.0008911550655477,94.29154528478028
6.025142784,1.0005446683837902,94.11886597212104
6.027428352,1.0001634097065966,93.9514627806854
6.029714432,0.9997711793918732,93.78974100134553
6.032,0.9993930609941184,93.6336035212932
6.034285568,0.9990530174052196,93.4827120076837
6.036571648,0.9987725068357328,93.33636223072745
6.038857216,0.9985691205321243,93.19359868465514
6.041142784,0.9984562681014159,93.05314495200618
6.043428352,0.9984407172336756,92.91365536897506
6.045714432,0.9985237600890643,92.77373958700608
6.048,0.998699876027284,92.63191839333875
6.050285568,0.9989581555070469,92.48697108922971
6.052571648,0.9992822902222388,92.33781637917534
6.054857216,0.9996515363147607,92.18363977406695
6.057142784,1.000042802340253,92.02397079166047
6.059428352,1.0004309715728865,91.85864259582593
6.061714432,1.000791999500582,91.68792267633822
6.064,1.0011027314093566,91.51236710248311
6.066285568,1.0013436896034418,91.33284776109541
6.068571648,1.0014996010175081,91.1504706200959
6.070857216,1.001560848699884,90.96650992769403
6.073142784,1.0015233089486193,90.78247207573868
6.075428352,1.0013893837851033,90.59961179500444
6.077714432,1.0011675338874355,90.41938818592342
6.08,1.0008714743779563,90.24291450061402
6.082285568,1.0005200474387659,90.07116552981859
6.084571648,1.000135372687409,89.90476968172752
6.086857216,0.9997417561871074,89.74402592046543
6.089142784,0.9993640499038098,89.58892489366545
6.091428352,0.9990261331301885,89.43906873562636
6.093714432,0.9987493825668181,89.2937035172828
6.096,0.9985515217427818,89.15183259678166
6.098285568,0.9984449437520475,89.01218459442728
6.100571648,0.9984366273257288,88.87342503603855
6.102857216,0.9985271098861987,88.73405343138715
6.105142784,0.9987106183970549,88.59273351630097
6.107428352,0.9989754521616234,88.4481740075442
6.109714432,0.9993050725319719,88.29932490706435
6.112,0.9996784195999712,88.14537311365744
6.114285568,1.0000720508750411,87.98587655055941
6.116571648,1.0004608014059257,87.8207224989896
6.118857216,1.0008203692373399,87.65015133343931
6.121142784,1.001127984030282,87.47477104255772
6.123428352,1.0013641454361817,87.29548984441996
6.125714432,1.001514167870655,87.11341872400959
6.128,1.001568379015612,86.92990877776339
6.130285568,1.0015233813787838,86.74635099575644
6.132571648,1.0013819711015595,86.56413194977694
6.134857216,1.0011530311081112,86.38463260527885
6.137142784,1.0008509920450788,86.20898738676318
6.139428352,1.0004947465404797,86.0381145356987
6.141714432,1.0001068334913128,85.87266498003669
6.144,0.9997118008959442,85.71292174779384
6.146285568,0.9993345504636644,85.55881543718574
6.148571648,0.9989988717377277,85.40992086621476
6.150857216,0.9987262868842625,85.26548027206219
6.153142784,0.9985339720371543,85.12443452727155
6.155428352,0.9984340003118423,84.98555930722073
6.157714432,0.9984332039212637,84.84741388550779
6.16,0.9985311916799398,84.70862749179427
6.162285568,0.9987220130528911,84.56774969742143
6.164571648,0.9989936008117063,84.42351845291994
6.166857216,0.9993286763170522,84.2749036930073
6.169142784,0.9997060839429841,84.12110576474532
6.171428352,1.000101898682931,83.96174087745239
6.173714432,1.000491120793407,83.7966536799211
6.176,1.0008491629220395,83.62620034120239
6.178285568,1.0011534106455569,83.45096891409665
6.180571648,1.0013847476646858,83.27187850137116
6.182857216,1.0015284444617645,83.09008200653835
6.185142784,1.0015755551205543,82.90692752617944
6.187428352,1.0015228910800988,82.72383982706978
6.189714432,1.001373922325917,82.54221104242735
6.192,1.0011379436426129,82.36338406342922
6.194285568,1.0008296143472084,82.18853415240667
6.196571648,1.000468683465895,82.01851543921538
6.198857216,1.0000776243482372,81.85398329705794
6.201142784,0.9996811707690877,81.69517702516606
6.203428352,0.9993044612538358,81.54200393712227
6.205714432,0.9989715040887575,81.39403312751718
6.208,0.9987030644365865,81.25045361657254
6.210285568,0.9985164453455128,81.11022301012353
6.212571648,0.9984234364708885,80.97205692516317
6.214857216,0.9984300689756036,80.83452775888398
6.217142784,0.9985357888661559,80.69623316787768
6.219428352,0.9987340544375712,80.55571015063066
6.221714432,0.9990124127929395,80.41174121687176
6.224,0.9993529713380194,80.26330014864965
6.226285568,0.9997342898077607,80.10963196194139
6.228571648,1.0001323705732925,79.9503038760518
6.230857216,1.0005219321570937,79.78527519269406
6.233142784,1.0008782306263526,79.61486299347185
6.235428352,1.0011789317247135,79.43971302280183
6.237714432,1.0014051504137185,79.2607684191456
6.24,1.0015424528383206,79.07919915299473
6.242285568,1.0015821793798083,78.89638812559144
6.244571648,1.0015219321455409,78.71369084171943
6.246857216,1.0013652377641502,78.5326073683039
6.249142784,1.0011219853347217,78.35443790468476
6.251428352,1.0008075950447104,78.18031795919079
6.253714432,1.0004418698048003,78.01112162548084
6.256,1.000047659738338,77.84746907186698
6.258285568,0.9996501340052285,77.68957085420506
6.260571648,0.9992741783060994,77.53731323386351
6.262857216,0.9989437793652948,77.39019886947706
6.265142784,0.998679815247386,77.24744513859191
6.267428352,0.9984991831063375,77.10796774738397
6.269714432,0.9984131448772865,76.97045233663856
6.272,0.9984274273522639,76.83347136987778
6.274285568,0.998541143488162,76.69558432010618
6.276571648,0.9987470279248064,76.55539650853572
6.278857216,0.9990318654019144,76.4116426328193
6.281142784,0.9993780701149807,76.2632836746905
6.283428352,0.9997633227041403,76.10965004057229
6.285714432,1.0001634889722348,75.95034221159295
6.288,1.0005531069134255,75.78531293725416
6.290285568,1.000907624777633,75.61489461032696
6.292571648,1.0012046990791386,75.43976067501393
6.294857216,1.0014256178746141,75.26092966492166
6.297142784,1.001556275172847,75.07952228894614
6.299428352,1.001588527043772,74.89699327457578
6.301714432,1.001520287026707,74.7146955198986
6.304,1.0013558789871353,74.53411342565032
6.306285568,1.0011054000955528,74.35652581362228
6.308571648,1.0007849218004143,74.18310996705546
6.310857216,1.0004143240255963,74.01469441567448
6.313142784,1.000017197147669,73.85187533735109
6.315428352,0.999618561816571,73.69480980163434
6.317714432,0.9992435552484376,73.54344359377109
6.32,0.9989159772240759,73.3971769126037
6.322285568,0.9986566078591409,73.2551926967364
6.324571648,0.9984820687926188,73.11641692683122
6.326857216,0.9984032764661039,72.9794982515012
6.329142784,0.9984253961632927,72.84299625530691
6.331428352,0.9985470437487478,72.7054824134479
6.333714432,0.9987604732393547,72.56553672519235
6.336,0.9990522049894146,72.42192605847504
6.338285568,0.9994038285118165,72.2736533639814
6.340571648,0.9997929713137931,72.12000815097632
6.342857216,1.0001950684366108,71.96060521158687
6.345142784,1.0005846675186636,71.79551289473827
6.347428352,1.0009372344441754,71.62502765048917
6.349714432,1.0012304101702691,71.44988731891756
6.352,1.0014457475407832,71.27107359151476
6.354285568,1.0015696091282316,71.08983058661899
6.356571648,1.0015942625615704,70.90751613876998
6.358857216,1.0015180268742014,70.72557773038153
6.361142784,1.0013457646419495,70.54543438583977
6.363428352,1.0010880800814808,70.36844207641583
6.365714432,1.0007613958889687,70.19567059391873
6.368,1.0003861393609452,70.027988900467
6.370285568,0.9999861369934196,69.86596466931293
6.372571648,0.9995864637510437,69.7097398219687
6.374857216,0.9992125564008967,69.55916307390368
6.377142784,0.9988880965078617,69.41368451713512
6.379428352,0.9986335412095522,69.27244309005597
6.381714432,0.9984653033294515,69.13428979866002
6.384,0.9983938899165394,68.99788916457022
6.386285568,0.9984239459030297,68.86183716610562
6.388571648,0.9985535747280857,68.7246375239394
6.390857216,0.9987747360924008,68.58488706638853
6.393142784,0.9990732836997338,68.44133978849888
6.395428352,0.9994302657296984,68.29307282522832
6.397714432,0.9998231518833055,68.13935357217157
6.4,1.0002271137450551,67.97986879780447
6.402285568,1.0006165587306295,67.81461865404302
6.404571648,1.000966983711556,67.64401290441718
6.406857216,1.0012560105877204,67.46883610235567
6.409142784,1.0014657395975455,67.28998177498954
6.411428352,1.00158271408931,67.10883197388334
6.413714432,1.001599528374812,66.92670396249349
6.416,1.0015152242833365,66.74508175604805
6.418285568,1.001334947252312,66.56532812843975
6.420571648,1.0010700776944113,66.38888370518198
6.422857216,1.0007371572370047,66.21672662144043
6.425142784,1.0003572885673844,66.04975768544568
6.427428352,0.9999545036951348,65.88846541455186
6.429714432,0.9995540137065186,65.73300589305768
6.432,0.9991813630299536,65.58320368676154
6.434285568,0.998860011492073,65.43846018090481
6.436571648,0.9986105186234455,65.29789574794609
6.438857216,0.9984487049598989,65.1603285892522
6.441142784,0.9983847908342663,65.02444877509157
6.443428352,0.9984229970959677,64.88874537540359
6.445714432,0.9985608146271249,64.75178159384103
6.448,0.998789639561635,64.61217695546755
6.450285568,0.9990949737175454,64.4686589450201
6.452571648,0.9994573267267488,64.32032893920784
6.454857216,0.9998538892837436,64.16646701953566
6.457142784,1.0002596017344525,64.00678874846615
6.459428352,1.0006487788903744,63.84136417037472
6.461714432,1.0009968053391094,63.670593323235344
6.464,1.001281723430475,63.49524174972448
6.466285568,1.0014855122556692,63.31638978440305
6.468571648,1.0015953083201599,63.135278988507956
6.470857216,1.0016043252865838,62.95329039551939
6.473142784,1.0015116694726602,62.771906926103625
6.475428352,1.0013234487323106,62.59259467735979
6.477714432,1.0010512663389088,62.41658639449825
6.48,1.0007122872776744,62.245019894493886
6.482285568,1.0003278568221,62.07867392382605
6.484571648,0.9999222785014784,61.91810615805926
6.486857216,0.9995211832392416,61.76340214523983
6.489142784,0.9991498830310518,61.614303852327296
6.491428352,0.9988319618212022,61.47026409141478
6.493714432,0.9985876950471871,61.33031623108259
6.496,0.9984324574393679,61.19327371459545
6.498285568,0.9983762059311938,61.05782643917797
6.500571648,0.9984226496812808,60.922442312848275
6.502857216,0.9985687487806809,60.78565841188589
6.505142784,0.9988052697580335,60.646117572403604
6.507428352,0.9991173800251705,60.502586732395
6.509714432,0.9994850888491719,60.354080173382606
6.512,0.9998853025065717,60.200057705992194
6.514285568,1.0002926201627644,60.04016811824517
6.516571648,1.0006812492792176,59.874474299927094
6.518857216,1.0010267506333541,59.70349264578681
6.521142784,1.0013072251121717,59.527977095313176
6.523428352,1.0015050156557337,59.34901619611575
6.525714432,1.0016076025100535,59.16787410315166
6.528,1.0016085234308316,58.98600173102246
6.530285568,1.001507623280229,58.80486291350283
6.532571648,1.0013112766345282,58.62584178830437
6.534857216,1.0010317562667908,58.450278914344466
6.537142784,1.0006867188425093,58.279241746863946
6.539428352,1.0002978461521133,58.11354600935343
6.541714432,0.9998896249336944,57.953639012500744
6.544,0.9994880036959675,57.79958427940338
6.546285568,0.9991182721153314,57.65117820936598
6.548571648,0.9988039528386742,57.507779251760766
6.550857216,0.9985649175232355,57.36838660737622
6.553142784,0.9984166021622719,57.23184533615251
6.555428352,0.9983682035121069,57.09674713328756
6.557714432,0.9984228775930503,56.961620360919326
6.56,0.998577314519899,56.82499676557454
6.562285568,0.998821596287715,56.68543978754113
6.564571648,0.9991404242619158,56.54178817411126
6.566857216,0.9995135025572451,56.39315216325451
6.569142784,0.9999171612269355,56.23885799704669
6.571428352,1.0003260381770922,56.07865836494298
6.573714432,1.0007140784578579,55.91268473891205
6.576,1.0010568373592998,55.74143075497701
6.578285568,1.0013327673211607,55.565677974346094
6.580571648,1.0015243819947761,55.38656748920104
6.582857216,1.0016195459177049,55.20536831061333
6.585142784,1.001612281478545,55.02353793031502
6.587428352,1.0015029469317605,54.84256781733449
6.589714432,1.0012984748759712,54.66385871428224
6.592,1.0010117177938962,54.488712462656096
6.594285568,1.000660531817696,54.31816852967629
6.596571648,1.0002672490690045,54.15303337664209
6.598857216,0.9998565692653331,53.993741685662904
6.601142784,0.9994545375323568,53.84033466446813
6.603428352,0.9990865615,53.692557788430484
6.605714432,0.998775949603562,53.549746812600475
6.608,0.9985425564453387,53.41087829643968
6.610285568,0.9984010329680957,53.274757473333366
6.612571648,0.9983605652046796,53.13996834465485
6.614857216,0.9984237383747784,53.00501712799153
6.617142784,0.9985865282672937,52.868461178517784
6.619428352,0.9988386691730284,52.72886629700104
6.621714432,0.9991642353570129,52.58508677910671
6.624,0.9995425548739797,52.43616156331594
6.626285568,0.999949642561867,52.28156475047509
6.628571648,1.0003597507868414,52.12101914671174
6.630857216,1.0007470247899888,51.95467786931567
6.633142784,1.0010869534884805,51.783096677389544
6.635428352,1.001358105081262,51.6070776867397
6.637714432,1.0015433913965905,51.42777158324713
6.64,1.0016309696549792,51.246478469992304
6.642285568,1.0016154354894449,51.064662771933996
6.644571648,1.001497699182304,50.883803331593775
6.646857216,1.0012850825336568,50.705361402698394
6.649142784,1.0009909170640334,50.53054292620651
6.651428352,1.0006338020335397,50.36047365393324
6.653714432,1.0002362146958692,50.19586452407501
6.656,0.9998231290593678,50.03713753226011
6.658285568,0.9994208839958767,49.88434948419867
6.660571648,0.9990547865353633,49.73713716948838
6.662857216,0.998748068317338,49.59483848935898
6.665142784,0.99852032665771,49.45645060329695
6.667428352,0.9983859679765508,49.32071366853542
6.669714432,0.9983535738120243,49.18617338160356
6.672,0.9984252797079607,49.05136739513394
6.674285568,0.998596460657415,48.914806610759385
6.676571648,0.9988563678363762,48.77511254291821
6.678857216,0.9991886506042764,48.631077388945386
6.681142784,0.9995721237893539,48.48188732131864
6.683428352,0.9999824473848541,48.32689180489493
6.685714432,1.000393900550179,48.165934958828615
6.688,1.0007802238839971,47.99919928328325
6.690285568,1.0011171662821785,47.827224545336826
6.692571648,1.00138334147757,47.65089303645363
6.694857216,1.001562108096989,47.47132232693217
6.697142784,1.0016420165204492,47.28989718572623
6.699428352,1.0016181340946977,47.108042898917574
6.701714432,1.0014917621332449,46.92728380606486
6.704,1.0012710468035506,46.74902270682663
6.706285568,1.000969544588166,46.57454821897931
6.708571648,1.0006064965891848,46.40488787224117
6.710857216,1.00020462117658,46.24077206511648
6.713142784,0.9997893774986467,46.082556942892126
6.715428352,0.9993869836486424,45.93030872507415
6.717714432,0.9990229369712116,45.783653530621805
6.72,0.9987203092109849,45.64182654166095
6.722285568,0.9984983320919789,45.5038387339252
6.724571648,0.9983712875379218,45.36839905920737
6.726857216,0.9983470125120285,45.234083393149824
6.729142784,0.9984272570961333,45.09935538038935
6.731428352,0.9986069879244599,44.96273061993295
6.733714432,0.9988747574229543,44.8228629078537
6.736,0.9992136518343729,44.67857230151656
6.738285568,0.9996021346520846,44.52897936927239
6.740571648,1.0000157103359244,44.373557369351
6.742857216,1.0004281092612906,44.21215809547756
6.745142784,1.0008134476365813,44.04495963126369
6.747428352,1.0011471683012954,43.8725452570706
6.749714432,1.0014083139423469,43.695833429486086
6.752,1.0015804003566984,43.51597043843518
6.754285568,1.0016526394313934,43.33434864683984
6.756571648,1.0016202206854405,43.15242020475837
6.758857216,1.001485302419819,42.97170120316576
6.761142784,1.001256253745608,42.79362838825645
6.763428352,1.0009475778632504,42.619423358661585
6.765714432,1.0005785772162108,42.45011664179761
6.768,1.000172641431784,42.28642133502925
6.770285568,0.9997552106854132,42.12871214423962
6.772571648,0.9993529032839011,41.976973753878006
6.774857216,0.9989911002327134,41.83077691182535
6.777142784,0.9986926958560018,41.68938957716448
6.779428352,0.9984767349621655,41.55175912283726
6.781714432,0.9983569155433727,41.41657858059991
6.784,0.9983410396871323,41.28239505872585
6.786285568,0.9984299032702147,41.14767278963661
6.788571648,0.9986181552722295,41.010965365065495
6.790857216,0.9988936913820262,40.870847354784026
6.793142784,0.9992391012917174,40.72620024927364
6.795428352,0.9996326378100103,40.57620324374634
6.797714432,1.0000492772705174,40.420288009981476
6.8,1.0004626883561816,40.258376576835396
6.802285568,1.0008467000444474,40.09066755786926
6.804571648,1.0011771477219602,39.91776020110868
6.806857216,1.0014330186683518,39.740607606965696
6.809142784,1.001598364569144,39.56042297898048
6.811428352,1.0016626190959674,39.37857266476028
6.813714432,1.001621640429985,39.19651325908525
6.816,1.0014781173262204,39.015791878559625
6.818285568,1.0012408831669373,38.837843777899664
6.820571648,1.0009249744838333,38.66385848716035
6.822857216,1.000550169159476,38.494899497829444
6.825142784,1.0001401361974376,38.33160065559624
6.827428352,0.9997208388604458,38.17434089054969
6.829714432,0.9993187046341804,38.02302148045611
6.832,0.998959187532326,37.87725010901875
6.834285568,0.9986651768281262,37.73626028864734
6.836571648,0.9984553180561271,37.59891205219593
6.838857216,0.9983430793321723,37.46395653988947
6.841142784,0.9983354277310131,37.329859102979796
6.843428352,0.9984331492578711,37.1950935760864
6.845714432,0.9986297888591535,37.05818972601996
6.848,0.9989132197275513,36.91778150540355
6.850285568,0.9992652236687551,36.772749421459096
6.852571648,0.9996636311601255,36.62224653620723
6.854857216,1.0000832029008246,36.46579518688983
6.857142784,1.000497372857861,36.30330344620206
6.859428352,1.0008800133293074,36.13502208937954
6.861714432,1.0012069641248806,35.96158924557763
6.864,1.0014575991786818,35.78396526446161
6.866285568,1.0016159923884385,35.60339564165412
6.868571648,1.0016722091746453,35.421250260719226
6.870857216,1.0016226044911067,35.23905772523155
6.873142784,1.0014703258749256,35.05829054694298
6.875428352,1.0012249640122775,34.88040837873101
6.877714432,1.0009018493384683,34.70663209532062
6.88,1.0005213172865435,34.53793572337989
6.882285568,1.0001074066349416,34.375000972292405
6.884571648,0.9996861953004856,34.21811370902726
6.886857216,0.9992843725224384,34.06719810877522
6.889142784,0.9989273756775373,33.921820015446976
6.891428352,0.9986379280432034,33.7811319412241
6.893714432,0.9984343969269591,33.644054565795884
6.896,0.9983296764281678,33.509222836560966
6.898285568,0.998330560107138,33.37513525644977
6.900571648,0.9984369843632662,33.24028252507012
6.902857216,0.9986421975833362,33.103134059441786
6.905142784,0.9989333944551253,32.96238466395774
6.907428352,0.9992918147506843,32.81688082267763
6.909714432,0.9996950660599949,32.66585084255892
6.912,1.0001174609803551,32.508816920049476
6.914285568,1.000532335296826,32.345678158293005
6.916571648,1.0009134149037284,32.176775846566485
6.918857216,1.0012367449746156,32.00276990911201
6.921142784,1.0014817838605579,31.824613109016713
6.923428352,1.001633168584605,31.643595878415148
6.925714432,1.0016812575443987,31.461124529510315
6.928,1.001623098804639,31.27872435280161
6.930285568,1.001462110520839,31.097901761799523
6.932571648,1.0012084895017523,30.920050559921428
6.934857216,1.0008782039044304,30.746391691709036
6.937142784,1.000492035431386,30.577953747684386
6.939428352,1.0000742910933087,30.415309409036855
6.941714432,0.999651366082833,30.258775272193947
6.944,0.9992499666428135,30.108208325822304
6.946285568,0.9988957150309734,29.96317575924233
6.948571648,0.9986109138629146,29.822763659678024
