freq,mag,phase
6.0,0.9998043469812176,141.1453446293414
6.002286592,0.999940440518088,140.99212559362795
6.004572672,1.0000805968839945,140.83691156983127
6.006859264,1.0002158041025706,140.6797402041276
6.009145344,1.0003377910142348,140.52075806632752
6.011431936,1.0004386153741984,140.36016732169176
6.013718016,1.0005120683045075,140.19837357900428
6.016004608,1.0005535115074198,140.0357503216001
6.018290688,1.000560068881654,139.87285011016883
6.02057728,1.000531607568309,139.71012040498326
6.022863872,1.0004696010246978,139.54807352440912
6.025149952,1.0003781225173614,139.387189307581
6.027436544,1.0002628461583603,139.2277909076634
6.029722624,1.0001310768238567,139.07027606161992
6.032009216,0.9999910115285784,138.9147605866922
6.034295296,0.9998516764721693,138.7612584037636
6.036581888,0.9997216438075701,138.60979800630255
6.03886848,0.9996092388342598,138.46014047471996
6.04115456,0.9995217914611211,138.31193898927873
6.043441152,0.9994646141711805,138.16483565060483
6.045727232,0.9994414198779736,138.01836194176974
6.048013824,0.9994535315748808,137.87201978855643
6.050299904,0.999500570216325,137.7252877510788
6.052586496,0.9995792927114214,137.57763744756932
6.054872576,0.9996848465896816,137.4287412871884
6.057159168,0.999810635925052,137.27815959425163
6.05944576,0.9999486860370365,137.12573012258756
6.06173184,1.0000901383692749,136.9713022512631
6.064018432,1.0002262904797812,136.81486709101011
6.066304512,1.0003484783945165,136.6566419836476
6.068591104,1.0004488266455607,136.49680342679204
6.070877184,1.0005212444493643,136.3357398079746
6.073163776,1.0005607748081635,136.17391584778395
6.075450368,1.000565237115389,136.01179950632698
6.077736448,1.000534184664403,135.8499159793158
6.08002304,1.0004694610281897,135.68875719849356
6.08230912,1.0003752459819868,135.52875247648032
6.084595712,1.0002574941691638,135.3703769431177
6.086881792,1.0001234392940836,135.2137933922242
6.089168384,0.9999816781693284,135.0592635998995
6.091454464,0.9998412305228223,134.90684975390198
6.093741056,0.9997106598039621,134.75641425582262
6.096027648,0.9995985206539217,134.60778834621544
6.098313728,0.9995118272979495,134.46064304449717
6.10060032,0.9994561579399611,134.31456039951865
6.1028864,0.9994348990918404,134.16909460220947
6.105172992,0.9994496096527878,134.02369831609155
6.107459072,0.9994992714508905,133.87788253149807
6.109745664,0.9995807279214385,133.73113806282063
6.112032256,0.9996890073653639,133.5830771188971
6.114318336,0.9998172680207928,133.43331592056566
6.116604928,0.999957131508547,133.28164296388618
6.118891008,1.0001001040614632,133.12797203114667
6.1211776,1.0002371651206572,132.9722782558085
6.12346368,1.000359417423444,132.81473905006715
6.125750272,1.0004592381505453,132.65564734120036
6.128036352,1.0005303189641472,132.49532081284465
6.130322944,1.0005681297736375,132.33424917262803
6.132609536,1.0005701761647667,132.17294184513966
6.134895616,1.0005364358696638,132.01186103807527
6.137182208,1.00046914700214,131.85156827524608
6.139468288,1.000372111802239,131.6924727487947
6.14175488,1.0002518189721548,131.5350057243177
6.14404096,1.000115494937121,131.37943422890672
6.146327552,0.999972070849898,131.22590129865526
6.148614144,0.9998304506772238,131.07448793965307
6.150900224,0.9996994124251806,130.92510102625897
6.153186816,0.9995876173299891,130.77749701205042
6.155472896,0.9995018922531782,130.6313902542688
6.157759488,0.9994477933149064,130.48629411774434
6.160045568,0.9994287910784724,130.34182630755174
6.16233216,0.9994459220096971,130.19735187395167
6.16461824,0.9994983382322316,130.05246667015297
6.166904832,0.9995825654730968,129.90659718973768
6.169191424,0.9996936820400979,129.75931775417868
6.171477504,0.99982427076614,129.61037546258734
6.173764096,0.9999663011138061,129.4594295299565
6.176050176,1.000110712466744,129.30647291282688
6.178336768,1.000248516608871,129.1515031095926
6.180622848,1.000370716776808,128.99465747734158
6.18290944,1.0004698769032159,128.83626173213253
6.18519552,1.0005396358567937,128.67666309459827
6.187482112,1.0005754681780676,128.51633574158248
6.189768704,1.000575245477449,128.35579884591016
6.192054784,1.0005387912693975,128.1955209363987
6.194341376,1.0004684171774565,128.0360542135739
6.196627456,1.0003686575658257,127.8778574192646
6.198914048,1.00024561242394,127.72133653920662
6.201200128,1.000107162229255,127.56672093829728
6.20348672,0.9999619593207577,127.41418811208143
6.205773312,0.9998192036864957,127.26376719718985
6.208059392,0.9996879331744466,127.11541854677637
6.210345984,0.9995764020863998,126.96884279620082
6.212632064,0.9994917062519034,126.82372053203078
6.214918656,0.9994393255583244,126.67964157328606
6.217204736,0.9994224386862912,126.53611244032702
6.219491328,0.9994423674208509,126.39257070886593
6.221777408,0.9994975466120395,126.24855061932689
6.224064,0.9995848537109325,126.10351472621122
6.226350592,0.999698604799718,125.95705151431436
6.228636672,0.9998317445448849,125.8088358436757
6.230923264,0.9999757313474713,125.65863181119991
6.233209344,1.0001215635008611,125.50638713980334
6.235495936,1.0002599521932916,125.35210236675012
6.237782016,1.0003822475093538,125.19593032261474
6.240068608,1.0004806507027444,125.03822053869031
6.2423552,1.0005488996636427,124.87931150226153
6.24464128,1.0005828361919205,124.71970457780274
6.246927872,1.0005799382654312,124.55989193524545
6.249213952,1.0005407430362407,124.40043467786626
6.251500544,1.0004674151133983,124.2418100818563
6.253786624,1.0003646507407415,124.08446953777597
6.256073216,1.0002389923997341,123.92885504418595
6.258359296,1.0000982164770282,123.77519429040218
6.260645888,0.9999512840767899,123.62362834523867
6.26293248,0.9998075512363043,123.47423492029864
6.26521856,0.9996759428076972,123.32686800155783
6.267505152,0.9995648842629178,123.1812841269933
6.269791232,0.9994813282871843,123.037154444522
6.272077824,0.9994307255671319,122.89405307870861
6.274363904,0.9994163501587909,122.75145728978185
6.276650496,0.9994389158944142,122.60881761800344
6.278937088,0.9994972630400013,122.46563667090606
6.281223168,0.9995874161162513,122.32144105152949
6.28350976,0.9997040371738625,122.17573898361313
6.28579584,0.9998397951439788,122.02826378216062
6.288082432,0.9999857169453916,121.87875683654359
6.290368512,1.0001328886522876,121.72716289340332
6.292655104,1.000272042938386,121.57353043543453
6.294941184,1.0003941699167038,121.41802490642364
6.297227776,1.000491645365142,121.26095233316914
6.299514368,1.0005583368425703,121.10272745938661
6.301800448,1.0005900867801913,120.94381756138341
6.30408704,1.0005846064318764,120.78473533681007
6.30637312,1.0005423829542759,120.62604909270314
6.308659712,1.0004660855534895,120.46823445061351
6.310945792,1.0003603544668578,120.31177504952477
6.313232384,1.0002319632943208,120.1570443184979
6.315518464,1.0000889378996334,120.00430565888205
6.317805056,0.9999403330804962,119.85371563005774
6.320091648,0.9997954386370207,119.70530414063694
6.322377728,0.9996636429318579,119.55890906031429
6.32466432,0.9995530403140473,119.41433612177298
6.3269504,0.999470808980309,119.27119312314076
6.329236992,0.9994221937780933,119.12901881371515
6.331523072,0.9994102265459266,118.98733577902448
6.333809664,0.9994356682807227,118.84560017334076
6.336096256,0.9994970537872722,118.70326748702121
6.338382336,0.9995904923215518,118.5598129267647
6.340668928,0.9997099943515703,118.41486521529484
6.342955008,0.9998480984763101,118.26808774273614
6.3452416,0.9999960626606825,118.11925654420445
6.34752768,1.0001447116273503,117.96830219629976
6.349814272,1.0002844179058887,117.81528166875533
6.352100352,1.0004063479208918,117.66040682726768
6.354386944,1.0005029054293704,117.50395731699692
6.356673536,1.0005680464023115,117.34639259956747
6.358959616,1.0005973944813684,117.18814697469914
6.361246208,1.0005891342280728,117.02979090022477
6.363532288,1.0005438793210422,116.87184091866374
6.36581888,1.0004644348336973,116.71481680203922
6.36810496,1.0003556643411182,116.55920531364023
6.370391552,1.000224398203793,116.40535809575854
6.372678144,1.0000791023002236,116.25355106668623
6.374964224,0.9999288063048412,116.10388117567952
6.377250816,0.9997829399384112,115.95644516392508
6.379536896,0.9996509674713593,115.81102157298206
6.381823488,0.9995410318503476,115.66741293621044
6.384109568,0.9994601393591785,115.52522175172044
6.38639616,0.999413660596592,115.38398340477383
6.38868224,0.9994042339307866,115.24320636605783
6.390968832,0.9994326924995778,115.10230599465685
6.393255424,0.9994972841823558,114.96073973996872
6.395541504,0.9995938515695955,114.8180776383395
6.397828096,0.9997163424701594,114.67383810111946
6.400114176,0.9998570167049523,114.52773309071974
6.402400768,1.0000071396985906,114.37954449291085
6.404686848,1.0001569501747753,114.22920413769634
6.40697344,1.0002971928059734,114.07676757177296
6.409260032,1.0004188397886693,113.92249143057384
6.411546112,1.0005144092526883,113.76663848112132
6.413832704,1.0005776770504786,113.60970564925348
6.416118784,1.000604533347655,113.45210833578636
6.418405376,1.0005935158731798,113.29441478396994
6.420691456,1.0005451638121519,113.13724077105604
6.422978048,1.0004623764083485,112.98098663714937
6.425264128,1.0003504876517264,112.82619430208507
6.42755072,1.000216566688777,112.67320086017523
6.429837312,1.0000689001806473,112.52227531444369
6.432123392,0.9999168645667653,112.37354525108789
6.434409984,0.9997702902073049,112.2270389103421
6.436696064,0.9996380384570324,112.08259905394111
6.438982656,0.99952885247693,111.93992403326259
6.441268736,0.9994494839935506,111.798653464127
6.443555328,0.9994051602236775,111.65833063572482
6.44584192,0.9993984538212555,111.51838336531566
6.448128,0.9994299346988441,111.37831733885814
6.450414592,0.9994978360553719,111.23756429788449
6.452700672,0.9995977545307535,111.09561391547064
6.454987264,0.9997231578718232,110.95206098579446
6.457273344,0.9998664914492948,110.80657198658936
6.459559936,1.0000185258753596,110.65900019030492
6.461846016,1.000169661218532,110.5092295289277
6.464132608,1.0003103860971239,110.35737356982068
6.4664192,1.0004317958397222,110.20364675567062
6.46870528,1.0005260261185411,110.04839685030113
6.470991872,1.0005873621653478,109.89202567771979
6.473277952,1.000611766045797,109.73504918066685
6.475564544,1.0005977324453856,109.57806816820447
6.477850624,1.0005461002194798,109.42152781717623
6.480137216,1.000459976088251,109.26605285152355
6.482423296,1.0003448482947506,109.11205810700915
6.484709888,1.0002080518561447,108.95991537635317
6.48699648,1.0000581049105748,108.8098940450537
6.48928256,0.9999045401771685,108.66207546750603
6.491569152,0.9997568870930554,108.51647286522939
6.493855232,0.9996246609467822,108.37296138354546
6.496141824,0.9995163882953151,108.23122302505271
6.498427904,0.9994385901527257,108.0908571836171
6.500714496,0.9993964541242417,107.9514064951718
6.503001088,0.9993927114915944,107.8123211973398
6.505287168,0.9994273973458105,107.67305731420494
6.50757376,0.9994987108147424,107.53302709848269
6.50985984,0.9996017628943337,107.3917441129992
6.512146432,0.9997303897802853,107.2488600181477
6.514432512,0.9998763136347272,107.10400098604096
6.516719104,1.0000303591315287,106.95696990981003
6.519005184,1.0001826553551438,106.80775554974561
6.521291776,1.0003238823919822,106.65643295484388
6.523578368,1.0004447806389758,106.50324100915465
6.525864448,1.0005377650152731,106.348517087019
6.52815104,1.0005971146478678,106.19272842723154
6.53043712,1.0006189123552671,106.03636929549619
6.532723712,1.000601731598706,105.88000268294309
6.535009792,1.0005466833523085,105.72416216588456
6.537296384,1.000457235981442,105.56941735495366
6.539582976,1.0003388736504641,105.41621656177027
6.541869056,1.000199126951651,105.26488841592007
6.544155648,1.0000468967368694,105.11571618220727
6.546441728,0.9998916589341317,104.96879194048277
6.54872832,0.99974328379032,104.82410138808932
6.5510144,0.9996110896027334,104.6815136899513
6.553300992,0.9995037333130149,104.54065573870113
6.555587072,0.9994276473294588,104.40118303283846
6.557873664,0.9993880016398318,104.26258061766134
6.560160256,0.9993871770224795,104.12428254924757
6.562446336,0.9994252358731818,103.98579030507429
6.564732928,0.9994999542669262,103.84649648671684
6.567019008,0.9996065351933289,103.70589877814633
6.5693056,0.9997381631458856,103.56361835016992
6.57159168,0.9998867349218528,103.41930023228521
6.573878272,1.0000426841589047,103.27282336808076
6.576164864,1.0001963016137716,103.12412484791767
6.578450944,1.0003376721691124,102.97330880071625
6.580737536,1.0004581070930632,102.8206162236489
6.583023616,1.0005497405671935,102.66639370926768
6.585310208,1.0006069441389023,102.51113509436532
6.587596288,1.0006258926890979,102.35534756929897
6.58988288,1.0006054979653927,102.19957568671333
6.59216896,1.000546961364287,102.0444335033401
6.594455552,1.0004539174911116,101.89040151286645
6.596742144,1.0003322994930655,101.7379335372793
6.599028224,1.0001896393739549,101.58741374219079
6.601314816,1.0000350255306234,101.43908883358606
6.603600896,0.9998783154188818,101.29302529410056
6.605887488,0.999729097745449,101.1492549950086
6.608173568,0.9995971517374302,101.00751391461856
6.61046016,0.99949070367112,100.86755403737493
6.612746752,0.9994166404354834,100.72895109514708
6.615032832,0.9993794943318196,100.59115304942416
6.617319424,0.9993817063829624,100.45366539213646
6.619605504,0.9994233331742175,100.31588519431206
6.621892096,0.9995015437420773,100.17726042960604
6.624178176,0.9996115006585344,100.03728255666833
6.626464768,0.9997463915885123,99.89557755968352
6.628750848,0.9998975501519206,99.75183282581828
6.63103744,1.000055545168828,99.60582049003028
6.633324032,1.0002102485489484,99.4576130132545
6.635610112,1.0003519344899592,99.30725124882503
6.637896704,1.0004716300219734,99.15501711651324
6.640182784,1.000561804688405,99.00131132548731
6.642469376,1.0006167177072356,98.8465491353252
6.644755456,1.0006327406703084,98.69130739620758
6.647042048,1.0006090298674857,98.53613817298115
6.649328128,1.0005468821283376,98.38162321194476
6.65161472,1.0004502478756412,98.22827153567272
6.653901312,1.0003252433137935,98.07656025576894
6.656187392,1.0001797441944642,97.9268146641047
6.658473984,1.000022857100618,97.77930004692547
6.660760064,0.9998645203355514,97.63409639570109
6.663046656,0.9997146800516384,97.49116637007586
6.665332736,0.999582963854532,97.35030506791398
6.667619328,0.9994776715995191,97.2111832372895
6.66990592,0.9994055233969034,97.07341226857265
6.672192,0.9993709993004252,96.93642467015721
6.674478592,0.9993765206105305,96.79968668639698
6.676764672,0.9994216721076524,96.66261361698167
6.679051264,0.9995034904968598,96.52461697897365
6.681337344,0.9996170902463193,96.3852381516137
6.683623936,0.9997551883421453,96.24406869424308
6.685910016,0.9999089238206046,96.10080708535105
6.688196608,1.0000687957921368,95.95529071717792
6.6904832,1.0002245947714246,95.80750693361458
6.69276928,1.0003665025498591,95.65758958288885
6.695055872,1.0004854994043584,95.50579683159829
6.697341952,1.0005740133274086,95.35252461386561
6.699628544,1.000626454719273,95.19825155674936
6.701914624,1.0006394535226293,95.04351442649578
6.704201216,1.0006123246884349,94.88891152883711
6.706487808,1.000546487202343,94.73500327236012
6.708773888,1.0004462578980886,94.58231900438273
6.71106048,1.00031778392606,94.43131497090572
6.71334656,1.0001693008777832,94.28232980198537
6.715633152,1.000010130795945,94.13562106468687
6.717919232,0.9998502577663901,93.99124567896082
6.720205824,0.9996999386055005,93.84914731778544
6.722491904,0.9995684863714932,93.7091146807187
6.724778496,0.9994645505420682,93.57084320088983
6.727065088,0.9993943769113163,93.43385145687205
6.729351168,0.9993627220284621,93.29764106456936
6.73163776,0.9993715735682946,93.16160440846517
6.73392384,0.9994203366106569,93.02520101356464
6.736210432,0.999506003322607,92.88782521250342
6.738496512,0.9996231591240672,92.74900800850206
6.740783104,0.999764385223722,92.60835531191246
6.743069696,0.9999208456236794,92.46555245673704
6.745355776,1.0000826968661831,92.32045814108137
6.747642368,1.0002393799196014,92.17305992620365
6.749928448,1.000381356412109,92.02353106385053
6.75221504,1.000499427975947,91.8721595280131
6.75450112,1.000586346256698,91.71928870039402
6.756787712,1.000636215864473,91.56547409727368
6.759073792,1.0006461250057774,91.41123787338307
6.761360384,1.0006152893997529,91.25715499120793
6.763646976,1.0005456902140852,91.10384042645109
6.765933056,1.0004417813259883,90.95179404834866
6.768219648,1.0003097040042535,90.80148743869894
6.770505728,1.0001583443172106,90.65324152337722
6.77279232,0.9999968160336609,90.50728815347964
6.7750784,0.9998355516528387,90.36373226516932
6.777364992,0.9996846554464017,90.2224403857076
6.779651584,0.9995536623048565,90.08323638209056
6.781937664,0.9994510124363767,89.94574733707135
6.784224256,0.9993831898274057,89.80953420086031
6.786510336,0.9993545003902342,89.67404752813707
6.788796928,0.9993668433394147,89.538710272063
6.791083008,0.9994193564396393,89.40292885389468
6.7933696,0.9995088865036834,89.26613715235123
6.79565568,0.9996296722286192,89.12785038535735
6.797942272,0.9997742241332817,88.98766030075042
6.800228864,0.9999333588978453,88.8452652225683
6.802514944,1.0000969158138084,88.70056303845595
6.804801536,1.0002545919134902,88.55355148248852
6.807087616,1.0003966028089273,88.4043936827978
6.809374208,1.0005138495778552,88.25336788165822
6.811660288,1.0005987077952934,88.10089768719907
6.81394688,1.0006459382103274,87.94746957156961
6.81623296,1.0006525062073501,87.79370049773318
6.818519552,1.0006180607123296,87.64012711379961
6.820806144,1.000544580331129,87.48738234330438
6.823092224,1.0004366780073992,87.33594288806765
6.825378816,1.0003013093371964,87.18630688892358
6.827664896,1.000146836854979,87.03877376301662
6.829951488,0.9999830724790917,86.8935765174419
6.832237568,0.9998203699600117,86.7507914984467
6.83452416,0.9996691111179962,86.61029250908489
6.836810752,0.9995386591105578,86.47187602671758
6.839096832,0.9994374666336397,86.33517755610265
6.841383424,0.9993720175413834,86.19968421487506
6.843669504,0.9993464105263759,86.06490544499499
6.845956096,0.9993623101511222,85.9302137442779
6.848242176,0.9994187922162883,85.79503197277592
6.850528768,0.9995121581727787,85.65878391640776
6.852814848,0.9996367240971267,85.52097234808927
6.85510144,0.9997846153115796,85.38118580754895
6.857388032,0.9999463289639405,85.23919269963214
6.859674112,1.0001117080164164,85.09486384709051
6.861960704,1.000270476792976,84.94815953654889
6.864246784,1.0004122624187648,84.79932899285185
6.866533376,1.0005282251515577,84.64864086632795
6.868819456,1.000611209593808,84.4965038471948
6.871106048,1.0006556137914107,84.34348875964281
6.87339264,1.0006587252398769,84.19012859741649
6.87567872,1.0006204273727175,84.03705300154003
6.877965312,1.0005429473221161,83.88482478552322
6.880251392,1.0004313096763582,83.73399537371346
6.882537984,1.0002923362351446,83.58497737963765
6.884824064,1.0001348261064957,83.43815259544034
6.887110656,0.9999688314851942,83.293675435372
6.889396736,0.9998048293048937,83.15163601812424
6.891683328,0.9996531001401564,83.01190857210331
6.89396992,0.9995233652782708,82.87425599964251
6.896256,0.9994238270919665,82.73828458704787
6.898542592,0.999360776739516,82.60352363778533
6.900828672,0.9993383926231472,82.46941348989914
6.903115264,0.9993579601209167,82.33533641858786
6.905401344,0.9994184833387256,82.20071618563452
6.907687936,0.9995159294740619,82.06495294280448
6.909974528,0.9996441929060368,81.92759389875218
6.912260608,0.9997953261412919,81.78822875925104
6.9145472,0.9999596897673818,81.6465682206903
6.91683328,1.0001269482525221,81.50253670055304
6.919119872,1.0002863508172506,81.35614822020058
6.921405952,1.0004280717357656,81.20758259217236
6.923692544,1.0005428320402059,81.05717752546
6.925978624,1.000623506725613,80.9053799614866
6.928265216,1.0006650232779484,80.75270981293242
