freq,mag,phase
6.0,0.9999963360987775,-131.09696329227572
6.04166656,0.9999950926393212,-133.3664162868621
6.08333312,0.9999943739249978,-135.6347346049259
6.125000192,0.9999937961565178,-137.90181997806218
6.166666752,0.9999934026372332,-140.16761781495262
6.208333312,0.9999932054311713,-142.4320828232332
6.249999872,0.9999932213772281,-144.69507246439687
6.291666432,0.9999934698206498,-146.956581408195
6.333333504,0.9999938954646459,-149.21651953842124
6.375000064,0.9999944769966818,-151.4748305471932
6.416666624,0.9999953419633396,-153.73141579435156
6.458333184,0.999996347330757,-155.9862463972856
6.499999744,0.999997538187414,-158.23924612148906
6.541666816,0.9999989027357123,-160.49041038010427
6.583333376,1.0000005453094638,-162.73959647632026
6.624999936,1.000002171674967,-164.98673931634846
6.666666496,1.000004004169682,-167.23188779310726
6.708333568,1.0000059155266858,-169.47490785288738
6.750000128,1.0000080867364625,-171.7157432692647
6.791666688,1.0000101441621614,-173.9544032211932
6.833333248,1.000012344014215,-176.19076675272328
6.874999808,1.00001453192128,-178.4248346138071
6.91666688,1.000016720608349,179.34344115320272
6.95833344,1.0000190255861168,177.11413068762982
7.0,1.0000212332013134,174.88722616608396
7.04166656,1.0000233789711923,172.6628070605754
7.08333312,1.000025397937818,170.44092617341025
7.125000192,1.0000273778744049,168.22157470591355
7.166666752,1.000029220870947,166.004804996976
7.208333312,1.0000308881884323,163.79068478298186
7.249999872,1.0000324904453601,161.57917373482957
7.291666432,1.0000337362712206,159.37036046804604
7.333333504,1.000035024239508,157.164239822948
7.375000064,1.0000359066765556,154.9608666312593
7.416666624,1.0000366178737519,152.76024373122274
7.458333184,1.000037108631218,150.56238248473727
7.500000256,1.0000373655805557,148.3672939119715
7.541666816,1.0000373627175236,146.17503667830846
7.583333376,1.0000369124236097,143.98561791007003
7.624999936,1.0000364723424173,141.7990076113661
7.666666496,1.0000356751281363,139.61526954907407
7.708333568,1.000034568859712,137.43439054351182
7.750000128,1.0000333446960155,135.25638999086493
7.791666688,1.0000318844576985,133.08122840233207
7.833333248,1.0000301170303154,130.90896948635336
7.874999808,1.0000281563198121,128.73958798605534
7.91666688,1.0000260428662546,126.57308246832785
7.95833344,1.000023684737428,124.40946628515627
8.0,1.0000212121075165,122.24872846461646
8.04166656,1.0000186459421898,120.09083928410719
8.08333312,1.0000159824453447,117.93581911501285
8.125000192,1.0000131820700404,115.7836870651683
8.166666752,1.0000103431482719,113.63435710699255
8.208333312,1.00000752022448,111.4878916781788
8.249999872,1.0000048006697106,109.34424137929794
8.291666432,1.0000019866474854,107.20336341376338
8.333333504,0.9999993278777224,105.06529918444753
8.375000064,0.9999965950825717,102.92998531524441
8.416666624,0.9999942055773865,100.79740961858387
8.458333184,0.999991814116521,98.66757937183303
8.499999744,0.999989699574116,96.54041881445796
8.541666816,0.9999877683486685,94.41594218256282
8.583333376,0.9999860855770132,92.29411522236056
8.625000448,0.9999846327078089,90.1749153664742
8.666667008,0.9999834416737476,88.05827693106951
8.708333568,0.9999825481458341,85.9442105620149
8.750000128,0.9999819589127547,83.8326706284897
8.791666688,0.9999817060074885,81.7235919385924
8.833333248,0.999981718529319,79.61697712027306
8.874999808,0.9999819691531173,77.51280851006376
8.916666368,0.9999827525686836,75.41099513230363
8.958332928,0.9999837558083782,73.31150990181462
8.999999488,0.9999850528732904,71.21434637864925
9.041667072,0.9999866955580743,69.11943534281897
9.083333632,0.9999885365688687,67.02675395000207
9.125000192,0.9999907754543459,64.93623518511727
9.166666752,0.9999932673428631,62.8478616409
9.208333312,0.9999958645973354,60.761580275863096
9.249999872,0.9999988348763578,58.67732424391204
9.291666432,1.0000018770246037,56.5950731195261
9.333332992,1.0000051441833555,54.51479815777929
9.374999552,1.00000852714352,52.436402965946606
9.416667136,1.0000119407601153,50.35990222583855
9.458333696,1.0000155128765589,48.285194826973
9.500000256,1.0000190538255023,46.212247672666784
9.541666816,1.0000225494367097,44.141017760159045
9.583333376,1.0000259901785367,42.07145414428806
9.624999936,1.0000293682913681,40.00352507466088
9.666666496,1.000032639661783,37.93711631040754
9.708333056,1.0000357657093437,35.87226685207056
9.749999616,1.0000386254962688,33.808872146422566
9.791666176,1.0000412863998938,31.746891111795065
9.83333376,1.0000437155578354,29.686278429235042
9.87500032,1.0000457845880575,27.626977338500083
9.91666688,1.0000475862945395,25.568938660164566
9.95833344,1.000049017494112,23.512107742241895
10.0,1.0000501670089095,21.456440952649118
10.04166656,1.000050861420837,19.40188268395522
10.08333312,1.0000511037571151,17.348369247169526
10.12499968,1.0000510481609721,15.2958483936486
10.16666624,1.0000505819522196,13.244293893587448
10.208333824,1.0000496218147061,11.19361944454857
10.250000384,1.0000483797657955,9.143795654760607
10.291666944,1.0000466478141936,7.094745451579538
10.333333504,1.0000445613635234,5.046427286748309
10.375000064,1.000042079262879,2.998787003246027
10.416666624,1.0000393305420485,0.9517792210104316
10.458333184,1.0000361803863766,-1.0946605348550111
10.499999744,1.0000327954682082,-3.140579804694279
10.541666304,1.0000290108970176,-5.186054442153926
10.583332864,1.0000252014992415,-7.231134554962078
10.625000448,1.0000210646217205,-9.275841899137085
10.666667008,1.0000168401354328,-11.320286044602547
10.708333568,1.0000124422385837,-13.364470662303228
10.750000128,1.0000079460393767,-15.408490079497877
10.791666688,1.0000035448360394,-17.452397400920287
10.833333248,0.9999991331744953,-19.496246988550617
10.874999808,0.9999947167370995,-21.540070090292318
10.916666368,0.9999904642782402,-23.583956439819232
10.958332928,0.999986405872996,-25.627952823452716
11.000000512,0.9999824878824535,-27.672112672884108
11.041667072,0.9999789216505192,-29.716506921663022
11.083333632,0.9999756082889346,-31.76118047106652
11.125000192,0.9999727015313146,-33.80618991746731
11.166666752,0.9999700127702218,-35.851607153545416
11.208333312,0.999967864950967,-37.8974797957398
11.249999872,0.999965993005926,-39.94387671751523
11.291666432,0.9999647511663754,-41.99084154870494
11.333332992,0.9999639039348124,-44.03845540611597
11.374999552,0.9999636372086602,-46.086747309885666
11.416667136,0.9999637218577297,-48.1357914469442
11.458333696,0.999964434592712,-50.185643643659056
11.500000256,0.999965656023695,-52.23636185477307
11.541666816,0.9999673570410876,-54.28799818171583
11.583333376,0.999969601054927,-56.34062951497112
11.624999936,0.9999722577868037,-58.39426929929501
11.666666496,0.9999754464548857,-60.449016174877144
11.708333056,0.9999790538016331,-62.50490679204168
11.749999616,0.9999830763974633,-64.5619936373823
11.791666176,0.9999874358520984,-66.62033558610857
11.83333376,0.9999921381850135,-68.67998292331545
11.87500032,0.9999971062212797,-70.74098408420889
11.91666688,1.0000023036204668,-72.8033917425476
11.95833344,1.0000078265197765,-74.86727880810571
12.0,1.0000133289352,-76.93266118699634
12.04166656,1.0000189971141904,-78.99960355473634
12.08333312,1.000024661609374,-81.06814173525052
12.12499968,1.0000302202709497,-83.1383473087266
12.16666624,1.0000357308510606,-85.21024204889135
12.208333824,1.0000410990963842,-87.28388503535305
12.250000384,1.000046248451255,-89.35932004174028
12.291666944,1.0000511694225471,-91.4365694200047
12.333333504,1.0000556584149431,-93.51569236073686
12.375000064,1.000059875821987,-95.59673802777682
12.416666624,1.0000636405849896,-97.67971855299395
12.458333184,1.0000668474794985,-99.76467290205032
12.499999744,1.0000696120694825,-101.8516689487301
12.541666304,1.0000719375183622,-103.94071955116934
12.583332864,1.0000734727961982,-106.03185842386014
12.625000448,1.0000744973428812,-108.12511827097381
12.666667008,1.0000748771238914,-110.22055151546424
12.708333568,1.0000745872953467,-112.31817216957222
12.750000128,1.0000736068264393,-114.41799862183571
12.791666688,1.0000720276153925,-116.52006389491862
12.833333248,1.0000698098806005,-118.62441156029475
12.874999808,1.0000669081864286,-120.73105816784523
12.916666368,1.0000634326206403,-122.84002085175305
12.958332928,1.0000593308319603,-124.9513239548061
12.999999488,1.0000545787331216,-127.06500607121069
13.041667072,1.000049415207625,-129.1810665863308
13.083333632,1.0000437485355966,-131.2995501197414
13.125000192,1.0000375720759407,-133.42046441143128
13.166666752,1.0000310345527468,-135.54381730656704
13.208333312,1.0000242272345257,-137.6696433220733
13.249999872,1.000017174384697,-139.7979523091712
13.291666432,1.000009871947673,-141.92875505761802
13.333332992,1.0000024774907554,-144.06206034671268
13.374999552,0.9999949925087925,-146.1978997675692
13.416667136,0.9999875965528068,-148.336279443784
13.458333696,0.9999802404302045,-150.47719067653313
13.500000256,0.9999730759742158,-152.6206716110876
13.541666816,0.9999662172674583,-154.76670048189436
13.583333376,0.9999595610108714,-156.91530890219195
13.624999936,0.9999534205816207,-159.0664971333379
13.666666496,0.9999476621909174,-161.22025341708763
13.708333056,0.999942438759032,-163.3766165339954
13.749999616,0.9999378939355826,-165.5355720274241
13.791666176,0.999933924226268,-167.69710617358334
13.83333376,0.9999306793296339,-169.8612296640533
13.87500032,0.999928147918115,-172.02793743302144
13.91666688,0.9999265223247964,-174.19722576074142
13.95833344,0.9999256815075221,-176.36909599495146
14.0,0.9999255988453353,-178.54355063859788
