freq,mag,phase
6.0,0.9999405385580579,-42.61727104037235
6.011064832,0.999842962327071,-43.04641230509025
6.022130176,0.9997507510091511,-43.474463045084846
6.033195008,0.999670376771681,-43.90144783934191
6.04425984,0.9996057773154388,-44.32767052029477
6.055325184,0.9995600913116023,-44.75327552000163
6.066390016,0.9995359917715413,-45.1784960654451
6.077454848,0.9995343050368755,-45.60361743796543
6.088520192,0.9995554096462647,-46.029027895441054
6.099585024,0.9995982829852991,-46.45491426421141
6.110649856,0.9996607985532128,-46.88156888283092
6.1217152,0.9997399960030374,-47.30925855528501
6.132780032,0.9998319757094422,-47.73812033864996
6.143844864,0.9999322850289153,-48.16830258514656
6.154910208,1.0000356900304923,-48.59994531290348
6.16597504,1.0001373877631836,-49.032971378081264
6.177039872,1.0002322449283825,-49.46734770543775
6.188105216,1.0003156949154761,-49.902989654053506
6.199170048,1.0003833318987576,-50.339715761711346
6.21023488,1.0004320389273922,-50.77727688980847
6.221300224,1.00045919997197,-51.21545505524284
6.232365056,1.0004634416570624,-51.6539382423546
6.2434304,1.0004445670532285,-52.092434276713625
6.254495232,1.0004033863935733,-52.530681536457514
6.265560064,1.0003417180968945,-52.96835159699028
6.276625408,1.0002630661959546,-53.40526033013487
6.28769024,1.0001708113640133,-53.84114888787923
6.298755072,1.0000695752425433,-54.27596911979461
6.309820416,0.9999642639308947,-54.70955593589994
6.320885248,0.9998603272418056,-55.141898039146305
6.33195008,0.9997627334890751,-55.57301371476162
6.343015424,0.9996762415195529,-56.00311403423579
6.354080256,0.9996054163996813,-56.43223009388147
6.365145088,0.999553465393613,-56.86076186052517
6.376210432,0.9995232208479744,-57.28880181136874
6.387275264,0.9995164014726414,-57.71669027329413
6.398340096,0.9995328798129604,-58.144776723072674
6.40940544,0.9995724440381101,-58.573305130709066
6.420470272,0.9996328980972545,-59.00256247756244
6.431535104,0.9997114783038966,-59.43286261843185
6.442600448,0.9998040804353884,-59.86429225328841
6.45366528,0.9999064310009431,-60.29711907845687
6.464730112,1.0000132942537456,-60.731375312674125
6.475795456,1.000119587532002,-61.16710298835742
6.486860288,1.0002200363044613,-61.604261409506734
6.49792512,1.0003095307949594,-62.042755796408834
6.508990464,1.00038392007845,-62.48241183938726
6.520055296,1.0004390627503035,-62.922968583471466
6.531120128,1.0004724670650458,-63.36427997211543
6.542185472,1.0004823500446425,-63.805941949466884
6.553250304,1.0004683595919879,-64.24768702189641
6.564315136,1.000430737359885,-64.68922159545755
6.57538048,1.0003716231135702,-65.13028023083056
6.586445312,1.0002939117329706,-65.57053661536024
6.597510144,1.000200958034438,-66.00983620135499
6.608575488,1.000097690913083,-66.44798711210343
6.61964032,0.9999891461419752,-66.8848809411952
6.630705152,0.9998804811774578,-67.32053399185587
6.641770496,0.9997770985070007,-67.75489233514186
6.652835328,0.9996844021680769,-68.18811742584437
6.66390016,0.9996066499575734,-68.62034438834903
6.674965504,0.9995479032303922,-69.05181735967471
6.686030336,0.9995111536968961,-69.48276208090154
6.69709568,0.9994981313948451,-69.9135063807806
6.708160512,0.9995097100951855,-70.34433747731684
6.719225344,0.9995451953953441,-70.77557526124731
6.730290688,0.999602971204174,-71.20747064661145
6.74135552,0.9996803449740777,-71.64035680700647
6.752420352,0.9997734000086227,-72.07444318605906
6.763485696,0.9998777040902893,-72.50991326720998
6.774550528,0.9999879703481996,-72.94688093980615
6.78561536,1.0000990038939856,-73.38533297279548
6.796680704,1.0002051854319123,-73.82528724219883
6.807745536,1.0003012090614996,-74.26665991628147
6.818810368,1.000382378802138,-74.70926538200415
6.829875712,1.0004447240301162,-75.15296083428801
6.840940544,1.0004850094899675,-75.5973597589537
6.852005376,1.0005012711094594,-76.0422623671789
6.86307072,1.0004925703557284,-76.48733140366366
6.874135552,1.00045937914327,-76.9322581448644
6.885200384,1.0004032604345103,-77.37670478928985
6.896265728,1.000326804312607,-77.82045925069146
6.90733056,1.000233826337485,-78.26320034041055
6.918395392,1.0001285729652116,-78.70484176472037
6.929460736,1.0000167600766763,-79.14517821140896
6.940525568,0.9999034387901531,-79.58418334303543
6.9515904,0.9997942393565208,-80.02188296730267
6.962655744,0.999694762343969,-80.45834761448775
6.973720576,0.9996099051012557,-80.89372946083715
6.984785408,0.9995437533591754,-81.32825820458076
6.995850752,0.9994997587575281,-81.76219391392301
7.006915584,0.9994799968025819,-82.19579578732552
7.017980416,0.9994857434868384,-82.62941650558128
7.02904576,0.9995165698788059,-83.06339444836375
7.040110592,0.9995711550722121,-83.49800657530366
7.051175424,0.9996470030078346,-83.93353689147342
7.062240768,0.9997399808100021,-84.37027176589908
7.0733056,0.9998459517953562,-84.808380537921
7.084370432,0.9999596284529056,-85.24803322733963
7.095435776,1.0000752681457883,-85.68923714458306
7.106500608,1.0001873055766772,-86.13201732896984
7.117565952,1.0002902799219744,-86.57626547596226
7.128630784,1.0003788658041357,-87.02186525223125
7.139695616,1.0004490286417225,-87.46857429036525
7.15076096,1.0004968723384295,-87.91619117996943
7.161825792,1.0005201728299895,-88.36439867194453
7.172890624,1.000517671185776,-88.81283769026277
7.183955968,1.000489438793868,-89.26119986706958
7.1950208,1.000436917953445,-89.70914381698803
7.206085632,1.000362308830187,-90.15640676553505
7.217150976,1.0002694421434921,-90.60271163443235
7.228215808,1.0001629105971381,-91.04786807820742
7.23928064,1.000047762164797,-91.49174667617854
7.250345984,0.9999297419442094,-91.93420768551107
7.261410816,0.9998145518440439,-92.37531752758316
7.272475648,0.9997080597697735,-92.81507921842935
7.283540992,0.9996154379599568,-93.25368628704265
7.294605824,0.9995412835329179,-93.69135637265697
7.305670656,0.9994893019678225,-94.12830382040386
7.316736,0.9994621767232329,-94.56486274984363
7.327800832,0.9994613334534513,-95.00132074557533
7.338865664,0.9994867565220253,-95.4380452800739
7.349931008,0.9995374392336168,-95.87534033283718
7.36099584,0.9996109316511949,-96.3135467061976
7.372060672,0.9997035061187414,-96.7529389865248
7.383126016,0.9998107655235242,-97.19369759391749
7.394190848,0.9999275641150707,-97.63598125933126
7.40525568,1.0000480278605386,-98.07994365142471
7.416321024,1.0001661648469171,-98.52548690536806
7.427385856,1.0002763721073158,-98.97264063686387
7.438450688,1.000373020470117,-99.42122230130205
7.449516032,1.0004514344989675,-99.87104971820249
7.460580864,1.0005075410369828,-100.32182971928702
7.471645696,1.000538688995927,-100.77331803879169
7.48271104,1.0005432015766458,-101.22514296000107
7.493775872,1.0005207464187247,-101.67694733891427
7.504840704,1.00047234889668,-102.12845151157623
7.515906048,1.00040035601727,-102.57933301440843
7.52697088,1.000308368085493,-103.02925891876644
7.538035712,1.000200734545636,-103.47801249495416
7.549101056,1.000082572500159,-103.92546236099153
7.560165888,0.9999598699941552,-104.37147371014218
7.571231232,0.9998385855256567,-104.81600481454944
7.582296064,0.9997246722117185,-105.25917596885562
7.593360896,0.9996238078506664,-105.70107794869789
7.60442624,0.9995410195896594,-106.14193520267001
7.615491072,0.9994804104588499,-106.58192917000974
7.626555904,0.9994450836990866,-107.02142465971625
7.637621248,0.999436826254674,-107.46074366396893
7.64868608,0.9994560952086784,-107.90025971048337
7.659750912,0.9995020854325656,-108.34027608073073
7.670816256,0.9995725903840776,-108.78112980173005
7.681881088,0.9996641026211681,-109.22312454577815
7.69294592,0.999772322514467,-109.66651736806487
7.704011264,0.9998919305223073,-110.11147022395254
7.715076096,1.0000170097117227,-110.55807849241174
7.726140928,1.000141487669049,-111.0064074969755
7.737206272,1.0002591234058467,-111.45639192148707
7.748271104,1.0003642371728685,-111.90796281898466
7.759335936,1.0004515395911793,-112.36079926997257
7.77040128,1.0005167225306135,-112.81477570467773
7.781466112,1.0005564628663053,-113.26952781498572
7.792530944,1.0005687691924745,-113.72476353342033
7.803596288,1.000553004252071,-114.180073239884
7.81466112,1.0005098259018144,-114.63513417403587
7.825725952,1.0004411776033022,-115.08959401823826
7.836791296,1.0003504866427955,-115.54318089538886
7.847856128,1.0002420840952497,-115.99560928825078
7.85892096,1.0001213151673232,-116.44666790798856
7.869986304,0.9999940550169379,-116.89629229557366
7.881051136,0.9998664978561744,-117.3443576462019
7.892115968,0.9997449033755472,-117.7909549474144
7.903181312,0.99963540821726,-118.23619586775693
7.914246144,0.9995433399867314,-118.68023912747111
7.925310976,0.9994733435142197,-119.12335797293467
7.93637632,0.9994289204050522,-119.56581796519967
7.947441152,0.9994122972391991,-120.00802399921803
7.958505984,0.9994245375555357,-120.45025509535171
7.969571328,0.9994648334491965,-120.89297329056356
7.98063616,0.9995315634751111,-121.33644919450839
7.991700992,0.9996214197787453,-121.78101957970554
8.002766336,0.9997300248132578,-122.22699585123343
8.013831168,0.9998521562422283,-122.67452382093948
8.024896512,0.9999818026411186,-123.12375087075384
8.035961344,1.0001124936307,-123.57480710116435
8.047026176,1.0002379897932625,-124.02758570288361
8.05809152,1.0003519627111417,-124.48200145298166
8.069156352,1.000448842024438,-124.93788667547673
8.080221184,1.000523815869615,-125.39498285563523
8.091286528,1.0005730745346464,-125.85301020049718
8.10235136,1.0005941685045654,-126.31161964379156
8.113416192,1.0005860508647748,-126.77041954828644
8.124481536,1.0005488134111764,-127.2290336882287
8.135546368,1.000484431704393,-127.68713044019293
8.1466112,1.0003957687126546,-128.14438188024067
8.157676544,1.0002873328073425,-128.60048817095205
8.168741376,1.0001641716538234,-129.05523480977632
8.179806208,1.0000324952025694,-129.50846038044983
8.190871552,0.9998985581661711,-129.96009165100187
8.201936384,0.999769118464535,-130.41016469742814
8.213001216,0.9996505023959756,-130.85875670038484
8.22406656,0.9995484766504207,-131.3060542439001
8.235131392,0.9994682281185814,-131.7522406617108
8.246196224,0.9994138300268026,-132.1977282166194
8.257261568,0.9993879698445176,-132.64276065171478
8.2683264,0.9993920235948756,-133.0877480407938
8.279391232,0.9994258697025475,-133.53309285876463
8.290456576,0.9994879889497146,-133.97913073094557
8.301521408,0.9995752744716624,-134.42624236583478
8.31258624,0.9996837434797983,-134.87469304034948
8.323651584,0.9998079203871371,-135.324738886739
8.334716416,0.9999417812039488,-135.77655484303787
8.345781248,1.0000788890676335,-136.2301900690808
8.356846592,1.000212322907959,-136.68568753273047
8.367911424,1.0003357040897305,-137.1429260419574
8.378976256,1.0004428035353572,-137.6017528899167
8.3900416,1.000528412842378,-138.0619058707086
8.401106432,1.0005881340428884,-138.52312746069916
8.412171264,1.000619056867063,-138.98506088109923
8.423236608,1.0006194782961055,-139.44728128193458
8.43430144,1.0005894256833294,-139.90944967128814
8.445366784,1.0005301129778008,-140.37117358258075
8.456431616,1.000444522851933,-140.83209014030567
8.467496448,1.0003365345172899,-141.2919037138523
8.478561792,1.000211647853195,-141.75034011987245
8.489626624,1.000075774441453,-142.20718325501906
8.500691456,0.9999355701624796,-142.66243266391555
8.5117568,0.9997979465827525,-143.11602658819191
8.522821632,0.9996697989966484,-143.5679631867475
8.533886464,0.999557187360931,-144.01849690117007
8.544951808,0.9994659520462901,-144.46783506911015
8.55601664,0.9994006410254401,-144.91625944034968
8.567081472,0.9993643639585839,-145.3641337688484
8.578146816,0.999359145344163,-145.81181536428193
8.589211648,0.99938542443526,-146.2597495610683
8.600276992,0.9994417330367081,-146.70830764597915
8.611341312,0.9995257186999376,-147.15784728131737
8.622406656,0.9996331853253311,-147.60873673311755
8.633472,0.9997588929752839,-148.06117013506415
8.64453632,0.9998968449896817,-148.51543287011341
8.655601664,1.0000401620293433,-148.97155023859406
8.666667008,1.0001818816567898,-149.42964447227584
8.677731328,1.0003150102593266,-149.88957547411403
8.688796672,1.0004329571486321,-150.35124442352577
8.699862016,1.0005300531115497,-150.81437409728713
8.710926336,1.0006012219082043,-151.27870499831442
8.72199168,1.0006430355196674,-151.74387494148232
8.733057024,1.0006532969184838,-152.20950317457175
8.744121344,1.000631409518892,-152.67518899884882
8.755186688,1.0005783742641081,-153.14050614334454
8.766252032,1.0004965882415662,-153.6050734733908
8.777316352,1.0003901312997874,-154.06855272263502
8.788381696,1.0002640068219797,-154.530707763842
8.79944704,1.0001242872534395,-154.99124024241146
8.81051136,0.9999779555721925,-155.45004853125343
8.821576704,0.9998321197640085,-155.90712702794113
8.832642048,0.999693991007108,-156.36247599500723
8.843706368,0.999570188822398,-156.8162737282234
8.854771712,0.9994671058512974,-157.26870411244676
8.865837056,0.9993897168427842,-157.72005288102227
8.876901376,0.9993419839531926,-158.17071860017387
8.88796672,0.99932635163657,-158.62105700109078
8.899032064,0.9993437724347489,-159.07150096979328
8.910096384,0.9993933305693414,-159.52248363548009
8.921161728,0.9994729217733214,-159.97436597327797
8.932227072,0.9995785029030009,-160.42753237010365
8.943291392,0.9997050853272594,-160.8822753767883
8.954356736,0.9998465378559428,-161.33881001798602
8.96542208,0.9999959028082743,-161.79733224290027
8.9764864,1.0001460158854745,-162.25786244530175
8.987551744,1.0002893097940246,-162.72039709100164
8.998617088,1.0004187464122225,-163.18474090964628
9.009681408,1.0005281137525672,-163.65073564152019
9.020746752,1.000611797182624,-164.1180836686222
9.031812096,1.0006657248533506,-164.58641100602517
9.042876416,1.0006869579785833,-165.05532525871928
9.05394176,1.0006745503169718,-165.52445025883551
9.065007104,1.000628941465013,-165.99332251815017
9.076071424,1.000552159834608,-166.46149920134883
9.087136768,1.0004479460901192,-166.92866314717648
9.098202112,1.0003213856373105,-167.39448582499972
9.109266432,1.000178422960047,-167.85865469002567
9.120331776,1.0000261292302235,-168.3211049968524
9.13139712,0.9998718753116619,-168.78165843807076
9.142462464,0.9997233272397312,-169.24038571922878
9.153526784,0.9995878016244085,-169.69740734615536
9.164592128,0.9994719374637351,-170.1529360483783
9.175657472,0.9993814902130902,-170.60718500847477
9.186721792,0.9993210566732357,-171.0606036402617
9.197787136,0.9992937275462416,-171.51352179031394
9.20885248,0.999300956051382,-171.96641868571456
9.2199168,0.9993424333180315,-172.41968879638776
9.230982144,0.9994162946935724,-172.87380071994684
9.242047488,0.9995191534475878,-173.3291334012643
9.253111808,0.9996458666595808,-173.78600756467165
9.264177152,0.9997902124333289,-174.24472460575808
9.275242496,0.999945540327302,-174.70545410348618
9.286306816,1.0001038434845695,-175.1682727438689
9.29737216,1.0002575763604018,-175.63318761886538
9.308437504,1.0003993083675269,-176.100079558458
9.319501824,1.000521784688235,-176.5687821042181
9.330567168,1.0006190927897411,-177.03900102299568
9.341632512,1.000686282840236,-177.51036749138538
9.352696832,1.0007199792132802,-177.98250828512843
9.363762176,1.0007184665411777,-178.45496805691045
9.37482752,1.0006815348985896,-178.92730446379667
9.38589184,1.0006111482822477,-179.39905584190188
9.396957184,1.0005102931600756,-179.86986210689096
9.408022528,1.0003839921358346,179.66068418373231
9.419086848,1.0002384869219123,179.19284725026918
9.430152192,1.0000804740099825,178.72684582735317
9.441217536,0.999917889952767,178.26279439267853
9.452281856,0.9997587491701081,177.80068924933565
9.4633472,0.9996107149569552,177.3404586362069
9.474412544,0.999481221196082,176.881889334795
9.485476864,0.9993765994861732,176.42475423634892
9.496542208,0.9993022494477529,175.96868209505473
9.507607552,0.9992617581072977,175.5132187229448
9.518671872,0.9992572961495324,175.05799653563528
9.529737216,0.9992892403311142,174.60252538548937
9.54080256,0.9993562116179013,174.14631610240346
9.55186688,0.9994548817758449,173.68897695217944
9.562932224,0.9995808098895836,173.23012045126507
9.573997568,0.9997276772591799,172.76943340830124
9.585061888,0.9998883039623349,172.30667795588025
9.596127232,1.000055031403534,171.8417548772902
9.607192576,1.0002195472911328,171.37461593740892
9.618256896,1.000373926544198,170.9053285834709
9.62932224,1.000510461040946,170.4341042929421
9.640387584,1.0006225340170178,169.96117626039043
9.651451904,1.0007042656365834,169.4869043528324
9.662517248,1.0007519300348136,169.01167036141553
9.673582592,1.0007627452453072,168.53597843554883
9.684646912,1.0007361710417937,168.0602626390641
9.695712256,1.000673404706195,167.58500466198595
9.7067776,1.000577213669688,167.11064916337892
9.71784192,1.0004524426768333,166.63758115708472
9.728907264,1.0003048204634315,166.16613403564259
9.739972608,1.0001417833424893,165.69658218464608
9.751036928,0.9999709585351322,165.2290296647255
9.762102272,0.9998008955364679,164.7636085462922
9.773167616,0.999639841042797,164.30015982801575
9.784231936,0.9994957962227137,163.8385820907188
9.79529728,0.999375897970715,163.37862013380334
9.806362624,0.9992861457238135,162.9199113810323
9.817426944,0.9992309739815783,162.4620634983583
9.828492288,0.9992133607022133,162.00458033953828
9.839557632,0.9992341846431246,161.547024923788
9.850621952,0.9992927156006194,161.0888731361095
9.861687296,0.9993860255186783,160.62967796062165
9.87275264,0.9995099524593927,160.169023466571
9.88381696,0.9996582469811978,159.70654234873527
9.894882304,0.9998239217152722,159.24198103513675
9.905947648,0.9999987288656634,158.77514927954454
9.917011968,1.0001743653826332,158.30598581301777
9.928077312,1.0003420572904782,157.8345392535067
9.939142656,1.0004934403637118,157.3609582501313
9.950206976,1.0006214436651526,156.8854934676857
9.96127232,1.0007192675343985,156.408478899194
9.972337664,1.0007823249801249,155.9303428490431
9.983401984,1.0008071446861475,155.45153610588892
9.994467328,1.0007925450659232,154.97252556254188
10.005532672,1.0007390516244428,154.49386031524273
10.016598016,1.0006489771965934,154.01599609828952
10.027662336,1.0005267463426732,153.53937029628437
10.03872768,1.0003782123855116,153.064343034117
10.049793024,1.0002103869772923,152.591244892076
10.060857344,1.0000316435435175,152.12027314557457
10.071922688,0.9998504632148675,151.6514879877791
10.082988032,0.9996758110413029,151.1848835882893
10.094052352,0.999516455246451,150.72032431095948
10.105117696,0.9993800223397856,150.25757281268076
10.11618304,0.9992735484394282,149.79632867880224
10.12724736,0.999201993194752,149.3361071217792
10.138312704,0.9991694475798066,148.8765088048718
10.149378048,0.9991773799110686,148.41699735750205
10.160442368,0.9992257748807861,147.9570556207933
10.171507712,0.9993123124587758,147.49618494059254
10.182573056,0.9994328389966786,147.03391355545673
10.193637376,0.9995816663859519,146.56983280051273
10.20470272,0.9997514401073128,146.10366805291525
10.215768064,0.9999343731451942,145.635156869901
10.226832384,1.0001209086195078,145.16419862909498
10.237897728,1.0003024800276483,144.69081183581704
10.248963072,1.0004698424330214,144.2150919932188
10.260027392,1.0006148493273583,143.73729118739882
10.271092736,1.000730220208625,143.2577433535181
10.28215808,1.0008103590199213,142.77682779793923
10.2932224,1.0008511179302115,142.29503814150104
10.304287744,1.0008503041969656,141.8128654207917
10.315353088,1.0008077237015172,141.33089286460293
10.326417408,1.0007254242386354,140.84957386234893
10.337482752,1.0006072907740877,140.36944911567406
10.348548096,1.0004588625251531,139.89090022828728
10.359612416,1.0002871503859525,139.41427404089987
10.37067776,1.0001006957302978,138.9398741687496
10.381743104,0.9999084741955158,138.46777028873854
10.392807424,0.9997198445023471,137.99801255368084
10.403872768,0.9995441207100769,137.5304883493882
10.414938112,0.9993899563957455,137.06502255338597
