freq,mag,phase
6.0,0.9999159679083771,21.944067691028128
6.008705024,0.9999636249547883,21.711291971275177
6.017410048,1.0000133501247672,21.477886010282955
6.026115584,1.000062290139446,21.243793222645397
6.034820608,1.0001079177696175,21.009048085107665
6.043525632,1.0001477268584946,20.773725770430765
6.052230656,1.000179528124958,20.53785344162063
6.06093568,1.0002016529605773,20.301606903561634
6.069640704,1.0002128286895704,20.065130929453808
6.07834624,1.0002123399700449,19.828583845293796
6.087051264,1.0002002615303045,19.592064516742905
6.095756288,1.00017718137705,19.35576046457847
6.104461312,1.0001443694190855,19.11982526793375
6.113166336,1.0001033810372972,18.88435313867687
6.12187136,1.0000565531369336,18.64942777321945
6.130576896,1.0000063390785714,18.415137846952792
6.13928192,0.9999554172562232,18.181497803085747
6.147986944,0.9999065718519747,17.948544156262138
6.156691968,0.9998624055369842,17.716150691701355
6.165396992,0.9998254177704398,17.484316131729944
6.174102528,0.9997974918082198,17.25287011948685
6.182807552,0.9997802455057837,17.0217603135181
6.191512576,0.999774652648536,16.79072785711616
6.2002176,0.9997809308778964,16.559762377712584
6.208922624,0.9997990113984748,16.328541797981067
6.217627648,0.9998277991410404,16.097002481806417
6.226333184,0.9998658018865791,15.865020869601974
6.235038208,0.9999111294083728,15.632471895804544
6.243743232,0.9999610559362693,15.399253132358774
6.252448256,1.0000131908752856,15.165284933209964
6.26115328,1.000064706323249,14.93070447097282
6.269858304,1.0001127008539163,14.695328963832289
6.27856384,1.000154558865978,14.45940755975306
6.287268864,1.0001881351768882,14.222934106977064
6.295973888,1.0002114385454979,13.986076739093598
6.304678912,1.0002234446071805,13.748952205200814
6.313383936,1.0002231184192103,13.511682022857142
6.322089472,1.000210625269969,13.274508538601918
6.330794496,1.0001865509306216,13.037553811423402
6.33949952,1.0001522270201786,12.80098369757896
6.348204544,1.0001092805314913,12.564849895490987
6.356909568,1.0000602018328082,12.329308300503001
6.365614592,1.0000075177989114,12.094506632315179
6.374320128,0.999954123111897,11.86032492630998
6.383025152,0.9999028497703563,11.62685634761453
6.391730176,0.9998563642886866,11.394018946143419
6.4004352,0.9998173163120221,11.161721570979184
6.409140224,0.9997878562080874,10.92984572032391
6.417845248,0.9997695978967114,10.69834105027854
6.426550784,0.9997634511162504,10.466954445125614
6.435255808,0.9997699428284582,10.235519935757795
6.443960832,0.999788725727276,10.00392647354567
6.452665856,0.9998187589037818,9.772002282347804
6.46137088,0.9998585220102708,9.539579744345977
6.470076416,0.9999058498920531,9.30654308831637
6.47878144,0.9999583048512405,9.072859473197708
6.487486464,1.0000129635365882,8.83842213306655
6.496191488,1.0000670568105405,8.603213721340826
6.504896512,1.0001174725344144,8.367289633121889
6.513601536,1.0001616245431106,8.130750391544435
6.522307072,1.0001970167527923,7.893618898488204
6.531012096,1.0002217058578855,7.656051666818078
6.53971712,1.0002344069267153,7.418248782488962
6.548422144,1.0002343816040158,7.180274745616094
6.557127168,1.0002215321865107,6.942391206533836
6.565832192,1.0001965220246019,6.7047418995723564
6.574537728,1.000160571035467,6.4674711924096275
6.583242752,1.0001157446936102,6.230719113353023
6.591947776,1.0000643946027794,5.9945776893664044
6.6006528,1.0000092107110514,5.759110832043735
6.609357824,0.9999530242531692,5.5244090676453155
6.61806336,0.9998991824347425,5.290419594070908
6.626768384,0.9998504229418222,5.05707582774485
6.635473408,0.9998092032137731,4.82431352020523
6.644178432,0.9997780857896501,4.592004379478377
6.652883456,0.99975870114873,4.360058009668416
6.66158848,0.9997520439636972,4.128286821765958
6.670294016,0.9997584582487961,3.8964140477586624
6.67899904,0.999777871033569,3.6644141067417944
6.687704064,0.9998091861534664,3.4320745553247107
6.696409088,0.999850651648116,3.1991812753139794
6.705114112,0.9999002686005981,2.965705008658927
6.713819136,0.9999551468042542,2.731464495870996
6.722524672,1.0000124750349622,2.496466928005603
6.731229696,1.0000692056312734,2.2607215940225673
6.73993472,1.000122266523998,2.024198573217302
6.748639744,1.0001687216200665,1.786988673283673
6.757344768,1.0002060282771614,1.5491847989908665
6.766050304,1.000232170124891,1.3109201353806297
6.774755328,1.0002458825617226,1.072375887941421
6.783460352,1.0002460836509413,0.833724833375597
6.792165376,1.0002328833819674,0.5950941789021198
6.8008704,1.000207019101294,0.3567068860594705
6.809575424,1.00016963673789,0.11873705558536275
6.81828096,1.0001227863801003,-0.11870923125792901
6.826985984,1.0000689604184216,-0.3555006112410552
6.835691008,1.0000111595644137,-0.5915629106794591
6.844396032,0.9999523734429895,-0.8268622125496409
6.853101056,0.9998957850170342,-1.0614373660508751
6.86180608,0.9998443459354995,-1.2953140989261338
6.870511616,0.9998009700057473,-1.5285456673857187
6.87921664,0.999768151195084,-1.7612599676956449
6.887921664,0.9997473622876861,-1.9937060047701396
6.896626688,0.9997400751734498,-2.2259369147511094
6.905331712,0.9997466016483898,-2.458186639522495
6.914037248,0.999766614590795,-2.6906280798491267
6.922742272,0.9997991703848818,-2.9234231092152676
6.931447296,0.9998424393577863,-3.156757282079344
6.94015232,0.9998941592747496,-3.3907514763753723
6.948857344,0.9999515789632647,-3.6254863098359356
6.957562368,1.0000117742506207,-3.8610297188372837
6.966267904,1.0000711990293454,-4.097416555047854
6.974972928,1.0001270225630792,-4.334585080015015
6.983677952,1.000175956980941,-4.572461243250232
6.992382976,1.0002153531489246,-4.810975773989981
7.001088,1.0002431564267653,-5.049956537819006
7.009793024,1.0002577239510715,-5.2892606094439945
7.01849856,1.0002582638301025,-5.528708754714415
7.027203584,1.00024488538758,-5.768052686042847
7.035908608,1.0002179528166082,-6.007190523114184
7.044613632,1.0001791115382606,-6.245922468610707
7.053318656,1.0001301803839617,-6.484073917670248
7.062024192,1.0000741181270114,-6.72152270366614
7.070729216,1.0000134599060888,-6.958272016434761
7.07943424,0.9999518097833225,-7.194207677134647
7.088139264,0.9998922943724619,-7.429333719366871
7.096844288,0.999838342549965,-7.663728105356252
7.105549312,0.9997926587930797,-7.897480092943682
7.114254848,0.9997578092572079,-8.130707054936572
7.122959872,0.999735766315096,-8.363584484313503
7.131664896,0.999727706689988,-8.596262261139724
7.14036992,0.9997341638225216,-8.828969593024357
7.149074944,0.9997547469231493,-9.0618395749487
7.157779968,0.9997883823110257,-9.295133557876358
7.166485504,0.9998335587629198,-9.528938676566883
7.175190528,0.9998876239733464,-9.763438153135594
7.183895552,0.999947706879871,-9.998709445032302
7.192600576,1.000010660087096,-10.234891355665372
7.2013056,1.0000730489791134,-10.471854815763045
7.210011136,1.0001317548452935,-10.70967274942766
7.21871616,1.0001831900333336,-10.948257886065168
7.227421184,1.0002248294381657,-11.187507231846771
7.236126208,1.0002543368405845,-11.427244658870574
7.244831232,1.00027009832028,-11.667325598380696
7.253536256,1.0002711619258178,-11.907534054089663
7.262241792,1.0002573963550658,-12.147712190148058
7.270946816,1.0002296370287735,-12.387632737425552
7.27965184,1.0001892573708069,-12.627128915794133
7.288356864,1.000138312611638,-12.866016842986893
7.297061888,1.0000796992800467,-13.104225705348064
7.305766912,1.0000162427411423,-13.341625456983902
7.314472448,0.9999516519124669,-13.57818555252447
7.323177472,0.9998892131610052,-13.813947124752291
7.331882496,0.9998323004815562,-14.048895113931335
7.34058752,0.9997841428683916,-14.28320097935541
7.349292544,0.9997472859047974,-14.516939030160735
7.357997568,0.999723769509265,-14.750280980729913
7.366703104,0.9997148242077484,-14.983450474286677
7.375408128,0.9997211396029374,-15.216594462784897
7.384113152,0.9997421435711981,-15.44998622122185
7.392818176,0.9997772833504626,-15.683723071991997
7.4015232,0.9998240773393733,-15.918032510159753
7.410228736,0.9998804317648778,-16.153048295083583
7.41893376,0.9999432683061578,-16.38890025820632
7.427638784,1.0000092352359509,-16.625637373147338
7.436343808,1.0000747575936273,-16.863278513137416
7.445048832,1.0001363676438233,-17.10178352035396
7.453753856,1.0001906417341297,-17.341091426511774
7.462459392,1.0002345384986278,-17.581092647021222
7.471164416,1.0002658615696027,-17.821625057694387
7.47986944,1.0002827812340462,-18.062524624267986
7.488574464,1.0002844207067803,-18.303541864347686
7.497279488,1.000270679416446,-18.544519886507196
7.505984512,1.0002418567667133,-18.785260721888488
7.514690048,1.0001999778237185,-19.025538029209887
7.523395072,1.0001470732905162,-19.265228664239675
7.532100096,1.0000857246056627,-19.504190057673014
7.54080512,1.0000193595081692,-19.742307747116914
7.549510144,0.9999516059720753,-19.979580733721072
7.55821568,0.9998860429605738,-20.215967279285326
7.566920704,0.9998262688969387,-20.451534509520297
7.575625728,0.9997755958578199,-20.686367332953207
7.584330752,0.999736540491153,-20.92063497251939
7.593035776,0.9997113010642631,-21.15451609312588
7.6017408,0.9997014710214381,-21.388128657721474
7.610446336,0.9997074843729146,-21.621768753426714
7.61915136,0.9997291726512508,-21.855624540644396
7.627856384,0.9997653577232573,-22.08986113992983
7.636561408,0.9998140676412711,-22.32470702522134
7.645266432,0.9998728192821652,-22.56028602627144
7.653971456,0.9999385135854811,-22.796688157180302
7.662676992,1.0000075242943134,-23.0340625589255
7.671382016,1.0000762373215533,-23.272341448301315
7.68008704,1.0001408967543748,-23.511564214488544
7.688792064,1.00019805440604,-23.75160048625661
7.697497088,1.0002445276501226,-23.992429612807427
7.706202624,1.0002779395305386,-24.233754866048802
7.714907648,1.000296211413443,-24.475470722485536
7.723612672,1.0002984452126247,-24.71737977153868
7.732317696,1.0002844366057961,-24.95921649527603
7.74102272,1.0002550049961247,-25.20081790022163
7.749727744,1.0002115481248637,-25.441936870838948
7.75843328,1.000156222634529,-25.682447763468673
7.767138304,1.000092385729766,-25.92215786822465
7.775843328,1.0000230884130494,-26.16105122590412
7.784548352,0.999952059880993,-26.399034114641935
7.793253376,0.9998831765865986,-26.636074805801773
7.8019584,0.9998203571786812,-26.872256931623074
7.810663936,0.9997667749679644,-27.107679116966317
7.81936896,0.9997252917303784,-27.34251820554378
7.828073984,0.9996983241143653,-27.576893835317406
7.836779008,0.9996874266513245,-27.811052848351345
7.845484032,0.9996931566579788,-28.04517648068398
7.854189568,0.9997152339531103,-28.27950197283632
7.862894592,0.9997526818903711,-28.5142575765754
7.871599616,0.999803280564332,-28.749627880659563
7.88030464,0.9998645990599694,-28.985764998227967
7.889009664,0.9999331245777481,-29.222798785729836
7.897714688,1.0000053894209155,-29.460793594420544
7.906420224,1.0000774069505314,-29.699769870354153
7.915125248,1.0001454550871018,-29.939729672123534
7.923830272,1.0002055456211227,-30.180557316985535
7.932535296,1.000254780820519,-30.42214291522244
7.94124032,1.00029019207185,-30.664349083698976
7.949945344,1.0003099719628359,-30.90695049440417
7.95865088,1.0003131250491561,-31.149741109845014
7.967355904,1.0002990457450027,-31.392460118645715
7.976060928,1.0002687564797743,-31.634947472113254
7.984765952,1.0002237648126688,-31.876942632673313
7.993470976,1.0001664325259165,-32.118307183210824
8.002176512,1.0000995556200323,-32.35886683178107
8.010881536,1.0000270922479904,-32.59852155347624
8.01958656,0.9999527866330445,-32.83723922187089
8.028291584,0.9998805558298025,-33.07498128370676
8.036996608,0.9998143245404489,-33.31183136390483
8.045701632,0.9997578445672798,-33.54785222959614
8.054407168,0.9997138829471925,-33.783268964376354
8.063112192,0.9996850488156536,-34.01821788997716
8.071817216,0.9996729883090351,-34.25286375340522
8.08052224,0.9996782715526608,-34.48750519721266
8.089227264,0.9997008046511418,-34.722366205483745
8.097932288,0.9997392900432381,-34.95763830083484
8.106637824,0.9997917673175034,-35.19356833261061
8.115342848,0.9998555979704732,-35.430267867545226
8.124047872,0.9999272237935763,-35.667915394771576
8.132752896,1.0000026673877087,-35.90655636599245
8.14145792,1.000078334478951,-36.146245813522995
8.150163456,1.0001496580692664,-36.386965325274076
8.15886848,1.0002131706473998,-36.62860295203914
8.167573504,1.0002652647047368,-36.87102501102587
8.176278528,1.0003030212486483,-37.1141170258838
8.184983552,1.000324438645211,-37.35759703407581
8.193688576,1.000328307248356,-37.60132315184083
8.202394112,1.0003144047974617,-37.84497482852481
8.211099136,1.0002833054827007,-38.08839116623097
8.21980416,1.0002369036099146,-38.331300738786844
8.228509184,1.0001772777630664,-38.57355337961664
8.237214208,1.0001075771854995,-38.81498913343102
8.245919232,1.000031891399922,-39.055460452821954
8.254624768,0.9999540271164181,-39.29492839005426
8.263329792,0.999878178622819,-39.53341548546876
8.272034816,0.9998084858493477,-39.770951986966004
8.28073984,0.9997487508592681,-40.007625441574504
8.289444864,0.9997021266104239,-40.24360622448991
8.2981504,0.999671284271632,-40.479110199657235
8.306855424,0.999657748802417,-40.71433824806861
8.315560448,0.9996626088988749,-40.94951443317823
8.324265472,0.9996854937428308,-41.18490193590065
8.332970496,0.9997250422225842,-41.42073620565871
8.34167552,0.9997796551875702,-41.65718272057103
8.350381056,0.9998458476878268,-41.89453543829812
8.35908608,0.9999205358396785,-42.132780511923485
8.367791104,0.9999997095058295,-42.372112545208914
8.376496128,1.00007888374201,-42.612535357722656
8.385201152,1.0001539320985466,-42.85402895543534
8.393906176,1.000220906999208,-43.096478779291516
8.402611712,1.0002759427939598,-43.33979621599497
8.411316736,1.0003163011278777,-43.58376300166076
8.42002176,1.0003394959081324,-43.8282172334632
8.428726784,1.00034432970328,-44.07288735156517
8.437431808,1.0003304838295657,-44.31753993930486
8.446137344,1.0002987979661329,-44.56188210279913
8.454842368,1.000250603122452,-44.80577470179321
8.463547392,1.000188701975385,-45.04893709324312
8.472252416,1.0001162490968067,-45.29125946832389
8.48095744,1.0000372429394717,-45.532582448375884
8.489662464,0.9999556661974631,-45.77287783991839
8.498368,0.9998759928908738,-46.01209365169253
8.507073024,0.9998025817489624,-46.250352390565276
8.515778048,0.9997394945512224,-46.48768828016048
8.524483072,0.9996899609170593,-46.72429259921307
8.533188096,0.9996567873620067,-46.96039801081339
8.54189312,0.9996418589878243,-47.19620527416281
8.550598656,0.9996460251799839,-47.43191602623499
8.55930368,0.9996691502554867,-47.66784752735872
8.568008704,0.999709940191498,-47.90423850652051
8.576713728,0.9997662670034099,-48.14130992442962
8.585418752,0.999835291116216,-48.37922683547147
8.594123776,0.9999133527944536,-48.61817220315046
8.6028288,0.9999959767834099,-48.85820270174293
8.611533824,1.000079075638464,-49.099370572239266
8.620239872,1.0001580633932807,-49.34163020376191
8.628944896,1.0002285753801294,-49.584956464667385
8.63764992,1.0002869126220444,-49.829182445218656
8.646354944,1.0003298394631206,-50.07409399135668
8.655059968,1.0003550635568286,-50.31950161829601
8.663764992,1.0003609944960952,-50.56519217850717
8.672470016,1.000347456877779,-50.810833945562344
8.68117504,1.0003151502878638,-51.05621084470903
8.689880064,1.000265508321346,-51.30105971065822
8.698585088,1.0002011852061163,-51.545236102938546
8.707290112,1.0001257398804935,-51.78845749141476
8.715995136,1.0000430623851662,-52.03069019984543
8.724701184,0.9999576290405683,-52.27180217696447
8.733406208,0.9998740783402968,-52.51185511595199
8.742111232,0.9997968986356156,-52.75081727874462
8.750816256,0.9997301078232835,-52.98886359120325
8.75952128,0.9996774525374471,-53.22612143329704
8.768226304,0.9996419048485309,-53.462811913406895
8.776931328,0.9996253414262434,-53.699197720128225
8.785636352,0.9996286734193391,-53.93551736537499
8.794341376,0.9996519883577167,-54.1720094047987
8.8030464,0.9996938775147249,-54.408961421271734
8.811751424,0.9997521844459407,-54.64664096162182
8.820457472,0.9998239432933747,-54.885194021824326
8.829162496,0.9999052073944639,-55.12477006513765
8.83786752,0.9999917780907122,-55.36552297831193
8.846572544,1.0000788598624792,-55.60745301317118
8.855277568,1.0001619391551746,-55.850571930541676
8.863982592,1.0002363498210591,-56.094774775839696
8.872687616,1.0002982213961824,-56.339927250377215
8.88139264,1.000343968280391,-56.58583365092421
8.890097664,1.0003713765575635,-56.832257718248044
8.898802688,1.0003787042828056,-57.07896135018054
8.907507712,1.0003654959113724,-57.325669018633086
8.91621376,1.0003325268732808,-57.57208886975711
8.924918784,1.0002813007960953,-57.81798194224436
8.933623808,1.0002146379792198,-58.06314123815373
8.942328832,1.0001360988157224,-58.30737322240847
8.951033856,1.0000497607997818,-58.550524885897666
8.95973888,0.9999602920709714,-58.79253701782184
8.968443904,0.9998724556041362,-59.03338145140724
8.977148928,0.9997910969020137,-59.27314361116432
8.985853952,0.9997205343209649,-59.51189743739664
8.994558976,0.9996645171828371,-59.74985902355535
9.003264,0.9996263312184637,-59.98718397099142
9.011969024,0.9996079249548869,-60.22415650950213
9.020675072,0.9996103185595484,-60.461071301860635
9.029380096,0.9996336822912237,-60.6981292007996
9.03808512,0.9996766334110502,-60.935704210809796
9.046790144,0.999737042633193,-61.17396320537636
9.055495168,0.9998114665635113,-61.41314716314696
9.064200192,0.9998963169529346,-61.653458624728906
9.072905216,0.9999868206037498,-61.89494729567343
9.08161024,1.0000782291298111,-62.13768130021459
9.090315264,1.0001655603998907,-62.38165834762052
9.099020288,1.000244129701667,-62.626759237881785
9.107725312,1.0003097369758542,-62.87287140968001
9.11643136,1.0003586797260144,-63.11976622000479
9.125136384,1.000388384500996,-63.367257174697954
9.133841408,1.0003971590083929,-63.61502905280558
9.142546432,1.000384446205126,-63.86281830252806
9.151251456,1.000350973831404,-64.11033356021623
9.15995648,1.0002980968604551,-64.35732326216701
9.168661504,1.0002291062925734,-64.60353813540758
9.177366528,1.0001472898503512,-64.84877272660798
9.186071552,1.0000571177069923,-65.09290774105058
9.194776576,0.9999633531510161,-65.33583549286676
9.2034816,0.999871137853492,-65.5775816915407
9.212187648,0.9997853696701311,-65.81813238464362
9.220892672,0.9997107931152894,-66.05763131064258
9.229597696,0.9996512562255286,-66.29627233614616
9.23830272,0.9996100593040614,-66.5342827281851
9.247007744,0.9995896703093676,-66.77186820193953
9.255712768,0.9995910504254208,-67.00937399044851
9.264417792,0.9996143441456063,-67.24706673051435
9.273122816,0.9996582744723805,-67.4852419301936
9.28182784,0.9997206787642559,-67.7241161482066
9.290532864,0.9997981711903139,-67.96397200590144
9.299237888,0.999886565343594,-68.20498300943507
9.307942912,0.9999812436793811,-68.44721103913403
9.31664896,1.0000770745256118,-68.69077285165885
9.325353984,1.0001689922280292,-68.9356244219203
9.334059008,1.000252027918688,-69.18168173859053
9.342764032,1.0003214713444109,-69.4287935870598
9.351469056,1.000373939302892,-69.67673903089661
9.36017408,1.0004061585489803,-69.92532263756456
9.368879104,1.0004165760943866,-70.1742204752759
9.377584128,1.0004045029892947,-70.42312814753997
9.386289152,1.0003704882618023,-70.67176153692375
9.394994176,1.0003162248517283,-70.91989286898496
9.4036992,1.0002447190434898,-71.16721861613824
9.412405248,1.0001595773339542,-71.41350667922201
9.421110272,1.0000654321423796,-71.65865712313253
9.429815296,0.9999672610513602,-71.90255432405044
9.43852032,0.9998703739274928,-72.14517945417144
9.447225344,0.9997799178444239,-72.38659331640527
9.455930368,0.9997008186046883,-72.62689567139438
9.464635392,0.999637466717203,-72.866251943458
9.473340416,0.9995932263753134,-73.1049206607779
9.48204544,0.9995704430094435,-73.3431882919956
9.490750464,0.9995707586203275,-73.58129904283493
