freq,mag,phase
6.0,0.9999187022083738,-114.8812403344732
6.002287104,0.9998635110318596,-115.013373394045
6.004574208,0.9998156899699204,-115.14481424782169
6.006861312,0.9997794615066995,-115.27562727333157
6.009147904,0.9997571502703892,-115.40599468760031
6.011435008,0.9997500685021138,-115.5361468775033
6.013722112,0.9997587575106476,-115.66634339256373
6.016009216,0.9997827242245927,-115.79677085471768
6.01829632,0.9998203569185332,-115.92762912548658
6.020583424,0.9998691910634407,-116.0591550673832
6.022870016,0.999926429811071,-116.19145068350788
6.02515712,0.9999882147374621,-116.32460998964348
6.027444224,1.0000505713228882,-116.45869847031463
6.029731328,1.000109748618921,-116.59363255274447
6.032018432,1.0001617088483998,-116.72945143029646
6.034305536,1.0002033659969927,-116.86588780432783
6.036592128,1.0002319099490908,-117.00287759542874
6.038879232,1.0002456096486823,-117.14018821319395
6.041166336,1.0002436757107769,-117.2775629547542
6.04345344,1.0002259907854196,-117.41483201341947
6.045740544,1.0001937687525557,-117.5517387688424
6.048027648,1.0001490896926388,-117.68807373150169
6.05031424,1.000094747527084,-117.82373675598694
6.052601344,1.000034105920249,-117.95850001368217
6.054888448,0.999971197841391,-118.09241991080104
6.057175552,0.9999097926728457,-118.2254059460923
6.059462656,0.9998541122013833,-118.35760924879287
6.06174976,0.9998074068027754,-118.48898043121171
6.064036352,0.9997727732460537,-118.61983098300199
6.066323456,0.9997524541791496,-118.75023431643893
6.06861056,0.9997476889805693,-118.88052496830775
6.070897664,0.9997589517066378,-119.01079725470571
6.073184768,0.9997853368475902,-119.1413736223887
6.075471872,0.999825201484846,-119.27246132180318
6.077758464,0.9998761514966124,-119.40420945942672
6.080045568,0.9999348149249851,-119.53672238482008
6.082332672,0.9999975556651544,-119.67014683574975
6.084619776,1.0000604199828598,-119.80450101243777
6.08690688,1.0001192825346534,-119.93971253524465
6.089193984,1.0001705295476824,-120.075763026454
6.091481088,1.000210716182072,-120.21249015863584
6.09376768,1.0002374584272198,-120.34965754408239
6.096054784,1.000248916764364,-120.48716105068235
6.098341888,1.0002444583350447,-120.6247211899476
6.100628992,1.000224279701962,-120.76209649782086
6.102916096,1.0001897015257168,-120.89905716462746
6.1052032,1.000142896811738,-121.03545744038452
6.107489792,1.0000867563624847,-121.17108866459921
6.109776896,1.0000249300699,-121.30590070726197
6.112064,0.999961359163206,-121.43979088426984
6.114351104,0.9998999674985893,-121.57275860115439
6.116638208,0.9998448182960356,-121.70487251808319
6.118925312,0.9997993371887108,-121.83629463486531
6.121211904,0.9997664399522015,-121.96713592393517
6.123499008,0.9997481535836036,-122.09760298934431
6.125786112,0.999745787617313,-122.2279164211574
6.128073216,0.9997595071375708,-122.35831067357505
6.13036032,0.9997883951151836,-122.48905286180246
6.132647424,0.999830497204051,-122.62027577188441
6.134934016,0.9998834230365824,-122.75221126841008
6.13722112,0.9999434904316458,-122.88498712126358
6.139508224,1.0000072114373548,-123.01861661311919
6.141795328,1.0000703751915978,-123.15320732113814
6.144082432,1.000128896047945,-123.28867308232823
6.146369536,1.0001790519942875,-123.42496894530686
6.148656128,1.0002178634298375,-123.56191295330768
6.150943232,1.0002425519832963,-123.69930783615645
6.153230336,1.0002516951372598,-123.83696625307233
6.15551744,1.0002448056771067,-123.97460672936937
6.157804544,1.000222192216554,-124.11208029341802
6.160091648,1.0001851735300313,-124.24910650910529
6.162378752,1.000136336535182,-124.3855263531911
6.164665344,1.0000784992087701,-124.52115256885334
6.166952448,1.0000154914446644,-124.65591272331747
6.169239552,0.9999513927869597,-124.78977174614066
6.171526656,0.9998900673270613,-124.92270490861908
6.17381376,0.9998356119562182,-125.05477604726448
6.176100864,0.9997913488774852,-125.18613710528017
6.178387456,0.9997602787698918,-125.31693983012948
6.18067456,0.9997441210520503,-125.44745900854026
6.182961664,0.9997442840458507,-125.5778109245596
6.185248768,0.9997604587450657,-125.7083004494083
6.187535872,0.9997917810639871,-125.83914381924043
6.189822976,0.999836204347491,-125.97051968260624
6.192109568,0.999890988843703,-126.10263789006964
6.194396672,0.9999525680516426,-126.23560187204971
6.196683776,1.0000170903400798,-126.36947031677506
6.19897088,1.0000804079606904,-126.50427448411465
6.201257984,1.000138500587157,-126.64001718691621
6.203545088,1.0001877243846817,-126.77650410359712
6.20583168,1.000224833936357,-126.91362698365819
6.208118784,1.000247597933258,-127.05118775363772
6.210405888,1.0002544181216018,-127.18897782929132
6.212692992,1.0002450353186452,-127.32672951983025
6.214980096,1.0002198146699832,-127.46425341935733
6.2172672,1.0001804476292986,-127.60130425755123
6.219553792,1.00012950691643,-127.73769847852387
6.221840896,1.0000699840791982,-127.87331751786255
6.224128,1.000005857891065,-128.00798734868707
6.226415104,0.9999411715616527,-128.14177071280508
6.228702208,0.9998801026718938,-128.27462685832774
6.230989312,0.9998263861092985,-128.40662416618719
6.233275904,0.9997835029088585,-128.53796346148803
6.235563008,0.9997541847132518,-128.6687440325004
6.237850112,0.9997404419282431,-128.79922925651087
6.240137216,0.9997430200762678,-128.92963222711904
6.24242432,0.9997617217543388,-129.06016710812068
6.244711424,0.9997955013900077,-129.19111582721462
6.246998528,0.9998421581665474,-129.3226228881528
6.24928512,0.9998987596407062,-129.45490491230643
6.251572224,0.9999616070877949,-129.58807618457246
6.253859328,1.0000269330420548,-129.72212392216198
6.256146432,1.0000903069176363,-129.8571624534527
6.258433536,1.0001479067043273,-129.9930618128255
6.26072064,1.0001960270629553,-130.12977241082925
6.263007232,1.0002315337697965,-130.26702179074528
6.265294336,1.000252171659626,-130.4047543004091
6.26758144,1.0002565864128832,-130.54261938988154
6.269868544,1.0002445972228404,-130.68045422472642
6.272155648,1.0002169282378952,-130.81802735595966
6.274442752,1.0001751585821113,-130.95506694982453
6.276729344,1.000122168710775,-131.0914458603662
6.279016448,1.0000611251092764,-131.22695174537344
6.281303552,0.9999960049605569,-131.36155983100335
6.283590656,0.999930960365105,-131.49523408609642
6.28587776,0.9998700984838297,-131.62797478866747
6.288164864,0.9998172303197671,-131.75990969116148
6.290451456,0.9997758514831738,-131.89116351541128
6.29273856,0.9997484597834134,-132.0219117790634
6.295025664,0.9997369755239773,-132.1523463526911
6.297312768,0.999742011116217,-132.28274637853497
6.299599872,0.9997633643506401,-132.41335701573075
6.301886976,0.9997995684187049,-132.54436226584056
6.304173568,0.9998484210151087,-132.67601516507972
6.306460672,0.9999068194978585,-132.80840099917614
6.308747776,0.9999709923296566,-132.94175506549155
6.31103488,1.0000369614990405,-133.07601452682871
6.313321984,1.0001004290881335,-133.2112244514222
6.315609088,1.0001574672723093,-133.34730000348145
6.317896192,1.000204266823635,-133.48414668810796
6.320182784,1.0002380980999723,-133.62157468175238
6.322469888,1.000256536816649,-133.7593961795886
6.324756992,1.0002585377627131,-133.89736597740892
6.327044096,1.0002439867925632,-134.03522835362133
6.3293312,1.000213682701716,-134.172779137884
6.331618304,1.0001696558492583,-134.3098048866927
6.333904896,1.0001146550854711,-134.4461155239132
6.336192,1.0000521131127067,-134.5815269149233
6.338479104,0.9999860464916969,-134.7160632253012
6.340766208,0.9999206945195307,-134.8495798042168
6.343053312,0.9998601456799231,-134.9822122409063
6.345340416,0.9998082981401583,-135.11402878265366
6.347627008,0.9997683089132633,-135.24517312056068
6.349914112,0.999743068358036,-135.3758285034686
6.352201216,0.999733863744552,-135.5062475877415
6.35448832,0.9997415116627957,-135.63665371722777
6.356775424,0.9997654317984263,-135.76727090126278
6.359062528,0.9998040752185154,-135.8983484738048
6.36134912,0.9998551274820342,-136.03012043384004
6.363636224,0.9999152379364805,-136.16264441649736
6.365923328,0.9999806081789753,-136.29610116492955
6.368210432,1.0000471500816994,-136.43051925928248
6.370497536,1.0001106012035927,-136.56590561305586
6.37278464,1.0001668429709094,-136.70213639361913
6.375071232,1.0002123809668328,-136.83911065990725
6.377358336,1.0002442736193664,-136.97669453217696
6.37964544,1.0002605712849517,-137.11456284480656
6.381932544,1.0002600996137645,-137.25255642639303
6.384219648,1.0002428815918645,-137.39046069421417
6.386506752,1.0002101072186722,-137.5279806651576
6.388793344,1.0001637165019392,-137.6649224367678
6.391080448,1.0001067648117064,-137.801150589642
6.393367552,1.0000428180715353,-137.936463511955
6.395654656,0.9999758821857863,-138.070847144691
6.39794176,0.9999102366524825,-138.20422144387666
6.400228864,0.999850156642803,-138.3367193218623
6.402515968,0.9997993429287759,-138.46838640560108
6.40480256,0.9997610925044026,-138.59939130788996
6.407089664,0.9997379089218459,-138.72999600996116
6.409376768,0.999731164699724,-138.8603616616378
6.411663872,0.9997413706322116,-138.9907176403194
6.413950976,0.9997678200931566,-139.12137087564716
6.41623808,0.9998089569506662,-139.25248954608458
6.418524672,0.999862198509396,-139.384307776621
6.420811776,0.9999239046906561,-139.51697145013304
6.42309888,0.9999904937545674,-139.65056274633278
6.425385984,1.0000575124947806,-139.7851094010692
6.427673088,1.0001207507707124,-139.92063069328105
6.429960192,1.0001762377336774,-140.05699917750866
6.432246784,1.0002204093705716,-140.1940922932252
6.434533888,1.000250350700781,-140.33173261044973
6.436820992,1.0002642974883424,-140.46971609723036
6.439108096,1.0002612714416736,-140.6077502467085
6.4413952,1.0002414236997013,-140.74561154198767
6.443682304,1.0002061132996884,-140.8830859944891
6.445968896,1.000157494476442,-141.01992707488617
6.448256,1.00009852103639,-141.15599591848033
6.450543104,1.0000331845939507,-141.2911744030763
6.452830208,0.9999654675669752,-141.42536882112688
6.455117312,0.999899802117512,-141.55860903452512
6.457404416,0.9998401433046961,-141.69093549268115
6.459691008,0.9997905468517254,-141.82245159446876
6.461978112,0.9997540266662917,-141.95331957441562
6.464265216,0.9997329372332383,-142.08379508137907
6.46655232,0.9997287003848532,-142.2140763357332
6.468839424,0.9997415805437214,-142.34439884182288
6.471126528,0.9997706305165955,-142.47504632219022
6.473413632,0.999814193636051,-142.60617957021822
6.475700224,0.9998695033943792,-142.7380909042499
6.477987328,0.9999329198104697,-142.8708155594637
6.480274432,1.0000004593932463,-143.00450810979575
6.482561536,1.0000679380608424,-143.1392002310955
6.48484864,1.0001309702652792,-143.27481048293882
6.487135744,1.000185554532573,-143.41129800552199
6.489422336,1.0002282367722457,-143.5484778331997
6.49170944,1.0002561438833986,-143.68618851874774
6.493996544,1.0002677254594945,-143.8241703335908
6.496283648,1.0002621450639475,-143.96219184045086
6.498570752,1.000239592213457,-144.10003675708828
6.500857856,1.0002018043103313,-144.23741519985455
6.503144448,1.0001508678872932,-144.37417441883693
6.505431552,1.000090090345143,-144.5101190869732
6.507718656,1.0000233583402502,-144.64508519921796
6.51000576,0.9999549957764099,-144.77911761132853
6.512292864,0.9998892063003275,-144.91213261678175
6.514579968,0.9998302418934739,-145.04427172142186
6.51686656,0.9997818803287077,-145.17558362722056
6.519153664,0.9997471202020326,-145.30631232852397
6.521440768,0.9997283343122031,-145.43665329477167
6.523727872,0.9997266321584233,-145.5668244656969
6.526014976,0.9997421215890783,-145.69710605947742
6.52830208,0.9997738705318407,-145.82773600071886
6.530588672,0.9998198827534249,-145.95890583735164
6.532875776,0.9998771496077038,-146.09084197029753
6.53516288,0.9999421744079577,-146.22363301269672
6.537449984,1.0000107657657555,-146.35742436101418
6.539737088,1.0000785326426875,-146.49219128069754
6.542024192,1.000141148954525,-146.6279303594322
6.544310784,1.0001947515481584,-146.76451915927956
6.546597888,1.0002358391930823,-146.90175389147387
6.548884992,1.000261762125576,-147.0394738239164
6.551172096,1.0002708224572727,-147.1774706227147
6.5534592,1.0002625676724193,-147.31545421515406
6.555746304,1.0002374078225633,-147.45323698611406
6.558033408,1.0001969938769364,-147.59050345192819
6.56032,1.0001438122587631,-147.72711870535474
6.562607104,1.0000812720651098,-147.86284733101672
6.564894208,1.000013369262227,-147.99767166318628
6.567181312,0.9999443450129127,-148.1314519477208
6.569468416,0.9998786009945313,-148.26426941293556
6.57175552,0.9998204239622156,-148.39618235829397
6.574042112,0.9997733671090479,-148.5272968397905
6.576329216,0.9997405979828604,-148.65784699419248
6.57861632,0.9997239657641694,-148.78802225289905
6.580903424,0.9997248767554936,-148.91810245343098
6.583190528,0.9997431156362541,-149.04829349540117
6.585477632,0.9997774503195823,-149.1788688845782
6.587764224,0.9998258294069751,-149.31004553352517
6.590051328,0.9998851708191497,-149.44201718334958
6.592338432,0.9999516886952112,-149.57485534134864
6.594625536,1.0000212011195542,-149.70873450690698
6.59691264,1.0000891529706502,-149.84356520785607
6.599199744,1.0001514249676895,-149.97936607086837
6.601486336,1.0002038196641903,-150.11600172689432
6.60377344,1.0002432118265419,-150.25331210600822
6.606060544,1.0002669638358501,-150.39105948955245
6.608347648,1.0002735463662304,-150.52903703456764
6.610634752,1.0002626620386394,-150.66694446969456
6.612921856,1.0002347819710913,-150.804607656843
6.615208448,1.0001918382967752,-150.94176875765595
6.617495552,1.0001364321063604,-151.07817963569738
6.619782656,1.0000721489303785,-151.21371057333081
6.62206976,1.0000030232595583,-151.34828732987307
6.624356864,0.999933520749808,-151.48185108554924
6.626643968,0.999867904221868,-151.61442580493176
6.628931072,0.9998105508744284,-151.7460792112035
6.631217664,0.9997650344412968,-151.87699314357624
6.633504768,0.9997341203918491,-152.0073433681234
6.635791872,0.9997200844314545,-152.1373677626967
6.638078976,0.9997235552704109,-152.26728122013483
6.64036608,0.9997444895077927,-152.39738313970514
6.642653184,0.9997815368415861,-152.5279075053636
6.644939776,0.9998322967203315,-152.65906823683642
6.64722688,0.9998935750565959,-152.79102337996056
6.649513984,0.9999615601361912,-152.92395975928915
6.651801088,1.0000318019429022,-153.05786277751736
6.654088192,1.000099940479789,-153.1927477453794
6.656375296,1.000161565757588,-153.32863845947668
6.658661888,1.000212816434433,-153.46527714035238
6.660948992,1.0002504387480338,-153.60260969463337
6.663236096,1.0002719726067022,-153.7403286689885
6.6655232,1.0002759998543063,-153.8782329344204
6.667810304,1.000262361587111,-154.0161260178264
6.670097408,1.000231824647749,-154.15362760288053
6.672384,1.000186367579003,-154.29059860974908
6.674671104,1.0001288164457525,-154.42682614500265
6.676958208,1.0000627564179059,-154.5621192026545
6.679245312,0.9999925956463939,-154.6964608437421
6.681532416,0.999922663034311,-154.82974471291246
6.68381952,0.9998573905169168,-154.96203303715905
6.686106112,0.9998008888283763,-155.09346724474057
6.688393216,0.9997568634264642,-155.2241339137693
6.69068032,0.9997281529528363,-155.35425240206777
6.692967424,0.9997164861007888,-155.48408579314204
6.695254528,0.9997226124307744,-155.6138847689909
6.697541632,0.9997463205067567,-155.7438606498594
6.699828224,0.9997859996692091,-155.87432465654132
6.702115328,0.9998391283216853,-156.00546891360636
6.704402432,0.9999023065669765,-156.13741890980685
6.706689536,0.9999716004076494,-156.27032332128223
6.70897664,1.0000426684793224,-156.40425309332028
6.711263744,1.000110789142465,-156.53920471195428
6.713550848,1.0001718119250735,-156.67509281319613
6.71583744,1.0002217919375387,-156.81176174635436
6.718124544,1.0002574799705772,-156.94908312817583
6.720411648,1.0002766412121755,-157.08678132783038
6.722698752,1.0002780880102378,-157.22462685239006
6.724985856,1.0002616252905272,-157.36238225521234
6.72727296,1.0002283378178622,-157.49974358230745
6.729559552,1.0001803666956581,-157.6365301658821
6.731846656,1.0001207362344169,-157.77251322176247
6.73413376,1.0000530545470268,-157.90756510673413
6.736420864,0.9999818590580399,-158.04159463642296
6.738707968,0.9999115505322566,-158.17458991996475
6.740995072,0.9998465527684913,-158.30659788855084
6.743281664,0.9997911815576098,-158.43773579364657
6.745568768,0.9997488721116751,-158.56818464628057
6.747855872,0.9997222464077826,-158.69804072029513
6.750142976,0.9997131345026665,-158.82768875886444
6.75243008,0.9997220929708218,-158.95729282314045
6.754717184,0.9997484789630487,-159.0871909634903
6.757003776,0.9997908298652741,-159.21754539801003
6.75929088,0.9998463044601006,-159.34861645741745
6.761577984,0.999911363272909,-159.48055516224198
6.763865088,0.9999820476498346,-159.6134848270033
6.766152192,1.0000536350968319,-159.7474159509229
6.768439296,1.0001217204734858,-159.88239181417433
6.770725888,1.0001819678477748,-160.01828862009387
6.773012992,1.0002304894873437,-160.1549711102824
6.775300096,1.000264232310825,-160.29226037515372
6.7775872,1.0002810130626774,-160.42988528258064
6.779874304,1.0002797500513883,-160.56761546262703
6.782161408,1.0002604559704338,-160.70521135007118
6.784448512,1.000224524821069,-160.84243816162612
6.786735104,1.0001740334468665,-160.9789716225186
6.789022208,1.000112283046113,-161.1147151630656
6.791309312,1.0000430196924146,-161.24948191113026
6.793596416,0.9999708949591685,-161.383201820145
6.79588352,0.9999003408265328,-161.5159027114666
6.798170624,0.9998357849483874,-161.64760084684738
6.800457216,0.9997816196492265,-161.77843708411126
6.80274432,0.9997409897606466,-161.90856396645734
6.805031424,0.9997166668071916,-162.03818071352254
6.807318528,0.9997101497815334,-162.16761720047245
6.809605632,0.9997218848986124,-162.29706399119695
6.811892736,0.9997510585314278,-162.42678652307288
6.814179328,0.999795966228607,-162.55704990830912
6.816466432,0.9998537897821085,-162.68804573905985
6.818753536,0.9999206822556176,-162.81995536716192
6.82104064,0.999992474745441,-162.95286481901869
6.823327744,1.0000646823144175,-163.0868190581737
6.825614848,1.0001326246514868,-163.22179774011994
6.82790144,1.0001920479297266,-163.35765324271333
6.830188544,1.0002390957581837,-163.49431517308116
6.832475648,1.0002707350751399,-163.6315283379131
6.834762752,1.000285029299448,-163.76912054784
6.837049856,1.0002810535362658,-163.9067140916505
6.83933696,1.0002589890760514,-164.04414448585226
6.841623552,1.0002202281695796,-164.18110931554864
6.843910656,1.0001672506246297,-164.31741406664707
6.84619776,1.0001034319205644,-164.4528881938421
6.848484864,1.0000327870386263,-164.5873360965766
6.850771968,0.9999597475231955,-164.72075100248748
6.853059072,0.9998890261411038,-164.85310331374552
6.855345664,0.9998251640712613,-164.98446264725186
6.857632768,0.9997721779664286,-165.1149587632895
6.859919872,0.9997333806845645,-165.2447967344735
6.862206976,0.9997113911310143,-165.37416379958776
6.86449408,0.9997075581052439,-165.50334305632964
6.866781184,0.999722072642965,-165.632610723501
6.869068288,0.9997541324812256,-165.7621855217438
6.87135488,0.9998017335203537,-165.89233035436757
6.873641984,0.9998617709386844,-166.02324701678532
6.875929088,0.9999304892852168,-166.1551265470679
6.878216192,1.0000033863025457,-166.28799896036634
6.880503296,1.0000760821162638,-166.42192724469732
6.8827904,1.0001436929993497,-166.5568652374896
6.885076992,1.000202077667622,-166.69269191355576
6.887364096,1.0002475231130594,-166.82931388960822
6.8896512,1.000277078349977,-166.96646273515591
6.891938304,1.0002887334232844,-167.10390044589604
6.894225408,1.0002819232432796,-167.24137007292123
6.896512512,1.0002570026855389,-167.37860286526075
6.898799104,1.0002155516658233,-167.51534857736428
6.901086208,1.0001600817872944,-167.65137259552955
6.903373312,1.000094213115023,-167.78650632914847
6.905660416,1.0000221273810155,-167.92063347902592
