freq,mag,phase
6.0,1.0000982618752154,16.503443916117497
6.005891072,1.0001413742417706,16.336473501047028
6.011782144,1.00017622236982,16.16895466950856
6.017673216,1.000201075994401,16.00100231644492
6.023564288,1.0002143929181784,15.832760380724308
6.029454848,1.0002154565281054,15.664420022034179
6.03534592,1.0002040261524545,15.496112318620709
6.041236992,1.000180856561757,15.328014078464701
6.047128064,1.000147224189108,15.160329349202065
6.053019136,1.0001050058388108,14.993136573251693
6.058910208,1.0000568694277037,14.82659687174596
6.06480128,1.0000053898334922,14.660671146343287
6.070692352,0.9999535962434876,14.495516506163156
6.076583424,0.9999046073039102,14.330988079593594
6.082473984,0.999861212751184,14.16711292254963
6.088365056,0.9998259672583336,14.003796494356473
6.094256128,0.999800929808655,13.840854688274334
6.1001472,0.9997876624513141,13.678195668346241
6.106038272,0.9997868226022844,13.51562539537359
6.111929344,0.9997986657520846,13.352932563047844
6.117820416,0.9998223797122668,13.189963938376506
6.123711488,0.9998566356834258,13.026642286400106
6.12960256,0.9998994688579486,12.86277193465275
6.13549312,0.9999484652630504,12.698202541461875
6.141384192,1.000000673136734,12.532934637238098
6.147275264,1.0000531198026903,12.366945204506896
6.153166336,1.000102615861512,12.200198876347574
6.159057408,1.0001464883601778,12.03277846890349
6.16494848,1.0001820872176936,11.864825516993088
6.170839552,1.000207212202188,11.696376384460763
6.176730624,1.0002204433777928,11.527670119092253
6.182621696,1.0002210612891729,11.358881263158283
6.188512768,1.0002089209484901,11.190096868880488
6.194403328,1.0001847451220496,11.02159314853235
6.2002944,1.0001498665126942,10.85342916207125
6.206185472,1.0001063184993642,10.685863090087365
6.212076544,1.0000566553719679,10.51888275014084
6.217967616,1.0000037609163948,10.352618365239701
6.223858688,0.9999506410134804,10.187075700644428
6.22974976,0.9999004481501126,10.022251522744012
6.235640832,0.9998561011588788,9.85804737143584
6.241531904,0.9998202743111763,9.694399617236511
6.247422464,0.9997949775437512,9.53118016150201
6.253313536,0.9997817920645249,9.368230155436654
6.259204608,0.9997813207284453,9.205312052987919
6.26509568,0.9997938920938517,9.042311838664906
6.270986752,0.9998186437835548,8.879068686307155
6.276877824,0.9998541480395455,8.715400572030566
6.282768896,0.9998984060547244,8.55109959610674
6.288659968,0.999948823226677,8.386176884927808
6.29455104,1.0000024476862328,8.220500731055454
6.3004416,1.0000563453031346,8.054079833621389
6.306332672,1.0001071223373788,7.886880589750074
6.312223744,1.0001517437353868,7.718990131406013
6.318114816,1.0001880265517307,7.550557479134119
6.324005888,1.0002134289074955,7.381691218192407
6.32989696,1.000226616900918,7.212484065021641
6.335788032,1.000226812578387,7.0431832476618625
6.341679104,1.0002138789193034,6.873993678536836
6.347570176,1.00018871027888,6.705029576543145
6.353460736,1.0001525925755996,6.536493713273211
6.359351808,1.0001075765302616,6.3683883508834835
6.36524288,1.000056516077476,6.201077999340084
6.371133952,1.0000020829605905,6.034416018923427
6.377025024,0.9999475339529346,5.868533693204323
6.382916096,0.9998962185807576,5.703357903415026
6.388807168,0.9998509481113749,5.5388092541211265
6.39469824,0.9998144119375735,5.374835393238658
6.400589312,0.9997887629616891,5.211304985361735
6.406479872,0.9997755671206423,5.0480393321034365
6.412370944,0.9997757167054411,4.884826086694389
6.418262016,0.999788892666329,4.721496273292526
6.424153088,0.9998147162073717,4.557899145352267
6.43004416,0.9998514483493625,4.393871876809907
6.435935232,0.9998971929565393,4.2292419283530265
6.441826304,0.9999491960947587,4.063886270699621
6.447717376,1.00000428119127,3.8978054855746453
6.453608448,1.0000594259140039,3.7309230206333397
6.459499008,1.0001114355977527,3.563316421746551
6.46539008,1.0001571728783165,3.3949581621683262
6.471281152,1.0001940108499312,3.226027880712587
6.477172224,1.0002197071968864,3.0566432857408206
6.483063296,1.0002329435172508,2.886980996886852
6.488954368,1.0002326892775972,2.71717670037822
6.49484544,1.0002190906333086,2.5475346603168063
6.500736512,1.0001927790313216,2.378046747050193
6.506627584,1.000155337748888,2.2090544987088405
6.512518656,1.0001089738942066,2.0405792781307297
6.518409216,1.0000562346784156,1.8728304141217345
6.524300288,1.0000003993701871,1.705789231762481
6.53019136,0.9999444751208921,1.539486594346091
6.536082432,0.9998918847665966,1.3739658302500533
6.541973504,0.9998456865849246,1.209114673090686
6.547864576,0.9998083597654913,1.044803964021522
6.553755648,0.9997824711200213,0.8809121938684674
6.55964672,0.9997694204293187,0.7173211799841666
6.565537792,0.9997698392858524,0.553810324221977
6.571428352,0.9997838632673831,0.3901250733088109
6.577319424,0.9998106198245877,0.22620553062528273
6.583210496,0.9998487087505902,0.061787780637234765
6.589101568,0.9998958844803076,-0.10323706085772899
6.59499264,0.9999493830506189,-0.26892213517549896
6.600883712,1.0000061713939075,-0.43545338507411624
6.606774784,1.00006273481737,-0.6027825355025644
6.612665856,1.0001159178776173,-0.7709090054425967
6.618556928,1.0001627657334429,-0.9397005881375009
6.624447488,1.0002002716617753,-1.1091296415384027
6.63033856,1.000226307160033,-1.2789909526654137
6.636229632,1.000239513454136,-1.4491654787576982
6.642120704,1.0002388114969716,-1.6194281399943846
6.648011776,1.0002244500087005,-1.789670548781938
6.653902848,1.0001971320747713,-1.9595853817598001
6.65979392,1.0001583379204884,-2.1290586173080164
6.665684992,1.0001105315740526,-2.2979664437297598
6.671576064,1.0000562451331065,-2.466149644408336
6.677466624,0.9999988252354761,-2.6336107832864384
6.683357696,0.9999414350338752,-2.800274347840864
6.689248768,0.9998874966230947,-2.9661676534280974
6.69513984,0.9998402405039901,-3.1313588844683053
6.701030912,0.9998024087035482,-3.296007911057302
6.706921984,0.9997760620662816,-3.4602188219799968
6.712813056,0.9997629147150715,-3.624139554686184
6.718704128,0.9997637506160475,-3.7880164296189474
6.7245952,0.9997784508638768,-3.9519988639226384
6.73048576,0.9998063993717827,-4.116292019908982
6.736376832,0.9998458218402982,-4.281052197033058
6.742267904,0.9998944044022087,-4.4464560707335385
6.748158976,0.9999494917196705,-4.612625726348647
6.754050048,1.0000077270846877,-4.779555673124388
6.75994112,1.0000658676487624,-4.947357799185835
6.765832192,1.0001204008320062,-5.115920124480617
6.771723264,1.0001681961583804,-5.285198272131193
6.777614336,1.0002065232753734,-5.455143962452493
6.783505408,1.0002329400105012,-5.625535913772767
6.789395968,1.000246084211549,-5.796215405846975
6.79528704,1.0002451552845362,-5.967022433343263
6.801178112,1.000229900698738,-6.1377244463319816
6.807069184,1.000201596121163,-6.308160659218736
6.812960256,1.0001614619121244,-6.4780982093082216
6.818851328,1.0001121877524641,-6.647489146373509
6.8247424,1.0000563368543978,-6.81611289548784
6.830633472,0.9999972101658754,-6.983972933975905
6.836524544,0.9999383179516855,-7.1510285197485794
6.842415104,0.9998831416950302,-7.317307687928135
6.848306176,0.9998347932820668,-7.482882024632651
6.854197248,0.9997961716662999,-7.647852101559707
6.86008832,0.9997694300504764,-7.812398469344634
6.865979392,0.9997562407240898,-7.976685465347576
6.871870464,0.9997575656177592,-8.14089192406235
6.877761536,0.9997730443630984,-8.305206546193537
6.883652608,0.9998020367190846,-8.46985808740238
6.88954368,0.9998427108186166,-8.635040678273382
6.89543424,0.999892885219247,-8.80082777769989
6.901325312,0.9999495449734486,-8.967402213106281
6.907216384,1.0000094305171163,-9.13476200279958
6.913107456,1.0000690655466185,-9.303042630472655
6.918998528,1.000125045568919,-9.472064747886114
6.9248896,1.000173748262181,-9.641916397332281
6.930780672,1.0002129085185005,-9.812330096058874
6.936671744,1.0002397232408955,-9.983257233210981
6.942562816,1.0002528553375758,-10.154484289275139
6.948453376,1.00025148761493,-10.325785894459223
6.954344448,1.0002356408746647,-10.497042458228309
6.96023552,1.0002062123810116,-10.6679292003745
6.966126592,1.0001647491756747,-10.838390049043934
6.972017664,1.0001138974466843,-11.008230198503258
6.977908736,1.0000564612035927,-11.177328155268443
6.983799808,0.9999955587520405,-11.345605301055738
6.98969088,0.999935173053688,-11.513091681489925
6.995581952,0.9998787432668753,-11.679729598523911
7.001472512,0.9998291479113239,-11.845691604401996
7.007363584,0.9997898021449312,-12.011004298253942
7.013254656,0.9997626627737708,-12.175902330885624
7.019145728,0.999749494163014,-12.34052418771541
7.0250368,0.999751112498865,-12.50505460392932
7.030927872,0.9997673504542185,-12.669760076066744
7.036818944,0.9997973857337775,-12.834790316260287
7.042710016,0.9998394798050748,-13.000318591168854
7.048601088,0.9998911652404755,-13.166526889253872
7.054491648,0.999949495191364,-13.333532979707664
7.06038272,1.000011086272853,-13.501361068662266
7.066273792,1.0000721966682704,-13.670096318166966
7.072164864,1.0001295530085808,-13.839674135477196
7.078055936,1.0001796493144517,-14.009967624700087
7.083947008,1.0002194129704196,-14.180942573894246
7.08983808,1.0002467988662471,-14.352426680470534
7.095729152,1.0002598919769286,-14.524177016762117
7.101620224,1.0002581492215397,-14.696020666575016
7.107511296,1.00024155867959,-14.867787956937994
7.113401856,1.0002109376065866,-15.039243747957638
7.119292928,1.0001681846679074,-15.210182438949763
7.125184,1.0001156666740674,-15.380516481405998
7.131075072,1.000056480796304,-15.550056076585694
7.136966144,0.9999940476736887,-15.718809139845261
7.142857216,0.9999321270468802,-15.886686940830963
7.148748288,0.999874048357121,-16.053750680534034
7.15463936,0.9998234495905898,-16.22006861836767
7.160530432,0.9997831287712005,-16.385745913470924
7.166420992,0.9997556238291513,-16.550999377211916
7.172312064,0.9997424119331333,-16.71597580124244
7.178203136,0.999744314399027,-16.88085614689393
7.184094208,0.9997613547846566,-17.045944469333485
7.18998528,0.9997924985602109,-17.211337577406223
7.195876352,0.999835973451054,-17.37729148107343
7.201767424,0.9998893140093491,-17.543894121549545
7.207658496,0.9999492892217599,-17.711330071865977
7.213549568,1.0000126481849738,-17.879631009320015
7.219440128,1.0000753264131617,-18.048840753111243
7.2253312,1.0001341049841517,-18.218911060126317
7.231222272,1.000185407492825,-18.38975760465184
7.237113344,1.0002260260125346,-18.56127857585168
7.243004416,1.0002539118823945,-18.73329745381864
7.248895488,1.000267087259192,-18.9056046260837
7.25478656,1.0002649798692569,-19.078033631792774
7.260677632,1.0002476157777316,-19.250315341152472
7.266568704,1.00021591842826,-19.42231517598835
7.272459264,1.0001717686255203,-19.593781718369684
7.278350336,1.0001177024396777,-19.764605423640244
7.284241408,1.0000568037776116,-19.934624916822166
7.29013248,0.9999926263997402,-20.103795165391784
7.296023552,0.9999290574608743,-20.272141506171938
7.301914624,0.9998694835043234,-20.43959900954991
7.307805696,0.9998176477772921,-20.60630230511035
7.313696768,0.9997764702257722,-20.77238012203653
7.31958784,0.9997484178249576,-20.937973444807785
7.3254784,0.9997350940174584,-21.10330729632135
7.331369472,0.9997373426615722,-21.26859063079362
7.337260544,0.9997551599868426,-21.43397663940122
7.343151616,0.9997874563791723,-21.599790800477194
7.349042688,0.9998323811466828,-21.766129925727064
7.35493376,0.9998872884961699,-21.93317711752823
7.360824832,0.9999490024189478,-22.101073280897847
7.366715904,1.0000140075535875,-22.26985568065037
7.372606976,1.0000785104416938,-22.4395689043882
7.378497536,1.0001387832320316,-22.610125661787954
7.384388608,1.0001913108727265,-22.78150796848773
7.39027968,1.000232880416806,-22.9535928084514
7.396170752,1.000261245318824,-23.12616653570212
7.402061824,1.0002745103689925,-23.299061280295422
7.407952896,1.0002720259198168,-23.47203959509627
7.413843968,1.000253893585174,-23.644892851961256
7.41973504,1.0002210955917075,-23.8174225286002
7.425626112,1.0001754550885684,-23.98942553557765
7.431517184,1.0001198269025025,-24.160759636628367
7.437407744,1.0000572652271316,-24.331276469039864
7.443298816,0.9999911600152062,-24.500920991046776
7.449189888,0.9999258590129425,-24.669666653100077
7.45508096,0.9998648529115628,-24.837557322776135
7.460972032,0.9998118273344284,-25.004665353863533
7.466863104,0.9997696833132135,-25.171123701697493
7.472754176,0.9997410490166478,-25.337082905183486
7.478645248,0.9997277190358219,-25.50281004215332
7.48453632,0.999730312020876,-25.668440039490303
7.49042688,0.9997488425427319,-25.834252089271075
7.496317952,0.999782197299774,-26.00044064319086
7.502209024,0.9998286151645545,-26.167159326490005
7.508100096,0.9998851199300699,-26.334672577920575
7.513991168,0.9999486486636254,-26.502993197435735
7.51988224,1.000015413373984,-26.67226594071357
7.525773312,1.0000817236092305,-26.842479261103744
7.531664384,1.0001435491336466,-27.01358614745347
7.537555456,1.0001972791705345,-27.185552849661534
7.543446016,1.0002398380738518,-27.35816298919788
7.549337088,1.0002686461785555,-27.53132103037961
7.55522816,1.0002820965905677,-27.70479932263212
7.561119232,1.0002793348277947,-27.878341341831778
7.567010304,1.000260467643989,-28.051756885027487
7.572901376,1.0002264240686694,-28.22487561483088
7.578792448,1.0001795005427874,-28.397438372044427
7.58468352,1.000122194001708,-28.569275483526955
7.590574592,1.0000576212717305,-28.740319474199975
7.596465152,0.9999899012440833,-28.910429472098578
7.602356224,0.9999227254359587,-29.079603358887773
7.608247296,0.9998601349065908,-29.247921158730286
7.614138368,0.9998056193937901,-29.41545107602776
7.62002944,0.9997626076807241,-29.582292861482532
7.625920512,0.9997334629639992,-29.748662213191405
7.631811584,0.9997199177364476,-29.91472657902225
7.637702656,0.9997228408597705,-30.080761042619393
7.643593728,0.9997422161370642,-30.24692722731391
7.649484288,0.9997766445434896,-30.41351162592551
7.65537536,0.9998244081815608,-30.58071123840672
7.661266432,0.9998827332238913,-30.74861847639221
7.667157504,0.9999480976895659,-30.917433555308403
7.673048576,1.0000169124142935,-31.087163407046468
7.678939648,1.0000848027449065,-31.257920724885047
7.68483072,1.0001482492986697,-31.429552018009446
7.690721792,1.0002034472682555,-31.602071627224927
7.696612864,1.0002469515009644,-31.7752831527401
7.702503936,1.0002763555009577,-31.949014489510308
7.708394496,1.000290017780052,-32.1230785701321
7.714285568,1.0002868449134144,-32.29722785341203
7.72017664,1.0002671940534429,-32.47126194449973
7.726067712,1.0002321136285468,-32.64495727815726
7.731958784,1.000183620145247,-32.81806008118853
7.737849856,1.0001244916407745,-32.99044351210121
7.743740928,1.000058338670662,-33.161979161147684
7.749632,0.9999885573307864,-33.332588060406486
7.755523072,0.9999195670754201,-33.502223128863236
7.761413632,0.9998553474062846,-33.67099430857925
7.767304704,0.9997994842591226,-33.83893027772722
7.773195776,0.9997553832565771,-34.00617578871902
7.779086848,0.9997257071542826,-34.17289929622142
7.78497792,0.99971203393267,-34.33937340733066
7.790868992,0.9997152179503952,-34.50579263031717
7.796760064,0.9997351847715498,-34.67237269620492
7.802651136,0.999770892066348,-34.8393655774441
7.808542208,0.9998201335168615,-35.00696009716711
7.814432768,0.9998800236582752,-35.1753295560969
7.82032384,0.9999474316914058,-35.34461454032543
7.826214912,1.0000181214874784,-35.514848910888574
7.832105984,1.0000879844621275,-35.686102355183046
7.837997056,1.0001530879250247,-35.8583143746787
7.843888128,1.000209610048038,-36.031413715033786
7.8497792,1.0002542067700917,-36.20519699149517
7.855670272,1.0002842409758963,-36.37955036982401
7.861561344,1.0002979474797995,-36.55421338468704
7.867451904,1.0002946592006714,-36.72897553456879
7.873342976,1.000274271192749,-36.90362201945946
7.879234048,1.0002379992016575,-37.07788318709445
7.88512512,1.0001879996012442,-37.25156935374572
7.891016192,1.0001272234420109,-37.42449560439882
7.896907264,1.0000590518175598,-37.59654897053095
7.902798336,0.9999873637596661,-37.76764704803962
7.908689408,0.9999164045069846,-37.937782839984315
7.91458048,0.9998504680385943,-38.106983238360804
7.92047104,0.9997931673520783,-38.27533808990017
7.926362112,0.9997479807218765,-38.443011604577954
7.932253184,0.9997176112463358,-38.61014590947216
7.938144256,0.9997037436669849,-38.77698657561436
7.944035328,0.9997073698126182,-38.94379054829403
7.9499264,0.999728051166987,-39.11079076103887
7.955817472,0.9997647559551183,-39.27817545185356
7.961708544,0.9998156358065108,-39.44621366155738
7.967599616,0.9998773956691136,-39.61503404574003
7.973490176,0.9999466840803081,-39.78479366754285
7.979381248,1.0000192634872032,-39.95556231672906
7.98527232,1.000091113351529,-40.127362769798054
7.991163392,1.000157982622499,-40.30012016905124
7.997054464,1.000215933629288,-40.473800508365144
8.002945536,1.0002616145620284,-40.648212983368616
8.008836608,1.000292408209178,-40.82315798827636
8.01472768,1.0003063427191177,-40.998462405211356
8.020618752,1.0003027265137667,-41.17387494795114
8.026509824,1.0002816240991879,-41.34909943863008
8.032400384,1.0002442490116936,-41.523969625838276
8.038291456,1.0001927614913864,-41.69822244287919
8.044182528,1.0001301019836495,-41.87173365543052
8.0500736,1.0000598394784723,-42.044352216034646
8.055964672,0.9999862884365132,-42.21595324925603
8.061855744,0.9999134615092589,-42.38654346889165
8.067746816,0.9998455541614121,-42.5562239315914
8.073637888,0.9997868370278385,-42.72501560638359
8.07952896,0.9997405195870144,-42.89308660471683
8.08541952,0.9997093590717401,-43.06064305477468
8.091310592,0.9996953461113126,-43.22790475146855
8.097201664,0.999699113643053,-43.39511450332481
8.103092736,0.9997205885919195,-43.5625087658112
8.108983808,0.9997586158082962,-43.730305656007864
8.11487488,0.9998108498898753,-43.89876371183404
8.120765952,0.9998745213620965,-44.06804589892902
8.126657024,0.9999457572179136,-44.23831853980534
8.132548096,1.0000204562077375,-44.40957892405078
8.138438656,1.0000942539081483,-44.581913993377704
8.144329728,1.0001629012029682,-44.7552592183694
8.1502208,1.0002224742210744,-44.92951933925479
8.156111872,1.0002693231564381,-45.10456088274666
8.162002944,1.0003007324374902,-45.28017312917119
8.167894016,1.0003149053670521,-45.456110743617096
8.173785088,1.0003110885726842,-45.63213388184216
8.17967616,1.0002892763320825,-45.80800020619985
8.185567232,1.000250642817509,-45.98350236985354
8.191457792,1.0001977256544121,-46.158362887029845
8.197348864,1.0001331456231757,-46.33244709375301
8.203239936,1.0000609503191278,-46.50557512223991
8.209131008,0.9999851849635142,-46.67771630495467
8.21502208,0.9999103180910901,-46.84885080221913
8.220913152,0.9998407423400809,-47.018975132068945
8.226804224,0.9997803786148862,-47.1881974289692
8.232695296,0.999732852748075,-47.35670855119534
8.238586368,0.9997009662813022,-47.52467012033798
8.244476928,0.9996866155842491,-47.69233149685366
8.250368,0.999690490182852,-47.85994922948859
8.256259072,0.9997128320158756,-48.02773979092925
8.262150144,0.9997518104081097,-48.19599880750263
8.268041216,0.9998058296333552,-48.36490391952703
8.273932288,0.9998713145733485,-48.53468204924951
8.27982336,0.9999445193258286,-48.70540596895967
8.285714432,1.0000213510305773,-48.87720080130908
8.291605504,1.00009726188255,-49.050111695945844
8.297496064,1.0001678976651394,-49.22403369087677
8.303387136,1.0002290251569272,-49.398907927802966
8.309278208,1.0002770965907053,-49.57454222777572
8.31516928,1.0003092789887098,-49.7508015957631
8.321060352,1.0003238220653268,-49.92739259240004
8.326951424,1.0003197115143718,-50.104074768460904
8.332842496,1.0002972076753027,-50.28059170452207
8.338733568,1.0002573739910272,-50.45674512870352
8.34462464,1.0002028524110498,-50.632195780282366
8.350515712,1.0001364375700739,-50.80687290544212
8.356406272,1.000062189288468,-50.98056974562041
8.362297344,0.9999841781240588,-51.15326325737308
