freq,mag,phase
6.0,0.9999823527501938,-23.585128205616474
6.01415936,1.000270533714469,-24.086110951382867
6.02831872,1.0005475969654285,-24.5906747752291
6.04247808,1.0008008295997752,-25.09857843732411
6.056636928,1.0010187395304269,-25.60944845190074
6.070796288,1.0011916166048078,-26.122886405029174
6.084955648,1.0013119865923084,-26.63820798994527
6.099115008,1.0013742570799038,-27.154752893181477
6.113274368,1.0013755337995522,-27.67186447974978
6.127433728,1.0013158733253074,-28.188728916728465
6.141593088,1.0011978416516722,-28.704703046587344
6.155752448,1.0010263934725423,-29.21905706439152
6.169911296,1.000808948220717,-29.731235994053346
6.184070656,1.0005555783226392,-30.24065371410663
6.198230016,1.0002769849633126,-30.747026325777668
6.212389376,0.9999855602015502,-31.25011852628594
6.226548736,0.9996940937658038,-31.749771031783673
6.240708096,0.9994157646330792,-32.24607850450716
6.254867456,0.9991630576768987,-32.73931878634042
6.269026304,0.9989467130649462,-33.22988170908563
6.283185664,0.9987767411743451,-33.71815631714395
6.297345024,0.9986606769192734,-34.20486592772902
6.311504384,0.9986039301196213,-34.6906380134935
6.325663744,0.9986089617779059,-35.17620333986747
6.339823104,0.9986756939799408,-35.662347502362145
6.353982464,0.9988010499957078,-36.1498196784822
6.368141824,0.9989799493515233,-36.63925830550132
6.382300672,0.9992039818139697,-37.13127187058255
6.396460032,0.9994636784037534,-37.62635485572135
6.410619392,0.9997475447477202,-38.12486549284737
6.424778752,1.0000427378567596,-38.627022074850416
6.438938112,1.0003364204306269,-39.13294015966027
6.453097472,1.000615334256466,-39.642401303958316
6.467256832,1.000867346588992,-40.15528539567793
6.48141568,1.0010812521157286,-40.67112648526446
6.49557504,1.0012473511807654,-41.1893850513162
6.5097344,1.0013584427865783,-41.70951744147292
6.52389376,1.0014095302603996,-42.230748388737155
6.53805312,1.001398281416175,-42.75240155999916
6.55221248,1.0013249538706606,-43.27368860747865
6.56637184,1.0011926623901537,-43.793870679166446
6.5805312,1.001007493680866,-44.312298192935444
6.594690048,1.0007770228383455,-44.828404391320696
6.608849408,1.0005119433963803,-45.34166412924437
6.623008768,1.0002236022348212,-45.851664864872426
6.637168128,0.9999247336456589,-46.35830937621075
6.651327488,0.9996285937893628,-46.861471549822625
6.665486848,0.9993482760502211,-47.36128963289899
6.679646208,0.9990963758550853,-47.85802368634133
6.693805056,0.9988840218919374,-48.35204408632672
6.707964416,0.9987208265872075,-48.843933175103146
6.722123776,0.9986140057696858,-49.334307270310575
6.736283136,0.9985683704520225,-49.82388370595336
6.750442496,0.9985861055852723,-50.31343262259635
6.764601856,0.9986664378556205,-50.8037394913616
6.778761216,0.9988061449291249,-51.29551689827005
6.792920576,0.9989986427996732,-51.78944589204658
6.807079424,0.9992361990624078,-52.28611947410146
6.821238784,0.9995075551366688,-52.78603970999619
6.835398144,0.9998012491801249,-53.289503727818335
6.849557504,1.0001038873297141,-53.79675110199307
6.863716864,1.000402422655567,-54.307813143654315
6.877876224,1.0006833882743422,-54.82251410042046
6.892035584,1.0009344284806376,-55.34057792760026
6.906194944,1.0011444836229084,-55.861644896936696
6.920353792,1.0013041509888592,-56.385076328743146
6.934513152,1.0014062286027705,-56.910244008688814
6.948672512,1.0014462565739852,-57.436430388144075
6.962831872,1.0014221750954615,-57.962895740432906
6.976991232,1.001335088672224,-58.48886244965955
6.991150592,1.0011888343264557,-59.013543576096076
7.005309952,1.0009895296235518,-59.536353028062024
7.0194688,1.0007461385792291,-60.05665397994101
7.03362816,1.0004690845918123,-60.57394406959013
7.04778752,1.0001707342159831,-61.08791938692664
7.06194688,0.9998641516067593,-61.59837527071918
7.07610624,0.9995630822909171,-62.10530401382409
7.0902656,0.9992805200470363,-62.60888474465315
7.10442496,0.9990293803357787,-63.1093516435515
7.11858432,0.9988206779663876,-63.60712654890597
7.132743168,0.9986639132396311,-64.10287459411745
7.146902528,0.9985659672054553,-64.59717033124785
7.161061888,0.9985312821848726,-65.09083155971071
7.175221248,0.9985617390906616,-65.5846169285256
7.189380608,0.9986557937073063,-66.07928818462655
7.203539968,0.9988097156886735,-66.5756102755842
7.217699328,0.9990165030159122,-67.07427665911258
7.231858176,0.9992670795508434,-67.57586976364428
7.246017536,0.999550433481245,-68.08084431833012
7.260176896,0.9998539753498034,-68.58955982720408
7.274336256,1.0001646517202145,-69.10210681740631
7.288495616,1.0004681603607999,-69.61858304796047
7.302654976,1.0007516180210028,-70.13876438249716
7.316814336,1.0010021385390302,-70.66232132507966
7.330973696,1.0012086992820965,-71.18885952275893
7.345132544,1.001362052257741,-71.71766850840254
7.359291904,1.0014552657536162,-72.2481758671583
7.373451264,1.0014843767582866,-72.77963051558456
7.387610624,1.001447850743666,-73.31116754567768
7.401769984,1.0013473336072896,-73.84207390700531
7.415929344,1.0011866241566316,-74.37158324623284
7.430088704,1.000973273283635,-74.89903223749883
7.444247552,1.0007164406950952,-75.42375836890268
7.458406912,1.0004273250458,-75.9453930819491
7.472566272,1.000118656238619,-76.46355442043213
7.486725632,0.9998040797908465,-76.97813283124503
7.500884992,0.9994975719369606,-77.4891205965337
7.515044352,0.9992124638935743,-77.99666928886015
7.529203712,0.9989617420966748,-78.50109664278035
7.543363072,0.9987563434255914,-79.00289371401671
7.55752192,0.9986056291289354,-79.50270201578289
7.57168128,0.9985163059745972,-80.00119551939571
7.58584064,0.9984926990307684,-80.49914885347472
7.6,0.9985356088923779,-80.99733962076078
7.61415936,0.9986434772104851,-81.4966441736384
7.62831872,0.9988115307612057,-81.99776148376445
7.64247808,0.9990325134153616,-82.50139537783514
7.656636928,0.9992966581687346,-83.00810849416428
7.670796288,0.9995923062876556,-83.51841663116933
7.684955648,0.9999065032739692,-84.03254568515342
7.699115008,1.000225252980975,-84.55072020426769
7.713274368,1.0005345652423105,-85.07282302129435
7.727433728,1.000820806638707,-85.59872582084098
7.741593088,1.0010711609811276,-86.12803154651198
7.755752448,1.0012744698888247,-86.6602503548437
7.769911296,1.0014219761758796,-87.19479498729206
7.784070656,1.0015067469107037,-87.73089423380704
7.798230016,1.00152515545027,-88.26785815784456
7.812389376,1.0014761562949985,-88.80475743922828
7.826548736,1.0013618221193685,-89.3408933758685
7.840708096,1.0011870673377166,-89.87545277268707
7.854867456,1.0009594745163104,-90.40777797476464
7.869026304,1.0006889312183251,-90.93728460072458
7.883185664,1.0003872482691525,-91.46350903813102
7.897345024,1.000067935181187,-91.98613991954012
7.911504384,0.9997447148724758,-92.50507819262224
7.925663744,0.9994321304863704,-93.02031467180944
7.939823104,0.9991439171508152,-93.53205869889393
7.953982464,0.9988930751112122,-94.04070158086805
7.968141824,0.9986904881096752,-94.54675027835185
7.982300672,0.9985454840406119,-95.05086339146214
7.996460032,0.9984645510040635,-95.55373340603866
8.010619392,0.998451452353626,-96.05620494393544
8.024778752,0.9985067261801405,-96.55906200850009
8.038938112,0.9986283730902861,-97.06315210038794
8.053097472,0.9988108682031736,-97.56928115634975
8.067256832,0.9990462957218351,-98.07806007595075
8.08141568,0.9993242994846465,-98.59017805188562
8.09557504,0.9996327186981623,-99.10598828931938
8.1097344,0.9999577985770782,-99.62579736265063
8.12389376,1.0002854366394607,-100.1497399313522
8.13805312,1.0006010252171045,-100.6777218995474
8.15221248,1.0008906009953058,-101.20958330201292
8.16637184,1.0011414675403842,-101.74488516719076
8.1805312,1.0013423242229906,-102.2831011287954
8.194690048,1.001484249946223,-102.82357601023321
8.208849408,1.0015610292080837,-103.36556810739235
8.223008768,1.001568928225759,-103.90826583756255
8.237168128,1.0015075746173145,-104.45081258016792
8.251327488,1.0013795104707501,-104.99244719231704
8.265486848,1.001190359539578,-105.53234738034881
8.279646208,1.0009480703363254,-106.06984850573396
8.293805056,1.0006635221758833,-106.60433499521427
8.307964416,1.0003488357614547,-107.13541808256001
8.322123776,1.0000180038963518,-107.66274000131907
8.336283136,0.9996855506110346,-108.18628640206167
8.350442496,0.9993662910558467,-108.7060297482874
8.364601856,0.9990742731086953,-109.22222182565723
8.378761216,0.9988225468721277,-109.73530254936284
8.392920576,0.9986222930741525,-110.24580290688408
8.407079424,0.9984824541751869,-110.75436001132407
8.421238784,0.9984094404931132,-111.26181796459701
8.435398144,0.9984066099166112,-111.76898866625383
8.449557504,0.9984743948799218,-112.27668951169873
8.463716864,0.9986096331700396,-112.78578206875346
8.477876224,0.9988066674499325,-113.29708063553312
8.492035584,0.9990569114546088,-113.81124763310456
8.506194944,0.9993493600610468,-114.32888120564994
8.520353792,0.9996711189300654,-114.85038255370263
8.534513152,1.000008035149945,-115.37606529920808
8.548672512,1.0003453301969165,-115.90601675205504
8.562831872,1.0006679803303358,-116.44012845102284
8.576991232,1.0009618083330634,-116.97818743141666
8.59115008,1.001213826775901,-117.51970944348379
8.605309952,1.0014127563341642,-118.06417017368494
8.6194688,1.0015498872245392,-118.61083983499111
8.633628672,1.001618931233954,-119.15896188719299
8.64778752,1.0016166511380555,-119.70768834539285
8.661947392,1.0015431601714917,-120.25617576446994
8.67610624,1.0014014064909262,-120.803538608738
8.690265088,1.0011973996059944,-121.34905467768385
8.70442496,1.0009402196249058,-121.8919754690167
8.718583808,1.000640851783535,-122.43172467071882
8.73274368,1.0003124578894749,-122.96789638575567
8.746902528,0.99996952544383,-123.50020548240819
8.7610624,0.9996269126245222,-124.0285339610676
8.775221248,0.9992999689969383,-124.55300640911265
8.789380096,0.9990032353672045,-125.07386646273817
8.803539968,0.9987496778223323,-125.59157436504756
8.817698816,0.9985508154491552,-126.10667430678853
8.831858688,0.9984154927105456,-126.61995644430912
8.846017536,0.998349978517201,-127.13213377204646
8.860177408,0.9983571639173291,-127.64412393976264
8.874336256,0.9984370468122362,-128.15684332576024
8.888495104,0.9985861944292058,-128.67109919764502
8.902654976,0.9987981913780793,-129.18770641225822
8.916813824,0.999063728427241,-129.7073938339747
8.930973696,0.9993711919634972,-130.23074042360096
8.945132544,0.9997072084901961,-130.75812690555222
8.959292416,1.0000567953575719,-131.28987587791013
8.973451264,1.0004046914606262,-131.82604875494886
8.987610112,1.0007355563046658,-132.3664998495529
9.001769984,1.0010347246329432,-132.91092557165578
9.015928832,1.0012889118776716,-133.4589298022744
9.030088704,1.00148688586171,-134.00984994818455
9.044247552,1.0016197812753995,-134.56299275588933
9.058407424,1.0016817256709203,-135.1175064315357
9.072566272,1.0016697271971566,-135.67254978568255
9.086726144,1.0015841414231985,-136.22718100230395
9.100884992,1.0014284758027385,-136.7806172697363
9.11504384,1.0012095526292015,-137.331966279688
9.129203712,1.0009367046088733,-137.88059709273432
9.14336256,1.0006218677012364,-138.42587905655557
9.157522432,1.0002787484224103,-138.96738077762953
9.17168128,0.9999223857123276,-139.50487537560085
9.185841152,0.9995686368466986,-140.03826809734824
9.2,0.9992328428612159,-140.56765876468387
9.214158848,0.9989300909825861,-141.09337018200583
9.22831872,0.9986737201067911,-141.61585140049687
9.242477568,0.9984753256222548,-142.13575206836865
9.25663744,0.998343697171923,-142.65383945042566
9.270796288,0.998284902907872,-143.170898696249
9.28495616,0.9983018463400284,-143.6879032145085
9.299115008,0.9983938184175302,-144.20571969981185
9.313273856,0.9985569624623836,-144.7252571038692
9.327433728,0.9987841935718513,-145.2473287090858
9.341592576,0.999065785074278,-145.77267843263107
9.355752448,0.9993893326236789,-146.3018699172607
9.369911296,0.999740559663436,-146.83534252469155
9.384071168,1.000104183716312,-147.37329899088112
9.398230016,1.0004639270259321,-147.9158381026136
9.412389888,1.0008043223948482,-148.4628332348833
9.426548736,1.0011100499467869,-149.01391562673857
9.440707584,1.0013677080596697,-149.56859728174342
9.454867456,1.001565817614177,-150.12624647458352
9.469026304,1.0016955673209755,-150.6860892686309
9.483186176,1.0017510598797283,-151.24728159185187
9.497345024,1.00172955569719,-151.80890196098073
9.511504896,1.0016319689364415,-152.3700256646893
9.525663744,1.001462242741782,-152.92974461816445
9.539822592,1.0012277148339417,-153.48727781329364
9.553982464,1.0009385100727517,-154.04186643111024
9.568141312,1.0006070991395624,-154.59293361748226
9.582301184,1.0002479454941844,-155.14002042839954
9.596460032,0.999876984009724,-155.68291935537138
9.610619904,0.9995103164132645,-156.22156499728848
9.624778752,0.9991642152518946,-156.75607764232382
9.6389376,0.9988538395229973,-157.28680304799502
9.653097472,0.9985932828392489,-157.81423727117453
9.66725632,0.998394021343927,-158.33906008956285
9.681416192,0.9982651241215199,-158.862096119712
9.69557504,0.9982124796387681,-159.3841468863476
9.709734912,0.9982385701480648,-159.90623171391036
9.72389376,0.9983425424737372,-160.42927673580206
9.738052608,0.9985199045829017,-160.95421506705006
9.75221248,0.9987632177146071,-161.48186897058847
9.766371328,0.9990617140096675,-162.01298854993072
9.7805312,0.9994023218156008,-162.54815537617384
9.794690048,0.9997702525964304,-163.08780598810256
9.80884992,1.000149424740468,-163.6321918411972
9.823008768,1.000522921643369,-164.18129679701778
9.83716864,1.0008744929824653,-164.73500789843294
9.851327488,1.0011885356076153,-165.29293588122428
9.865486336,1.0014511491527682,-165.85456346193985
9.879646208,1.0016508495504397,-166.41921479997555
9.893805056,1.0017783478510418,-166.98603367804918
9.907964928,1.0018281702525222,-167.55417551168847
9.922123776,1.0017976995843725,-168.12265657006978
9.936283648,1.0016881672223539,-168.69054492522795
9.950442496,1.0015040773654371,-169.25689597286103
9.964601344,1.0012532872792737,-169.82086803831575
9.978761216,1.0009466778827636,-170.38169270216994
9.992920064,1.0005974088790992,-170.93880903144296
10.007079936,1.0002207467830189,-171.49176655198977
10.021238784,0.9998331876100085,-172.04030463209898
10.035398656,0.9994518778627556,-172.58439221490158
10.049557504,0.9990933220845436,-173.12422690273755
10.063716352,0.9987736903877814,-173.66012189572925
10.077876224,0.998507201879405,-174.19266840307756
10.092035072,0.9983056115464417,-174.72253687716227
10.106194944,0.998178238883192,-175.25059556802273
10.120353792,0.9981307844780372,-175.77775641126146
10.134513664,0.9981656826953785,-176.3050249388938
10.148672512,0.9982815329955947,-176.8333760208699
10.16283136,0.9984736890327464,-177.36374903156712
10.176991232,0.9987336879410448,-177.89707241724864
10.19115008,0.9990501826521876,-178.43406177172125
10.205309952,0.999409690412131,-178.97533894965719
10.2194688,0.9997961740427753,-179.52132840390027
10.233628672,1.000192841334777,179.92775203927908
10.24778752,1.0005821435293731,179.37187689431747
10.261947392,1.0009471446703984,178.8112211945854
10.27610624,1.0012715448249,178.24620841978992
10.290265088,1.001541029131119,177.6773790936526
10.30442496,1.001743783520085,177.1054804287024
10.318583808,1.001870553465615,176.53133833673405
10.33274368,1.0019156138061749,175.95592669795707
10.346902528,1.0018765941366623,175.38022920544668
10.3610624,1.0017552099393776,174.8052683873115
10.375221248,1.0015561226304377,174.2319633344729
10.389380096,1.0012881501655893,173.66124498141977
10.403539968,1.000962779799059,173.09383619185144
10.417698816,1.000593777312459,172.53038575946377
10.431858688,1.00019754733523,171.97131420124177
10.446017536,0.9997911153112957,171.4168909990563
10.460177408,0.9993925685076118,170.86708875022862
10.474336256,0.9990194082095581,170.3217613215418
10.488495104,0.9986880537534313,169.7805271663127
10.502654976,0.9984134498262061,169.24278134076096
10.516813824,0.9982077387412484,168.7077428999718
10.530973696,0.9980803293165555,168.174552332007
10.545132544,0.9980370775238028,167.64222466595257
10.559292416,0.9980802560277051,167.10973546804166
10.573451264,0.9982082904658113,166.57600977716686
10.587610112,0.9984156218865278,166.04008192090913
10.601769984,0.9986935024173905,165.5010533750177
10.615928832,0.9990298568548092,164.95807611240807
10.630088704,0.9994099955461936,164.41058274709064
10.644247552,0.9998173647913223,163.85811982393884
10.658407424,1.0002341417285405,163.30046994164252
10.672566272,1.0006420465343793,162.7376305851318
10.686726144,1.0010231148176885,162.16981647418007
10.700884992,1.0013605067476234,161.5974136809448
10.71504384,1.0016393531422265,161.02108491500488
10.729203712,1.001847237564051,160.44156203350087
10.74336256,1.001974632306071,159.85978986536264
10.757522432,1.002016015211945,159.2767346591578
10.77168128,1.001969110737927,158.6934562781416
10.785841152,1.00183556297465,158.11101040892083
10.8,1.0016210216179295,157.53036995227177
10.814158848,1.0013345693847215,156.95249123015225
10.82831872,1.0009882850817653,156.37816491359735
10.842477568,1.000597468583357,155.8080178489723
10.85663744,1.0001788695172658,155.24254292513055
10.870796288,0.9997507860934519,154.681924321191
10.88495616,0.9993319631672717,154.12622075070138
10.899115008,0.9989409518768214,153.57519305521998
10.913273856,0.9985949899895018,153.0284133849017
10.927433728,0.9983096667859108,152.48530120336372
10.941592576,0.9980974626733461,151.9449914243422
10.955752448,0.9979684382290892,151.40657114201295
10.969911296,0.9979282352202445,150.869023011663
10.984071168,0.9979792763900822,150.33122586729058
10.998230016,0.9981193638648046,149.79208631954359
11.012389888,0.9983428492444576,149.25053886901497
11.026548736,0.9986400868108899,148.70567194924527
11.040707584,0.9989983251979951,148.1566357018008
11.054867456,0.9994017386928403,147.6027912866621
11.069026304,0.9998331019511257,147.04370037817355
11.083186176,1.0002733170395055,146.47912045446722
11.097345024,1.0007031955067907,145.90905708575679
11.111504896,1.0011037390029596,145.33376125861506
11.125663744,1.0014573031513267,144.75366802438256
11.139822592,1.0017483933822517,144.16946115312768
11.153982464,1.0019638124596235,143.58193900573357
11.168141312,1.002094018342831,142.99205605544273
11.182301184,1.0021329404835135,142.40090811792737
11.196460032,1.0020784378476615,141.8095460313073
11.210619904,1.0019327238092368,141.2191081689099
11.224778752,1.0017015213152856,140.6306629565894
11.2389376,1.001394783266701,140.04517686254587
11.253097472,1.001025568090826,139.46346376409966
11.26725632,1.000609905363351,138.88623484679738
11.281416192,1.0001655081357672,138.31393093694138
11.29557504,0.9997119316152805,137.74680461397023
11.309734912,0.9992691086417897,137.18485083276025
11.32389376,0.9988563864277431,136.6278400801476
11.338052608,0.9984922404451186,136.07534970842843
11.35221248,0.9981927499728548,135.52666914083147
11.366371328,0.9979715523505907,134.980954187815
11.3805312,0.9978385280031182,134.4372139457193
11.394690048,0.9978002576417437,133.89431987865225
11.40884992,0.9978584232191594,133.35114160174865
11.423008768,0.9980110673029348,132.80649030014231
11.43716864,0.9982518448640622,132.25926169039843
11.451327488,0.9985705504629946,131.70846683557102
11.465486336,0.998953269641509,131.153195115246
11.479646208,0.999383552209267,130.59281682468907
11.493805056,0.9998427140458062,130.02684109327393
11.507964928,1.0003105675186406,129.45505321054338
11.522123776,1.0007667478723457,128.87743517077814
11.536283648,1.0011911450779691,128.29425235443838
11.550442496,1.001565046952634,127.70600683937766
11.564601344,1.001871885083766,127.11341894272847
11.578761216,1.0020979584860965,126.51732921188284
11.592920064,1.002233140585896,125.918786002615
11.607079936,1.0022711032443237,125.31888074569834
11.621238784,1.0022096902433733,124.7188270245111
11.635398656,1.0020511970096957,124.11977861644748
