freq,mag,phase
6.0,0.9995336403044702,164.67144607345907
6.002287616,0.9994587019214016,164.52160954505257
6.004575232,0.999417251945977,164.37261897633923
6.006862848,0.9994130469290019,164.22402917663538
6.009150464,0.9994464040625354,164.0752453416947
6.011438592,0.9995152103329477,163.92570923952945
6.013726208,0.9996150033713898,163.77501465350616
6.016013824,0.9997396484290395,163.6226701389472
6.01830144,0.9998810522126933,163.46844530373664
6.020589056,1.0000304781924116,163.3121181264652
6.022876672,1.0001783697605662,163.15363713302781
6.025164288,1.0003152608981167,162.99314065173746
6.027451904,1.000432617324192,162.8307918480481
6.029740032,1.0005228672608066,162.66697846270733
6.032027648,1.000580594962325,162.50210878630617
6.034315264,1.0006017881127514,162.3366912453512
6.03660288,1.000585339288169,162.1712419497505
6.038890496,1.0005322751392887,162.0063232752035
6.041178112,1.0004458435598451,161.8424848561574
6.043465728,1.0003315309891032,161.68008964596154
6.045753344,1.0001965989872341,161.51951116993612
6.04804096,1.0000494122856787,161.3610246824818
6.050329088,0.9998995513755689,161.20470856436816
6.052616704,0.9997564042011892,161.05054090685883
6.05490432,0.9996289631560319,160.89840542365155
6.057191936,0.9995252506298188,160.74795048256453
6.059479552,0.9994521032381386,160.59876565201895
6.061767168,0.9994139777441241,160.4504631778433
6.064054784,0.99941323664124,160.30245721667578
6.0663424,0.9994501205223274,160.15419524131735
6.068630016,0.9995220989709654,160.00517778700626
6.070918144,0.9996246961088839,159.85492497734774
6.07320576,0.9997515955022418,159.70301749337764
6.075493376,0.9998944622564003,159.5491499293246
6.077780992,1.0000444720900268,159.39323186528654
6.080068608,1.000192131596449,159.23511777187667
6.082356224,1.0003279334915898,159.07497856963673
6.08464384,1.000443212933696,158.91306755142435
6.086931456,1.0005310155449445,158.74968395069297
6.089219584,1.0005854896662922,158.58529841318582
6.0915072,1.0006034143705367,158.420409694983
6.093794816,1.0005834050230331,158.25555845013565
6.096082432,1.0005269223938513,158.09126601673066
6.098370048,1.0004373655530336,157.9280931572217
6.100657664,1.0003204486568007,157.76640745701866
6.10294528,1.0001838137248822,157.6065983241168
6.105232896,1.0000356716803667,157.44890946772344
6.107520512,0.9998856005683092,157.29337039443328
6.10980864,0.999743063953552,157.13998808217866
6.112096256,0.9996173250982596,156.9885755478824
6.114383872,0.9995159237091461,156.8388485858351
6.116671488,0.999445550559319,156.69042305717977
6.118959104,0.999410870198262,156.54273221906365
6.12124672,0.9994136384163297,156.3953340495094
6.123534336,0.9994540062391014,156.2476423189601
6.125821952,0.99952927913965,156.0991156107552
6.128109568,0.9996348323509073,155.9493126602906
6.130397696,0.9997638213453676,155.79783347225202
6.132685312,0.9999081668236887,155.64436585469443
6.134972928,1.000058765374384,155.48879539442578
6.137260544,1.0002058772179854,155.33110114900379
6.13954816,1.0003405645383794,155.17136913223698
6.141835776,1.000453903351091,155.00984580767923
6.144123392,1.0005389756435357,154.84692278444723
6.146411008,1.0005901907335648,154.68303228313533
6.148699136,1.0006046359966068,154.51869872358282
6.150986752,1.000580969040087,154.3544336941236
6.153274368,1.0005212057772226,154.19079260625955
6.155561984,1.0004284737575684,154.02832099948094
6.1578496,1.0003092174730768,153.86736842343595
6.160137216,1.0001705108522276,153.70834686870853
6.162424832,1.0000215124393084,153.55140124846025
6.164712448,0.9998713425381308,153.39668408771274
6.167000064,0.9997297257074225,153.24407740062247
6.169288192,0.999605601836609,153.09344743810212
6.171575808,0.999506702985711,152.94446643383313
6.173863424,0.9994394942201982,152.79672757988436
6.17615104,0.9994080136786916,152.64970338151173
6.178438656,0.999414432521317,152.50292936185926
6.180726272,0.9994583965615653,152.3557713378894
6.183013888,0.9995370138467901,152.20777370066745
6.185301504,0.9996452693077315,152.0584335773522
6.18758912,0.9997764846795824,151.90738341205795
6.189877248,0.9999221527038941,151.75431756098672
6.192164864,1.0000732035979039,151.5991351890112
6.19445248,1.0002200126779106,151.44182654135085
6.196740096,1.0003532010197909,151.28247858676286
6.199027712,1.0004645722597658,151.1213871773415
6.201315328,1.0005466536595,150.9589238253307
6.203602944,1.0005948159466782,150.795561758073
6.20589056,1.0006055707465424,150.6317773318687
6.208178688,1.0005783523313025,150.46808547943652
6.210466304,1.0005149101881967,150.30515052539337
6.21275392,1.000419302485486,150.1433465413591
6.215041536,1.000297515202043,149.98315235250743
6.217329152,1.000157095542593,149.82489493194063
6.219616768,1.000007225177468,149.66876750475603
6.221904384,0.999857095087491,149.51484400657893
6.224192,0.9997163852651967,149.3630821929411
6.226479616,0.9995940395102595,149.21321731262816
6.228767744,0.9994976943838806,149.06498687325106
6.23105536,0.9994335003898369,148.91794787686217
6.233342976,0.9994055802618973,148.77158333542295
6.235630592,0.9994156819821914,148.6254202640938
6.237918208,0.9994632057631182,148.47880892237382
6.240205824,0.99954513468233,148.33133494972103
6.24249344,0.9996561511163178,148.18244568294583
6.244781056,0.9997894006477607,148.03183309251844
6.247068672,0.9999364538055222,147.87915476721392
6.2493568,1.0000878752252842,147.72437194475305
6.251644416,1.0002340588191616,147.5674374403234
6.253932032,1.000365861725718,147.4085048504398
6.256219648,1.0004749703286824,147.24787896668371
6.258507264,1.0005543414013827,147.08587954560028
6.26079488,1.0005990054809815,146.92301505958724
6.263082496,1.0006061250531202,146.75980073378855
6.265370112,1.0005753058254871,146.59676417993035
6.26765824,1.0005083615840418,146.4344429180508
6.269945856,1.0004097089920094,146.27340156823072
6.272233472,1.0002854026398795,146.1139792467206
6.274521088,1.0001434192330705,145.95648506283135
6.276808704,0.9999926102810801,145.80119146634416
6.27909632,0.9998425349264912,145.6480712940231
6.281383936,0.9997029792705105,145.4970912123319
6.283671552,0.9995824029708903,145.34804622298455
6.285959168,0.999488656781373,145.2005563121232
6.288247296,0.999427748790579,145.05423581225614
6.290534912,0.9994033316336652,144.90853774309605
6.292822528,0.999417145718305,144.76297370135595
6.295110144,0.9994683326711753,144.6169427065181
6.29739776,0.9995535167870614,144.46995430388435
6.299685376,0.9996673463995805,144.32154070530967
6.301972992,0.9998027187758881,144.17133644315172
6.304260608,0.9999509031947558,144.019082975369
6.306548224,1.0001027027145797,143.86470218371733
6.308836352,1.0002482921327915,143.70815507845643
6.311123968,1.0003786206086422,143.54967056894407
6.313411584,1.0004853692185862,143.389440542474
6.3156992,1.0005617300746177,143.22792611102602
6.317986816,1.0006029034706063,143.0655884353165
6.320274432,1.0006064504953451,142.90293151390728
6.322562048,1.0005718841355062,142.74053417107234
6.324849664,1.0005015172291871,142.57893085030554
6.327137792,1.0003997075379627,142.41857600608316
6.329425408,1.0002729764847698,142.25992791139961
6.331713024,1.0001294317845275,142.1032429015907
6.33400064,0.9999777995819497,141.94875629189215
6.336288256,0.9998281176861774,141.79646154784498
6.338575872,0.999689587803313,141.6463202070002
6.340863488,0.9995710011965958,141.49804431956665
6.343151104,0.9994799668973128,141.35130289971275
6.34543872,0.9994223154434668,141.20571499903602
6.347726848,0.9994016012557192,141.0606886806232
6.350014464,0.9994192302106171,140.91572261347213
6.35230208,0.9994739287880745,140.7702352016038
6.354589696,0.9995624413921268,140.6237362059628
6.356877312,0.9996790031626518,140.4757747872801
6.359164928,0.9998163968317272,140.3260193228286
6.361452544,0.9999659047093852,140.17418841634284
6.36374016,1.0001177348068777,140.0201685888856
6.366027776,1.00026262089156,139.8640342065215
6.368315904,1.0003912683255716,139.7059288347381
6.37060352,1.000495620723531,139.54616810380318
6.372891136,1.000568978080088,139.38514054978364
6.375178752,1.0006066925580013,139.22333954129596
6.377466368,1.0006062946346062,139.06125069375264
6.379753984,1.0005680470190066,138.89949923517935
6.3820416,1.0004942493148516,138.73856954001474
6.384329216,1.0003893709342335,138.57901219609002
6.386617344,1.0002602342872984,138.4211090887316
6.38890496,1.0001150507815135,138.2652388878645
6.391192576,0.9999628105876812,138.11156799539762
6.393480192,0.9998133956895454,137.96011840328805
6.395767808,0.9996759983210393,137.8107532690853
6.398055424,0.9995596567869999,137.66327150368843
6.40034304,0.9994715000658578,137.51730066837118
6.402630656,0.9994170441812844,137.37242056328415
6.404918272,0.9994000890160832,137.2280583314869
6.4072064,0.9994215227380142,137.08367847191207
6.409494016,0.999480022360053,136.9387674320827
6.411781632,0.9995717189406371,136.79276749125216
6.414069248,0.9996911047962895,136.64526448697023
6.416356864,0.9998304577957152,136.4959004058814
6.41864448,0.9999808791450131,136.34446202104965
6.420932096,1.0001329749886303,136.19087165119572
6.423219712,1.0002769784100458,136.03513802624528
6.425507328,1.0004040185830667,135.87745115372402
6.427795456,1.0005057644831277,135.71810812430417
6.430083072,1.0005759255169504,135.55758012247102
6.432370688,1.0006100088123038,135.3962727614136
6.434658304,1.0006059021705624,135.234819560533
6.43694592,1.0005637242330527,135.07371240446483
6.439233536,1.0004864022701843,134.9134846474515
6.441521152,1.0003785310147193,134.75463365362188
6.443808768,1.0002471096514165,134.5975428896007
6.446096896,1.000100349773272,134.44248070984187
6.448384512,0.9999476092593695,134.28965422763554
6.450672128,0.9997984856922396,134.13903286836455
6.452959744,0.9996625363721761,133.99048072699225
6.45524736,0.9995482377602022,133.8437864494508
6.457534976,0.9994630382957723,133.69857045006268
6.459822592,0.9994122113156518,133.55438624346172
6.462110208,0.99939893295583,133.41067305823861
6.464397824,0.9994242171207444,133.26692349981633
6.466685952,0.9994864374805487,133.12253864698047
6.468973568,0.9995815047830485,132.97705147702573
6.471261184,0.9997035648981583,132.8299840862921
6.4735488,0.9998447653234573,132.68106343585265
6.475836416,0.9999962929701754,132.5300144592653
6.478124032,1.0001483552281845,132.3767960045914
6.480411648,1.000291559605546,132.2214514102467
6.482699264,1.0004166199745657,132.06417783420721
6.48498688,1.0005157412184629,131.9052942175741
6.487275008,1.0005826067259733,131.74522304827076
6.489562624,1.0006131081568759,131.58449412671615
6.49185024,1.000605033292969,131.42361970960675
6.494137856,1.0005591023260703,131.26315332887737
6.496425472,1.0004781683086166,131.1036457670182
6.498713088,1.0003673441786334,130.9455458540606
6.501000704,1.0002336435684023,130.78923946144786
6.50328832,1.0000853576343176,130.6349924926463
6.505576448,0.999932259308729,130.48297915749703
6.507864064,0.9997836565667675,130.33318157093981
6.51015168,0.9996490559809247,130.1854575066375
6.512439296,0.99953714124184,130.03959082016033
6.514726912,0.9994548836930359,129.89511135844742
6.517014528,0.9994076376644464,129.7516116475277
6.519302144,0.9993982817177492,129.60856404166054
6.52158976,0.9994273685440751,129.46537072907782
6.523877376,0.9994932009680055,129.32157140483423
6.526165504,0.9995916071178453,129.1765467891478
6.52845312,0.9997163217182723,129.02993198238804
6.530740736,0.9998594193216085,128.88139918721504
6.533028352,1.0000117840091776,128.73073954268122
6.535315968,1.0001637800802148,128.577917493429
6.537603584,1.000305946091046,128.4229582526129
6.5398912,1.0004291216664578,128.2660847532362
6.542178816,1.0005254774809496,128.107669141529
6.544466432,1.0005890853489485,127.94808966206944
6.54675456,1.000615596983196,127.78787587051724
6.549042176,1.000603744406536,127.62761191121209
6.551329792,1.0005539194590776,127.46781172060201
6.553617408,1.0004694757999184,127.30898898184381
6.555905024,1.0003556920641457,127.15164905322138
6.55819264,1.0002196266859942,126.99612607165486
6.560480256,1.0000701837992527,126.84271130185456
6.562767872,0.9999164865259148,126.69154554078605
6.565056,0.9997684794113855,126.54256522774516
6.567343616,0.9996355720195812,126.395646900244
6.569631232,0.9995260660550168,126.25055494278122
6.571918848,0.9994469315628298,126.1068282994354
6.574206464,0.9994032802410965,125.96404816964906
6.57649408,0.9993978997764745,125.8216195699424
6.578781696,0.9994309291076613,125.67904553260621
6.581069312,0.999500564784284,125.53571922315884
6.583356928,0.999602318299293,125.39119707868225
6.585645056,0.9997296275743248,125.24502433792888
6.587932672,0.9998744517692507,125.09687675338249
6.590220288,1.0000276092221232,124.94660717754694
6.592507904,1.0001795982934347,124.79414778519225
6.59479552,1.0003206004373228,124.63958340473947
6.597083136,1.000441644048204,124.48312443502623
6.599370752,1.0005351934759572,124.32515326514543
6.601658368,1.0005952477285904,124.16606711113563
6.603945984,1.0006179900082375,124.00638983284992
6.606234112,1.0006020836100182,123.84672832028694
6.608521728,1.000548403035422,123.68757497633842
6.610809344,1.000460500745992,123.52946503922621
6.61309696,1.0003437152471053,123.3728773244913
6.615384576,1.0002054141267085,123.21814966230673
6.617672192,1.0000547160665234,123.0655654537392
6.619959808,0.9999006539970854,122.91521607541912
6.622247424,0.9997533783644917,122.76705937636467
6.624535552,0.9996220835754384,122.6209852393013
6.626823168,0.9995151875812438,122.476638535124
6.629110784,0.9994392861655598,122.33367656140445
6.6313984,0.9993992894221619,122.19156881244572
6.633686016,0.9993979077820432,122.04977693809607
6.635973632,0.9994351031369479,121.9077608764513
6.638261248,0.9995083668651725,121.76498329581229
6.640548864,0.9996133214103404,121.62089880274416
6.64283648,0.999743302400447,121.47513571390213
6.645124608,0.9998897603321671,121.32739103281071
6.647412224,1.000043784332173,121.17749534761593
6.64969984,1.0001953975316311,121.02538773074221
6.651987456,1.0003351141797892,120.87119967125594
6.654275072,1.0004540659472272,120.71513806379451
6.656562688,1.0005445994721072,120.55761921488123
6.658850304,1.0006010717175633,120.39903540376676
6.66113792,1.0006199943267104,120.23990592320138
6.663426048,1.0005999059335173,120.08081503930674
6.665713664,1.000542378058732,119.92231714235756
6.66800128,1.0004508324797021,119.76495085554556
6.670288896,1.0003311364581946,119.60909976819752
6.672576512,1.0001907447892224,119.45518808323973
6.674864128,1.0000387426776554,119.30342181508225
6.677151744,0.9998847121173179,119.15389223976712
6.67943936,0.9997382043588002,119.00654677572622
6.681726976,0.9996087454330178,118.86126364180626
6.684015104,0.9995044725003185,118.71772153702423
6.68630272,0.9994318524726885,118.57547857822172
6.688590336,0.9993957798538591,118.43402901041851
6.690877952,0.9993983841670528,118.29286845324687
6.693165568,0.9994395110707497,118.15141335424056
6.695453184,0.9995166074709272,118.00912356537256
6.6977408,0.9996248263898546,117.86548382314403
6.700028416,0.9997571771034378,117.72013646938731
6.702316032,0.9999054082151895,117.57278108995766
6.70460416,1.000060059461741,117.42326197446208
6.706891776,1.000211335837693,117.27150366939452
6.709179392,1.000349653163478,117.11769334613628
6.711467008,1.0004662393774757,116.96203910402859
6.713754624,1.0005537928653856,116.80493667838536
6.71604224,1.0006066048953153,116.64682239819787
6.718329856,1.000621438727309,116.48825395025317
6.720617472,1.000597361465801,116.32978120367014
6.7229056,1.0005358672638887,116.17193153869636
6.725193216,1.0004407435328317,116.0152500888274
6.727480832,1.0003181351682713,115.86017658952763
6.729768448,1.0001758647352632,115.70704971190476
6.732056064,1.0000227047120744,115.55608918583779
6.73434368,0.9998685021061466,115.40739185076067
6.736631296,0.9997228683148589,115.26088153348965
6.738918912,0.9995953745505539,115.11640811386877
6.741206528,0.9994938523155587,114.97360083130795
6.743494656,0.99942473136972,114.8320737196199
6.745782272,0.9993925829871142,114.69129376118161
6.748069888,0.9993992776547582,114.5507414922934
6.750357504,0.9994445029356266,114.40982626894396
6.75264512,0.9995253973582643,114.26801097416318
6.754932736,0.9996367957777791,114.12484308591752
6.757220352,0.9997716599731524,113.97987623204622
6.759507968,0.999921433867332,113.83288387049737
6.761795584,1.0000767341841936,113.68371628809454
6.764083712,1.000227450060008,113.53228938689406
6.766371328,1.0003642490832931,113.37884559134667
6.768658944,1.0004784657203094,113.22359455008667
6.77094656,1.0005626470365183,113.06690813320883
6.773234176,1.000611896011233,112.90928962805675
6.775521792,1.0006225424535673,112.75126072756193
6.777809408,1.0005943401226787,112.59336380183478
6.780097024,1.0005289587117145,112.43618005605622
6.782385152,1.0004303764422573,112.28019829913394
6.784672768,1.0003048229871956,112.12589617719986
6.786960384,1.0001604757560483,111.97355215853861
6.789248,1.0000063586520644,111.82340384900475
6.791535616,0.9998521150601151,111.67552159052389
6.793823232,0.9997076466549994,111.52983419243421
6.796110848,0.999582139076403,111.38612204398696
6.798398464,0.9994833609978148,111.24409681870308
6.80068608,0.999417962069521,111.10326218015126
6.802974208,0.9993896325611475,110.96313726986887
6.805261824,0.999400662034723,110.82317311471678
6.80754944,0.9994498932945176,110.68278725846193
6.809837056,0.9995346932916973,110.54146713247853
6.812124672,0.9996492687709453,110.39868810201493
6.814412288,0.9997864549876685,110.25411933367556
6.816699904,0.9999377760169698,110.10746958649278
6.81898752,1.0000933854855143,109.95861796939137
6.821275136,1.0002436404806312,109.8075666386592
6.823563264,1.0003787863293645,109.65445556018342
6.82585088,1.0004904414617428,109.49959290166319
6.828138496,1.0005714240907937,109.34332106414087
6.830426112,1.0006166306626214,109.186195018805
6.832713728,1.0006232390143104,109.02868108493132
6.835001344,1.0005908354074555,108.87139850028183
6.83728896,1.0005214300690228,108.7148538717514
6.839576576,1.0004193960784673,108.55958903263718
6.841864704,1.0002910494507622,108.4060362364414
6.84415232,1.000144726991756,108.25447380015093
6.846439936,0.9999896455463904,108.10512862910328
6.848727552,0.9998356022037463,107.95806583601137
6.851015168,0.999692355612852,107.81317224021403
6.853302784,0.9995689732452824,107.67025650155783
6.8555904,0.9994732406933546,107.52896085521233
6.857878016,0.9994113613189735,107.38883587218822
6.860165632,0.9993872207549418,107.24933843100771
6.86245376,0.9994024673917388,107.1099345789385
6.864741376,0.9994558935299648,106.97006426185766
6.867028992,0.9995443019329687,106.8291727782413
6.869316608,0.9996619831228568,106.68682371806715
6.871604224,0.9998017318628285,106.5426099792724
6.87389184,0.999954382124923,106.39631704470054
6.876179456,1.0001103815332217,106.24777513592029
6.878467072,1.0002597823266577,106.09704346543101
6.880754688,1.000393244769388,105.94428574485018
6.883042816,1.0005022321276058,105.78977745689201
6.885330432,1.0005797800675407,105.63395553995113
6.887618048,1.0006211073359341,105.47727287481229
6.889905664,1.0006235412795819,105.32030203425576
6.89219328,1.0005869075714502,105.16359094225017
6.894480896,1.0005134408577565,105.00771071512041
6.896768512,1.0004079325990591,104.8531442264944
6.899056128,1.0002769144674424,104.70032024724848
6.901344256,1.0001286646615988,104.54955850520037
6.903631872,0.9999728311072322,104.40100808693397
6.905919488,0.9998190656908366,104.25474707748316
6.908207104,0.9996769300104659,104.11064477336797
6.91049472,0.9995558413582931,103.96849384437279
6.912782336,0.999463338291556,103.8279168257018
6.915069952,0.9994052370409351,103.68845086576398
6.917357568,0.9993852609044139,103.54960020273957
6.919645184,0.9994046668700629,103.41075832030722
6.921933312,0.9994623488401986,103.27137472772812
6.924220928,0.9995544925609027,103.13093163115873
