freq,mag,phase
6.0,1.0010063099699467,106.01483576957033
6.002288128,1.0007074526861324,105.86203303862997
6.004576768,1.0003648499392168,105.7139491787172
6.006864896,0.9999994407184117,105.57098609707323
6.009153536,0.9996340746991511,105.43343972857825
6.011441664,0.999292058388561,105.30104677572618
6.013729792,0.998994878854391,105.17336540083862
6.016018432,0.9987617516019933,105.04959080382723
6.01830656,0.9986073548674828,104.92871584295227
6.0205952,0.998541592490116,104.80944374245765
6.022883328,0.998568578871289,104.69056058726946
6.025171456,0.9986869939361216,104.57060752996688
6.027460096,0.9988888639524729,104.4483918212478
6.029748224,0.999161763688057,104.32274159247187
6.032036864,0.9994882356777988,104.19277466231551
6.034324992,0.9998475660931758,104.05786161345235
6.03661312,1.0002171494947514,103.91770633902341
6.03890176,1.0005732592590104,103.77229444094583
6.041189888,1.0008936492347653,103.62201259997151
6.043478016,1.0011577019800482,103.46753057494504
6.045766656,1.0013490627198507,103.30979010359127
6.048054784,1.0014554285291732,103.14992998718658
6.050343424,1.0014699242525804,102.98923578366562
6.052631552,1.0013918401235495,102.82901868213087
6.05491968,1.001225988781023,102.67058443832885
6.05720832,1.0009826401837072,102.5151734809458
6.059496448,1.0006773491313263,102.36378683072235
6.061785088,1.0003291119840334,102.21716844490139
6.064073216,0.9999602832853157,102.07579847169049
6.066361344,0.9995939132097079,101.93981482183534
6.068649984,0.9992534818791088,101.80898456109514
6.070938112,0.9989603902763637,101.68282987053955
6.073226752,0.9987334635589129,101.56052526403428
6.07551488,0.9985871497287356,101.44097164179043
6.077803008,0.9985306959532555,101.32292908078453
6.080091648,0.9985678345028248,101.20507657533575
6.082379776,0.9986962430428727,101.08607963721363
6.084668416,0.9989077721210768,100.96463587084045
6.086956544,0.9991889425827738,100.83962091956514
6.089244672,0.9995220302777218,100.71018206947967
6.091533312,0.9998859168850958,100.57572975964617
6.09382144,1.0002574400680306,100.43593420124618
6.09611008,1.0006130177694288,100.29092524609358
6.098398208,1.0009302968435694,100.14105546660025
6.100686336,1.0011890870810498,99.98702472835932
6.102974976,1.0013729458961955,99.82985458899255
6.105263104,1.0014703755357135,99.67065263362792
6.107551232,1.0014749828095526,99.51076462754106
6.109839872,1.0013866838565704,99.35148597949414
6.112128,1.0012108705727578,99.19415361756583
6.11441664,1.0009584790604626,99.0399824775647
6.116704768,1.0006455715734264,98.8899252398879
6.118992896,1.0002918053850145,98.74472996031854
6.121281536,0.9999197400812001,98.60486303039957
6.123569664,0.9995527492636005,98.47037455511845
6.125858304,0.9992142026387506,98.34108336582713
6.128146432,0.9989256985864741,98.21638143775593
6.13043456,0.9987053762449629,98.09546666882618
6.1327232,0.9985675046082108,97.97716061124767
6.135011328,0.9985206771323913,97.860281670773
6.137299968,0.9985682483953114,97.74342333290858
6.139588096,0.998706901323946,97.62524988844747
6.141876224,0.9989280042606937,97.50448674921829
6.144164864,0.9992177190342869,97.38002067301
6.146452992,0.9995573587696596,97.2510395319442
6.148741632,0.9999254570815101,97.11692474641933
6.15102976,1.0002987281111302,96.97745851343782
6.153317888,1.0006536262038164,96.83274324348804
6.155606528,1.000967469694774,96.68316748488743
6.157894656,1.0012205957701468,96.52955781683613
6.160183296,1.001396669153131,96.372842729275
6.162471424,1.0014847928919526,96.21426944610761
6.164759552,1.0014793874937788,96.0550994186621
6.167048192,1.001380491394894,95.89671897308443
6.16933632,1.0011945183722035,95.74044561885344
6.17162496,1.0009330198792203,95.58742771964134
6.173913088,1.0006126992302746,95.43866339045438
6.176201216,1.0002534939180212,95.29486262874931
6.178489856,0.9998784226050649,95.15641694544107
6.180777984,0.9995111126249264,95.0234149855441
6.183066112,0.999174783721404,94.89555685302949
6.185354752,0.998890879477985,94.77226954511525
6.18764288,0.9986776003152562,94.65264985464337
6.18993152,0.9985484817070256,94.53556359490204
6.192219648,0.9985116902234822,94.41971783444768
6.194507776,0.9985698063176117,94.30375004362573
6.196796416,0.9987190026026254,94.18632336553699
6.199084544,0.9989499099213693,94.06614874360747
6.201373184,0.999247846583803,93.94217339209662
6.203661312,0.9995939589667914,93.81350801697386
6.20594944,0.9999663042534641,93.67966084367335
6.20823808,1.0003412140045347,93.54042482160469
6.210526208,1.000694909716806,93.39593163223776
6.212814848,1.001005016670694,93.24662663030253
6.215102976,1.0012519726883589,93.09332501249902
6.217391104,1.0014199559716535,92.9370242626361
6.219679744,1.0014984573088135,92.77899613548395
6.221967872,1.0014826263772856,92.6204986802054
6.224256512,1.001373065109864,92.46298612078319
6.22654464,1.0011767173729915,92.3076650173095
6.228832768,1.0009062814327185,92.15577773083525
6.231121408,1.0005783221592848,92.00824683820093
6.233409536,1.0002139551400009,91.8657856808343
6.235698176,0.9998360763849956,91.72873769434682
6.237986304,0.9994685306197572,91.59714803851679
6.240274432,0.9991348334179605,91.47069409810034
6.242563072,0.9988561765513488,91.34873763931171
6.2448512,0.9986501797229284,91.2303508238405
6.24713984,0.9985302321589183,91.11435370411564
6.249427968,0.9985036813109139,90.99951197692032
6.251716096,0.9985725641999167,90.88435994260752
6.254004736,0.9987323660971564,90.76758623327575
6.256292864,0.9989731674195019,90.64791951151416
6.258580992,0.999279492086665,90.52428581237234
6.260869632,0.9996319048919295,90.3959127485951
6.26315776,1.0000082689955472,90.26224071202753
6.2654464,1.0003843754057693,90.123119184205
6.267734528,1.0007366628622532,89.97877555572178
6.270022656,1.0010426184212935,89.82964521598588
6.272311296,1.001283146068175,89.67658655467584
6.274599424,1.0014426679855453,89.5206673739516
6.276888064,1.0015113405870861,89.36310335818892
6.279176192,1.0014846565807247,89.20524367818625
6.28146432,1.0013642644223428,89.04850107625504
6.28375296,1.001157670308895,88.89413984470374
6.286041088,1.0008779024553973,88.74333415149984
6.288329728,1.0005427868327694,88.59699080292377
6.290617856,1.0001732076837713,88.45580407450066
6.292905984,0.9997926553432982,88.3200906865745
6.295194624,0.9994255043107594,88.18982737428753
6.297482752,0.9990946508224043,88.06473141006897
6.299771392,0.9988214128694585,87.9440182297753
6.30205952,0.998623130247333,87.8268200727712
6.304347648,0.9985126041169324,87.71188238826876
6.306636288,0.9984966527877154,87.5979039518588
6.308924416,0.9985765584827778,87.48349913181183
6.311213056,0.9987472963798146,87.36728180862283
6.313501184,0.9989978200694749,87.2480266713115
6.315789312,0.9993123513058743,87.12467046612622
6.318077952,0.9996710712987119,86.99644700161447
6.32036608,1.000051022477756,86.86289155915897
6.322654208,1.0004282726518112,86.72382981502916
6.324942848,1.0007787458962745,86.57955422544912
6.327230976,1.0010803230308825,86.43049707461714
6.329519616,1.0013139255397725,86.27766147507548
6.331807744,1.0014646969321657,86.1220082221918
6.334095872,1.0015230989400643,85.96487717753745
6.336384512,1.0014854495762964,85.80763428808986
6.33867264,1.0013539589557916,85.6515975263986
6.34096128,1.0011370397132282,85.49813097948129
6.343249408,1.0008481669185683,85.34835710493923
6.345537536,1.0005055926961373,85.20315706156856
6.347826176,1.0001311931762076,85.06318962205204
6.350114304,0.9997484659506595,84.9287951805164
6.352402944,0.9993816893437713,84.79981794974509
6.354691072,0.999054246899919,84.67596041074263
6.3569792,0.9987868110425491,84.55648359497437
6.35926784,0.9985967749747089,84.44033535409636
6.361555968,0.9984958245605854,84.32636590003287
6.363844608,0.9984908864435357,84.2131997824217
6.366132736,0.9985819636494898,84.09942311565081
6.368420864,0.9987635449802476,83.98369812796652
6.370709504,0.9990240636882973,83.86475778488081
6.372997632,0.9993469344365308,83.7416118395948
6.375286272,0.9997115894067804,83.6134842346554
6.3775744,1.0000950432628104,83.47991252363195
6.379862528,1.0004730119048741,83.34084616143024
6.382151168,1.0008212391041484,83.19654276160051
6.384439296,1.0011180645792228,83.04753960026635
6.386727936,1.0013444893985495,82.89478444665696
6.389016064,1.0014861122720633,82.73939382024123
6.391304192,1.0015340007827533,82.58264729269106
6.393592832,1.0014850773358426,82.42590949143052
6.39588096,1.0013424446652328,82.27056470950865
6.398169088,1.00111492232966,82.1179402390709
6.400457728,1.000816971417406,81.96915597652084
6.402745856,1.0004673121950127,81.82505588387825
6.405034496,1.0000881863109816,81.68626931136212
6.407322624,0.9997033784193384,81.55306810819471
6.409610752,0.9993373403802658,81.42538606757914
6.411899392,0.9990136135498741,81.30271131865642
6.41418752,0.9987525532493072,81.18435271615243
6.41647616,0.9985708301649033,81.06923146533876
6.418764288,0.9984800376303994,80.95614062405777
6.421052416,0.9984862137032194,80.84370265578397
6.423341056,0.9985887130525006,80.73047522945438
6.425629184,0.9987813132019209,80.61513501198672
6.427917824,0.9990516830277667,80.4964662057882
6.430205952,0.99938270454427,80.37339818555161
6.43249408,0.9997532163426512,80.24527421577233
6.43478272,1.000140009274801,80.11164635627766
6.437070848,1.0005183210282047,79.97247383325715
6.439359488,1.0008642315829446,79.8280439108592
6.441647616,1.0011557920748213,79.67904906583333
6.443935744,1.0013746427151875,79.52633635798067
6.446224384,1.0015067645509497,79.37112816669503
6.448512512,1.0015438793633928,79.21466626624728
6.450801152,1.0014835522809737,79.0584165348349
6.45308928,1.0013294694647672,78.90372937834319
6.455377408,1.0010915485817842,78.75189279597716
6.457666048,1.0007843578116402,78.60404129307672
6.459954176,1.0004277423769699,78.46099745739792
6.462242816,1.0000439858077694,78.3233424873194
6.464530944,0.9996574996791099,78.19133539577616
6.466819072,0.9992928236723562,78.06478094085216
6.469107712,0.9989730257998439,77.94328475776874
6.47139584,0.9987185570857806,77.82596440956151
6.473683968,0.9985454895933457,77.71181908280855
6.475972608,0.9984652963411489,77.59953230146317
6.478260736,0.9984826935501947,77.4877080346908
6.480549376,0.9985969009332655,77.37496998790256
6.482837504,0.9988005292402858,77.25993134889937
6.485125632,0.9990807870687851,77.14139803134933
6.487414272,0.9994197880254982,77.01835975887278
6.4897024,0.9997961158611918,76.89013850092704
6.49199104,1.000185829737434,76.75635102236579
6.494279168,1.0005642237851886,76.61700034982596
6.496567296,1.0009072871460385,76.47242766567368
6.498855936,1.0011933228273788,76.32330124224788
6.501144064,1.001404135645381,76.17060663706354
6.503432704,1.0015264800639052,76.0155081220236
6.505720832,1.0015525387794895,75.85931570448743
6.50800896,1.0014805878217865,75.70349716146094
6.5102976,1.0013152267345051,75.54937828125783
6.512585728,1.0010665080664312,75.39832144886013
6.514874368,1.0007505505011485,75.2513298836119
6.517162496,1.0003869448650995,75.10931224454116
6.519450624,0.9999989025237888,74.97275761303999
6.521739264,0.9996109466155291,74.8418670805867
6.524027392,0.9992477154622397,74.71642851114589
6.526316032,0.9989323933034838,74.59599057965087
6.52860416,0.9986848609109064,74.47968831751636
6.530892288,0.9985210446239811,74.36637417165217
6.533180928,0.9984513209418604,74.25480950671745
6.535469056,0.9984804063721254,74.1435606884704
6.537757184,0.9986063860792065,74.03123501261702
6.540045824,0.998821187031014,73.91639543389398
6.542333952,0.9991112772862442,73.79792556449988
6.544622592,0.999458234655054,73.67480906958552
6.54691072,0.9998399753803253,73.54640555674156
6.549198848,1.000232417443051,73.41237829184904
6.551487488,1.0006105185443024,73.27277937763748
6.553775616,1.0009504819911579,73.12797970154627
6.556064256,1.0012305275990872,72.97868463956982
6.558352384,1.0014331464022597,72.82591675570673
6.560640512,1.0015453101353244,72.67086133323293
6.562929152,1.0015599924953547,72.51492541614932
6.56521728,1.001476265477687,72.35945658945658
6.56750592,1.0012990932055033,72.20593315512174
6.569794048,1.0010399392474945,72.0555372348174
6.572082176,1.0007149309247534,71.90941891380217
6.574370816,1.0003447076094991,71.76833730719166
6.576658944,0.9999526283874821,71.63280492339865
6.578947584,0.9995636399985106,71.50298054265987
6.581235712,0.9992021695938299,71.3786332738374
6.58352384,0.9988916181911635,71.25920647969687
6.58581248,0.9986514265173488,71.14382024633652
6.588100608,0.9984970691351073,71.03130868450806
6.590389248,0.9984385201729993,70.92040536708454
6.592677376,0.9984793938250887,70.80962406211009
6.594965504,0.998617159860105,70.69756811615508
6.597254144,0.9988431901964051,70.58288779477628
6.599542272,0.9991430870012677,70.46436790955026
6.601830912,0.9994978535873053,70.34109051239473
6.60411904,0.9998849022859738,70.21244582793179
6.606407168,1.000279767085981,70.07811068112561
6.608695808,1.0006572863342347,69.9381802363684
6.610983936,1.0009936083695927,69.79307672003357
6.613272064,1.001267444256732,69.64357864965926
6.615560704,1.001461358832102,69.49067815770823
6.617848832,1.0015631721832532,69.33562250533173
6.620137472,1.0015662267169008,69.1798293129856
6.6224256,1.0014704726736618,69.02473247693607
6.624713728,1.001281757789868,68.87169456240602
6.627002368,1.0010119643632622,68.72196758985679
6.629290496,1.0006782072000064,68.57662455006671
6.631579136,1.0003015188734066,68.43645518381469
6.633867264,0.9999055955804339,68.30191915249584
6.636155392,0.9995157591170595,68.17310399410772
6.638444032,0.9991566877556495,68.04976564579347
6.64073216,0.998851197580166,67.93128890540137
6.6430208,0.9986186934992632,67.81673013035554
6.645308928,0.9984741767207439,67.70496000703388
6.647597056,0.9984268158872909,67.59460279482052
6.649885696,0.9984797072539432,67.48422361422115
6.652173824,0.9986295470567368,67.37238135563746
6.654462464,0.9988667604157749,67.25773323523842
6.656750592,0.9991764700524646,67.13909285794092
6.65903872,0.9995388604620412,67.01560358677672
6.66132736,0.9999309104047381,66.88660002315912
6.663615488,1.0003279438736836,66.75187017823333
6.665904128,1.0007045123925224,66.61154973173824
6.668192256,1.0010369089505162,66.46606113716426
6.670480384,1.0013039883067008,66.31626028214426
6.672769024,1.001488965100524,66.16316475094416
6.675057152,1.001580094352184,66.00808945724188
6.677345792,1.0015713658425285,65.85241877430127
6.67963392,1.00146336590942,65.69759957473933
6.681922048,1.0012629917337432,65.54501715435839
6.684210688,1.0009826680917167,65.39590523433915
6.686498816,1.0006401231007986,65.25131922994703
6.688786944,1.0002571687658057,65.11202152467867
6.691075584,0.9998578069708045,64.97840231989247
6.693363712,0.999467442077161,64.85055392566953
6.695652352,0.9991109359619468,64.72814538573307
6.69794048,0.998810923716024,64.61056127180365
6.700228608,0.998586591181022,64.49677330398701
6.702517248,0.9984522582192475,64.38566480407894
6.704805376,0.9984163602209416,64.2757797097572
6.707094016,0.9984814252136219,64.16571340077226
6.709382144,0.9986433910589443,64.05401022249977
6.711670272,0.9988918678887498,63.93931089449914
6.713958912,0.9992112250114956,63.82047013747481
6.71624704,0.9995810671617068,63.69665743804241
6.71853568,0.9999779034107901,63.567239992023836
6.720823808,1.0003766786822619,63.43204350967632
6.723111936,1.0007519563678968,63.2912422473643
6.725400576,1.001080045498679,63.14531150445027
6.727688704,1.0013401610404125,62.9951665424238
6.729977344,1.001515758020706,62.841830445145284
6.732265472,1.0015958183223042,62.68664726946764
6.7345536,1.0015751232740875,62.531047853804175
6.73684224,1.0014548285998595,62.376467841978034
6.739130368,1.001242630856599,62.22429940538024
6.741419008,1.0009518502980919,62.07577263337764
6.743707136,1.0006007616534582,61.93189972934846
6.745995264,1.0002116682147117,61.79340344418612
6.748283904,0.9998091858237702,61.66067891681082
6.750572032,0.9994186709610504,61.53371690225445
6.75286016,0.9990651343085656,61.41220369107175
6.7551488,0.9987710773643368,61.29540252840478
6.757436928,0.9985551356995568,61.18234173919215
6.759725568,0.9984311323034334,61.07177903006287
6.762013696,0.9984071122451248,60.962323646310644
6.764301824,0.9984845836980328,60.852471987378046
6.766590464,0.9986587283524045,60.7408095687585
6.768878592,0.9989184839567362,60.6259784046359
6.771167232,0.9992473066097562,60.50686787461869
6.77345536,0.9996244560128176,60.382616977686276
6.775743488,1.0000258049040234,60.252705359311484
6.778032128,1.0004259845324495,60.11697661602207
6.780320256,1.0007996677927917,59.975630827943235
6.782608896,1.0011231852696665,59.829211761437044
6.784897024,1.0013758712846106,59.67862854988118
6.787185152,1.0015418994837788,59.52501621846221
6.789473792,1.0016105943574585,59.369682841814836
6.79176192,1.0015776065273698,59.21411646598451
6.79405056,1.001444954868775,59.0597241625185
6.796338688,1.001220941874432,58.90791446813317
6.798626816,1.0009197273011068,58.75992079122904
6.800915456,1.000560300660169,58.61670459881766
6.803203584,1.0001653545106404,58.478992378732066
6.805492224,0.9997598557371398,58.34708391399702
6.807780352,0.99936963995517,58.22097125699153
6.81006848,0.9990194314299988,58.10026025287843
6.81235712,0.9987315154137365,57.984218565893926
6.814645248,0.9985243802879148,57.871798789795044
6.816933888,0.9984110671889226,57.761732151962995
6.819222016,0.9983991399882134,57.65258857692901
6.821510144,0.9984890970608701,57.54289440828255
6.823798784,0.9986755653910591,57.43116939608303
6.826086912,0.9989464801391732,57.31613803600573
6.82837504,0.9992847268197672,57.196653802568704
6.83066368,0.9996688901748336,57.07189935028912
6.832951808,1.0000745349096738,56.94141602224518
6.835240448,1.0004758908347688,56.805059439736105
6.837528576,1.000847587347941,56.66308861876521
6.839816704,1.00116601618562,56.516124947486844
6.842105344,1.0014109923079493,56.36506278929173
6.844393472,1.0015670667441454,56.2110874534406
6.846682112,1.0016241813367779,56.055567468378335
6.84897024,1.001578833937654,55.89996278026318
6.851258368,1.001433589948625,55.74573078570386
6.853547008,1.0011978653912417,55.594243243064746
6.855835136,1.0008862988457523,55.44674391259905
6.858123776,1.0005185949356163,55.30414162842407
6.860411904,1.0001179980520083,55.167140306887
6.862700032,0.9997099853418987,55.03600632283263
6.864988672,0.9993202951048733,54.910689139077704
6.8672768,0.998973804569608,54.79073788988209
6.86956544,0.9986925466823628,54.675370429447405
6.871853568,0.9984944719267399,54.56349753439324
6.874141696,0.9983921660672587,54.45383824599414
6.876430336,0.9983924069462313,54.3449487508293
6.878718464,0.9984951134881949,54.235294064068256
6.881007104,0.9986937776579268,54.12344029057353
6.883295232,0.9989758489819466,54.008102526409296
6.88558336,0.9993234073614252,53.88817500975733
6.887872,0.9997144338312123,53.76285816670437
6.890160128,1.0001239435135911,53.63171305749242
6.892448768,1.000526153457383,53.49466286071589
6.894736896,1.0008954616109549,53.35201784638174
6.897025024,1.0012085157060524,53.20441654785173
6.899313664,1.0014453579529818,53.05282320229921
6.901601792,1.0015910951202935,52.89844741490895
6.90388992,1.0016365132364926,52.742696684812564
6.90617856,1.0015784277234283,52.58702793278465
6.908466688,1.0014207216464615,52.43287530908992
6.910755328,1.001173091189174,52.2817004424198
6.913043456,1.000851330980177,52.134621681392105
6.915331584,1.0004755994642447,51.992596921963134
6.917620224,1.0000697257492983,51.85625389640764
6.919908352,0.9996593425181359,51.72585089154254
6.922196992,0.9992706080147518,51.60125325422475
6.92448512,0.9989281730752082,51.48200115925123
6.926773248,0.9986539325670125,51.367247050048164
6.929061888,0.998465247766457,51.25585673996694
6.931350016,0.9983743519547832,51.14654426426855
6.933638656,0.998386911569609,51.037793351226334
6.935926784,0.9985024715154176,50.92812981360066
6.938214912,0.9987134532241002,50.81605983175367
