freq,mag,phase
6.0,1.0007250057967525,11.500664548994283
6.006589952,1.0006201552108875,11.296354241508602
6.013179392,1.000480221938837,11.093704883928245
6.019769344,1.0003132133278014,10.89314563299558
6.026359296,1.0001284901361724,10.694929371990161
6.032948736,0.9999363735401009,10.499238468469658
6.039538688,0.9997478064747896,10.306185770036992
6.04612864,0.9995734650471294,10.115580405953239
6.05271808,0.9994231982457712,9.927150348396598
6.059308032,0.9993055613695827,9.740519299353398
6.065897984,0.9992272965017731,9.555224454365499
6.072487424,0.9991927766811397,9.370660500933395
6.079077376,0.9992040761802531,9.186259863904285
6.085667328,0.9992605194843243,9.001309636302532
6.092256768,0.9993589934863232,8.815316922308275
6.09884672,0.9994937921083465,8.627674815021773
6.105436672,0.9996575537665038,8.437915805460358
6.112026112,0.9998408890513947,8.245720623529532
6.118616064,1.0000334360973786,8.050970057024202
6.125206016,1.0002242641768313,7.853510700373171
6.131795968,1.0004027293841555,7.6535144532501675
6.138385408,1.00055845263573,7.451170399325305
6.14497536,1.0006830015518415,7.246850578886559
6.151565312,1.0007689035915655,7.041099819717822
6.158154752,1.0008116533829379,6.834390133707505
6.164744704,1.0008086335535604,6.627380797035254
6.171334656,1.0007598152246426,6.420697620622651
6.177924096,1.0006682650770102,6.214913583740083
6.184514048,1.0005388596742903,6.010625826784321
6.191104,1.0003790807358448,5.808267386429846
6.19769344,1.0001977022711706,5.608220893074089
6.204283392,1.000005224921448,5.410672618485875
6.210873344,0.9998122641487592,5.2157276599079445
6.217462784,0.9996299017604122,5.0233875202557146
6.224052736,0.9994684560294711,4.8333029814545245
6.230642688,0.9993369975394797,4.645245752317106
6.237232128,0.9992431545030885,4.458682394028784
6.24382208,0.999192102663228,4.273078670692072
6.250412032,0.9991868487427629,4.087837926829313
6.257001472,0.999227821900987,3.9023432969574445
6.263591424,0.9993126171501976,3.7159346745645867
6.270181376,0.9994364515070282,3.528040178294652
6.276770816,0.9995923035081173,3.3382164473970577
6.283360768,0.9997714705025933,3.1460169158832922
6.28995072,0.9999638777559586,2.9512636313360265
6.29654016,1.0001584615643289,2.753812981828215
6.303130112,1.0003442594624918,2.55374145800432
6.309720064,1.0005109201707247,2.3511529903133592
6.316309504,1.0006489392458924,2.14646436001043
6.322899456,1.0007503598392238,1.9401476173954335
6.329489408,1.0008095710074008,1.7325900747099376
6.336078848,1.0008232464591045,1.5245557110460184
6.3426688,1.000790293837923,1.3166221369497482
6.349258752,1.0007130538830011,1.1093845859665041
6.355848192,1.0005952625389165,0.9034380732695445
6.362438144,1.0004439432828802,0.6992975308397338
6.369028096,1.0002675242859413,0.4973784039126621
6.375618048,1.000075743219974,0.2978827094773121
6.382207488,0.999879724546738,0.10109509607162186
6.38879744,0.9996904233330661,-0.0931499563314633
6.395387392,0.9995185943259088,-0.284929801570415
6.401976832,0.9993739230081761,-0.4745843756834427
6.408566784,0.9992648073083671,-0.6624427240358978
6.415156736,0.9991970920108093,-0.8492484707964046
6.421746176,0.999174955279884,-1.0353898690877488
6.428336128,0.9991996859744461,-1.2215743326741035
6.43492608,0.9992697955288785,-1.4084635626447004
6.44151552,0.9993813634199317,-1.5966753548700814
6.448105472,0.9995282031711665,-1.7866719768941717
6.454695424,0.9997018381167537,-1.978891912808054
6.461284864,0.9998926280019856,-2.1736590070125597
6.467874816,1.0000896373664392,-2.3711285930896904
6.474464768,1.0002818877932322,-2.571275623081635
6.481054208,1.0004584790322593,-2.7740336576621725
6.48764416,1.000609320471275,-2.979065189189299
6.494234112,1.0007259004319293,-3.185967206810063
6.500823552,1.0008016721630202,-3.394204801536436
6.507413504,1.000832188889908,-3.603218898657302
6.514003456,1.0008159053088115,-3.812402987206081
6.520592896,1.0007536003764772,-4.0210812773647335
6.527182848,1.0006487273058362,-4.228655097551472
6.5337728,1.0005072160780553,-4.434567204037903
6.54036224,1.0003369084216431,-4.6383954830613305
6.546952192,1.0001475176489318,-4.8398334359760495
6.553542144,0.9999499007556586,-5.038617761444838
6.560131584,0.9997548061631765,-5.23474463894334
6.566721536,0.9995736527758148,-5.428350266121755
6.573311488,0.9994164685851283,-5.619636641253064
6.579900928,0.9992922610052973,-5.809037319887075
6.58649088,0.9992081590885595,-5.997041647105905
6.593080832,0.9991689702138479,-6.184239803964715
6.599670272,0.9991768029601678,-6.371240216630285
6.606260224,0.9992313776797327,-6.558704707309563
6.612850176,0.9993294940134175,-6.747288394688439
6.619439616,0.9994658884812283,-6.937508903694751
6.626029568,0.9996326684555812,-7.129836459722584
6.63261952,0.9998203719852324,-7.324638217328974
6.639209472,1.0000185633095273,-7.522111590050995
6.645798912,1.000215956298304,-7.7223333955709395
6.652388864,1.0004011841798386,-7.925271085572429
6.658978816,1.0005642069975424,-8.130589152031225
6.665568256,1.0006954211136223,-8.337973962087036
6.672158208,1.0007876148695845,-8.546958715082415
6.67874816,1.0008354380573894,-8.756922626661929
6.6853376,1.0008361772342842,-8.967235922258412
6.691927552,1.0007897755310318,-9.177308348486841
6.698517504,1.0006987975033064,-9.386506913267114
6.705106944,1.000568400785289,-9.594188411023453
6.711696896,1.0004058405947456,-9.799933423794378
6.718286848,1.0002203072113756,-10.003329865733711
6.724876288,1.000022100223092,-10.20414963672613
6.73146624,0.9998226566413747,-10.402262199610236
6.738056192,0.9996331433984152,-10.597750030185761
6.744645632,0.9994643633387995,-10.790843272693197
6.751235584,0.9993257474221152,-10.981825127553977
6.757825536,0.9992253636656979,-11.171172808570606
6.764414976,0.999168817315953,-11.359541791038643
6.771004928,0.9991592182336226,-11.547437642334362
6.77759488,0.9991974574780231,-11.735592275247642
6.78418432,0.999281277330273,-11.924645976010638
6.790774272,0.9994057614292553,-12.115141230847906
6.797364224,0.9995641416986359,-12.307631910624048
6.803953664,0.9997474405945234,-12.50248056546307
6.810543616,0.9999452874165008,-12.700004533997042
6.817133568,1.0001463783040105,-12.900305005083194
6.823723008,1.0003394853223146,-13.10336721068876
6.83031296,1.0005136768978085,-13.308959974426912
6.836902912,1.0006589185376438,-13.516781087379236
6.843492352,1.0007673635652037,-13.72640568460104
6.850082304,1.0008326096254467,-13.937264118967386
6.856672256,1.000850847495095,-14.148717177578654
6.863261696,1.0008211444800137,-14.36017709541206
6.869851648,1.000745179544542,-14.570893240977265
6.8764416,1.0006270650332956,-14.780362931182838
6.883031552,1.000473565205247,-14.988054471769168
6.889620992,1.0002931572906286,-15.19345497289925
6.896210944,1.0000963071770714,-15.39631670152179
6.902800896,0.9998936419031289,-15.596478558580287
6.909390336,0.9996970961720634,-15.793967049901443
6.915980288,0.9995174969662525,-15.988909913126932
6.92257024,0.9993651399056356,-16.181608566895747
6.92915968,0.9992487267896598,-16.372479357486228
6.935749632,0.9991747972404906,-16.56208333546615
6.942339584,0.9991475360481188,-16.751012778693557
6.948929024,0.999168636411733,-16.939983348908235
6.955518976,0.9992368379286565,-17.12956961071259
6.962108928,0.9993484998989999,-17.32040073555679
6.968698368,0.9994970147676914,-17.513132285892855
6.97528832,0.9996744483915136,-17.70811251807012
6.981878272,0.9998703119144721,-17.90567072825988
6.988467712,1.0000739252967223,-18.10600737448577
6.995057664,1.0002735030003373,-18.309184327437077
7.001647616,1.0004579091390204,-18.51504699287545
7.008237056,1.0006167512871353,-18.7232624399131
7.014827008,1.0007409572325714,-18.93347784322779
7.02141696,1.0008233904968453,-19.145162260930636
7.0280064,1.0008595505134668,-19.35769777964358
7.034596352,1.0008473514538174,-19.570427421662753
7.041186304,1.000787258577086,-19.782766964757133
7.047775744,1.0006827996384513,-19.99397924690563
7.054365696,1.0005398290070664,-20.203537790888024
7.060955648,1.0003661186908825,-20.411001478732604
7.067545088,1.0001717369946186,-20.615968544090858
7.07413504,0.9999675828987585,-20.81825456219798
7.080724992,0.9997652690498002,-21.017797329881148
7.087314432,0.9995759157208076,-21.214689765954287
7.093904384,0.999410607757169,-21.40918448955323
7.100494336,0.9992784287359047,-21.601671946607407
7.107083776,0.9991872642047666,-21.792663237602348
7.113673728,0.999141820683639,-21.982788218379916
7.12026368,0.9991451877178275,-22.17261507032309
7.126853632,0.9991970287120466,-22.36286020754498
7.133443072,0.999294453687861,-22.554193879446345
7.140033024,0.9994319198213866,-22.747168559043626
7.146622976,0.9996016987727182,-22.94228910577897
7.153212416,0.9997942226233151,-23.139941181857406
7.159802368,0.9999988907268411,-23.34036697830881
7.16639232,1.0002035281116926,-23.54364374542676
7.17298176,1.000397234894884,-23.749665036055937
7.179571712,1.000568505141785,-23.958283376981488
7.186161664,1.0007080584581227,-24.169065985059376
7.192751104,1.000807808358437,-24.381496906013407
7.199341056,1.0008620552632277,-24.595046853395335
7.205931008,1.0008678815233882,-24.80909026731651
7.212520448,1.000824708865602,-25.02289225107052
7.2191104,1.0007350064707863,-25.23580813546381
7.225700352,1.0006037266017076,-25.447303612574256
7.232289792,1.000438558928889,-25.656796337753928
7.238879744,1.0002481992041325,-25.863903605610776
7.245469696,1.0000439192813393,-26.068376523353926
7.252059136,0.9998370322103208,-26.270037314156088
7.258649088,0.9996391910075545,-26.468995058999536
7.26523904,0.9994616300618842,-26.665396932405912
7.27182848,0.9993145794209104,-26.859603355058283
7.278418432,0.9992062203972175,-27.05209510018702
7.285008384,0.9991426648730923,-27.243469332323798
7.291597824,0.9991276751320844,-27.434317998762403
7.298187776,0.999162167905226,-27.62535273786764
7.304777728,0.9992440988973316,-27.817222535276372
7.311367168,0.9993691287351394,-28.010553581563148
7.31795712,0.9995298319853229,-28.205925108473618
7.324547072,0.9997175065457349,-28.403670332718118
7.331136512,0.9999213974384271,-28.604139318186398
7.337726464,1.0001299548086096,-28.807541021281256
7.344316416,1.0003314682067248,-29.013761073817093
7.350905856,1.0005144731562585,-29.222694425303114
7.357495808,1.0006687107676684,-29.433953800546316
7.36408576,1.0007854698839767,-29.64710592476827
7.3706752,1.0008580095817143,-29.86161802495826
7.377265152,1.00088224767356,-30.076859199740362
7.383855104,1.0008569099340996,-30.292095076341628
7.390445056,1.0007830537472928,-30.50675075032507
7.397034496,1.0006650564864155,-30.720123979398043
7.403624448,1.0005094897345912,-30.931669201844088
7.4102144,1.0003250596776265,-31.14097108065652
7.41680384,1.0001222226467752,-31.347649358503848
7.423393792,0.9999123423031608,-31.551531647749268
7.429983744,0.9997072754186898,-31.752601748184684
7.436573184,0.9995185116908124,-31.951032157286807
7.443163136,0.999357018389357,-32.14707555296034
7.449753088,0.9992318000522548,-32.34120777483025
7.456342528,0.9991500474057803,-32.53398502258091
7.46293248,0.9991161710767701,-32.72597640262306
7.469522432,0.9991325877295008,-32.917879903380275
7.476111872,0.9991981467933597,-33.11037619596504
7.482701824,0.9993091808103827,-33.30416160774153
7.489291776,0.9994593918906207,-33.499741816946056
7.495881216,0.999640459314206,-33.697663773713785
7.502471168,0.9998420886809095,-33.89826948831039
7.50906112,1.0000528830425557,-34.10174064894652
7.51565056,1.0002611273088216,-34.30813380101663
7.522240512,1.0004548128895454,-34.51730820734703
7.528830464,1.0006230291998428,-34.7290350072018
7.535419904,1.0007562711766125,-34.94284543994232
7.542009856,1.0008472179904049,-35.158253662582666
7.548599808,1.0008902711356693,-35.37464715220517
7.555189248,1.0008832213694927,-35.59132778915296
7.5617792,1.0008265621027979,-35.80761905599017
7.568369152,1.0007231192379118,-36.0228910330904
7.574958592,1.000578943138557,-36.236470004613416
7.581548544,1.0004018556890901,-36.44790785710112
7.588138496,1.0002020476014948,-36.656860153084786
7.594727936,0.9999906373737759,-36.86301070160743
7.601317888,0.9997796870121937,-37.06631470649449
7.60790784,0.9995810310897001,-37.26684716177492
7.61449728,0.9994059455711118,-37.46487141057292
7.621087232,0.9992642496023825,-37.66073562797206
7.627677184,0.9991642192256237,-37.855022289279745
7.634267136,0.9991114652310862,-38.04829070584389
7.640856576,0.9991090244605,-38.24117510680561
7.647446528,0.999156920895482,-38.434447146412424
7.65403648,0.9992527210153138,-38.62875431682196
7.66062592,0.999391018392065,-38.82469694602159
7.667215872,0.9995638939368818,-39.022804678679044
7.673805824,0.9997616485139474,-39.22352151742856
7.680395264,0.9999732574398,-39.42710131495358
7.686985216,1.000186595385889,-39.633618395055215
7.693575168,1.0003896248721789,-39.84303869438871
7.700164608,1.0005710208416607,-40.05517497586746
7.70675456,1.0007204009397028,-40.26957890568811
7.713344512,1.0008292997636514,-40.485811454748294
7.719933952,1.0008915900709536,-40.70331196557657
7.726523904,1.0009037747985334,-40.921329138073716
7.733113856,1.0008650957462282,-41.139235297822424
7.739703296,1.0007774297986043,-41.35634837665352
7.746293248,1.0006459936667187,-41.571964943151045
7.7528832,1.000477936345176,-41.78562487933779
7.75947264,1.0002829220427458,-41.99684002911062
7.766062592,1.0000717854442667,-42.20532707977167
7.772652544,0.9998563482332997,-42.410899633760145
7.779241984,0.9996488230929091,-42.613695741206676
7.785831936,0.9994612412755902,-42.81373419464251
7.792421888,0.9993037995145526,-43.01149688394481
7.799011328,0.9991856919340362,-43.20743431754438
7.80560128,0.9991136240807061,-43.40205137558489
7.812191232,0.9990916649824177,-43.596093252718624
7.818780672,0.999121092152868,-43.790242974375985
7.825370624,0.9992004928580799,-43.98514573132907
7.831960576,0.9993250947605599,-44.18151947864906
7.838550016,0.9994881054740243,-44.3798881811951
7.845139968,0.9996803399730804,-44.58075528866587
7.85172992,0.9998910303099614,-44.78442044573916
7.85831936,1.0001080173834749,-44.99107814266635
7.864909312,1.0003192713493174,-45.200705840868146
7.871499264,1.0005127070160134,-45.41315864222728
7.878089216,1.0006775284691776,-45.62814722161944
7.884678656,1.0008042450423718,-45.845169182942854
7.891268608,1.0008859153262757,-46.06367536535153
7.89785856,1.0009177167070265,-46.28298783215415
7.904448,1.0008977990323418,-46.502421425892486
7.911037952,1.0008273949129518,-46.7213378215803
7.917627904,1.0007102149857563,-46.93901979666245
7.924217344,1.0005528811362288,-47.15485066514234
7.930807296,1.0003642909490318,-47.368372894263665
7.937397248,1.0001550162257842,-47.579200390806086
7.943986688,0.9999367809182516,-47.7872142608179
7.95057664,0.9997218692651427,-47.992232770761845
7.957166592,0.9995227278301829,-48.194486535593256
7.963756032,0.9993502741817847,-48.39424764504571
7.970345984,0.9992144299777234,-48.591921658099196
7.976935936,0.9991229036459354,-48.78809479218744
7.983525376,0.9990811336048889,-48.98337670788824
7.990115328,0.9990913115113296,-49.17849396486051
7.99670528,0.9991529284710421,-49.374137986998115
8.00329472,0.9992625467791478,-49.57099268472871
8.009884672,0.9994141739924993,-49.76967469852891
8.016474624,0.9995990756408536,-49.97076337614265
8.023064064,0.9998069363979794,-50.174552565838965
8.029654016,1.0000259427891993,-50.38133559320999
8.036243968,1.0002437704173672,-50.591166290629296
8.042833408,1.0004482395652523,-50.80393842743857
8.04942336,1.000627764407516,-51.01938306527452
8.056013312,1.0007720405214746,-51.23708069251572
8.062602752,1.0008729149507374,-51.45654150162372
8.069192704,1.000924819813685,-51.6770760439847
8.075782656,1.0009246280098854,-51.89801871433283
8.082372096,1.0008724532535758,-52.11869951568669
8.088962048,1.0007710144325321,-52.33834739811787
8.095552,1.000625908892597,-52.55638401876239
8.10214144,1.0004455120752516,-52.77220729562583
8.108731392,1.000239792647657,-52.98548781485257
8.115321344,1.000020471765994,-53.19588872091459
8.121910784,0.9997996765547207,-53.40333427225055
8.128500736,0.9995901855955615,-53.60787666156443
8.135090688,0.9994035875211165,-53.80975658118207
8.14168064,0.9992505530589442,-54.009312443697176
8.14827008,0.9991398269840335,-54.207128353400286
8.154860032,0.999077757260933,-54.403803719301614
8.161449984,0.9990678005083469,-54.59998977734589
8.168039424,0.9991105199153013,-54.79650031897915
8.174629376,0.9992037284917187,-54.99395496122757
8.181219328,0.9993421060745917,-55.193060037093254
8.187808768,0.9995180431137306,-55.3943572673403
8.19439872,0.9997213470679611,-55.59829516299377
8.200988672,0.9999407599499583,-55.80519287766446
8.207578112,1.0001637942693602,-56.01516688107616
8.214168064,1.000377891203837,-56.22817557040389
8.220758016,1.0005709651019281,-56.44406717681536
8.227347456,1.0007320576015526,-56.662413834050476
8.233937408,1.0008521702300637,-56.882716580372765
8.24052736,1.0009244446425105,-57.104447557921965
8.2471168,1.0009447424956146,-57.3268301561488
8.253706752,1.0009117245943169,-57.54918947972564
8.260296704,1.000827374835312,-57.77078900354824
8.266886144,1.0006963921568899,-57.99100257380084
8.273476096,1.0005258934077588,-58.20918669089098
8.280066048,1.00032573009695,-58.42488916688163
8.286655488,1.0001068679034315,-58.63777532102089
8.29324544,0.9998819255656693,-58.84771206466782
8.299835392,0.9996635248661139,-59.05461201010095
8.306424832,0.9994636620838615,-59.2587100329197
8.313014784,0.9992940837793682,-59.460315932190746
8.319604736,0.9991644058474907,-59.65991352570842
8.326194176,0.9990817593687035,-59.85809418305173
8.332784128,0.9990510514926999,-60.05554324071087
8.33937408,0.9990739795802284,-60.25297144131921
8.34596352,0.9991493497459365,-60.45112794761216
8.352553472,0.9992730032387548,-60.65070013266853
8.359143424,0.9994379692323161,-60.85227088937734
8.365732864,0.999634894398432,-61.056443348713344
8.372322816,0.9998528759883825,-61.26346603850639
8.378912768,1.000079384770999,-61.47356066111695
8.38550272,1.0003015880068005,-61.686804309680674
8.39209216,1.000507396904176,-61.90304196377563
8.398682112,1.0006847918342763,-62.121943555188686
8.405272064,1.000823699578544,-62.34306443847562
8.411861504,1.0009163221318214,-62.56584679923292
8.418451456,1.0009576749607405,-62.789574729228995
8.425041408,1.0009449144384504,-63.013590282378836
8.431630848,1.0008790189048515,-63.23710937894755
8.4382208,1.000763534220125,-63.45944749141727
8.444810752,1.0006050058828464,-63.67997048201879
8.451400192,1.0004120610779605,-63.89814640052942
8.457990144,1.0001957818551805,-64.11361316731204
8.464580096,0.9999682108906377,-64.32604616996794
8.471169536,0.9997422683398483,-64.53541584457089
8.477759488,0.9995307002033019,-64.74184676855361
8.48434944,0.9993454205759144,-64.94561639230204
8.49093888,0.9991969976533034,-65.14712825720608
8.497528832,0.9990937482278807,-65.34696593175451
8.504118784,0.9990417294373818,-65.54577925572718
8.510708224,0.9990439459234998,-65.74428988740968
8.517298176,0.9991001725879127,-65.94324409117789
8.523888128,0.9992074458610681,-66.14338678649088
8.530477568,0.9993598035928662,-66.34531939944316
8.53706752,0.9995485744595436,-66.54968237947156
8.543657472,0.9997630044066511,-66.75685137170731
8.550246912,0.9999911538547639,-66.96707869755065
8.556836864,1.0002202012158985,-67.18053663642328
8.563426816,1.0004371750081305,-67.39707255878375
8.570016256,1.0006296844959868,-67.61646959678413
8.576606208,1.0007870279923312,-67.83830518159563
8.58319616,1.0009003452575944,-68.06209084843017
8.5897856,1.0009629173309964,-68.28709403812839
8.596375552,1.0009714628504118,-68.51269306778794
8.602964992,1.0009253329951944,-68.73804475972537
8.609555456,1.0008268987086257,-68.96250612366278
8.616144896,1.0006819774639537,-69.18534623213468
8.622734336,1.0004982617704625,-69.40599676832463
8.6293248,1.0002863835829976,-69.62399291886581
8.63591424,1.0000580814103766,-69.83903453449852
