freq,mag,phase
6.0,1.000332831558659,99.72467190174868
6.002285568,1.00077567917976,99.57762914570631
6.004571648,1.0011694978615246,99.42452323798737
6.006857216,1.0014896031243297,99.26631314802668
6.009142784,1.001715795628589,99.10417403680259
6.011428352,1.001833650960672,98.93955648051146
6.013714432,1.0018357851087032,98.77411098971804
6.016,1.0017220019564264,98.609500569952
6.018285568,1.001499395850594,98.44735690375876
6.020571648,1.0011820303973233,98.28915563582
6.022857216,1.0007898751250377,98.13611320564837
6.025142784,1.0003476633024613,97.98915892884929
6.027428352,0.9998833357823339,97.84883050970382
6.029714432,0.999426497348345,97.71524025513455
6.032,0.9990060284517304,97.58806560245009
6.034285568,0.9986486381101686,97.46661254840127
6.036571648,0.9983773073623642,97.34978796689113
6.038857216,0.9982090578980266,97.23622930644389
6.041142784,0.9981549262679736,97.12430212855277
6.043428352,0.9982182298550569,97.01239303427592
6.045714432,0.9983950199985703,96.89872684569742
6.048,0.9986742949717166,96.78179887767925
6.050285568,0.9990380724562629,96.66018922473283
6.052571648,0.9994632743930936,96.5328708536194
6.054857216,0.9999229393401934,96.3991490074667
6.057142784,1.0003878561291346,96.25872293905913
6.059428352,1.0008285533203656,96.11175992131547
6.061714432,1.0012172225495766,95.95882121436557
6.064,1.0015291390306647,95.80080666401595
6.066285568,1.0017445358750654,95.6390215973813
6.068571648,1.0018499887400976,95.47493331800482
6.070857216,1.0018384048836682,95.31020478784252
6.073142784,1.0017108557446488,95.14649584628633
6.075428352,1.0014751751093895,94.98545453414707
6.077714432,1.0011461013091338,94.82852863942786
6.08,1.0007445290245203,94.67690526109718
6.082285568,1.0002958434759779,94.53150611046517
6.084571648,0.9998283379491724,94.3927754829089
6.086857216,0.9993715563619661,94.26083251065592
6.089142784,0.99895485241914,94.1352639599157
6.091428352,0.9986044577539273,94.01532874484806
6.093714432,0.9983427747140653,93.89991976474195
6.096,0.9981865314158198,93.78757428506692
6.098285568,0.9981457221151389,93.67670984310297
6.100571648,0.9982231387396011,93.56562113304972
6.102857216,0.9984136206730048,93.45259914979758
6.105142784,0.9987054329710082,93.336103371959
6.107428352,0.9990797362711755,93.21478322927258
6.109714432,0.9995127966504445,93.08762006737685
6.112,0.9999771347602859,92.9539236925503
6.114285568,1.0004434733379792,92.8135012269702
6.116571648,1.0008819783613228,92.66653911673168
6.118857216,1.0012651153511238,92.51362495662922
6.121142784,1.0015682966427837,92.35579456663675
6.123428352,1.0017726534648714,92.19431429278639
6.125714432,1.0018650235862618,92.03068944983656
6.128,1.0018396902751399,91.86660729696925
6.130285568,1.001698104185169,91.70374228430427
6.132571648,1.0014491328741295,91.54377807273478
6.134857216,1.0011084410250313,91.38805771028773
6.137142784,1.0006976029117536,91.23782073805998
6.139428352,1.0002426084516571,91.0938839426871
6.141714432,0.9997721587452345,90.95674676163786
6.144,0.9993160127366081,90.8263293844491
6.146285568,0.9989033926969393,90.70230941111681
6.148571648,0.9985603509601525,90.58381656275712
6.150857216,0.9983088884961723,90.46972694474964
6.153142784,0.998165121427471,90.35851889082069
6.155428352,0.998138050867586,90.24863782630854
6.157714432,0.9982296703899626,90.1383128118044
6.16,0.9984341084467936,90.02580700366441
6.162285568,0.9987383381634479,89.90966341831358
6.164571648,0.9991230485056211,89.78850862352671
6.166857216,0.999563926911952,89.66135992259389
6.169142784,1.0000327938401814,89.52763105483054
6.171428352,1.0004999858210752,89.38709871968372
6.173714432,1.0009357347099415,89.24007374660917
6.176,1.0013127407242424,89.08713885538415
6.178285568,1.001606799898597,88.92937356808824
6.180571648,1.0017996188125577,88.76811999021959
6.182857216,1.0018786405926703,88.60492241615017
6.185142784,1.0018390560958028,88.44143155028287
6.187428352,1.001683301489325,88.2793970740151
6.189714432,1.0014210743470235,88.12040140346927
6.192,1.0010689044769299,87.96587398760994
6.194285568,1.0006489121824749,87.81698378864851
6.196571648,1.0001879869893235,87.6744852423223
6.198857216,0.9997148324524372,87.5388290731174
6.201142784,0.9992598556099673,87.40994515522425
6.203428352,0.9988518114464355,87.28738805877826
6.205714432,0.9985167378231363,87.17026128718541
6.208,0.9982758914017612,87.05739687753179
6.210285568,0.9981448317924684,86.94728017735007
6.212571648,0.998131983844036,86.83822255283137
6.214857216,0.9982381224129211,86.72853671152987
6.217142784,0.9984563921022572,86.6165141261004
6.219428352,0.998773221867851,86.50058378003169
6.221714432,0.9991683758161484,86.37952620476904
6.224,0.9996165943995112,86.25229979485519
6.226285568,1.0000896091065914,86.1184413036828
6.228571648,1.000557288614082,85.97772429971572
6.230857216,1.0009900092636448,85.83051133509237
6.233142784,1.0013604179990485,85.67749077964521
6.235428352,1.001644959344831,85.51976321616881
6.237714432,1.0018256481509284,85.35865018227534
6.24,1.001891084721905,85.1958139225755
6.242285568,1.0018370185316898,85.03290711335084
6.244571648,1.0016668361662462,84.87161055625366
6.246857216,1.0013912906518412,84.71354753128814
6.249142784,1.0010275984241799,84.56016628359997
6.251428352,1.000598767338587,84.4125786988084
6.253714432,1.0001320433286072,84.27148061031987
6.256,0.9996567974435804,84.13725565350865
6.258285568,0.9992031814347412,84.00980114706063
6.260571648,0.9988003161848698,83.88861776661602
6.262857216,0.9984735099519367,83.77282328107131
6.265142784,0.9982438439906117,83.661081856951
6.267428352,0.9981260194236085,83.55193396583978
6.269714432,0.9981274980599193,83.4436867297167
6.272,0.9982482436425735,83.33452413106171
6.274285568,0.9984806478579394,83.22284059862362
6.276571648,0.9988098790867023,83.10706013713177
6.278857216,0.9992151050684708,82.98596424074891
6.281142784,0.9996707004561913,82.85860903321846
6.283428352,1.0001473068268498,82.72447688736003
6.285714432,1.00061514440669,82.58351591935985
6.288,1.0010443177071686,82.43604154721761
6.290285568,1.00140765303259,82.28287032110903
6.292571648,1.0016821452265154,82.12509077505082
6.294857216,1.0018503571427602,81.9640992988453
6.297142784,1.0019017942015807,81.80157214666258
6.299428352,1.0018330091060408,81.63911827844105
6.301714432,1.0016483760076424,81.4785711120632
6.304,1.0013594699630004,81.32146514783837
6.306285568,1.0009843681136532,81.1691542334024
6.308571648,1.0005469420229411,81.0227677489853
6.310857216,1.000074756444551,80.88299884852171
6.313142784,0.9995977691051632,80.7501557739543
6.315428352,0.9991461268729455,80.62411821692022
6.317714432,0.9987488387664277,80.50428012505647
6.32,0.9984309038526316,80.3896667375466
6.322285568,0.9982128040045088,80.27899630893874
6.324571648,0.998108501124829,80.17073156249077
6.326857216,0.9981245893077233,80.06312627463419
6.329142784,0.9982603034946208,79.95446428054144
6.331428352,0.9985067425156652,79.84299476680182
6.333714432,0.9988485361161851,79.72726989232868
6.336,0.9992638565354522,79.60605095344837
6.338285568,0.9997261123003748,79.47844922906599
6.340571648,1.000206216142836,79.34399141290119
6.342857216,1.0006735694695643,79.20268066152802
6.345142784,1.0010987137499658,79.05491507985805
6.347428352,1.001454498472478,78.90148951967913
6.349714432,1.0017184559896444,78.74358093380796
6.352,1.0018739398265273,78.58265600420404
6.354285568,1.0019110940974636,78.42036772712561
6.356571648,1.0018272779138075,78.25837929195143
6.358857216,1.0016280744184993,78.0985096516144
6.361142784,1.0013256913870963,77.94224803597454
6.363428352,1.0009393942843727,77.79099316371018
6.365714432,1.0004936033031624,77.64578580262922
6.368,1.000016298009758,77.50730829951037
6.370285568,0.999537902053913,77.37580379495697
6.372571648,0.9990887350039792,77.25107997446231
6.374857216,0.9986973789716302,77.13249220108553
6.377142784,0.9983887746349482,77.01903655632897
6.379428352,0.9981826836733504,76.90936020323038
6.381714432,0.9980923443058812,76.80188803160033
6.384,0.9981233709018051,76.69486986351517
6.386285568,0.998274061616821,76.58653065227458
6.388571648,0.9985347093432644,76.47521990411217
6.390857216,0.998888781913236,76.35944647863235
6.393142784,0.9993138606137877,76.23798369736312
6.395428352,0.9997828456131148,76.11004899705983
6.397714432,1.0002659798855404,75.97518544182974
6.4,1.0007325390107702,75.8334612131065
6.402285568,1.0011531077200633,75.68527514205893
6.404571648,1.001500839194583,75.53154915818119
6.406857216,1.0017538212538202,75.3734765245581
6.409142784,1.0018961956056902,75.21255825309056
6.411428352,1.0019186649864926,75.05045361602136
6.413714432,1.0018197296763132,74.88889750468485
6.416,1.001605857180637,74.72964294282626
6.418285568,1.0012902373859969,74.57418981047071
6.420571648,1.0008928540181805,74.42397005518889
6.422857216,1.000438836401597,74.27988997823107
6.425142784,0.9999568205178844,74.14264075498289
6.427428352,0.9994774685526104,74.01238749028596
6.429714432,0.9990312836739856,73.88892848328713
6.432,0.9986464028274216,73.77151705898284
6.434285568,0.9983476374947079,73.65913569512769
6.436571648,0.9981539975104196,73.55035226730668
6.438857216,0.9980778047922414,73.443570134875
6.441142784,0.9981241081439772,73.3370332282704
6.443428352,0.9982898844118445,73.22895635263748
6.445714432,0.9985646593476101,73.11770154050514
6.448,0.9989310120663425,73.001771957812
6.450285568,0.9993656678906597,72.88001032028819
6.452571648,0.999840931648714,72.7516332727199
6.454857216,1.000326635887054,72.616271414337
6.457142784,1.0007919154423432,72.47403754998035
6.459428352,1.0012073747104127,72.32539607613857
6.461714432,1.0015466982302519,72.17127148004731
6.464,1.0017883823493936,72.0129648893438
6.466285568,1.0019170736427292,71.85201403481595
6.468571648,1.0019246094209162,71.69004954192928
6.470857216,1.0018104448683287,71.52888494522782
6.473142784,1.0015818054832533,71.3701924952947
6.475428352,1.0012528596028925,71.21554117082437
6.477714432,1.0008447007109036,71.0662344638016
6.48,1.0003827727396366,70.92326474289366
6.482285568,0.9998964820000876,70.7871862242663
6.484571648,0.9994165862087283,70.65816726931911
6.486857216,0.9989737533349247,70.53586670998313
6.489142784,0.9985960089754228,70.41956167887045
6.491428352,0.9983074733767051,70.3081729090576
6.493714432,0.998126576122782,70.20019978495904
6.496,0.998065042731361,70.09403711143563
6.498285568,0.9981266066736786,69.98789661629358
6.500571648,0.9983076734779629,69.87999296414866
6.502857216,0.9985966037512525,69.76865418208533
6.505142784,0.998975033530233,69.6524872592588
6.507428352,0.9994189103881682,69.53032803670077
6.509714432,0.9999000741830081,69.40141015274503
6.512,1.000387980968709,69.2654664149991
6.514285568,1.0008515439038475,69.12263478326301
6.516571648,1.0012615463770806,68.9734532574553
6.518857216,1.0015919709810401,68.81892133758112
6.521142784,1.0018217990066403,68.66033137355558
6.523428352,1.0019365683068786,68.49925615254527
6.525714432,1.0019288574926324,68.33741760549043
6.528,1.0017992361528136,68.17657031146592
6.530285568,1.001555764112976,68.01840686365074
6.532571648,1.0012137803509158,67.86449031595316
6.534857216,1.0007948223325587,67.716112793588
6.537142784,1.00032533553436,67.57419545906552
6.539428352,0.9998351289673469,67.43923277244873
6.541714432,0.9993551285295058,67.31134876362913
6.544,0.9989161672809411,67.19017092324874
6.546285568,0.9985458406629032,67.07493227317431
6.548571648,0.998268051061897,66.96442304804906
6.550857216,0.9981003587316675,66.85719446705723
6.553142784,0.9980536140311025,66.75153848135243
6.555428352,0.9981307934229237,66.64567025171739
6.557714432,0.9983272023113912,66.5378464344858
6.56,0.998630170274289,66.42635170232191
6.562285568,0.9990205908204722,66.30984045907357
6.564571648,0.9994734922375408,66.18717686977578
6.566857216,0.9999602964105259,66.0576583660456
6.569142784,1.0004498811787743,65.92105852192704
6.571428352,1.0009112364745558,65.77756377122662
6.573714432,1.0013152846795306,65.62777684277765
6.576,1.001636247390583,65.47274460042622
6.578285568,1.0018538382990083,65.31380966221691
6.580571648,1.0019543717339094,65.15258808337029
6.582857216,1.001931341303934,64.99079778276815
6.585142784,1.0017861120892506,64.83025003960407
6.587428352,1.001527810854901,64.672589798649
6.589714432,1.001172818186057,64.51934693396632
6.592,1.0007434426137232,64.37185412751317
6.594285568,1.0002667062988604,64.23090859352152
6.596571648,0.9997729451231543,64.09701728580285
6.598857216,0.9992934808827495,63.97021152322889
6.601142784,0.9988587031486057,63.850109395830714
6.603428352,0.9984964162104913,63.73583474349882
6.605714432,0.9982297491459426,63.62614071653246
6.608,0.998075566189497,63.51955633275059
6.610285568,0.9980439549013668,63.41432231307266
6.612571648,0.9981370249655452,63.30866731318276
6.614857216,0.9983487078906081,63.20080572126437
6.617142784,0.9986657121483385,63.08907020935871
6.619428352,0.9990678525462031,62.97209724521734
6.621714432,0.999529547087627,62.84883922492679
6.624,1.0000214689078502,62.71863290075888
6.626285568,1.0005122895598382,62.581284600008665
6.628571648,1.0009710751185072,62.437043656834476
6.630857216,1.0013686162586948,62.28659044853997
6.633142784,1.0016797255905703,62.13101534587303
6.635428352,1.0018847335275984,61.9716763002597
6.637714432,1.0019706123334442,61.81024021892345
6.64,1.0019319714807302,61.648480952223636
6.642285568,1.0017710659650563,61.488125938960934
6.644571648,1.0014981559318208,61.330927859560894
6.646857216,1.001130200698272,61.17837074866418
6.649142784,1.0006905534006152,61.03165966216918
6.651428352,1.0002069808660417,60.89167074538192
6.653714432,0.9997100560488408,60.75881193117007
6.656,0.9992314891260197,60.63304288943502
6.658285568,0.9988015456291783,60.51390752548732
6.660571648,0.9984476829316127,60.400508963727845
6.662857216,0.9981925674714137,60.2915667581119
6.665142784,0.9980523380265608,60.18553021830152
6.667428352,0.9980361051567374,60.08064881372329
6.669714432,0.998145017684781,59.9750786850355
6.672,0.9983722007290023,59.86708573453309
6.674285568,0.9987030271108007,59.75499520028003
6.676571648,0.9991167473913567,59.63748284897443
6.678857216,0.9995868086277605,59.51354957260068
6.681142784,1.00008347122925,59.38256083734806
6.683428352,1.0005752040141216,59.24440275408685
6.685714432,1.0010308182277983,59.09936316513485
6.688,1.0014213985776192,58.94815469205677
6.690285568,1.0017222137911497,58.791960020397006
6.692571648,1.0019142911715964,58.63220174693175
6.694857216,1.0019853140748516,58.470521397441374
6.697142784,1.0019307846398124,58.30871744872482
6.699428352,1.0017541524692881,58.14856334040244
6.701714432,1.001466495804055,57.99178829535544
6.704,1.0010858055690917,57.83984497233624
6.706285568,1.0006362142594267,57.69388432270374
6.708571648,1.0001461437890518,57.554781714750334
6.710857216,0.9996466617046663,57.42288043059294
6.713142784,0.9991693801410642,57.298074895495084
6.715428352,0.9987446747299967,57.17986057041816
6.717714432,0.9983997355761451,57.06726357682863
6.72,0.9981564978358366,56.95898148708836
6.722285568,0.9980305549446025,56.85337854728963
6.724571648,0.998030007605905,56.74873692307514
6.726857216,0.9981548993888821,56.64319206262355
6.729142784,0.9983974385536368,56.534967814611115
6.731428352,0.9987421613434411,56.42244618086893
6.733714432,0.9991671461278274,56.30431766940518
6.736,0.9996453011516075,56.179611437392005
6.738285568,1.0001463493339635,56.04775633944602
6.740571648,1.000638434338877,55.908702672036355
6.742857216,1.0010903886306222,55.76276652330905
6.745142784,1.0014735682575393,55.61076857922029
6.747428352,1.0017636427409327,55.453897984860966
6.749714432,1.0019424292643204,55.29363807972849
6.752,1.0019982708066844,55.131661521704835
6.754285568,1.0019278410591999,54.969762009525894
6.756571648,1.001735371861944,54.80977512097291
6.758857216,1.0014330720351123,54.65336981536008
6.761142784,1.0010398789279795,54.501990553997345
6.763428352,1.0005806548392098,54.356780726186386
6.765714432,1.000084426804711,54.218505503946744
6.768,0.9995826448139239,54.08748874454002
6.770285568,0.9991071891540221,53.963579056025615
6.772571648,0.9986883537673361,53.846202222301535
6.774857216,0.9983527559236723,53.734347084198795
6.777142784,0.9981217960730555,53.626617099367344
6.779428352,0.9980104280761908,53.521423924282345
6.781714432,0.9980257501256665,53.41691139909799
6.784,0.9981668304640808,53.31127290936926
6.786285568,0.9984246526686229,53.20273017395949
6.788571648,0.9987830027203034,53.08966281233326
6.790857216,0.9992189521216956,52.97080631983044
6.793142784,0.9997048547692641,52.845246029958346
6.795428352,1.00020984505296,52.712453975667174
6.797714432,1.0007018290211172,52.57239975840178
6.8,1.0011497273580363,52.425511656849025
6.802285568,1.0015250345369253,52.27267900735912
6.804571648,1.0018040283822265,52.11507482411363
6.806857216,1.0019689578633273,51.95425903255871
6.809142784,1.002009513212475,51.791925261081765
6.811428352,1.0019229209592007,51.629936701381695
6.813714432,1.001714743821713,51.47007675680162
6.816,1.0013977996480163,51.313967936849444
6.818285568,1.0009923345558134,51.163119581731294
6.820571648,1.000523686353179,51.018582061823615
6.822857216,1.000021796352786,50.88107900249093
6.825142784,0.9995182522857947,50.75091416304083
6.827428352,0.9990450168397438,50.62783866461387
6.829714432,0.9986323620127421,50.51124187131383
6.832,0.9983066594671982,50.40003124402514
6.834285568,0.9980884528617516,50.29278227097511
6.836571648,0.9979918839934632,50.187857277552624
6.838857216,0.9980231863037405,50.08340116988119
6.841142784,0.9981804592520211,49.97759067039708
6.843428352,0.9984536684679837,49.86860551648263
6.845714432,0.9988254728058932,49.75492535543467
6.848,0.9992722347715995,49.6352558889051
6.850285568,0.9997655675875694,49.50874048027755
6.852571648,1.0002740756848882,49.374913194230174
6.854857216,1.0007655193736105,49.23381745931285
6.857142784,1.00120888889299,49.08592042521554
6.859428352,1.0015758063396516,48.93216770391015
6.861714432,1.0018433325827862,48.77378118517039
6.864,1.0019943284266244,48.612362414012004
6.866285568,1.002019291460674,48.44966412318288
6.868571648,1.0019164166376104,48.287498896195785
6.870857216,1.0016923508983187,48.12767292480026
6.873142784,1.0013610743485464,47.97186802252071
6.875428352,1.0009434698107138,47.82148599841887
6.877714432,1.0004658322543891,47.677580945793096
6.88,0.9999585333151972,47.540805114053384
6.882285568,0.9994536352140455,47.41140795966437
6.884571648,0.998983253924693,47.28911464322409
6.886857216,0.9985772229210177,47.173202854435544
6.889142784,0.9982616711524775,47.062540537051156
6.891428352,0.9980564990725125,46.95571560520977
6.893714432,0.9979750809515398,46.85097741194613
6.896,0.9980225339679804,46.74647238665061
6.898285568,0.9981960415759084,46.640362306308205
6.900571648,0.998484419755866,46.530883483204384
6.902857216,0.9988695188228117,46.41646289905551
6.905142784,0.9993267445258696,46.29589067216659
6.907428352,0.9998270133951975,46.16836365057766
6.909714432,1.0003386995519645,46.03342510745452
6.912,1.0008291216737888,45.89121691593428
6.914285568,1.001267313200291,45.74224124988973
6.916571648,1.0016256398788443,45.5874833237434
6.918857216,1.0018811675115762,45.42826651068873
6.921142784,1.002017914978545,45.266201801519045
6.923428352,1.0020270547375878,45.103051988915084
6.925714432,1.0019078751998725,44.9406960808143
6.928,1.0016680184281008,44.780906986489136
6.930285568,1.0013225076076246,44.62532624511281
6.932571648,1.0008930552828286,44.47536464448357
6.934857216,1.000406742301399,44.33203747365952
6.937142784,0.9998944896467478,44.195948640156914
6.939428352,0.9993887658883785,44.06727146800003
6.941714432,0.9989215618810197,43.94565466191811
6.944,0.9985227092277467,43.83035912935391
6.946285568,0.9982176837748863,43.720198036771436
6.948571648,0.9980260025169436,43.613675792650646
6.950857216,0.9979599769768683,43.50901688584762
