freq,mag,phase
6.0,1.0001109295726693,137.1384400675282
6.002288128,1.0001677621318945,136.97085687748353
6.004576768,1.000214103363976,136.80255071957123
6.006864896,1.0002469460418768,136.63368430666156
6.009153536,1.0002643576455343,136.46444557017915
6.011441664,1.0002650633784227,136.29507810251883
6.013729792,1.0002492576631825,136.12583253519975
6.016018432,1.0002175781205276,135.95692536004103
6.01830656,1.0001722241583524,135.7885964342065
6.0205952,1.0001161309511213,135.6210070219774
6.022883328,1.0000527850457854,135.45428156398526
6.025171456,0.9999861080945315,135.28851057822317
6.027460096,0.9999203797262605,135.12369787249418
6.029748224,0.9998597533128549,134.9598187259094
6.032036864,0.9998080555279081,134.79677380454083
6.034324992,0.9997685527160485,134.63438392112684
6.03661312,0.9997437865411215,134.47248607103842
6.03890176,0.999735341427024,134.31081672957094
6.041189888,0.9997437021886132,134.1491679674962
6.043478016,0.9997683160506418,133.98727794140416
6.045766656,0.9998078260709714,133.82492214200673
6.048054784,0.9998595466828034,133.66193621452896
6.050343424,0.999920203928606,133.49813143487108
6.052631552,0.999986020325851,133.33338856923066
6.05491968,1.0000530430377685,133.1677184311093
6.05720832,1.000116624123014,133.00109155108365
6.059496448,1.0001729726463329,132.83359312987656
6.061785088,1.0002186908894717,132.66538159074187
6.064073216,1.000250572266343,132.4965965953654
6.066361344,1.0002667380265315,132.32747100364398
6.068649984,1.0002660585579244,132.15824100352663
6.070938112,1.0002487414145311,131.98914857471007
6.073226752,1.0002157545816988,131.82042634102604
6.07551488,1.0001692102042061,131.65229712685408
6.077803008,1.0001121033159115,131.4849062974594
6.080091648,1.0000478480541624,131.3184150863721
6.082379776,0.9999806906120721,131.15286217285075
6.084668416,0.9999148343080028,130.988318037103
6.086956544,0.9998544561099131,130.82466705144412
6.089244672,0.9998032797329556,130.66186934082018
6.091533312,0.9997646818815866,130.4996847476687
6.09382144,0.999740932927838,130.3380031628074
6.09611008,0.9997338562838518,130.17654639097148
6.098398208,0.9997435763609445,130.01505045715805
6.100686336,0.9997696455372848,129.85332586812328
6.102974976,0.9998104127768407,129.69111319896095
6.105263104,0.9998632735813914,129.52822171781597
6.107551232,0.9999248919341893,129.36451294864347
6.109839872,0.9999914390526352,129.1999014986949
6.112128,1.0000586477172522,129.03429430809047
6.11441664,1.0001222997150854,128.86776079644716
6.116704768,1.0001782844324216,128.70034882423462
6.118992896,1.0002231288974328,128.5322266662722
6.121281536,1.0002540618800213,128.36355289172465
6.123569664,1.0002689396127484,128.19455425382458
6.125858304,1.0002669362320873,128.02547283726767
6.128146432,1.0002482468263294,127.8565456607603
6.13043456,1.00021387427967,127.68800645810343
6.1327232,1.0001660051309784,127.52005270696948
6.135011328,1.0001078372554932,127.35290616483907
6.137299968,1.0000428324541304,127.18666166926467
6.139588096,0.9999751573392635,127.02134668604569
6.141876224,0.9999091876905319,126.85704206227298
6.144164864,0.9998490548606499,126.69365393328904
6.146452992,0.9997984325134227,126.53109439347216
6.148741632,0.9997607428471647,126.3691705141976
6.15102976,0.9997381750605503,126.20767294284332
6.153317888,0.9997323469172485,126.04641507376863
6.155606528,0.9997434975675107,125.88512247879811
6.157894656,0.9997710421887493,125.72354449826719
6.160183296,0.9998131575554042,125.56146194077662
6.162471424,0.9998672029207606,125.39871473027043
6.164759552,0.9999297681860346,125.23512341883526
6.167048192,0.9999969061355549,125.07059624062883
6.16933632,1.0000644243066017,124.9050827473755
6.17162496,1.0001279881626297,124.73861889239241
6.173913088,1.0001835319335977,124.57133876844914
6.176201216,1.0002275734780848,124.4032917537691
6.178489856,1.0002573514492736,124.2347440870592
6.180777984,1.0002711141917713,124.06587345165337
6.183066112,1.0002677902541268,123.89696028768326
6.185354752,1.0002475049433008,123.72819521941051
6.18764288,1.000211794663144,123.55985723203707
6.18993152,1.000162675994806,123.39212429959457
6.192219648,1.0001034281483192,123.22522096692302
6.194507776,1.000037582365245,123.05920000188365
6.196796416,0.9999695245605417,122.89416182473694
6.199084544,0.9999035171314685,122.7301121602633
6.201373184,0.9998435863946805,122.56697498477932
6.203661312,0.9997936061362735,122.40464257766492
6.20594944,0.9997568068272166,122.24298126910934
6.20823808,0.9997354571957814,122.08171758322447
6.210526208,0.9997309814323614,121.92065182222196
6.212814848,0.9997435380249073,121.75955518638743
6.215102976,0.9997724605064017,121.59813745037752
6.217391104,0.999815993390974,121.43623626621266
6.219679744,0.9998711383223046,121.27360073360033
6.221967872,0.999934729605198,121.11012923474114
6.224256512,1.00000247816319,120.94570169925727
6.22654464,1.0000702584619776,120.78028196044916
6.228832768,1.0001336255828372,120.61393346134398
6.231121408,1.0001887753369565,120.4467263113977
6.233409536,1.0002320320506997,120.27882996591528
6.235698176,1.000260814672992,120.11039351319643
6.237986304,1.0002731971420584,119.94165977066994
6.240274432,1.000268371101083,119.7728908940511
6.242563072,1.0002467383545788,119.60433085731039
6.2448512,1.0002096505694291,119.43619353751205
6.24713984,1.0001592446677376,119.26868084627588
6.249427968,1.0000989359470676,119.10201275333858
6.251716096,1.0000323407366665,118.9362536140634
6.254004736,0.9999638431423905,118.77148078473408
6.256292864,0.9998978169813065,118.60769663778109
6.258580992,0.9998380979524436,118.44482799389696
6.260869632,0.9997888784278532,118.28276844053275
6.26315776,0.999752961996317,118.12133546444159
6.2654464,0.999732902047842,117.96033191979416
6.267734528,0.9997297495167475,117.7994679166751
6.270022656,0.9997437816747428,117.6385620881692
6.272311296,0.9997742300183282,117.4773288321866
6.274599424,0.9998189856842937,117.31555037828738
6.276888064,0.9998753010762341,117.15306610835584
6.279176192,0.9999397815623583,116.98971244064921
6.28146432,1.0000080984082882,116.82538802840385
6.28375296,1.000076080127875,116.6600726767052
6.286041088,1.000139331759998,116.49383958510559
6.288329728,1.0001940578872384,116.32675298190509
6.290617856,1.0002366006153571,116.15895392218985
6.292905984,1.0002640974450072,115.99066992327995
6.295194624,1.0002752225135787,115.82207877633499
6.297482752,1.00026900228047,115.65349051669118
6.299771392,1.0002458867870423,115.48510767708923
6.30205952,1.0002073419666542,115.31718942681137
6.304347648,1.0001557675159591,115.14993171619344
6.306636288,1.0000943063071244,114.98348303571679
6.308924416,1.0000270490329597,114.81798509921767
6.311213056,0.9999581778973793,114.65349098156355
6.313501184,0.9998920292339726,114.48998662147562
6.315789312,0.9998327058971903,114.32739762584556
6.318077952,0.9997840924342577,114.16558902386764
6.32036608,0.9997492232763379,114.00442455573935
6.322654208,0.9997303183648256,113.84362688708579
6.324942848,0.999728512698541,113.68301775085455
6.327230976,0.999744127576945,113.52229922014054
6.329519616,0.9997758956706444,113.36124788301807
6.331807744,0.9998221208354489,113.19964561852557
6.334095872,0.9998796149924517,113.03731070438458
6.336384512,0.9999449379424766,112.87405528545045
6.33867264,1.0000138580272455,112.70984990413685
6.34096128,1.0000819928293212,112.54464943213993
6.343249408,1.0001452796754993,112.37852960465617
6.345537536,1.0001992629312981,112.21154640365094
6.347826176,1.0002409569333364,112.04387125483204
6.350114304,1.0002675191254937,111.87571718855384
6.352402944,1.0002772025129596,111.70731148949706
6.354691072,1.0002695302116456,111.53887610426281
6.3569792,1.000244899538609,111.37070182605072
6.35926784,1.0002049337518057,111.20300538596551
6.361555968,1.0001521032599772,111.03597588226054
6.363844608,1.000089661613416,110.86979352432364
6.366132736,1.0000216290744732,110.70458872979502
6.368420864,0.9999523597518915,110.54036478233327
6.370709504,0.9998861517172457,110.377129081073
6.372997632,0.9998272671712138,110.21482709609847
6.375286272,0.9997792699639303,110.05330555932078
6.3775744,0.9997454913507656,109.89237171856715
6.379862528,0.9997277577067707,109.73184125551062
6.382151168,0.9997274692771412,109.57144617074388
6.384439296,0.999744469203452,109.41092471763096
6.386727936,0.9997777799273565,109.2500687273557
6.389016064,0.9998252849428857,109.08860973378302
6.391304192,0.999884037224352,108.926414517161
6.393592832,0.9999501704547376,108.7633051107371
6.39588096,1.0000195683663435,108.59921290317091
6.398169088,1.0000880636676344,108.43413083455054
6.400457728,1.0001509602042762,108.26812022721975
6.402745856,1.000204557483321,108.10125087035999
6.405034496,1.0002452807928084,107.93372555339543
6.407322624,1.000270746834755,107.76570757486469
6.409610752,1.0002790998543414,107.59744862186702
6.411899392,1.0002699473591374,107.42923622097179
6.41418752,1.0002437697414333,107.26125342578206
6.41647616,1.0002023233390107,107.0937890934172
6.418764288,1.0001482840480214,106.9270127699968
6.421052416,1.0000848751935134,106.76110011346658
6.423341056,1.0000160377715939,106.59614669522522
6.425629184,0.9999464098564707,106.43222088800617
6.427917824,0.9998802512632221,106.26926153090191
6.430205952,0.9998217054771654,106.10724617758525
6.43249408,0.9997745364791629,105.94601572086891
6.43478272,0.9997417497715922,105.78534106295159
6.437070848,0.999725383728656,105.6250537986287
6.439359488,0.9997264529867166,105.46488306481481
6.441647616,0.9997449624928643,105.30459480605987
6.443935744,0.9997797706082252,105.14391157746675
6.446224384,0.99982868636652,104.9826358527759
6.448512512,0.9998884638117789,104.82058536111273
6.450801152,0.9999555383852379,104.65760583843739
6.45308928,1.000025545945988,104.49364300704784
6.455377408,1.0000941013361273,104.32867368960989
6.457666048,1.000156789399364,104.16277529739666
6.459954176,1.0002098087768347,103.9960396320843
6.462242816,1.0002496203636468,103.82863540321479
6.464530944,1.0002737692917807,103.66077561894721
6.466819072,1.0002808068735243,103.49270274443053
6.469107712,1.0002702135116033,103.3246580761857
6.47139584,1.000242575525513,103.15691089754056
6.473683968,1.0001997323406002,102.98966107280445
6.475972608,1.0001442680714696,102.82315381104742
6.478260736,1.000079887848445,102.6574986049518
6.480549376,1.0000104681349962,102.49284178591212
6.482837504,0.999940510862401,102.32920005224646
6.485125632,0.9998743030613167,102.16655293532476
6.487414272,0.9998161683579084,102.00482565384335
6.4897024,0.9997697781499048,101.8438469226158
6.49199104,0.9997380875263462,101.68347586958882
6.494279168,0.9997230226134887,101.52344725947164
6.496567296,0.999725562462022,101.36348941590037
6.498855936,0.9997455652690304,101.20341340429931
6.501144064,0.9997819165554008,101.04291188553518
6.503432704,0.9998321365104286,100.88181259187309
6.505720832,0.9998931089539137,100.71990381349192
6.50800896,0.9999609598176613,100.55706122322339
6.5102976,1.0000315042015888,100.39322317655909
6.512585728,1.0001001213352325,100.22839412210115
6.514874368,1.0001626364996268,100.06260208817866
6.517162496,1.0002150450020457,99.89600914032579
6.519450624,1.0002538752949743,99.72874127900162
6.521739264,1.000276926954709,99.5610341958265
6.524027392,1.0002825336803913,99.39313551101348
6.526316032,1.0002703174627385,99.22529563188597
6.52860416,1.0002411360298915,99.05775035335856
6.530892288,1.000196988283296,98.89075221099127
6.533180928,1.0001402927275447,98.72448366158504
6.535469056,1.0000748561185864,98.55912091302527
6.537757184,1.0000047125055456,98.39475774901776
6.540045824,0.9999344630100997,98.231412526014
6.542333952,0.9998683776102906,98.06907139022296
6.544622592,0.9998106326727831,97.90763354073756
6.54691072,0.9997651766146014,97.74694678194575
6.549198848,0.9997344898848828,97.58683753963138
6.551487488,0.9997206663248712,97.42705426218687
6.553775616,0.9997247185791666,97.26735153673934
6.556064256,0.9997463262075967,97.10748457975707
6.558352384,0.9997841284876393,96.94717647042431
6.560640512,0.9998357413923781,96.78623724562374
6.562929152,0.9998978083798242,96.624480055823
6.56521728,0.9999665436026349,96.46178299834715
6.56750592,1.0000376166915255,96.29806829549192
6.569794048,1.0001063307874984,96.1333705988543
6.572082176,1.0001686197605688,95.96770900643762
6.574370816,1.000220288306761,95.80123141460916
6.576658944,1.0002581373943764,95.63412202988977
6.578947584,1.0002798700830746,95.46658765512815
6.581235712,1.000284024403015,95.29885793721691
6.58352384,1.0002704172920285,95.13120608009278
6.58581248,1.0002396789921697,94.96388712614596
6.588100608,1.000193968690372,94.79713400041594
6.590389248,1.0001360604765563,94.63114254931713
6.592677376,1.000069637114386,94.4660609560585
6.594965504,0.9999988860837323,94.30199185063641
6.597254144,0.9999283319835327,94.13894506841328
6.599542272,0.999862276305273,93.97689839032942
6.601830912,0.9998051937474648,93.81577143357603
6.60411904,0.9997603658423606,93.65536575618916
6.606407168,0.9997308738077303,93.49553993853556
6.608695808,0.9997184884536969,93.33601225856704
6.610983936,0.999724073948671,93.17655648387986
6.613272064,0.9997472217484168,93.01687737492252
6.615560704,0.9997864796859456,92.85678480540723
6.617848832,0.9998394233090131,92.6960201902383
6.620137472,0.999902726730412,92.53440260081368
6.6224256,0.9999722783904291,92.37184903829278
6.624713728,1.0000437454979383,92.20827331511362
6.627002368,1.0001125776351498,92.04368619491383
6.629290496,1.0001744940849604,91.87815167379924
6.631579136,1.0002254842108387,91.7118145540688
6.633867264,1.0002624166863752,91.54484639148913
6.636155392,1.00028291776224,91.37745823281716
6.638444032,1.0002854940095482,91.2099397430528
6.64073216,1.00027035534631,91.04250043730241
6.6430208,1.0002381007257617,90.8754080719396
6.645308928,1.0001908803604702,90.70891814716748
6.647597056,1.0001317286606124,90.5431852318839
6.649885696,1.0000643665350246,90.3783907519906
6.652173824,0.9999929474804717,90.21459903505085
6.654462464,0.9999220892735329,90.05187143109603
6.656750592,0.9998562834265415,89.89014040148638
6.65903872,0.9997995609067067,89.72931575395815
6.66132736,0.9997556882380817,89.5691957975311
6.663615488,0.9997273269928476,89.40965146919277
6.665904128,0.9997163692744047,89.25038401111973
6.668192256,0.9997234375204488,89.09115707550198
6.670480384,0.9997481913252352,88.93172240593971
6.672769024,0.9997889844444918,88.77178784114457
6.675057152,0.9998432203563653,88.6111883596539
6.677345792,0.9999076857959062,88.44974511958827
6.67963392,0.9999781094415915,88.28731768045166
6.681922048,1.0000500017795348,88.12388252507198
6.684210688,1.0001188791023523,87.95941339198161
6.686498816,1.0001804648479642,87.79402593772942
6.688786944,1.000230755571042,87.62783646033111
6.691075584,1.0002665900588024,87.46099655833171
6.693363712,1.0002857280708868,87.29380365330664
6.695652352,1.0002869788220314,87.12644395075908
6.69794048,1.0002700834851166,86.95921453356753
6.700228608,1.0002363146599065,86.79237062847216
6.702517248,1.0001877281228382,86.6261102764575
6.704805376,1.0001272522667168,86.46067193319462
6.707094016,1.000058858329652,86.2961761298989
6.709382144,0.9999868503266623,86.13269681262395
6.711670272,0.9999158149433844,85.97026367576913
6.713958912,0.9998500802088028,85.80882726695715
6.71624704,0.9997939258307846,85.64829529739428
6.71853568,0.9997510371129785,85.48850262220492
6.720823808,0.999723863163616,85.32921192166441
6.723111936,0.9997142571359368,85.17021771073011
6.725400576,0.9997229824232506,85.01123285755251
6.727688704,0.9997492678585945,84.85199295817768
6.729977344,0.9997916084681482,84.69227486618463
6.732265472,0.9998473683293533,84.53184123296221
6.7345536,0.9999127093406515,84.37055286708309
6.73684224,0.9999839488825419,84.20826417512053
6.739130368,1.0000562808387001,84.04496710095964
6.741419008,1.0001252570635057,83.88062083412453
6.743707136,1.0001863768538402,83.71536970231651
6.745995264,1.0002360008183988,83.54929927616202
6.748283904,1.0002706954559268,83.38264917250012
6.750572032,1.0002885131407793,83.2155823801085
6.75286016,1.0002882341423387,83.04843864596815
6.7551488,1.0002698631261966,82.88143149775169
6.757436928,1.000234426025105,82.714808531332
6.759725568,1.0001842781638122,82.54881896886329
6.762013696,1.000122668556687,82.38364386595144
6.764301824,1.0000533696530112,82.21943345746362
6.766590464,0.9999807918338888,82.05626402857702
6.768878592,0.999909376643531,81.89414794235485
6.771167232,0.9998438533112902,81.7330338782508
6.77345536,0.9997883724391469,81.57282195363155
6.775743488,0.9997463901921312,81.41329732547754
6.778032128,0.9997204786860672,81.25430048897542
6.780320256,0.9997123662099764,81.09555243799099
6.782608896,0.999722628244075,80.93679707253975
6.784897024,0.9997505929560926,80.77778909614469
6.787185152,0.9997943868246244,80.61825541879536
6.789473792,0.9998514291663813,80.45799589769494
6.79176192,0.9999180762333933,80.29685431065614
6.79405056,0.9999898992187493,80.13472207110229
6.796338688,1.0000627498665111,79.97154151128623
6.798626816,1.0001316449621018,79.80732937670477
6.800915456,1.0001924022907143,79.64220813905534
6.803203584,1.0002412081107,79.47628854097746
6.805492224,1.0002748673881228,79.30976030280283
6.807780352,1.0002913155461526,79.14289673868642
6.81006848,1.0002893905024357,78.97593777859731
6.81235712,1.000269385630012,78.80912654414776
6.814645248,1.0002324431608651,78.64276198941211
6.816933888,1.0001809693552277,78.4770278430432
6.819222016,1.0001179576660018,78.31213873810884
6.821510144,1.0000477570409418,78.14822879514642
6.823798784,0.9999745118377115,77.98535176055942
6.826086912,0.9999030348575115,77.8235620795388
6.82837504,0.9998377967970022,77.6627646163649
6.83066368,0.9997828124257314,77.5028322073736
6.832951808,0.999741783105624,77.34363324089675
6.835240448,0.999717112817609,77.18490993633787
6.837528576,0.9997105437371966,77.02641587380529
6.839816704,0.9997223644579614,76.8678987978503
6.842105344,0.9997519812819603,76.70910983640954
6.844393472,0.9997973397623242,76.54976505265591
6.846682112,0.9998557451691618,76.389671540007
6.84897024,0.9999234000613352,76.22868640534044
6.851258368,0.9999960999534063,76.06669423170239
6.853547008,1.0000692224913006,75.90363568513534
6.855835136,1.0001381039624482,75.73955770568845
6.858123776,1.000198521702315,75.57455478210224
6.860411904,1.0002463944953854,75.408778214921
6.862700032,1.000278880247445,75.2424221005597
6.864988672,1.0002939190236608,75.07572728355426
6.8672768,1.0002905523095187,74.90895092306954
6.86956544,1.000268868832927,74.7423649268646
6.871853568,1.0002302603196809,74.57624151651724
6.874141696,1.0001772573612069,74.41077376362983
6.876430336,1.0001131129227705,74.2461652949765
6.878718464,1.0000419387942392,74.08254084209132
6.881007104,0.9999681919839798,73.91999140959
6.883295232,0.9998965426899686,73.75850456935356
6.88558336,0.9998315064405876,73.59802912566275
6.887872,0.9997771798523979,73.43840789735629
6.890160128,0.9997371743871458,73.27948987399058
6.892448768,0.9997138736914913,73.12105801714526
6.894736896,0.9997088304826882,72.96281531988764
6.897025024,0.9997222598841233,72.80453933326764
6.899313664,0.9997535086520201,72.64595743130177
6.901601792,0.9998004065894014,72.48680942468278
6.90388992,0.9998601413641491,72.32689106627716
6.90617856,0.9999288865196037,72.1660504911916
6.908466688,1.0000023727793637,72.00418386081189
6.910755328,1.0000758020078095,71.84124792190951
6.913043456,1.000144625356293,71.67730692000417
6.915331584,1.0002044704762585,71.51243283578546
6.917620224,1.0002515952808402,71.34678818938735
6.919908352,1.0002829162723736,71.18058605546159
6.922196992,1.0002965174085585,71.01406661361263
6.92448512,1.0002915104537877,70.84749914684953
6.926773248,1.0002681345737212,70.68113446532624
6.929061888,1.0002279490067094,70.51523688680467
6.931350016,1.0001734229029335,70.35003900200816
