freq,mag,phase
6.0,1.0000291236378493,129.04565973273657
6.002285568,1.0000332440498865,128.89455857001417
6.004571648,1.0000351970686274,128.74346313303568
6.006857216,1.0000351872479862,128.59235326905252
6.009142784,1.0000335473148332,128.44129484337378
6.011428352,1.0000301151350584,128.29025827477685
6.013714432,1.000025091606724,128.13930634348264
6.016,1.0000190520605068,127.98848034375489
6.018285568,1.00001214179618,127.83772396292842
6.020571648,1.000005015584407,127.68711855615454
6.022857216,0.9999979401760117,127.53661156201932
6.025142784,0.9999912888913988,127.38623659981688
6.027428352,0.9999856945751402,127.2359516026619
6.029714432,0.9999814428156485,127.0857559475115
6.032,0.9999787476800902,126.93564372640357
6.034285568,0.9999778617749687,126.78554359469157
6.036571648,0.9999787932620866,126.6354847095868
6.038857216,0.9999814841148685,126.48540536420546
6.041142784,0.9999857225324299,126.3353058900798
6.043428352,0.9999913238457993,126.1851134206361
6.045714432,0.9999979154698674,126.03489006500502
6.048,1.0000050630073531,125.88454805023869
6.050285568,1.0000123510290824,125.73416330290439
6.052571648,1.0000191542216759,125.58367255445339
6.054857216,1.0000252305534267,125.43308921497068
6.057142784,1.0000302156807004,125.28245231712674
6.059428352,1.0000336532062533,125.13175815578701
6.061714432,1.0000353557215107,124.98105450767058
6.064,1.0000352119584215,124.83034820067928
6.066285568,1.00003339940422,124.67967602111005
6.068571648,1.0000296863886686,124.52905341283089
6.070857216,1.000024653834441,124.378521642791
6.073142784,1.000018454870106,124.2280808798774
6.075428352,1.0000115096764923,124.07775401847023
6.077714432,1.0000043150927949,123.92754051149838
6.08,0.9999971370002904,123.7774571848384
6.082285568,0.9999905860367447,123.6274831632811
6.084571648,0.9999850440716016,123.47761494292284
6.086857216,0.9999809133691994,123.32781989623656
6.089142784,0.999978398753935,123.17809774222304
6.091428352,0.9999775951297097,123.02841983428543
6.093714432,0.9999787204603617,122.87874915537293
6.096,0.999981712942603,122.7290674923594
6.098285568,0.9999860383339307,122.57934564634114
6.100571648,0.999991871523499,122.42957298728314
6.102857216,0.9999985087250707,122.27971027035446
6.105142784,1.0000058051741338,122.1297745938425
6.107428352,1.000012993946397,121.97976484951003
6.109714432,1.0000198863012644,121.82962273454598
6.112,1.0000259049627036,121.67942834615975
6.114285568,1.0000307917672662,121.5291815827588
6.116571648,1.0000340228734377,121.37888346669743
6.118857216,1.0000355144231745,121.22854337119249
6.121142784,1.000035233860734,121.07822859092072
6.123428352,1.0000331877506043,120.92796481805574
6.125714432,1.000029360509454,120.77772269385665
6.128,1.0000240771185456,120.62759244403887
6.130285568,1.0000178268308655,120.47754744077476
6.132571648,1.0000107358090522,120.32761324931546
6.134857216,1.0000033808056563,120.17779244340927
6.137142784,0.9999962726950686,120.02810194455628
6.139428352,0.9999898141692307,119.87852108721539
6.141714432,0.9999843524749723,119.72903728714778
6.144,0.9999803029909017,119.579651737716
6.146285568,0.9999779756639767,119.43030654579053
6.148571648,0.9999775087714997,119.28103012797938
6.150857216,0.9999787257208637,119.13172794340237
6.153142784,0.9999817568367669,118.98242694270883
6.155428352,0.9999864515829145,118.83308293974169
6.157714432,0.99999225902762,118.68368003594813
6.16,0.9999990927904557,118.53419345248344
6.162285568,1.0000064132292226,118.38461447151646
6.164571648,1.000013631225464,118.2349646930314
6.166857216,1.000020542689056,118.08521282361676
6.169142784,1.0000265115392701,117.93539679093065
6.171428352,1.0000312079802216,117.7855002879863
6.173714432,1.000034336372794,117.63556176359555
6.176,1.0000356838195776,117.48560718235957
6.178285568,1.0000352872145493,117.33566829188133
6.180571648,1.0000329052111556,117.18574648357561
6.182857216,1.000029066059193,117.03591442478046
6.185142784,1.000023647447387,116.88613534241247
6.187428352,1.0000171121980828,116.73647614847516
6.189714432,1.0000100435429025,116.5869200334412
6.192,1.00000263963301,116.43749020150835
6.194285568,0.999995509947294,116.28818107652137
6.196571648,0.9999890791307227,116.13898126286217
6.198857216,0.9999836941746215,115.98987804955006
6.201142784,0.999979874921652,115.84087127932591
6.203428352,0.9999776223994957,115.69190719278508
6.205714432,0.9999772229914066,115.54298883596684
6.208,0.9999787561700786,115.39406266280689
6.210285568,0.9999820262431399,115.24512063252652
6.212571648,0.9999868332057877,115.09613777347546
6.214857216,0.9999929024314153,114.94708733923802
6.217142784,0.9999997020212672,114.79795876411221
6.219428352,1.0000070856865477,114.64872356123055
6.221714432,1.0000143733790274,114.49942539693848
6.224,1.000021236987488,114.35002884675279
6.226285568,1.0000270689222166,114.20056181096948
6.228571648,1.000031637019455,114.0510252618794
6.230857216,1.0000346964702653,113.9014352851936
6.233142784,1.000035821612343,113.75184401323503
6.235428352,1.0000352294035306,113.6022609055786
6.237714432,1.0000327521845032,113.45270506540676
6.24,1.000028602725992,113.30321204714197
6.242285568,1.0000230457899382,113.1538253840189
6.244571648,1.000016467461479,113.0045188429348
6.246857216,1.0000092705364332,112.85533840278181
6.249142784,1.0000018521027672,112.7062598835789
6.251428352,0.9999946470262677,112.55730847433814
6.253714432,0.999988323589353,112.40847999235638
6.256,0.9999831269429579,112.25974738636566
6.258285568,0.9999793960116077,112.1110872156183
6.260571648,0.9999773638603363,111.96248799426827
6.262857216,0.9999772212808172,111.81391364485546
6.265142784,0.9999788328731384,111.66534496640125
6.267428352,0.9999822221679214,111.51675733237704
6.269714432,0.999987154142824,111.36810635727718
6.272,0.9999933904351004,111.2194118820775
6.274285568,1.0000003631012737,111.07061662439472
6.276571648,1.000007818299968,110.92172760706156
6.278857216,1.0000151108025541,110.77276017595932
6.281142784,1.000021899100375,110.62370808330697
6.283428352,1.000027748957251,110.47455047785533
6.285714432,1.0000321885336758,110.32535816685221
6.288,1.0000349167430411,110.17612139881884
6.290285568,1.0000359911222845,110.02686640366242
6.292571648,1.000035128001719,109.87762640984546
6.294857216,1.000032496468273,109.7284268605455
6.297142784,1.0000282109216834,109.57928525685016
6.299428352,1.000022455228246,109.43021045718962
6.301714432,1.000015779918883,109.2812510826687
6.304,1.0000084553922501,109.13242171496626
6.306285568,1.0000010857020287,108.98371963766
6.308571648,0.9999939604507053,108.83511076563407
6.310857216,0.9999875974688557,108.68663079277303
6.313142784,0.9999824959054727,108.5382277081244
6.315428352,0.9999787768893408,108.38992376184831
6.317714432,0.9999770434866972,108.24165119403997
6.32,0.9999769688625643,108.09343030386658
6.322285568,0.9999788867467175,107.945188101641
6.324571648,0.9999824140135412,107.79692261553522
6.326857216,0.9999875474586075,107.64862114375322
6.329142784,0.999993903646233,107.50022418058045
6.331428352,1.0000009640773946,107.3517712089674
6.333714432,1.0000084151688953,107.20321362471083
6.336,1.0000157892387986,107.05455372402042
6.338285568,1.0000224716965385,106.90582462560141
6.340571648,1.0000282487688268,106.75698251245002
6.342857216,1.0000326029610784,106.60810280032929
6.345142784,1.0000352115581161,106.45918050047513
6.347428352,1.0000361027958682,106.31026682787795
6.349714432,1.0000350209386997,106.16134646068015
6.352,1.0000321889672596,106.01246182516758
6.354285568,1.000027715824321,105.86364655891677
6.356571648,1.0000218117925186,105.71491844213793
6.358857216,1.0000150748836387,105.56631218523225
6.361142784,1.0000076648799028,105.41779883117525
6.363428352,1.0000001731204275,105.26942604497248
6.365714432,0.999993120123289,105.12116321328065
6.368,0.9999869130512904,104.9729942307006
6.370285568,0.9999818611011183,104.82493479480677
6.372571648,0.9999783976123191,104.67694769364105
6.374857216,0.9999766965738359,104.52900521820318
6.377142784,0.9999769103391106,104.38110131041662
6.379428352,0.999978957899674,104.23317703847786
6.381714432,0.9999827336884712,104.08523554944401
6.384,0.9999879812850346,103.9372310430069
6.386285568,0.9999944955513603,103.7891705898205
6.388571648,1.0000016731069301,103.6409963723784
6.390857216,1.000009166697304,103.49273815075979
6.393142784,1.0000165033138013,103.34439639869261
6.395428352,1.0000231760290161,103.19594808353955
6.397714432,1.0000287744858076,103.04742297671552
6.4,1.0000329642658596,102.89885566305782
6.402285568,1.000035602137727,102.75023769814794
6.404571648,1.0000361759277527,102.6016221573743
6.406857216,1.0000349732470986,102.45300260490379
6.409142784,1.0000319321981426,102.30444094535092
6.411428352,1.0000272623668756,102.15592830991909
6.413714432,1.000021288225907,102.00753575053366
6.416,1.000014303811036,101.85923003970747
6.418285568,1.000006808691682,101.71103330511136
6.420571648,0.9999994032015049,101.56296325995238
6.422857216,0.9999923362565463,101.41502545631357
6.425142784,0.9999862011089458,101.26718509254388
6.427428352,0.9999812030738813,101.11945218698763
6.429714432,0.999977890790494,100.9717773887541
6.432,0.9999763674155799,100.82412099854123
6.434285568,0.9999767746003495,100.6765082043904
6.436571648,0.9999790725024575,100.52890971591347
6.438857216,0.9999829083810436,100.38125355749602
6.441142784,0.9999884021324007,100.23353653832041
6.443428352,0.9999950287271272,100.0857621154661
6.445714432,1.00000235851759,99.93788566413332
6.448,1.0000098717857813,99.78991006007485
6.450285568,1.0000172645161733,99.6418496186453
6.452571648,1.000023928572221,99.4936979879881
6.454857216,1.0000293738181556,99.34546811585497
6.457142784,1.0000335005342404,99.1971620917933
6.459428352,1.0000357886468572,99.04884801776376
6.461714432,1.0000363203017597,98.90050953012295
6.464,1.0000349539920645,98.752180684345
6.466285568,1.0000316843318522,98.60390371439576
6.468571648,1.0000268278228404,98.4557085496979
6.470857216,1.0000206553811828,98.30758595614996
6.473142784,1.0000136361711027,98.15960546005478
6.475428352,1.0000060569618257,98.01169425441434
6.477714432,0.9999986028185583,97.86391455887238
6.48,0.9999915121619438,97.71627207108149
6.482285568,0.9999854638451329,97.56872965417276
6.484571648,0.9999807186451852,97.42127527134892
6.486857216,0.9999775281835449,97.27389196136242
6.489142784,0.9999761064670287,97.12654427580362
6.491428352,0.9999767381612986,96.97922698011503
6.493714432,0.9999791592220739,96.83190180634544
6.496,0.9999833206939808,96.68451475109374
6.498285568,0.9999889113305432,96.53708575693416
6.500571648,0.9999956688342057,96.38956938020837
6.502857216,1.000003019117863,96.24197227184871
6.505142784,1.0000106183930602,96.09426412114296
6.507428352,1.000017934560121,95.94647265093658
6.509714432,1.0000245338855667,95.79858218423972
6.512,1.0000299496863607,95.6506254592791
6.514285568,1.000033938094337,95.50259292915717
6.516571648,1.0000360825252834,95.35455129448927
6.518857216,1.0000363923509283,95.20646613011026
6.521142784,1.00003477536825,95.05842698197625
6.523428352,1.000031401688431,94.9104298520693
6.525714432,1.0000263603387547,94.76249693652983
6.528,1.0000200608633305,94.6146686855568
6.530285568,1.000012852025331,94.4669466415099
6.532571648,1.000005335674773,94.31934344767143
6.534857216,0.9999977351185481,94.17185827088119
6.537142784,0.9999907426305564,94.02448296120038
6.539428352,0.9999847611117515,93.87721647267857
6.541714432,0.9999800992598981,93.73002755132642
6.544,0.9999771062980541,93.58291708310506
6.546285568,0.9999759202114149,93.43585566839695
6.548571648,0.999976713222271,93.28878332273153
6.550857216,0.9999793293058802,93.14172246423375
6.553142784,0.9999835895491642,92.99460933819142
6.555428352,0.9999893004641262,92.84741884291168
6.557714432,0.9999963120533898,92.70017309423271
6.56,1.0000037055494708,92.55283133259583
6.562285568,1.0000113551205496,92.40536596099675
6.564571648,1.0000186390763106,92.25780170228626
6.566857216,1.0000251783029017,92.11017605408037
6.569142784,1.000030492496439,91.96246816727263
6.571428352,1.0000343032327978,91.81469178159584
6.573714432,1.0000363400410133,91.66688116237799
6.576,1.0000363864554436,91.51907181407299
6.578285568,1.000034621461561,91.37126226535281
6.580571648,1.000031077546217,91.22353757828722
6.582857216,1.0000258570339753,91.0758792074101
6.585142784,1.0000193748049537,90.92830851635375
6.587428352,1.0000121004726792,90.78084322909515
6.589714432,1.000004498490323,90.63349158654779
6.592,0.9999969138446583,90.48627086353133
6.594285568,0.9999900417836266,90.3391576275388
6.596571648,0.999983987253837,90.19215598847839
6.598857216,0.9999794499246704,90.04522787882601
6.601142784,0.9999765985540213,89.89837668676374
6.603428352,0.9999756065313987,89.75153694518191
6.605714432,0.9999765860301041,89.60475412568088
6.608,0.999979428356226,89.45791832603133
6.610285568,0.9999838990970402,89.31104442053349
6.612571648,0.9999898346765494,89.16409274397063
6.614857216,0.9999967642450681,89.01707808962774
6.617142784,1.0000044103172174,88.86996518355427
6.619428352,1.000012071903859,88.72275070340989
6.621714432,1.0000194051839237,88.57543360693025
6.624,1.0000258300570708,88.42800832325142
6.626285568,1.0000310958448908,88.28052491181884
6.628571648,1.000034733274675,88.13298227516671
6.630857216,1.000036490246519,87.98541407144842
6.633142784,1.0000365359811405,87.83783871214371
6.635428352,1.000034429595586,87.69028911232495
6.637714432,1.000030678897247,87.54279771028091
6.64,1.0000253373179997,87.3953608230307
6.642285568,1.0000187704497283,87.24803014999327
6.644571648,1.0000113742555206,87.10081263115819
6.646857216,1.0000036074410763,86.95371072389179
6.649142784,0.9999960538659878,86.80672072122172
6.651428352,0.9999891685746907,86.65984909401139
6.653714432,0.9999833588456207,86.51309023296368
6.656,0.9999789430198024,86.36641213767145
6.658285568,0.9999762825307997,86.21980239185362
6.660571648,0.9999754401236448,86.07320075494401
6.662857216,0.9999765187954629,85.92661947466783
6.665142784,0.9999796186035809,85.78002505377785
6.667428352,0.9999843141389334,85.6333791612512
6.669714432,0.9999904534969899,85.4866666908056
6.672,0.9999974928323477,85.33985561219119
6.674285568,1.0000050985465567,85.19293726507104
6.676571648,1.000012772222423,85.04593367132594
6.678857216,1.0000201311452654,84.89882816625817
6.681142784,1.000026474933684,84.75161717325224
6.683428352,1.0000316110432412,84.60435218286689
6.685714432,1.00003506873825,84.45703117668691
6.688,1.000036758018947,84.30967419056263
6.690285568,1.0000364734101017,84.1622966875937
6.692571648,1.0000342651194818,84.01496921245146
6.694857216,1.0000303138319835,83.86768594090928
6.697142784,1.000024819413769,83.72049409544154
6.699428352,1.0000180298398957,83.5733816734859
6.701714432,1.0000105724550503,83.42638787076226
6.704,1.0000028665537857,83.27950404710076
6.706285568,0.9999952652080307,83.13275402428718
6.708571648,0.9999884320632387,82.98612706624188
6.710857216,0.9999826356850027,82.83957469300768
6.713142784,0.999978390509105,82.69310369730826
6.715428352,0.9999758337411426,82.54670156620564
6.717714432,0.9999752506312909,82.40031908430248
6.72,0.9999765694427941,82.25395993202909
6.722285568,0.9999798388378065,82.10755285741632
6.724571648,0.9999846375790005,81.96110033777957
6.726857216,0.9999908941766521,81.81458506116606
6.729142784,0.9999981533362549,81.66797607177733
6.731428352,1.000005781502197,81.52126647226466
6.733714432,1.0000135477055245,81.37445679617691
6.736,1.000020828967942,81.22753619783265
6.738285568,1.000027117320373,81.08054028126368
6.740571648,1.000032173414204,80.93344893558087
6.742857216,1.00003547197481,80.78630148894091
6.745142784,1.0000369808098488,80.63915206239797
6.747428352,1.0000364873435892,80.49198906088229
6.749714432,1.0000340936016379,80.34485837016169
6.752,1.0000298924875914,80.19776607362839
6.754285568,1.0000242656493394,80.05076196417683
6.756571648,1.0000173366994727,79.90387877929629
6.758857216,1.0000098269554814,79.75707316247458
6.761142784,1.0000019853550681,79.61041432294758
6.763428352,0.9999944476071619,79.46386732209884
6.765714432,0.9999875997907636,79.31742003057145
6.768,0.9999820388518412,79.17108891477268
6.770285568,0.9999778222177949,79.02481612545562
6.772571648,0.9999754684018366,78.87860722694863
6.774857216,0.9999750326598913,78.73242624732423
6.777142784,0.999976608572605,78.58624545744593
6.779428352,0.9999799443174443,78.44003307816631
6.781714432,0.9999850683791275,78.29378224230683
6.784,0.9999914482144278,78.14744008040296
6.786285568,0.9999987314420343,78.00098953199726
6.788571648,1.000006580530304,77.85445888569264
6.790857216,1.0000142386577462,77.70782474458932
6.793142784,1.0000215517160838,77.56108219554784
6.795428352,1.0000278068968464,77.41424444164704
6.797714432,1.0000327015551154,77.26734360740578
6.8,1.0000358459079448,77.12038604712232
6.802285568,1.0000371023535075,76.97339088092978
6.804571648,1.0000365109609777,76.82639272719837
6.806857216,1.0000339135845866,76.679457839244
6.809142784,1.000029580840706,76.53254693297282
6.811428352,1.0000236783489034,76.38573440828951
6.813714432,1.0000167848396873,76.23900933472623
6.816,1.0000090530274501,76.09241750367669
6.818285568,1.0000011192705172,75.94593440579396
6.820571648,0.9999936337882338,75.79956158827558
6.822857216,0.9999868765154964,75.65331494950222
6.825142784,0.9999812925381545,75.50714602314966
6.827428352,0.9999773014455728,75.361054630628
6.829714432,0.9999751005344216,75.21504895818497
6.832,0.9999748395801021,75.0690411733521
6.834285568,0.999976646187515,74.92301722686979
6.836571648,0.9999801880330053,74.77698247885944
6.838857216,0.9999854478295935,74.63087623439944
6.841142784,0.9999920013227644,74.48469848630613
6.843428352,0.9999994462808867,74.33841918271078
6.845714432,1.0000073133035583,74.19203525301911
6.848,1.0000150680122473,74.04555648227063
6.850285568,1.0000221677752927,73.89895668598945
6.852571648,1.0000284122304546,73.75227724445864
6.854857216,1.000033147925826,73.6055252038762
6.857142784,1.0000362320718033,73.45872840327796
6.859428352,1.0000373254695358,73.3118916992498
6.861714432,1.0000364944577085,73.16506068894417
6.864,1.0000336300019783,73.01826558541926
6.866285568,1.0000290777145764,72.87153215619374
6.868571648,1.0000231316294963,72.7248605046026
6.870857216,1.0000160130889308,72.57832118943718
6.873142784,1.0000081982009272,72.4318912462504
6.875428352,1.0000003536027537,72.2855818814968
6.877714432,0.9999927521053792,72.13937414118324
6.88,0.9999860418356923,71.99328309567457
6.882285568,0.9999806676535272,71.84729347495151
6.884571648,0.9999768026391742,71.70136169053879
6.886857216,0.9999747594536886,71.5554863785301
6.889142784,0.9999746820434506,71.40965229316572
6.891428352,0.9999767316204209,71.26378865953377
6.893714432,0.9999804513424532,71.11788823802263
6.896,0.9999858714874862,70.971915189412
6.898285568,0.9999925490464435,70.82587113956123
6.900571648,1.00000009005606,70.67974939630344
6.902857216,1.000007953281355,70.53350561803602
6.905142784,1.0000157622138137,70.38713097574403
6.907428352,1.0000230092999773,70.2406880740051
6.909714432,1.0000290309053237,70.09414177448646
6.912,1.0000336420431841,69.94751186948763
6.914285568,1.0000365306268708,69.80083726701183
6.916571648,1.0000374541351067,69.65415467256172
6.918857216,1.0000363855811993,69.50744707383326
6.921142784,1.0000334377595828,69.3608025730796
6.923428352,1.0000286791533768,69.21421740081533
6.925714432,1.0000224833225704,69.0677091298225
6.928,1.000015263449514,68.9212891819141
6.930285568,1.0000074046707734,68.7750107793486
6.932571648,0.9999994816754783,68.62884199110589
6.934857216,0.9999919116104926,68.4827842510647
6.937142784,0.9999853332949186,68.33685347932145
6.939428352,0.9999799180321967,68.19097623290317
6.941714432,0.9999762204250919,68.0452092372819
6.944,0.9999743885690663,67.89946577960953
6.946285568,0.9999745070725269,67.75375147895068
