freq,mag,phase
6.0,0.9997901056028177,173.02451210118585
6.002286592,0.9997383116591199,172.87413624864192
6.004572672,0.9997035889453706,172.7244071188411
6.006859264,0.9996879281594466,172.57507736994577
6.009145344,0.9996920252407305,172.4258307170831
6.011431936,0.9997158494962073,172.27645421622785
6.013718016,0.9997576698481246,172.1265832126156
6.016004608,0.9998150317975152,171.9760268242321
6.018290688,0.9998843772388697,171.8245670046925
6.02057728,0.9999611984630216,171.67206508056924
6.022863872,1.0000407498364599,171.51843525574654
6.025149952,1.0001177363982183,171.36371169006043
6.027436544,1.00018768924027,171.20795243274364
6.029722624,1.0002458758246684,171.05128294486823
6.032009216,1.000288754727472,170.8938877388454
6.034295296,1.0003134673484217,170.73603609109318
6.036581888,1.0003187095001096,170.57796217528383
6.03886848,1.0003039261620623,170.41999871538684
6.04115456,1.0002700417805053,170.26240666860429
6.043441152,1.0002193874918412,170.10546567504733
6.045727232,1.0001548640088074,169.94935319585673
6.048013824,1.0000807200447717,169.7942906562671
6.050299904,1.0000015943827671,169.64034797213577
6.052586496,0.9999225356006622,169.48757993753068
6.054872576,0.9998484459683733,169.3359570074552
6.057159168,0.9997841378553413,169.18533594333968
6.05944576,0.9997335127930527,169.0356024869366
6.06173184,0.999700072614678,168.88648412955956
6.064018432,0.9996856314674296,168.73775586229357
6.066304512,0.9996911944359642,168.58910720926303
6.068591104,0.9997164808192038,168.44024655387796
6.070877184,0.9997598534707461,168.2909186134803
6.073163776,0.999818675686625,168.14085373802146
6.075450368,0.9998890860924566,167.98989446149733
6.077736448,0.9999668111961469,167.8378852110219
6.08002304,1.0000467954707066,167.6847529685843
6.08230912,1.000123970679472,167.53049209040415
6.084595712,1.0001935557787278,167.3751927545835
6.086881792,1.0002511371388518,167.21899955404592
6.089168384,1.0002930153991476,167.06209809306677
6.091454464,1.0003165641442073,166.90473009765117
6.093741056,1.0003202396080544,166.7472033732562
6.096027648,1.0003039106864036,166.58979478810377
6.098313728,1.0002686174612818,166.43278139105004
6.10060032,1.0002164457877303,166.27641328731312
6.1028864,1.0001506570783631,166.1209144897129
6.105172992,1.0000755723091483,165.9664838589186
6.107459072,0.9999957487483887,165.81319142688568
6.109745664,0.9999163004479746,165.66105148829968
6.112032256,0.9998423527028856,165.5100922887135
6.114318336,0.9997785628556348,165.3601361344951
6.116604928,0.9997288396344945,165.21103069034055
6.118891008,0.9996964257278464,165.06254986572137
6.1211776,0.9996833032715059,164.9144050909002
6.12346368,0.9996904097203985,164.76634491516728
6.125750272,0.9997173666802379,164.61805445816532
6.128036352,0.9997622644189266,164.4692784527858
6.130322944,0.9998224370003466,164.31974765519917
6.132609536,0.9998939459854099,164.16929587674355
6.134895616,0.9999724013064103,164.01778933876582
6.137182208,1.0000529788432468,163.86512135723257
6.139468288,1.00013017369695,163.71131997709313
6.14175488,1.0001994994301642,163.55652497354035
6.14404096,1.000256382380593,163.40081337634976
6.146327552,1.0002972541502968,163.24440874462616
6.148614144,1.000319491894008,163.08756909277895
6.150900224,1.0003216942617297,162.93059267804335
6.153186816,1.000303810283967,162.77373570705115
6.155472896,1.0002669172724907,162.61731305835258
6.157759488,1.000213219666677,162.4615383382865
6.160045568,1.0001462599565698,162.30668231975767
6.16233216,1.0000700878978126,162.1528741787951
6.16461824,0.9999896731378743,162.00025611305531
6.166904832,0.9999099808642101,161.84878338682668
6.169191424,0.9998362144923384,161.69848341498067
6.171477504,0.9997728016841936,161.5492063636638
6.173764096,0.9997240133433328,161.40074015459484
6.176050176,0.9996927925211938,161.25288285666846
6.178336768,0.9996810607975867,161.10538998381384
6.180622848,0.9996897376955766,160.95791974378366
6.18290944,0.9997182307723267,160.81021344003642
6.18519552,0.9997647605902835,160.66197639194885
6.187482112,0.9998263345533064,160.51298508856271
6.189768704,0.9998990276851826,160.36304881509992
6.192054784,0.9999783636573341,160.2120278133299
6.194341376,1.000059252783364,160.0598608133459
6.196627456,1.0001366408219676,159.90656936202973
6.198914048,1.0002055762191593,159.7522541311731
6.201200128,1.0002616974806646,159.59703649975924
6.20348672,1.0003014786358628,159.44113729867388
6.205773312,1.0003224442765468,159.284831529049
6.208059392,1.0003232410906635,159.12839809941545
6.210345984,1.0003036663944715,158.9721067996916
6.212632064,1.0002651682505677,158.81627793299387
6.214918656,1.0002100166308125,158.66114076684468
6.217204736,1.0001417215022275,158.50692571266887
6.219491328,1.0000646090278873,158.35378769434467
6.221777408,0.9999835080051351,158.20183591753187
6.224064,0.9999036325098385,158.05104285326942
6.226350592,0.9998299680695808,157.90140819687417
6.228636672,0.9997671227479961,157.75278921384958
6.230923264,0.9997192196350004,157.6050005203188
6.233209344,0.9996891979057733,157.45781347793667
6.235495936,0.9996789217679172,157.3109151128313
6.237782016,0.9996892482068864,157.16406791824235
6.240068608,0.9997194045565293,157.01694599864894
6.2423552,0.9997674848129393,156.86927002135266
6.24464128,0.9998304194622173,156.72082635347155
6.246927872,0.9999041971091601,156.57139201384317
6.249213952,0.999984440938623,156.42088058869226
6.251500544,1.0000657199631224,156.26919846107168
6.253786624,1.0001431590143428,156.1164322609716
6.256073216,1.0002116757378987,155.96260642525763
6.258359296,1.0002672101190728,155.8078696247112
6.260645888,1.0003057163262243,155.65252821300993
6.26293248,1.000325381717124,155.49675434419404
6.26521856,1.000324607150435,155.340868184062
6.267505152,1.0003034136579507,155.18519201940586
6.269791232,1.0002632640861107,155.02996024304426
6.272077824,1.0002065887770302,154.8754373317111
6.274363904,1.0001369826550905,154.72189394970107
6.276650496,1.0000588130647359,154.56940058347274
6.278937088,0.9999772206933805,154.41811833244142
6.281223168,0.9998969822735072,154.268046835846
6.28350976,0.9998235620185261,154.11909194146847
6.28579584,0.9997612859262565,153.9711816963824
6.288082432,0.9997143881792651,153.82402672021516
6.290368512,0.9996856350273864,153.67750083223592
6.292655104,0.9996769566617508,153.53125645019628
6.294941184,0.999688892120297,153.38502188045842
6.297227776,0.9997206865837139,153.23847355431494
6.299514368,0.9997703300331673,153.09136040680832
6.301800448,0.9998346826439066,152.94344956432056
6.30408704,0.9999096756908582,152.79456993603955
6.30637312,0.9999906439477735,152.64455828941237
6.308659712,1.000072404258978,152.49339782130318
6.310945792,1.0001497489838793,152.34111588645678
6.313232384,1.0002179932811384,152.18778917817636
6.315518464,1.0002725898760747,152.03360615979253
6.317805056,1.0003100853682447,151.8787617295479
6.320091648,1.0003281971895934,151.72353611363567
6.322377728,1.000325836179836,151.56821950888363
6.32466432,1.0003029041723797,151.41313406678125
6.3269504,1.0002610763064914,151.25850964582128
6.329236992,1.0002029713530054,151.1046513594027
6.331523072,1.00013207934369,150.95174917038557
6.333809664,1.0000529544592638,150.79993860989745
6.336096256,0.9999706440708784,150.64936109000428
6.338382336,0.9998904154796079,150.4999768440301
6.340668928,0.9998170777409302,150.35172031418338
6.342955008,0.9997555276643572,150.2044800688072
6.3452416,0.9997096552429503,150.05803079288356
6.34752768,0.9996822215144294,149.91216974086996
6.349814272,0.9996750429959632,149.76653443194283
6.352100352,0.9996887086870984,149.6209100653546
6.354386944,0.999722192179765,149.47498068990376
6.356673536,0.9997733085365786,149.32844014013392
6.358959616,0.9998392072485274,149.18108369561756
6.361246208,0.9999153789027536,149.0327144238587
6.363532288,0.9999971626186815,148.88323000734647
6.36581888,1.000079186142963,148.73258782358198
6.36810496,1.0001565811642763,148.58078731310692
6.370391552,1.0002242793465714,148.4279740938079
6.372678144,1.0002779752220574,148.27428236324596
6.374964224,1.000314310742912,148.11998671506933
6.377250816,1.0003310072133367,147.96533965205577
6.379536896,1.0003268567523647,147.81058007396345
6.381823488,1.000302398359166,147.65608386033358
6.384109568,1.0002588135116834,147.50209949885962
6.38639616,1.0001990273688597,147.34889338798374
6.38868224,1.0001269047578576,147.1966647966148
6.390968832,1.0000467867834704,147.04554503735673
6.393255424,0.9999638677756991,146.89567241106292
6.395541504,0.9998834377461853,146.74697241489991
6.397828096,0.9998104934246732,146.59944391137066
6.400114176,0.9997494952856254,146.45288794342466
6.402400768,0.9997047091101002,146.30711568556654
6.404686848,0.999678668172385,146.16190162499188
6.40697344,0.9996731107653875,146.01693993388747
6.409260032,0.9996884386083736,145.87194600533908
6.411546112,0.9997236559904982,145.7265995866607
6.413832704,0.9997765891167062,145.58063492270773
6.416118784,0.9998437795099587,145.43382371714668
6.418405376,0.9999211508096608,145.2859843420025
6.420691456,1.0000037216877602,145.1370160642576
6.422978048,1.0000861737991849,144.9868801154721
6.425264128,1.0001634333202774,144.8355983316244
6.42755072,1.000230595809731,144.6832758874905
6.429837312,1.0002834960980893,144.53014218711525
6.432123392,1.0003184755478662,144.37636245259546
6.434409984,1.0003335439708572,144.2222622532486
6.436696064,1.000327800159855,144.06810397466813
6.438982656,1.0003015541073894,143.91418940122176
6.441268736,1.0002562920864457,143.7608511849553
6.443555328,1.0001949707129785,143.6083095957767
6.44584192,1.0001214899764126,143.45673941117536
6.448128,1.0000404457529914,143.30633624133574
6.450414592,0.9999569574976864,143.15713057706645
6.452700672,0.9998763434661564,143.00913490096514
6.454987264,0.9998036140621872,142.8623258671031
6.457273344,0.9997435017005545,142.71647320718114
6.459559936,0.9996996999734349,142.57139656610624
6.461846016,0.9996752341169921,142.42685226022402
6.464132608,0.9996712463386155,142.28253448282484
6.4664192,0.9996884107738813,142.13817103193884
6.46870528,0.9997253616287414,141.99342692837706
6.470991872,0.9997799260651906,141.8480186748436
6.473277952,0.9998485320203364,141.70176136714434
6.475564544,0.9999270636546929,141.5544548988427
6.477850624,1.0000102903469004,141.4060014470406
6.480137216,1.0000931856145607,141.25635239638052
6.482423296,1.000170342349994,141.10558719331817
6.484709888,1.0002369995116889,140.95379497531732
6.48699648,1.0002888741607132,140.80117303763234
6.48928256,1.0003226324206784,140.64792245103803
6.491569152,1.0003361896232628,140.49437810233343
6.493855232,1.000328692391251,140.34081080450468
6.496141824,1.000300548353834,140.18751793494462
6.498427904,1.0002534817458184,140.0348096299738
6.500714496,1.0001906177932218,139.88289797732676
6.503001088,1.0001158537494403,139.73203202712233
6.505287168,1.0000338474549315,139.58231430865868
6.50757376,0.9999497943232274,139.43382358387504
6.50985984,0.999869247432887,139.2865699711794
6.512146432,0.9997967871333553,139.14043290024063
6.514432512,0.9997374369948706,138.99529276706474
6.516719104,0.9996948342240743,138.85091237259246
6.519005184,0.9996717063032631,138.7070358735141
6.521291776,0.9996695567934526,138.56336748650267
6.523578368,0.9996884171626137,138.41960781787142
6.525864448,0.999727238377772,138.2754636632924
6.52815104,0.9997834597386516,138.13063893934978
6.53043712,0.9998536116098931,137.98493823012777
6.532723712,0.9999332250197895,137.83813812670002
6.535009792,1.000017192717415,137.6902127636725
6.537296384,1.0001003763300422,137.54108501552045
6.539582976,1.0001774145960736,137.3908105745146
6.541869056,1.000243414494483,137.23952289224704
6.544155648,1.0002943353950824,137.0874036334748
6.546441728,1.0003266543132079,136.9347080778171
6.54872832,1.0003386447536682,136.78174630765466
6.5510144,1.0003292946597897,136.62877045783688
6.553300992,1.0002993353746596,136.47607768077586
6.555587072,1.0002505492257636,136.32399314150842
6.557873664,1.0001861056577366,136.17276665748557
6.560160256,1.0001100337825628,136.02258158118187
6.562446336,1.0000270660186832,135.8735410946456
6.564732928,0.9999424724983416,135.72578715723645
6.567019008,0.9998617525342021,135.57923053002852
6.5693056,0.9997897546765887,135.43383380631138
6.57159168,0.9997312760598271,135.2893667476459
6.573878272,0.9996898954321748,135.1456986194976
6.576164864,0.9996683302755485,135.0024856912284
6.578450944,0.9996679220224225,134.8594773235098
6.580737536,0.9996886340012859,134.7163024448187
6.583023616,0.9997292086630223,134.57275855037332
6.585310208,0.9997871856073618,134.4284968424543
6.587596288,0.9998588250621738,134.2833281070832
6.58988288,0.9999394898686023,134.13707957996462
6.59216896,1.0000242098331729,133.98966727752577
6.594455552,1.0001076445387154,133.84102559856058
6.596742144,1.0001845701115624,133.69125010297077
6.599028224,1.0002499778425862,133.54048174639453
6.601314816,1.0002997008811445,133.38889594132775
6.603600896,1.000330670518476,133.23675919136332
6.605887488,1.0003408776708227,133.08431396631207
6.608173568,1.0003298793155346,132.9319207113011
6.61046016,1.000297927892549,132.77987122343163
6.612746752,1.0002473981811715,132.62842160751023
6.615032832,1.000181279549027,132.4778457006695
6.617319424,1.000104009064188,132.32834113087594
6.619605504,1.0000200584970613,132.18002634589507
6.621892096,0.9999349457943313,132.03296287881926
6.624178176,0.9998542169467639,131.88713106111086
6.626464768,0.9997827563247282,131.7424203791444
6.628750848,0.9997250734037256,131.5986975674485
6.63103744,0.9996850224802157,131.45567942558782
6.633324032,0.9996650525232416,131.31314001764852
6.635610112,0.9996664475004442,131.1707653928649
6.637896704,0.9996889646449062,131.0282578196756
6.640182784,0.9997315042275485,130.88526970686192
6.642469376,0.9997911249840806,130.74155138552248
6.644755456,0.9998642127723251,130.5969453351728
6.647042048,0.9999461517590402,130.45121223867156
6.649328128,1.000031533688174,130.3042807110737
6.65161472,1.0001152879346467,130.15617228127522
6.653901312,1.0001918523195095,130.00689327777175
6.656187392,1.0002566365300987,129.85660919051134
6.658473984,1.0003051186170457,129.7055267529354
6.660760064,1.0003346546954335,129.55394514235894
6.663046656,1.0003431884161242,129.40208293738252
6.665332736,1.000330269253898,129.25025666326292
6.667619328,1.0002963876287072,129.09881518258692
6.66990592,1.0002440832763462,128.9480186077267
6.672192,1.0001763393233174,128.79809291710694
6.674478592,1.0000976797867398,128.64928098948474
6.676764672,1.0000127979492281,128.50165741154638
6.679051264,0.9999273966199574,128.35531864517506
6.681337344,0.9998465238368366,128.2102021328917
6.683623936,0.9997755990532433,128.0662191292848
6.685910016,0.9997189279139208,127.92317857081014
6.688196608,0.9996802345696046,127.78086296277107
6.6904832,0.9996617031553865,127.63898427390423
6.69276928,0.9996650560336742,127.49725666575378
6.695055872,0.9996896103519339,127.35531788745261
6.697341952,0.99973396185228,127.21293816994319
6.699628544,0.9997954060221207,127.06979096637087
6.701914624,0.9998699039536861,126.92568091962032
6.704201216,0.9999528902438175,126.78048143980674
6.706487808,1.00003906183775,126.63404473412878
6.708773888,1.0001229655618384,126.48641861904309
6.71106048,1.0001991538806934,126.33764284952251
6.71334656,1.000263148034843,126.18788220306881
6.715633152,1.0003106064667584,126.03730012234158
6.717919232,1.0003385832569365,125.88623418778715
6.720205824,1.0003452896152998,125.73490671235932
6.722491904,1.0003304077203137,125.58369515165658
6.724778496,1.0002946690995156,125.43284314254105
6.727065088,1.0002404084734848,125.28268693991238
6.729351168,1.000171133321196,125.13343941691521
6.73163776,1.000091025123992,124.9853204661458
6.73392384,1.0000053954208978,124.83839782264965
6.736210432,0.9999195028962475,124.69276903068662
6.738496512,0.9998387108234096,124.54836415048361
6.740783104,0.9997683052361627,124.40507851157635
6.743069696,0.9997126386490625,124.26274844513212
6.745355776,0.999675351190087,124.12110120307771
6.747642368,0.99965871058894,123.97987969740714
6.749928448,0.9996637711896518,123.83878183243988
6.75221504,0.9996903504968343,123.69746916321758
6.75450112,0.999736637740973,123.55563044802933
6.756787712,0.9997997273627219,123.41305836238878
6.759073792,0.9998758027255528,123.26946121457742
6.761360384,0.9999599066601177,123.12475298630953
6.763646976,1.0000467270153373,122.97880574379126
6.765933056,1.000130748446115,122.83166351615877
6.768219648,1.0002068610167056,122.68337216662258
6.770505728,1.0002697995198437,122.53411347740186
6.77279232,1.000316045357519,122.38404172777555
6.7750784,1.000342474139714,122.23347530316946
6.777364992,1.000347368802613,122.08274239821475
6.779651584,1.0003303873970313,121.93208263704739
6.781937664,1.0002926377875998,121.78186714533021
6.784224256,1.0002365443087582,121.63234273795659
6.786510336,1.0001657119715357,121.48375483903158
6.788796928,1.0000843010358973,121.33632227006838
6.791083008,0.9999977597151292,121.19008872430811
6.7933696,0.9999115207968121,121.04517323810653
6.79565568,0.9998308379276243,120.90147665897568
6.797942272,0.9997609944974863,120.75889054698911
6.800228864,0.9997064210612704,120.61725171463168
6.802514944,0.999670582951286,120.47628233271021
6.804801536,0.9996556731066921,120.33571909226877
6.807087616,0.9996627088674411,120.19523389292145
6.809374208,0.9996913689335027,120.0545178628722
6.811660288,0.999739522298716,119.91325448347644
6.81394688,0.9998045320681032,119.77119373161388
6.81623296,0.9998819410931159,119.62813122706876
6.818519552,0.9999671635957921,119.48389886883359
6.820806144,1.0000546621442437,119.33844186617351
6.823092224,1.0001388302466607,119.19178497134025
6.825378816,1.0002144260931531,119.04395936871468
6.827664896,1.0002766088488702,118.89516935554774
6.829951488,1.0003214294383773,118.74562790348796
6.832237568,1.0003462223245583,118.59559166593714
6.83452416,1.000349113264384,118.44538273504934
6.836810752,1.000330219070893,118.29531693772324
6.839096832,1.0002905616100395,118.14569033577722
6.841383424,1.0002325382362707,117.99680833787005
6.843669504,1.0001599311772198,117.84887833324635
6.845956096,1.0000772820542552,117.70210157615236
6.848242176,0.9999898711169988,117.55659738208843
6.850528768,0.9999031933895987,117.41236586678914
6.852814848,0.9998227112540938,117.26937679000048
6.85510144,0.9997535953146214,117.12749474250543
6.857388032,0.9997001678140508,116.98653409166631
6.859674112,0.9996657786489862,116.84624309495547
6.861960704,0.9996526999982489,116.70632002551883
6.864246784,0.9996618035507832,116.56643535791903
6.866533376,0.9996924169328835,116.42629803635992
6.868819456,0.9997426804596472,116.28559648285567
6.871106048,0.9998094501860957,116.14406344982301
6.87339264,0.9998884312981572,116.00149963150027
6.87567872,0.9999746319604813,115.85776549175819
6.877965312,1.000062711574026,115.71277641484585
6.880251392,1.0001469198219608,115.56657562163136
6.882537984,1.0002220151216707,115.41921722836435
6.884824064,1.0002833406715739,115.27090411033906
6.887110656,1.000326863143981,115.12185243289908
6.889396736,1.0003498755998648,114.9723467041412
6.891683328,1.0003509385063871,114.8226704618126
6.89396992,1.0003299606238631,114.6731746619449
6.896256,1.0002880520658401,114.52414712076812
6.898542592,1.0002281836100795,114.37588671767944
6.900828672,1.0001539305581688,114.22861173805823
6.903115264,1.000070141400988,114.08251849541216
6.905401344,0.9999819033383965,113.93769847799511
6.907687936,0.9998949038043635,113.79416537245083
6.909974528,0.9998146274542595,113.65189277490899
6.912260608,0.9997461081078078,113.51070302623391
6.9145472,0.9996939103173725,113.37041504982625
6.91683328,0.9996610568946594,113.2307700067984
6.919119872,0.9996499163222559,113.09147762423056
6.921405952,0.9996610436846852,112.95220695457361
6.923692544,0.9996938047496884,112.8126425925781
