freq,mag,phase
6.0,0.9996184287502675,103.145460300643
6.002285568,0.999519286469703,103.00681364934714
6.004571648,0.999450197728471,102.8694260460731
6.006857216,0.9994162556024415,102.73284365408006
6.009142784,0.9994198188601482,102.59648930156622
6.011428352,0.9994604456455082,102.45985875574362
6.013714432,0.9995357400081675,102.32244084813618
6.016,0.9996409068140674,102.18375938553704
6.018285568,0.9997693210103432,102.04339508642126
6.020571648,0.9999127570997504,101.90108259003264
6.022857216,1.0000621220432195,101.75670173677078
6.025142784,1.0002080703416243,101.61018539862675
6.027428352,1.0003412022034435,101.46169862212592
6.029714432,1.0004531146955313,101.31144978655385
6.032,1.0005366414746026,101.15981708634735
6.034285568,1.0005865732204038,101.0072339547543
6.036571648,1.000599677578797,100.85425539620068
6.038857216,1.0005751065566186,100.70136128035838
6.041142784,1.0005143907588796,100.54911920503211
6.043428352,1.0004212856108363,100.39806909179494
6.045714432,1.0003016620523673,100.24857274971306
6.048,1.000163115939568,100.10096814915174
6.050285568,1.0000146336174345,99.9554787555692
6.052571648,0.9998654296729281,99.81222094786004
6.054857216,0.9997247666451619,99.67109417989782
6.057142784,0.9996019194675279,99.53191744281784
6.059428352,0.9995046422243198,99.39439439660505
6.061714432,0.99943900084804,99.25806633321572
6.064,0.9994093721011891,99.12249297033442
6.066285568,0.9994174868710124,98.98712508773693
6.068571648,0.9994630187813578,98.8513782236922
6.070857216,0.9995428947546959,98.71477671697518
6.073142784,0.9996521933052915,98.57682046368483
6.075428352,0.999784014072364,98.43711698786032
6.077714432,0.9999300407619577,98.29546742825357
6.08,1.0000808007942272,98.15167222586786
6.082285568,1.000226998062032,98.00575384445585
6.084571648,1.0003591397163403,97.85784708046111
6.086857216,1.0004687590367032,97.70821825235967
6.089142784,1.0005492819929414,97.55723828815026
6.091428352,1.000595234115632,97.40536398633486
6.093714432,1.0006037925432516,97.25311712585079
6.096,1.0005742725973086,97.10105150799589
6.098285568,1.0005087554537206,96.94974307744369
6.100571648,1.0004111770752586,96.79961624652701
6.102857216,1.0002877688581886,96.65111455797425
6.105142784,1.0001463987014023,96.50458347848627
6.107428352,0.9999958611899236,96.36020232913005
6.109714432,0.9998457890848967,96.21804392341657
6.112,0.999705715408504,96.07804083670877
6.114285568,0.9995846203638699,95.93994970523757
6.116571648,0.9994900424134249,95.80347058770367
6.118857216,0.9994281769408301,95.66815822075209
6.121142784,0.9994028959499717,95.53353266593969
6.123428352,0.9994157280017946,95.39902562514155
6.125714432,0.9994660734534646,95.26410194096422
6.128,0.9995507478992374,95.12820018183679
6.130285568,0.999664341173257,94.99092303518492
6.132571648,0.9997995992609061,94.85183105129745
6.134857216,0.9999480421978718,94.71073877904628
6.137142784,1.0001001098761328,94.56747031597054
6.139428352,1.0002463450509265,94.42207140219514
6.141714432,1.0003772491690979,94.27469056095964
6.144,1.0004847668341719,94.1255905516717
6.146285568,1.0005618583063989,93.97516454374207
6.148571648,1.0006037402416617,93.82395247037027
6.150857216,1.0006075016049336,93.67238545426011
6.153142784,1.0005730612362775,93.52110065632174
6.155428352,1.0005028175412805,93.37059144094594
6.157714432,1.0004006983449394,93.22136241092865
6.16,1.000273378028995,93.0738291047686
6.162285568,1.0001290825569078,92.92829348851619
6.164571648,0.9999767259639968,92.78494959116286
6.166857216,0.999826002254289,92.64381779108265
6.169142784,0.999686563590257,92.50486838370152
6.171428352,0.9995672710774133,92.36779421536664
6.173714432,0.9994756763164433,92.23230325725075
6.176,0.9994176708876394,92.09794910091254
6.178285568,0.999396850506504,91.96421231890189
6.180571648,0.9994147601928925,91.8304859925862
6.182857216,0.9994701092794672,91.69625257429523
6.185142784,0.999559510528448,91.56104367657542
6.187428352,0.9996771959056518,91.42435414781646
6.189714432,0.9998158589509613,91.28578840256594
6.192,0.9999666062532255,91.14515140330919
6.194285568,1.0001199588049314,91.0023484519834
6.196571648,1.0002660102835377,90.85738759764654
6.198857216,1.0003956726785659,90.71045660109688
6.201142784,1.000500736007922,90.56181804939133
6.203428352,1.000574225326993,90.41195517231318
6.205714432,1.000611696308966,90.26128772552642
6.208,1.0006107771633062,90.11035886655614
6.210285568,1.0005713780828125,89.95979192253101
6.212571648,1.0004959262196078,89.81003218879256
6.214857216,1.0003893750729085,89.66166028322094
6.217142784,1.0002583973082468,89.51501553188258
6.219428352,1.0001110406251459,89.37042089193183
6.221714432,0.999957000859968,89.22806206947106
6.224,0.9998058872130874,89.08791064050016
6.226285568,0.9996672020403334,88.94993342822866
6.228571648,0.9995499609099666,88.81382745011568
6.230857216,0.999461569909967,88.67928030278121
6.233142784,0.9994075479049518,88.54579008991095
6.235428352,0.9993914297186439,88.4128182914678
6.237714432,0.9994143867041869,88.27984216951562
6.24,0.9994747957735315,88.14626560369646
6.242285568,0.9995690374032925,88.01160262931258
6.244571648,0.9996909212192445,87.8754093003126
6.246857216,0.9998329083575531,87.73731582993885
6.249142784,0.99998587878615,87.59708014999588
6.251428352,1.00014024718091,87.45465312748688
6.253714432,1.0002861807613879,87.31008009468306
6.256,1.0004142794040876,87.16351732904798
6.258285568,1.0005164321372422,87.01531165332275
6.260571648,1.0005863769100032,86.8658680731972
6.262857216,1.0006193710363924,86.71572619457127
6.265142784,1.0006134285468447,86.56537522210607
6.267428352,1.0005688488924696,86.41542358329816
6.269714432,1.000488515591545,86.26641976201127
6.272,1.00037744867424,86.11879084302811
6.274285568,1.0002425918457953,85.97299251567529
6.276571648,1.000092592129416,85.82930506489886
6.278857216,0.9999369393423727,85.68783822544661
6.281142784,0.999785370886368,85.54864600899879
6.283428352,0.9996478111717935,85.41156563248344
6.285714432,0.9995327074890678,85.2763660432127
6.288,0.9994475910059342,85.14265979939601
6.290285568,0.9993978473141193,85.00994403989782
6.292571648,0.9993866889049796,84.87770732095015
6.294857216,0.9994146777853335,84.74539060893177
6.297142784,0.9994802438220864,84.61240390158363
6.299428352,0.9995792065575801,84.4782351589698
6.301714432,0.999705427781751,84.3424786084599
6.304,0.9998506513319646,84.2047433091211
6.306285568,1.0000058067413744,84.06485724641057
6.308571648,1.0001610496130833,83.9227235904099
6.310857216,1.00030649761036,83.77842888450033
6.313142784,1.0004328951845567,83.63218834781374
6.315428352,1.0005322710419,83.4843020521134
6.317714432,1.0005981769639056,83.33526357881426
6.32,1.0006266189091768,83.18555169538718
6.322285568,1.0006155684125924,83.0357213259188
6.324571648,1.0005657600957742,82.88636162822625
6.326857216,1.0004803027538958,82.73799962158624
6.329142784,1.0003646442593155,82.59115083434531
6.331428352,1.000226099143077,82.44611174810875
6.333714432,1.0000733841178018,82.3032559811742
6.336,0.9999161805863714,82.16266044873976
6.338285568,0.9997645694801645,82.02431444564436
6.340571648,0.9996280516218852,81.88810975204305
6.342857216,0.9995153484347232,81.75373628993113
6.345142784,0.9994338371618451,81.62079970744195
6.347428352,0.9993884046981667,81.48882684126816
6.349714432,0.9993821791348116,81.35722109583226
6.352,0.9994154754951113,81.22548268111306
6.354285568,0.9994863345937752,81.09300269299354
6.356571648,0.9995901909537273,80.95925491371221
6.358857216,0.9997205043592878,80.82382177053233
6.361142784,0.9998689939772089,80.68638842429553
6.363428352,1.0000262140545333,80.54678604412318
6.365714432,1.0001821316697685,80.40486673258692
6.368,1.0003270154902724,80.26081040503001
6.370285568,1.0004515309580593,80.11481090035613
6.372571648,1.0005477234508924,79.96722649759612
6.374857216,1.0006096829147493,79.81851086109712
6.377142784,1.0006331951347864,79.66916435843211
6.379428352,1.0006169028758851,79.51982253092926
6.381714432,1.0005618457188792,79.37098212897217
6.384,1.000471341698823,79.22321257881731
6.386285568,1.0003512154114624,79.07701369620031
6.388571648,1.0002089291741052,78.93272158384421
6.390857216,1.0000536311758321,78.79062993880811
6.393142784,0.999895090738293,78.6508298195155
6.395428352,0.9997434952250486,78.5133140433852
6.397714432,0.9996082894708183,78.37789958716817
6.4,0.999498190408802,78.24429979585375
6.402285568,0.9994202832323177,78.11206016879969
6.404571648,0.9993794115398005,77.98073014487512
6.406857216,0.9993784158185501,77.84973270372423
6.409142784,0.9994170438497616,77.7184638271921
6.411428352,0.9994931915861099,77.58639809974053
6.413714432,0.9996019577207651,77.45301276042508
6.416,0.999736255366252,77.31786385251931
6.418285568,0.9998878630440795,77.18063975587242
6.420571648,1.0000469694322751,77.04120623964225
6.422857216,1.0002035642189255,76.89946455072452
6.425142784,1.0003476283909403,76.75557112426381
6.427428352,1.0004700568782143,76.60971629919477
6.429714432,1.000563096066093,76.46235389414022
6.432,1.000620752854035,76.31390385787064
6.434285568,1.000639310757811,76.16489179664323
6.436571648,1.0006177520990773,76.01593258473365
6.438857216,1.0005571554178159,75.86759929757517
6.441142784,1.0004616117460203,75.72038716432495
6.443428352,1.000336904172623,75.57479492849271
6.445714432,1.000191012559181,75.43118816868619
6.448,1.000033285375813,75.28980021767835
6.450285568,0.9998734995231866,75.15074289866617
6.452571648,0.9997220422347766,75.01396028016255
6.454857216,0.9995884049364827,74.87926768020245
6.457142784,0.9994811310452484,74.74636725577675
6.459428352,0.9994071535276287,74.61477081682892
6.461714432,0.9993709293036056,74.48403611688904
6.464,0.9993750318085218,74.35355320026218
6.466285568,0.9994192835947481,74.22271340300323
6.468571648,0.9995007081360265,74.09099224361054
6.470857216,0.9996143354113658,73.95785816441293
6.473142784,0.9997527523648465,73.82292206386361
6.475428352,0.9999073621297364,73.68585392207663
6.477714432,1.0000682990587084,73.54649273684723
6.48,1.0002252132883134,73.40484325910752
6.482285568,1.0003683486763513,73.26104098887578
6.484571648,1.0004884890928265,73.11532155147134
6.486857216,1.0005779791700382,72.96810524409352
6.489142784,1.000631275535221,72.8198531937428
6.491428352,1.0006447932280644,72.67109506189048
6.493714432,1.0006177660326379,72.52249837972728
6.496,1.0005517153802383,72.37456638206264
6.498285568,1.0004509492778901,72.22787063588962
6.500571648,1.0003218650030812,72.08284152033505
6.502857216,1.0001724814388802,71.93983582453903
6.505142784,1.0000122204549584,71.79911359921267
6.507428352,0.9998515501070383,71.66073097505715
6.509714432,0.9997004163679214,71.5246555063844
6.512,0.9995684765931651,71.39063266019936
6.514285568,0.9994642252166169,71.25834060176832
6.516571648,0.9993942165348557,71.1273737955326
6.518857216,0.9993629879637925,70.99712059374343
6.521142784,0.9993724918244483,70.8670501221524
6.523428352,0.9994223277642917,70.73654563102802
6.525714432,0.999509105123668,70.60511273717549
6.528,0.9996275098696163,70.47216049159577
6.530285568,0.9997700084336761,70.33734561301648
6.532571648,0.9999275102187472,70.2003567871829
6.534857216,1.0000900311433343,70.0610181564237
6.537142784,1.0002473554039428,69.91939914334966
6.539428352,1.0003892826228178,69.77560917549133
6.541714432,1.000506955127636,69.62994422096982
6.544,1.0005929565678544,69.48279762106814
6.546285568,1.000641576051347,69.33469466863258
6.548571648,1.0006498010014586,69.18616837517507
6.550857216,1.000617247301564,69.03784793804502
6.553142784,1.0005456642624737,68.89026574726884
6.555428352,1.0004397670313316,68.74400360325572
6.557714432,1.0003061941069855,68.59948123827667
6.56,1.0001533326161978,68.45706301856708
6.562285568,0.9999908863684216,68.3169478759672
6.564571648,0.9998293048472022,68.17917439151414
6.566857216,0.9996786959088602,68.04371658239613
6.569142784,0.9995486782099755,67.9103063220592
6.571428352,0.9994475835154586,67.7785604881974
6.573714432,0.9993818731118721,67.64809130969016
6.576,0.9993556209701588,67.51827282989605
6.578285568,0.9993706981278776,67.38857591016252
6.580571648,0.9994260884582705,67.25837501552753
6.582857216,0.9995183081893936,67.12711198721725
6.585142784,0.9996415170673744,66.99426044933585
6.587428352,0.9997879280894413,66.85950347205427
6.589714432,0.9999481948955311,66.72249353106645
6.592,1.000112311576307,66.58315439936283
6.594285568,1.0002696265734832,66.4414659741921
6.596571648,1.0004102826356633,66.29761375133283
6.598857216,1.0005252537141383,66.1519444827875
6.601142784,1.0006074461157368,66.0048200169508
6.603428352,1.0006512529588323,65.85680002993125
6.605714432,1.0006541624947884,65.70843321824134
6.608,1.0006159723376271,65.56034244382276
6.610285568,1.0005387360444171,65.41310002969745
6.612571648,1.0004277656805614,65.26718814780898
6.614857216,1.0002897676156857,65.12314504751271
6.617142784,1.0001335625062409,64.98121828430845
6.619428352,0.9999690663396117,64.84163485736923
6.621714432,0.9998067079309146,64.70445738593757
6.624,0.9996568340330645,64.56953286814971
6.626285568,0.9995289775978671,64.43665653237572
6.628571648,0.9994311906980758,64.30543105391817
6.630857216,0.9993698817843317,64.17538322782714
6.633142784,0.9993489195537835,64.04594511200368
6.635428352,0.9993695404388548,63.91651979751179
6.637714432,0.9994306114437791,63.7865195468657
6.64,0.999528267742054,63.65534467475712
6.642285568,0.9996563350964759,63.5225789837917
6.644571648,0.9998066711944625,63.38776211690121
6.646857216,0.9999696128621477,63.25069529646349
6.649142784,1.0001349177219414,63.111221855857025
6.651428352,1.0002922089577835,62.96941611218387
6.653714432,1.0004313340446185,62.82546247279405
6.656,1.0005435058565098,62.67968214157702
6.658285568,1.0006215778122556,62.532529611840545
6.660571648,1.0006605225774825,62.38453788329679
6.662857216,1.0006580145912225,62.236276602873815
6.665142784,1.0006139540626922,62.088353671528594
6.667428352,1.0005311907525416,61.94136024529892
6.669714432,1.0004150097133502,61.795791367978445
6.672,1.0002726811895901,61.652134102812354
6.674285568,1.000113220977293,61.51069436502478
6.676571648,0.9999467332526124,61.37158582207617
6.678857216,0.9997838787759076,61.23491097614361
6.681142784,0.9996349133163183,61.10048685803094
6.683428352,0.9995093023011137,60.96808028066489
6.685714432,0.9994151235252675,60.83728008367454
6.688,0.9993583779439187,60.707611893487844
6.690285568,0.9993426904004805,60.5784639837733
6.692571648,0.9993691457081946,60.44925058319679
6.694857216,0.9994359350251842,60.319369560941325
6.697142784,0.9995390464335802,60.188248907230374
6.699428352,0.9996718415640502,60.05542819151571
6.701714432,0.9998258539490273,59.920503058163064
6.704,0.9999914595529774,59.783280944326485
6.706285568,1.000158007823536,59.64364133106619
6.708571648,1.0003149724486116,59.501643381004826
6.710857216,1.0004523488454606,59.35749679611316
6.713142784,1.000561469288722,59.21158690091234
6.715428352,1.0006353485602044,59.06432556877752
6.717714432,1.0006692835968385,58.9162930191254
6.72,1.000661050317666,58.768092190006016
6.722285568,1.0006112126394493,58.62028189646345
6.724571648,1.0005227955280143,58.47349546681325
6.726857216,1.000401524123761,58.32821116378474
6.729142784,1.0002549022326612,58.18490099294284
6.731428352,1.000092295875114,58.04383764417585
6.733714432,0.9999239348250002,57.905158837412735
6.736,0.999760718455651,57.76892007438236
6.738285568,0.9996128166186047,57.634942169743034
6.740571648,0.9994897531771006,57.502953440834226
6.742857216,0.999399251032656,57.372541953526785
6.745142784,0.9993473518574373,57.24313327205978
6.747428352,0.9993370937489398,57.11420375958269
6.749714432,0.9993693294558081,56.9851303712389
6.752,0.999441937218341,56.85529795265866
6.754285568,0.9995505209053972,56.724148404005334
6.756571648,0.9996880542571005,56.59119077907128
6.758857216,0.9998457509688848,56.45611498309681
6.761142784,1.0000137069887352,56.31863975119304
6.763428352,1.0001813165910594,56.178745635452415
6.765714432,1.0003378106967626,56.03649524264774
6.768,1.0004732684329618,55.89212222108414
6.770285568,1.000579163866371,55.74598833327747
6.772571648,1.0006485525687587,55.59857216234613
6.774857216,1.0006773505914335,55.45046382709575
6.777142784,1.0006633459608172,55.30221292726018
6.779428352,1.0006075565925903,55.154487969029994
6.781714432,1.000513466390077,55.00785368746887
6.784,1.0003870824436447,54.86281195605915
6.786285568,1.0002362986198252,54.71978564685713
6.788571648,1.0000706362684246,54.57905409347809
6.790857216,0.9999007234446009,54.44076910293901
6.793142784,0.9997372726337418,54.30491633161894
6.795428352,0.999590748542853,54.17132080811132
6.797714432,0.9994703099923512,54.039668594471415
6.8,0.9993837967089314,53.909537835758954
6.802285568,0.9993366784428876,53.78034860059696
6.804571648,0.9993321778210827,53.65157322838623
6.806857216,0.9993703092754416,53.52256728665079
6.809142784,0.9994488425718066,53.39270144039238
6.811428352,0.9995628031456368,53.26143270707617
6.813714432,0.9997050290323083,53.1282931864115
6.816,0.9998662986651967,52.992945980996
6.818285568,1.0000366522343203,52.85519489517745
6.820571648,1.00020503165114,52.71496912385085
6.822857216,1.0003608495778304,52.57240493807068
6.825142784,1.0004942017626073,52.427697623160995
6.827428352,1.0005966824914023,52.28130246935322
6.829714432,1.0006616212805415,52.133663565299805
6.832,1.0006848538743542,51.98539694531946
6.834285568,1.0006651470218628,51.83710955376688
6.836571648,1.0006033600074087,51.689385471462224
6.838857216,1.0005035428879576,51.542846163185544
6.841142784,1.0003720702689074,51.39797399780899
6.843428352,1.0002170956305605,51.25518807040254
6.845714432,1.000048529262895,51.11473396722862
6.848,0.9998771024321528,50.97675373553911
6.850285568,0.9997136926965937,50.84122710898869
6.852571648,0.9995685994676043,50.707948859374184
6.854857216,0.9994510974819477,50.576567167932204
6.857142784,0.9993687377918503,50.44665465635783
6.859428352,0.999326687706643,50.317657397314086
6.861714432,0.9993278304803385,50.18894156603057
6.864,0.9993719892569621,50.05991019043371
6.866285568,0.9994564375936722,49.92992365771175
6.868571648,0.9995758584384982,49.798465813373035
6.870857216,0.9997226455744227,49.665072941324524
6.873142784,0.9998874540391255,49.529399931671406
6.875428352,1.0000598889396597,49.3912763056905
6.877714432,1.000229008592484,49.25066409134729
6.88,1.0003839062826154,49.1077053676596
6.882285568,1.0005150513480472,48.96264140605058
6.884571648,1.0006139064070907,48.8159042795762
6.886857216,1.0006740430624441,48.66798500855105
6.889142784,1.0006919316159295,48.51951696531063
6.891428352,1.000666119558747,48.37108748477035
6.893714432,1.0005983458782752,48.22333282116756
6.896,1.0004928771372685,48.07682922271697
6.898285568,1.000356337147424,47.932076211207004
6.900571648,1.000197369386434,47.789475200434836
6.902857216,1.0000260498687674,47.64925271060617
6.905142784,0.9998532761036205,47.5115473438399
6.907428352,0.9996900089334253,47.3762668356363
6.909714432,0.9995465239686875,47.243217583825505
6.912,0.9994322009240287,47.11207294394417
6.914285568,0.9993541661914733,46.982317132013065
6.916571648,0.9993173179459672,46.853374251198794
6.918857216,0.9993242775578468,46.724655411660706
6.921142784,0.9993745394445366,46.595539482099056
6.923428352,0.9994649509034718,46.46539236644521
6.925714432,0.999589665177017,46.33364772769191
6.928,0.9997410600950104,46.199927397096154
6.930285568,0.9999092228019723,46.06386180121036
6.932571648,1.0000836460785907,45.92527264536473
6.934857216,1.0002532022156616,45.784225203791316
6.937142784,1.0004072206336547,45.64077078674942
6.939428352,1.000535749699293,45.49527253146084
6.941714432,1.0006307641421655,45.34814203760528
6.944,1.000686070484996,45.199898660828275
6.946285568,1.0006982493830947,45.051163646129524
6.948571648,1.0006665069759662,44.902568281487504
