freq,mag,phase
6.0,1.0001931417142482,161.90505872421153
6.002287104,1.0000777971902757,161.75475550300416
6.004574208,0.999956531494908,161.6061811578961
6.006861312,0.999837643598719,161.45941021785563
6.009147904,0.9997289927914692,161.31433898336232
6.011435008,0.9996372191285314,161.1707592008582
6.013722112,0.9995682680510218,161.0283994461516
6.016009216,0.9995264731085312,160.88691149953092
6.01829632,0.9995144111513623,160.7458334041315
6.020583424,0.9995332989553104,160.60476424711348
6.022870016,0.9995815113198356,160.4632736024775
6.02515712,0.9996562016563847,160.32089460965403
6.027444224,0.9997525843822545,160.1773696334897
6.029731328,0.9998647492520626,160.03232326026045
6.032018432,0.9999855549980072,159.8856696953547
6.034305536,1.0001071036085585,159.73727170962633
6.036592128,1.0002220756671647,159.58721592817977
6.038879232,1.0003229502948061,159.4356131995717
6.041166336,1.000403379074491,159.28275597042952
6.04345344,1.000458336840973,159.1289461155251
6.045740544,1.0004840905555745,158.97461422334482
6.048027648,1.0004793987847809,158.82015761896812
6.05031424,1.0004441776754798,158.66600771615268
6.052601344,1.0003805458498238,158.51264563630897
6.054888448,1.000292814556094,158.36040024326743
6.057175552,1.0001863515469365,158.20959950629214
6.059462656,1.0000678636099616,158.06047656344091
6.06174976,0.9999449123644546,157.91315146573152
6.064036352,0.9998251714565104,157.7676763492409
6.066323456,0.9997163386591131,157.62387034759476
6.06861056,0.9996252344430899,157.48157594880496
6.070897664,0.9995577370243517,157.34046247555642
6.073184768,0.9995180137451497,157.20016158193533
6.075471872,0.9995087563921835,157.06027901478544
6.077758464,0.9995303844577841,156.92040563051836
6.080045568,0.9995818356417717,156.77998469873492
6.082332672,0.9996597577775469,156.638680960443
6.084619776,0.999759108892843,156.4961567183523
6.08690688,0.9998738888315647,156.35211134032426
6.089193984,0.9999964477331823,156.2063863835811
6.091481088,1.0001195307237454,156.05890677740803
6.09376768,1.000234943726048,155.90974073361195
6.096054784,1.0003354449129678,155.75902864551628
6.098341888,1.0004147803929622,155.60708437327972
6.100628992,1.0004678752258649,155.45421058070457
6.102916096,1.0004913414728331,155.30084076730964
6.1052032,1.0004835506554899,155.14735719157812
6.107489792,1.000445257740647,154.99425939784956
6.109776896,1.0003783594767521,154.84197703530072
6.112064,1.0002874722526045,154.69087349095471
6.114351104,1.0001783035198433,154.54127121751307
6.116638208,1.0000575073268385,154.3933763345992
6.118925312,0.9999329178124179,154.24730196913987
6.121211904,0.9998122453133613,154.1030377641548
6.123499008,0.9997033426209485,153.96052279226546
6.125786112,0.9996129970736137,153.8194778929063
6.128073216,0.9995470608189488,153.67963390723955
6.13036032,0.9995096426093869,153.54055534415266
6.132647424,0.9995030733125226,153.40187600881433
6.134934016,0.999528048653373,153.26308242087762
6.13722112,0.9995827027761927,153.12377226219255
6.139508224,0.9996639086962106,152.98352645279058
6.141795328,0.999766338789644,152.8419688938263
6.144082432,0.9998836800588476,152.6988971799394
6.146369536,1.0000081469945061,152.55407208131163
6.148656128,1.0001323366869321,152.40749320937502
6.150943232,1.0002482446533807,152.25920700615737
6.153230336,1.0003483291369195,152.1094159902955
6.15551744,1.0004263461433984,151.95834887007152
6.157804544,1.0004774199667332,151.80642653022088
6.160091648,1.000498463462265,151.65396912449478
6.162378752,1.0004875496123382,151.5015094149328
6.164665344,1.0004458924739188,151.34943142001754
6.166952448,1.0003757449998578,151.1982309664314
6.169239552,1.0002817325846336,151.04826316593096
6.171526656,1.000169628933746,150.89985263053904
6.17381376,1.0000465435768033,150.7531572107386
6.176100864,0.9999203421840354,150.60832917946829
6.178387456,0.9997991043945959,150.4653213079577
6.18067456,0.9996901731448432,150.32403513617595
6.182961664,0.9996008544025258,150.18427203054398
6.185248768,0.9995364398693044,150.04565122722207
6.187535872,0.999501449992667,149.9078162205562
6.189822976,0.9994979793037776,149.7702842800356
6.192109568,0.9995260059141118,149.63262664909075
6.194396672,0.9995841306458915,149.49438745195607
6.196683776,0.9996685939255222,149.35515845877913
6.19897088,0.9997740740161294,149.214573249272
6.201257984,0.9998939157685294,149.0724296884421
6.203545088,1.000020367675655,148.92851080429404
6.20583168,1.0001458139383304,148.78283016077944
6.208118784,1.0002618825025669,148.6354023789803
6.210405888,1.0003615599279758,148.48648892580695
6.212692992,1.0004382296679761,148.33628620503873
6.214980096,1.000487142969974,148.1852186475953
6.2172672,1.0005053435741122,148.03374217971793
6.219553792,1.0004913713833774,147.88226281814372
6.221840896,1.0004461117950942,147.73124094508998
6.224128,1.0003725990436607,147.5811016236894
6.226415104,1.0002753932577086,147.43227399312966
6.228702208,1.0001603436806004,147.28500519611782
6.230989312,1.000035069183679,147.13952381463588
6.233275904,0.9999073366362186,146.99592757062138
6.235563008,0.9997852580042444,146.85419356594636
6.237850112,0.999676670884582,146.71416625601796
6.240137216,0.9995882813326085,146.57564636010972
6.24242432,0.9995258994815883,146.43827147772174
6.244711424,0.9994932824390862,146.30160541182062
6.246998528,0.9994927739890725,146.16520606751973
6.24928512,0.9995243608949397,146.02864990226882
6.251572224,0.999586087702244,145.89148890419045
6.253859328,0.999673894688073,145.75326349241496
6.256146432,0.9997825558505332,145.61361643429598
6.258433536,0.9999048689080995,145.4724059547336
6.26072064,1.0000333301144948,145.32936953722077
6.263007232,1.000159698507041,145.18450866323096
6.265294336,1.000275942404782,145.0379282152546
6.26758144,1.000374927094705,144.88987342782005
6.269868544,1.000450020252493,144.74055271294782
6.272155648,1.0004967088192505,144.59037946159313
6.274442752,1.000511837907031,144.439831153316
6.276729344,1.0004945449164535,144.28930464982702
6.279016448,1.00044584926083,144.13931516489137
6.281303552,1.0003688478333475,143.9902539058243
6.283590656,1.0002681371460522,143.84255883622703
6.28587776,1.0001502926119947,143.69643560803573
6.288164864,1.0000228550078776,143.5521830913484
6.290451456,0.9998936467577748,143.40980418698237
6.29273856,0.9997710066837626,143.26934114442147
6.295025664,0.9996626258176745,143.1305314347966
6.297312768,0.9995754980523717,142.99324705098147
6.299599872,0.9995149853883147,142.85706458754308
6.301886976,0.9994851722780259,142.72158601775828
6.304173568,0.999487848733947,142.5863505381233
6.306460672,0.9995229047955592,142.45088872884105
6.308747776,0.9995882488045899,142.31472200582246
6.31103488,0.999679503371326,142.17747316291968
6.313321984,0.9997911632028841,142.0388005084926
6.315609088,0.9999161740938717,141.89842183004308
6.317896192,1.0000465069756042,141.75625269285015
6.320182784,1.0001739033321184,141.61224955862383
6.322469888,1.000290381517668,141.46649841872016
6.324756992,1.0003884118976472,141.3192547616906
6.327044096,1.0004619283865424,141.1707818398494
6.3293312,1.0005061623221119,141.02149347895832
6.331618304,1.000518200645225,140.87183752815005
6.333904896,1.0004975304601886,140.72227479852916
6.336192,1.000445167005333,140.57329316115877
6.338479104,1.000364457572883,140.42530990114358
6.340766208,1.0002605878736563,140.27869808844164
6.343053312,1.0001398766846243,140.1337625799273
6.345340416,1.000010154071318,139.99070021315683
6.347627008,0.9998796093099832,139.8495482984828
6.349914112,0.9997563836809101,139.71028852065479
6.352201216,0.9996486047051184,139.57277149182582
6.35448832,0.9995626806217421,139.4366854713192
6.356775424,0.9995042859102055,139.30170115617102
6.359062528,0.9994773578820725,139.1673445511337
6.36134912,0.9994833738930449,139.03324350898097
6.363636224,0.9995221187280183,138.89883007685256
6.365923328,0.9995910862478692,138.76366635827787
6.368210432,0.9996859495887084,138.62739524446204
6.370497536,0.9998008912056292,138.48958795194193
6.37278464,0.999928365044634,138.35011401903026
6.375071232,1.0000604147498866,138.20873875753492
6.377358336,1.000188779235411,138.06557236378183
6.37964544,1.000305171309153,137.92061383948024
6.381932544,1.000402241597505,137.77416396072357
6.384219648,1.0004738676085947,137.62653482323358
6.386506752,1.0005155554822194,137.47814153496878
6.388793344,1.0005244945211271,137.32937767455897
6.391080448,1.0005001156737428,137.18075314261648
6.393367552,1.0004440157439904,137.03274877756587
6.395654656,1.0003595487491757,136.88582858640282
6.39794176,1.0002522368298403,136.74033178287414
6.400228864,1.0001287301116955,136.5965292248271
6.402515968,0.9999969184940344,136.4546481882177
6.40480256,0.9998649951904124,136.31471735308142
6.407089664,0.9997414232501627,136.17670455433765
6.409376768,0.999634101492112,136.04037026980834
6.411663872,0.9995496270950213,135.9054948280621
6.413950976,0.999493705023128,135.77166691670672
6.41623808,0.9994697567554811,135.6385182170353
6.418524672,0.9994792100503719,135.5054753375904
6.420811776,0.9995218313618636,135.3720967592939
6.42309888,0.9995945929785793,135.23792714712923
6.425385984,0.9996929842009308,135.10252685414397
6.427673088,0.9998110918049289,134.96564970362607
6.429960192,0.9999411116918978,134.826968924281
6.432246784,1.0000748506822574,134.68642881770074
6.434533888,1.0002039967030587,134.54401010285488
6.436820992,1.000320297068197,134.3998625406867
6.439108096,1.0004162222154163,134.25418455338195
6.4413952,1.000485972211697,134.107352483773
6.443682304,1.0005246383530828,133.95977612249172
6.445968896,1.0005302579284174,133.811904308323
6.448256,1.000502242368526,133.66423240405348
6.450543104,1.0004422807804254,133.51723966313529
6.452830208,1.0003541682273425,133.37132076616584
6.455117312,1.00024331845998,133.22694597584152
6.457404416,1.0001169719241059,133.0842811317928
6.459691008,0.999982926744693,132.9435726354832
6.461978112,0.9998498268978676,132.80481974719646
6.464265216,0.9997259862303693,132.66802100631136
6.46655232,0.9996193908379893,132.53289093543953
6.468839424,0.9995365804323406,132.39922650356604
6.471126528,0.9994830565593851,132.26654686663773
6.473413632,0.9994622619366753,132.13450320357305
6.475700224,0.9994755780535938,132.00252669089286
6.477987328,0.9995219582036617,131.87016957829232
6.480274432,0.9995987301837216,131.73695152859355
6.482561536,0.9997008453066548,131.60247948662314
6.48484864,0.9998219472937724,131.4664184711233
6.487135744,0.9999544704792261,131.3285442642546
6.489422336,1.0000899261263054,131.18876778472813
6.49170944,1.0002198224311272,131.04711859195803
6.493996544,1.0003357168890585,130.90368203484832
6.496283648,1.0004304530415329,130.75877626371428
6.498570752,1.0004979127692866,130.61271971680304
6.500857856,1.0005337775166128,130.46598304016382
6.503144448,1.000535784339076,130.31895693521895
6.505431552,1.000503986098065,130.1722190225701
6.507718656,1.000439901196501,130.02620463344994
6.51000576,1.000347975706636,129.88132201310935
6.512292864,1.0002337506212668,129.73799333645118
6.514579968,1.0001045520328626,129.59646770364196
6.51686656,0.9999684012495137,129.45696399824405
6.519153664,0.99983408759826,129.31939006234947
6.521440768,0.9997101096711409,129.18376121294082
6.523727872,0.9996044528815176,129.04984412078917
6.526014976,0.9995235177603701,128.91732671650533
6.52830208,0.999472711600198,128.78580362755778
6.530588672,0.9994551442501671,128.6548229992485
6.532875776,0.9994721382910843,128.52391021332468
6.53516288,0.9995225863950341,128.39250904124665
6.537449984,0.9996033672774581,128.2602188823934
6.539737088,0.999709243409201,128.12660563461066
6.542024192,0.9998335748513772,127.99134645326609
6.544310784,0.999968511927733,127.85426674740148
6.546597888,1.000105571346231,127.71523890826721
6.548884992,1.0002358994611384,127.57428597355754
6.551172096,1.0003515212047245,127.43161519421079
6.5534592,1.0004447716159055,127.28740971644845
6.555746304,1.0005099116304337,127.14214847411857
6.558033408,1.0005426980968477,126.99616586562497
6.56032,1.0005410438221114,126.8500311775531
6.562607104,1.0005051154090618,126.70415643430923
6.564894208,1.000437040924215,126.55910534655821
6.567181312,1.0003411619831646,126.4152605153934
6.569468416,1.0002234928991722,126.27301048722292
6.57175552,1.000091402066964,126.13263327821787
6.574042112,0.9999533275241274,125.99420882609346
6.576329216,0.9998179678792535,125.85783179340625
6.57861632,0.9996939826302281,125.72337138472919
6.580903424,0.999589154388433,125.5906291369101
6.583190528,0.999510321087889,125.45924919190853
6.585477632,0.9994622683696563,125.32885594435535
6.587764224,0.9994482773861121,125.19894286592239
6.590051328,0.9994691720532565,125.06902368642476
6.592338432,0.9995238088310909,124.93858197360169
6.594625536,0.9996085783769825,124.80718997973898
6.59691264,0.9997182037037924,124.67441247359636
6.599199744,0.9998457169695114,124.53996013186148
6.601486336,0.999983085340207,124.40357981254618
6.60377344,1.0001215883008272,124.26526183183438
6.606060544,1.000252496661161,124.1250087203155
6.608347648,1.0003674319155946,123.98300630906802
6.610634752,1.0004592149928682,123.83955258640064
6.612921856,1.00052175724729,123.69499595705686
6.615208448,1.000551283653999,123.54982424278168
6.617495552,1.0005458369256595,123.40448360561685
6.619782656,1.0005058613282864,123.2595298742665
6.62206976,1.0004335226677237,123.11541046697036
6.624356864,1.0003335859276814,122.972572456995
6.626643968,1.00021248300419,122.83136904123575
6.628931072,1.0000775076987267,122.69206272083716
6.631217664,0.9999375960450348,122.55483044721358
6.633504768,0.9998012689057326,122.41957714368021
6.635791872,0.9996774035271973,122.28631329491375
6.638078976,0.9995737831318815,122.15471019494224
6.64036608,0.9994971033784303,122.02444771517067
6.642653184,0.9994521372565996,121.89516274685955
6.644939776,0.9994418002015241,121.76626506343678
6.64722688,0.9994668030907038,121.63732327291794
6.649513984,0.999525577987777,121.50780453329011
6.651801088,0.9996145074900294,121.37727003162736
6.654088192,0.9997279822209764,121.24529518363877
6.656375296,0.9998586080904214,121.11156086741099
6.658661888,0.9999984440256845,120.97593233348832
6.660948992,1.0001384201518109,120.83826643004899
6.663236096,1.0002696772406579,120.6986868014197
6.6655232,1.0003838539061334,120.55736191863286
6.667810304,1.0004737785518023,120.41458059306898
6.670097408,1.000533595952015,120.27074754003252
6.672384,1.000559862714829,120.12631149464096
6.674671104,1.000550398238874,119.98177707251934
6.676958208,1.0005060234944314,119.83769554235329
6.679245312,1.000429459242937,119.69450245185082
6.681532416,1.0003255732935306,119.55265912675256
6.68381952,1.0002007863572742,119.41249700238376
6.686106112,1.000063137765351,119.27427820076407
6.688393216,0.9999212556694096,119.13813807767175
6.69068032,0.9997841249508883,119.00405851358354
6.692967424,0.9996604947986308,118.87190907298259
6.695254528,0.9995583492306226,118.74143863758412
6.697541632,0.9994838887145007,118.61229367592371
6.699828224,0.9994421568527763,118.48405253575248
6.702115328,0.9994356247391253,118.35617377211135
6.704402432,0.9994648227748409,118.22819692276096
6.706689536,0.9995280744885893,118.09957670040583
6.70897664,0.9996211719961209,117.96984881438694
6.711263744,0.9997384998400354,117.83864222502305
6.713550848,0.9998723442138646,117.70561937429305
6.71583744,1.0000143361007092,117.57063363791828
6.718124544,1.000155653321586,117.43362912878658
6.720411648,1.000287047882935,117.29466759691901
6.722698752,1.000400312505078,117.15399722431366
6.724985856,1.0004883590286717,117.01185613218956
6.72727296,1.0005454399383165,116.8687020264461
6.729559552,1.0005679277810735,116.72499623966782
6.731846656,1.0005543532355363,116.58129392474216
6.73413376,1.00050548531953,116.43803516298661
6.736420864,1.0004246603796525,116.29574377067802
6.738707968,1.0003166230924576,116.154888392152
6.740995072,1.0001883342977482,116.01575880901244
6.743281664,1.000048031604616,115.8786255641905
6.745568768,0.9999043369925041,115.74360252295544
6.747855872,0.9997666048014151,115.61062120680572
6.750142976,0.9996433687884263,115.47960498209837
6.75243008,0.9995425745859187,115.35024090018369
6.754717184,0.9994707195704057,115.22217351621448
6.757003776,0.9994322843918608,115.09494955786595
6.75929088,0.9994297034783082,114.96805940016523
6.761577984,0.9994634017899808,114.84101237282046
6.763865088,0.9995311853803237,114.71322749304917
6.766152192,0.9996285693673013,114.58429248194983
6.768439296,0.9997496335545516,114.45378531686241
6.770725888,0.9998866641418197,114.3214513540162
6.773012992,1.0000309557603946,114.18709999843938
6.775300096,1.0001733647848434,114.05070156115609
6.7775872,1.0003048757823734,113.91235462116121
6.779874304,1.0004170341679286,113.77227796269766
6.782161408,1.0005029822287081,113.63077108971112
6.784448512,1.000556902551329,113.4882900459131
6.786735104,1.0005755559191927,113.3452865913029
6.789022208,1.0005577643489796,113.20234912416727
6.791309312,1.0005044791623563,113.05991260630935
6.793596416,1.0004190244895454,112.91855167531136
6.79588352,1.000306874914627,112.7786298872836
6.798170624,1.0001751649308124,112.64049349767323
6.800457216,1.0000321074500529,112.5044181517814
6.80274432,0.9998868652366063,112.37047256927006
6.805031424,0.9997485010992176,112.23861831636025
6.807318528,0.9996258102098619,112.10869177270962
6.809605632,0.9995267478980359,111.98041936346539
6.811892736,0.9994576532495625,111.85340388491458
6.814179328,0.999422694281455,111.7272156885773
6.816466432,0.9994244461516855,111.6012515597727
6.818753536,0.9994626288632644,111.4750678278661
6.82104064,0.9995348364809562,111.34808653868775
6.823327744,0.9996367043693098,111.21992650798254
6.825614848,0.9997616363817488,111.09011071169101
6.82790144,0.9999017496042192,110.95843231350065
6.830188544,1.0000481902074263,110.82468245129692
6.832475648,1.0001916343393762,110.68884119030838
6.834762752,1.0003231388029437,110.5510668838906
6.837049856,1.0004340779365644,110.41154550907932
6.83933696,1.0005176057085736,110.27063978086186
6.841623552,1.0005683922990802,110.12878592131786
6.843910656,1.0005830595201377,109.98649624005365
6.84619776,1.0005606552915078,109.8442779239348
6.848484864,1.00050285930348,109.70267789872601
6.850771968,1.000412853321115,109.56217551355816
6.853059072,1.0002965768612748,109.4232003428724
6.855345664,1.0001612939823512,109.28608356921062
6.857632768,1.0000156286822934,109.15102965613868
6.859919872,0.9998687302549024,109.0181413454291
6.862206976,0.9997298865069856,108.88739348339743
6.86449408,0.9996080132953511,108.75854225140723
6.866781184,0.9995109268754215,108.6313252098242
6.869068288,0.9994446934226098,108.50532707775625
6.87135488,0.9994135139628808,108.38009471671928
6.873641984,0.9994194697408885,108.2550797886904
6.875929088,0.9994622836347112,108.12975743713615
6.878216192,0.9995393888488894,108.00357152068577
6.880503296,0.9996455606876812,107.8760892410726
6.8827904,0.999774292911513,107.74693615384405
6.885076992,0.9999174335719064,107.61585549480532
6.887364096,1.0000659445896523,107.48264448559647
6.8896512,1.0002103643135056,107.34737759252683
6.891938304,1.0003415864675842,107.210110447359
6.894225408,1.0004511370409668,107.0711054268606
6.896512512,1.000532147985128,106.93078910628888
6.898799104,1.0005794291795351,106.7895731589102
6.901086208,1.0005899825423137,106.64791809688374
6.903373312,1.0005629817941282,106.50642944766713
6.905660416,1.0005002772238296,106.36563705417187
6.90794752,1.0004058485851062,106.2260083529313
6.910234624,1.0002853452165714,106.08795429137302
6.912521216,1.0001465666717786,105.95181223918702
6.91480832,0.9999982880260846,105.8177691326996
6.917095424,0.9998499173220342,105.68594954772938
6.919382528,0.9997109146114421,105.55625517788238
6.921669632,0.9995899333405563,105.42848513436542
6.923956736,0.9994948732044906,105.30229039764083
