freq,mag,phase
6.0,0.9997075831066397,28.94040963009257
6.00439808,0.9997654935533846,28.83139364295516
6.00879616,0.9998377360557921,28.721421344376665
6.01319424,0.9999200165921468,28.610364128069747
6.01759232,1.0000074403044918,28.49812639045921
6.021989888,1.000094618157591,28.38460672854324
6.026387968,1.0001763283797718,28.269890486742373
6.030786048,1.0002476029155547,28.1541105154806
6.035184128,1.0003040664818104,28.03736121268131
6.039582208,1.0003423677683578,27.919985386459082
6.043980288,1.0003601816745022,27.802170079972644
6.048378368,1.0003563995764262,27.684229557196442
6.052776448,1.0003311564780344,27.566552580685286
6.057174016,1.0002861509844412,27.44930670287577
6.061572096,1.0002239545216918,27.332849021725373
6.065970176,1.000148308318928,27.21737532670933
6.070368256,1.000063971486204,27.103035385621492
6.074766336,0.999975820899839,26.989914019987406
6.079164416,0.999889328034505,26.878015680282058
6.083562496,0.9998097196590355,26.76725874796115
6.087960576,0.9997418621635249,26.657582254497118
6.092358656,0.9996897791616606,26.548760771481078
6.096756224,0.9996567399435995,26.44054139562756
6.101154304,0.9996446897537303,26.33265390379525
6.105552384,0.9996543005948185,26.22473063683254
6.109950464,0.9996852082752108,26.116541254336948
6.114348544,0.9997353506776336,26.00775351666533
6.118746624,0.9998017839889026,25.898198779157426
6.123144704,0.9998805117044373,25.787579585663888
6.127542784,0.9999667031132035,25.675728982702502
6.131940864,1.000055111308494,25.562654693313224
6.136338432,1.00014046692226,25.448351348720532
6.140736512,1.0002174897936928,25.33288137464367
6.145134592,1.0002815590787817,25.216433853007793
6.149532672,1.000328862883843,25.099176934587696
6.153930752,1.000356520711377,24.981369997023616
6.158328832,1.000362735968862,24.863320196477474
6.162726912,1.0003472036806225,24.74532893208674
6.167124992,1.000310785139615,24.627725778797902
6.17152256,1.0002557896839535,24.510773589480618
6.17592064,1.0001854716951528,24.39466215619407
6.18031872,1.0001040309950202,24.279623357461396
6.1847168,1.0000165003019952,24.165784718517262
6.18911488,0.9999281658699691,24.05320194471945
6.19351296,0.9998443263810498,23.941826200097598
6.19791104,0.9997701008317156,23.83161201927061
6.20230912,0.9997099954456611,23.72230789182033
6.2067072,0.9996675951661494,23.613717950181908
6.211104768,0.9996456417463182,23.505593111413482
6.215502848,0.999645304532262,23.397661955653827
6.219900928,0.9996666752654486,23.28956572484275
6.224299008,0.9997085077117329,23.18102062820026
6.228697088,0.9997682060385878,23.071703898442596
6.233095168,0.9998421861221192,22.961441105686365
6.237493248,0.9999260038874528,22.85009439231668
6.241891328,1.000014559915987,22.737484692319086
6.246289408,1.0001024670849796,22.6235917478589
6.250686976,1.0001843402196453,22.508535190782265
6.255085056,1.0002553572995874,22.392387033101212
6.259483136,1.0003110639441521,22.275296640924495
6.263881216,1.0003482820117948,22.15753019148129
6.268279296,1.0003644985562063,22.039433515173126
6.272677376,1.0003589386029557,21.921212429879432
6.277075456,1.0003317932714293,21.80327014956386
6.281473536,1.000284730771403,21.68577848867158
6.285871104,1.000220607137825,21.569132324645114
6.290269184,1.000143315409434,21.45343928831868
6.294667264,1.0000574998486003,21.338949446368453
6.299065344,0.9999683714019578,21.225645334223916
6.303463424,0.9998813330638473,21.113615744202743
6.307861504,0.9998016486291164,21.002751704289572
6.312259584,0.9997341839209802,20.89292268353044
6.316657664,0.9996829460791031,20.783973624601618
6.321055744,0.9996511936013547,20.675576086222847
6.325453312,0.9996406842393931,20.567507327227784
6.329851392,0.9996522443362038,20.459378092773473
6.334249472,0.999685159193588,20.350946317104803
6.338647552,0.999737248200092,20.241954021516154
6.343045632,0.9998055767586579,20.132038899877674
6.347443712,0.9998858627712509,20.02112661190224
6.351841792,0.9999733867764671,19.908939638345572
6.356239872,1.0000626508551163,19.795522027775235
6.360637952,1.0001485432617503,19.680876488199218
6.36503552,1.0002255251941425,19.56504648212881
6.3694336,1.0002890783284597,19.44821862753178
6.37383168,1.0003355180690034,19.33058352735007
6.37822976,1.0003617046903777,19.212475756389125
6.38262784,1.000366256957165,19.09412020881424
6.38702592,1.0003488028397942,18.97583065116864
6.391424,1.0003103829251563,18.85797512695492
6.39582208,1.0002534485088008,18.740755004618677
6.400219648,1.0001812169862858,18.624433238044563
6.404617728,1.0000982908502871,18.5092381658767
6.409015808,1.0000094786200602,18.39524653764603
6.413413888,0.9999203429420388,18.28252833823125
6.417811968,0.9998361493980159,18.17099619360217
6.422210048,0.9997620720673303,18.060656837885144
6.426608128,0.9997025840998458,17.951162417902907
6.431006208,0.9996612971827717,17.842451052114463
6.435404288,0.9996407362506056,17.73416501495857
6.439801856,0.9996421802695927,17.625996254497966
6.444199936,0.9996655162825788,17.51767213754238
6.448598016,0.9997092975085646,17.408840822581546
6.452996096,0.9997709185924312,17.299284168402973
6.457394176,0.999846716317154,17.188743299696434
6.461792256,0.9999320548796166,17.077048865229454
6.466190336,1.0000217122866555,16.96406700312239
6.470588416,1.0001103928207111,16.84985585345838
6.474986496,1.0001925137033927,16.734393920068054
6.479384064,1.000263247452843,16.61788473947393
6.483782144,1.000318238375536,16.50043373201012
6.488180224,1.0003541266548286,16.382353082712466
6.492578304,1.0003689119299166,16.263911996767142
6.496976384,1.0003614564557193,16.145397454613363
6.501374464,1.0003323741448742,16.02711964215415
6.505772544,1.000283305995344,15.909405302287125
6.510170624,1.0002172981613764,15.792512414137859
6.514568192,1.000138223880066,15.6766494116189
6.518966272,1.0000510255926665,15.56194713195673
6.523364352,0.9999608459450646,15.448507021678504
6.527762432,0.9998731938386366,15.336331376600784
6.532160512,0.9997934363393673,15.225329867625046
6.536558592,0.9997263337063739,15.115374572559693
6.540956672,0.9996759445968911,15.006251616352252
6.545354752,0.9996454133279514,14.897678343532238
6.549752832,0.9996366533289994,14.789419082407804
6.5541504,0.9996501274524033,14.681089921720108
6.55854848,0.9996848682208102,14.572442197984067
6.56294656,0.9997390221680333,14.463104663839772
6.56734464,0.9998092325574577,14.352936206240496
6.57174272,0.9998912175518748,14.241650395120871
6.5761408,0.9999800515122402,14.129181099081922
6.58053888,1.00007036805636,14.015398730384215
6.58493696,1.0001565963615997,13.900346841968375
6.58933504,1.0002336532426053,13.784152606310457
6.593732608,1.0002967130370024,13.666976418202573
6.598130688,1.0003420534052805,13.54896687717138
6.602528768,1.0003668992587853,13.430488215699613
6.606926848,1.000369748740051,13.31182386296905
6.611324928,1.0003504309067366,13.193232796246889
6.615723008,1.000309993869726,13.075087758383951
6.620121088,1.0002509989046133,12.957634574927775
6.624519168,1.0001770161156458,12.841121659993618
6.628916736,1.0000924314935102,12.725705109093889
6.633314816,1.000002398381528,12.611541830540126
6.637712896,0.9999123314933256,12.498690557074047
6.642110976,0.9998277992824179,12.387015548522388
6.646509056,0.999753864926335,12.276486197598768
6.650907136,0.9996949629889993,12.166873123588617
6.655305216,0.9996548272414844,12.058030240671409
6.659703296,0.9996357545492678,11.949533857349849
6.664101376,0.99963888599346,11.841162525533987
6.668498944,0.9996641699715244,11.732643535250316
6.672897024,0.9997100775224489,11.623519760337006
6.677295104,0.9997736420551248,11.513664788799696
6.681693184,0.9998513349219348,11.402803519660099
6.686091264,0.9999381107891379,11.290719023166721
6.690489344,1.000028948583597,11.177436855550242
6.694887424,1.0001182820403218,11.06282111846198
6.699285504,1.0002007405380435,10.947000967682396
6.703683584,1.0002710845799867,10.830110897308161
6.708081152,1.0003255313777029,10.712288550973762
6.712479232,1.0003601714653887,10.593840978917754
6.716877312,1.0003733875088265,10.475045887602583
6.721275392,1.0003641963868088,10.35620169593368
6.725673472,1.0003330360557505,10.23766750488157
6.730071552,1.0002819393197824,10.119709549647789
6.734469632,1.000213888794478,10.002542685864132
6.738867712,1.000133195210437,9.886471997860525
6.74326528,1.0000444468296557,9.771589365289932
6.74766336,0.9999531851067187,9.65798815101157
6.75206144,0.9998650127048798,9.545645002562676
6.75645952,0.9997850521866664,9.434496968532457
6.7608576,0.9997183074224787,9.32439627266201
6.76525568,0.9996688292642709,9.215087779175052
6.76965376,0.9996396937970822,9.106367082085367
6.77405184,0.9996323607952516,8.99789462822375
6.77844992,0.9996477557836528,8.889340112095937
6.782847488,0.9996845808997975,8.780427431139262
6.787245568,0.999740698880702,8.670867785106928
6.791643648,0.9998128599024211,8.560346092125474
6.796041728,0.9998965379364486,8.44875750147419
6.800439808,0.9999868129995975,8.335882183619816
6.804837888,1.000078026877995,8.221765937587895
6.809235968,1.000164839899213,8.106339811493992
6.813634048,1.0002418470948498,7.989746738319148
6.818032128,1.0003043881300229,7.872144213040949
6.822429696,1.0003487992678675,7.753812094533143
6.826827776,1.0003722876457806,7.634955050537109
6.831225856,1.0003734205086816,7.515962082883751
6.835623936,1.0003521054729942,7.397042384350216
6.840022016,1.0003097397472653,7.278628894242833
6.844420096,1.0002486556158074,7.160898239407754
6.848818176,1.0001727181990467,7.044166041303684
6.853216256,1.0000864722178915,6.928553533535438
6.857613824,0.9999951827575562,6.81422085155694
6.862011904,0.9999043326150737,6.701183769856436
6.866409984,0.9998193702579758,6.58935465006386
6.870808064,0.9997455542253083,6.478666775790036
6.875206144,0.9996873318318704,6.368911003418507
6.879604224,0.9996482258401121,6.259883026078298
6.884002304,0.9996306069159834,6.151198711209838
6.888400384,0.9996356313845192,6.042633300821934
6.892798464,0.9996628249273929,5.933839758172814
6.897196032,0.9997107289978135,5.8244640470177425
6.901594112,0.9997764407169085,5.7142919119591955
6.905992192,0.9998558983446552,5.603113339247638
6.910390272,0.9999443200741782,5.4906980421342455
6.914788352,1.000036359650444,5.377033032754889
6.919186432,1.0001264313423701,5.262063470564392
6.923584512,1.0002090196999172,5.145808756324453
6.927982592,1.0002792804579765,5.028528595692589
6.932380672,1.0003327422443238,4.91031418774006
6.93677824,1.0003664299173747,4.791508887183265
6.94117632,1.0003780217195326,4.672360425698053
6.9455744,1.0003669838119569,4.55318022764157
6.94997248,1.0003337668807248,4.434333938174415
6.95437056,1.0002806324719926,4.316105388730372
6.95876864,1.0002106909113275,4.198727937760624
6.96316672,1.0001281323323905,4.082418747790618
6.9675648,1.0000378117187994,3.967329730037571
6.971962368,0.9999455310982691,3.853574216655734
6.976360448,0.9998565874180004,3.7410476319041233
6.980758528,0.9997765826703343,3.6297472596709217
6.985156608,0.9997101899475025,3.519473349660337
6.989554688,0.9996615621213581,3.4100175788876568
6.993952768,0.9996337215819233,3.301089270440078
6.998350848,0.99962811552343,3.192396228389381
7.002748928,0.9996453083417381,3.0836184784644773
7.007147008,0.9996842572551096,2.974459619481297
7.011544576,0.9997424170409571,2.8645650960052644
7.015942656,0.9998166208789013,2.753776578664411
7.020340736,0.9999019945504676,2.6417868777513243
7.024738816,0.9999936417679963,2.528588846791226
7.029136896,1.0000858151535021,2.4140669141591617
7.033534976,1.0001732388893216,2.2982396239041685
7.037933056,1.000250241948974,2.1812477304976863
7.042331136,1.0003123647623893,2.063288578622332
7.046729216,1.0003557614124798,1.944532303258011
7.051126784,1.0003777909014195,1.8253198718261896
7.055524864,1.0003772493371814,1.705983211101639
7.059922944,1.0003540167403357,1.5867298447965534
7.064321024,1.000309499812308,1.468049922047972
7.068719104,1.0002464245156795,1.3500466019005755
7.073117184,1.00016860688317,1.233068237212205
7.077515264,1.000080640810558,1.1172683944231045
7.081913344,0.9999879677416842,1.0027185833450822
7.086310912,0.999896264132698,0.8895129744347009
7.090708992,0.9998110237420301,0.777529084596715
7.095107072,0.9997371127233328,0.6666956403984851
7.099505152,0.9996796176862044,0.5567724785183873
7.103903232,0.9996415113950502,0.44751192461186745
7.108301312,0.9996253823337403,0.33865908090560953
7.112699392,0.9996322370879778,0.2298602646811319
7.117097472,0.9996614021432572,0.12079100956516176
7.121495552,0.9997114728987879,0.011165953657408967
7.12589312,0.9997791765563069,-0.09931239349694364
7.1302912,0.9998604999713018,-0.21084102214057907
7.13468928,0.9999505629821488,-0.32360814919508135
7.13908736,1.0000437225736456,-0.43768805487048296
7.14348544,1.0001346878913464,-0.5530530640715798
7.14788352,1.0002175670538715,-0.6696645833871745
7.1522816,1.0002875782098413,-0.7874095022476854
7.15667968,1.0003404657561348,-0.9059787672000376
7.16107776,1.0003728062792043,-1.0251990676193992
7.165475328,1.000382755378721,-1.1447122075422143
7.169873408,1.0003698721191574,-1.264226185695656
7.174271488,1.000334586413533,-1.3833543648324818
7.178669568,1.00027944262591,-1.5018938656124259
7.183067648,1.0002074319784326,-1.6195186679674276
7.187465728,1.0001229592556928,-1.736068789529823
7.191863808,1.0000311688445505,-1.8513582006749851
7.196261888,0.9999378027319882,-1.965341926375732
7.200659456,0.999848134028721,-2.0779931303153147
7.205057536,0.999767923297487,-2.189479981784716
7.209455616,0.9997019637557784,-2.2999150956664898
7.213853696,0.9996542116778212,-2.4095468145265584
7.218251776,0.9996275567510373,-2.51866459858335
7.222649856,0.9996236817594751,-2.627565351423009
7.227047936,0.9996427886758946,-2.73658214800383
7.231446016,0.9996836793632711,-2.846033460079613
7.235844096,0.9997442065837827,-2.9561968723579626
7.240241664,0.9998202825172696,-3.067341250899994
7.244639744,0.9999075393554617,-3.179655823214102
7.249037824,1.0000005439997361,-3.2932542247141536
7.253435904,1.0000938245794657,-3.408198373890412
7.257833984,1.0001817477314345,-3.5243927314304773
7.262232064,1.0002588142490094,-3.6418221941983693
7.266630144,1.0003203238518539,-3.760182227894341
7.271028224,1.0003628658891888,-3.879337694197346
7.275426304,1.000383459148589,-3.9989354741401124
7.279823872,1.0003811713564625,-4.118631162927293
7.284221952,1.0003559326233102,-4.238186081983696
7.288620032,1.0003093634653788,-4.35722092080824
7.293018112,1.0002441121055148,-4.4754918882576495
7.297416192,1.0001642855148265,-4.592710514642111
7.301814272,1.0000746470431148,-4.708738388435122
7.306212352,0.9999806553830642,-4.823472838249446
7.310610432,0.9998879090634367,-4.936870381388842
7.315008,0.9998022086355423,-5.049018917637431
7.31940608,0.9997285661795904,-5.1600645247662555
7.32380416,0.9996715925916172,-5.2701490817109935
7.32820224,0.9996345326133872,-5.379589015117536
7.33260032,0.9996199693856227,-5.488672000153294
7.3369984,0.9996285295228241,-5.597673539198739
7.34139648,0.9996599669001731,-5.707034153290761
7.34579456,0.9997120613108349,-5.816926831832865
7.35019264,0.9997818593603189,-5.927702952933059
7.354590208,0.9998651370620456,-6.039617412749965
7.358988288,0.9999567820073609,-6.152722154635307
7.363386368,1.0000513168817868,-6.267189239197374
7.367784448,1.0001430843964487,-6.382995626313971
7.372182528,1.0002263140102936,-6.500004406457489
7.376580608,1.0002959791996089,-6.618161499075401
7.380978688,1.0003480560807825,-6.7371480960925885
7.385376768,1.0003792549470558,-6.856761605067418
7.389774848,1.0003877445942089,-6.976654428224047
7.394172416,1.0003729369825825,-7.0965227321879505
7.398570496,1.0003355716543147,-7.216004407107057
7.402968576,1.0002782032104827,-7.334819511658588
7.407366656,1.000204080561462,-7.452719117487963
7.411764736,1.000117791217884,-7.569500685183094
7.416162816,1.0000244858347767,-7.684980628215713
7.420560896,0.9999298573337984,-7.799159692750335
7.424958976,0.9998395000441183,-7.912019522267376
7.429356544,0.9997591359909807,-8.023664952032183
7.433754624,0.999693523174118,-8.134288307296549
7.438152704,0.9996466111239884,-8.24410670173906
7.442550784,0.9996212282109943,-8.353450626166245
7.446948864,0.9996190411071693,-8.462556086525879
7.451346944,0.9996401242668183,-8.571820122561352
7.455745024,0.9996832862561098,-8.681551888034134
7.460143104,0.9997456980529843,-8.792019676936436
7.464541184,0.99982392219367,-8.903499556225876
7.468938752,0.9999129112641979,-9.016196634121165
7.473336832,1.0000074976296631,-9.13017858965452
7.477734912,1.0001019379038298,-9.245500120282802
7.482132992,1.0001903260937888,-9.362158769134762
7.486531072,1.000267403265853,-9.479961806314295
7.490929152,1.0003286515527892,-9.598794806434988
7.495327232,1.0003700683736798,-9.718318764759507
7.499725312,1.0003894239554798,-9.838318987852663
7.504123392,1.0003852109934548,-9.95843313545296
7.50852096,1.0003578704196356,-10.07830092578007
7.51291904,1.000309215199873,-10.197668539148786
7.51731712,1.0002418682985592,-10.316204675049468
7.5217152,1.000160034366499,-10.433668782493166
7.52611328,1.000068613530558,-10.54994930297479
7.53051136,0.9999732454579155,-10.664885017641065
7.53490944,0.9998796262132131,-10.778518005646891
7.53930752,0.999793316174314,-10.890863226163395
7.543705088,0.9997198711584077,-11.002020246589947
7.548103168,0.9996633172456121,-11.112309041040499
7.552501248,0.9996274969755821,-11.22192949565759
7.556899328,0.9996144461814859,-11.331233375480943
7.561297408,0.9996248071400835,-11.440490729993959
7.565695488,0.9996582167710747,-11.55007157264858
7.570093568,0.9997124552552875,-11.66030663333544
7.574491648,0.9997845194252929,-11.77143357545978
7.578889728,0.9998697633193601,-11.883666087509575
7.583287296,0.9999632046853659,-11.997170149331748
7.587685376,1.0000590030174965,-12.11204092632465
7.592083456,1.0001514705396326,-12.228251360866816
7.596481536,1.0002350597182474,-12.34571851407783
7.600879616,1.0003046113360516,-12.46430729586593
7.605277696,1.000355953528031,-12.583720200068527
7.609675776,1.0003858683999423,-12.70374438695624
7.614073856,1.000392790920198,-12.824023323822955
7.618471936,1.0003759773658465,-12.944236216676934
7.622869504,1.0003366543043664,-13.064047193289305
7.627267584,1.000277014295152,-13.18320338358888
7.631665664,1.0002008398952562,-13.301399752493872
7.636063744,1.0001125496822285,-13.41840424067807
7.640461824,1.000017682578167,-13.534125573176794
7.644859904,0.9999217798139326,-13.648473103360887
7.649257984,0.9998307578700059,-13.76157320212887
7.653656064,0.9997501618935286,-13.873402061497028
7.658053632,0.9996848809208658,-13.984178635276171
7.662451712,0.9996388098491248,-14.094194459186156
7.666849792,0.9996146834149278,-14.203732216514032
7.671247872,0.9996143224343949,-14.313094450351542
7.675645952,0.9996373224024069,-14.422612809175725
7.680044032,0.9996827108303705,-14.532606122616157
7.684442112,0.9997473257563521,-14.643417268103825
7.688840192,0.9998276105872265,-14.755253976866971
7.693238272,0.999918583845007,-14.868291013251675
7.69763584,1.000014602442508,-14.98270343438837
7.70203392,1.0001101196545532,-15.098460799672456
7.706432,1.0001990977041944,-15.215523421858645
7.71083008,1.000276342683268,-15.33378633356065
7.71522816,1.0003369252069276,-15.453038267234666
7.71962624,1.0003775472916525,-15.573004982658318
7.72402432,1.0003953794494629,-15.693404030751832
7.7284224,1.0003895094777437,-15.81389959366157
7.73282048,1.0003601789059393,-15.934136647018045
7.737218048,1.0003091915854478,-16.053822190858632
7.741616128,1.0002397253065418,-16.172672468260465
7.746014208,1.0001557202499052,-16.29041348399101
7.750412288,1.0000625214766108,-16.406905018173155
7.754810368,0.999965726288416,-16.522056589862647
7.759208448,0.9998710439202301,-16.635894122025654
7.763606528,0.9997843023241457,-16.748403284814678
7.768004608,0.999710743226323,-16.85978612896246
7.772402176,0.9996549270452194,-16.970249540825424
