freq,mag,phase
6.0,1.0000470104447092,-14.235561415517973
6.04166656,1.0000438476446063,-15.618364147584543
6.08333312,1.0000385845607487,-17.00174620223889
6.125000192,1.0000326686108283,-18.38574476581846
6.166666752,1.0000264151193925,-19.770276948884963
6.208333312,1.000019541866639,-21.155404866715514
6.249999872,1.0000124540697437,-22.5410639105399
6.291666432,1.0000053222848435,-23.92731931494274
6.333333504,0.9999980417606318,-25.31414484176224
6.375000064,0.9999905766013433,-26.701531567973163
6.416666624,0.9999833127811822,-28.089513776951488
6.458333184,0.9999761889534509,-29.478033660667332
6.499999744,0.9999692685102313,-30.867150816737166
6.541666816,0.9999628275617554,-32.256795721725396
6.583333376,0.9999566961402883,-33.647049623897935
6.624999936,0.9999510202858756,-35.037855542372135
6.666666496,0.9999461442142954,-36.42928890463822
6.708333568,0.9999417383939114,-37.82128641493908
6.750000128,0.999938196644528,-39.213845205160744
6.791666688,0.9999352268524445,-40.60705614515912
6.833333248,0.9999332375229169,-42.0008261887647
6.874999808,0.9999319374842974,-43.39520561613429
6.91666688,0.9999315388547102,-44.790196243402015
6.95833344,0.9999319745394677,-46.18586214172512
7.0,0.9999332788309726,-47.58205721104245
7.04166656,0.9999353708518666,-48.97892971720903
7.08333312,0.9999384588873362,-50.37640097955569
7.125000192,0.9999421190414886,-51.77452699225253
7.166666752,0.9999465205681954,-53.17328170828858
7.208333312,0.999951834198025,-54.572674407085664
7.249999872,0.9999576492007081,-55.97270709041216
7.291666432,0.9999638833081205,-57.37342830930318
7.333333504,0.9999707383377769,-58.774745793504415
7.375000064,0.9999780192335898,-60.17675062324768
7.416666624,0.9999854877457551,-61.5794068868288
7.458333184,0.9999931295377466,-62.982686888987764
7.500000256,1.0000009982266809,-64.38662859800203
7.541666816,1.0000088037735553,-65.79123787562752
7.583333376,1.0000166752478532,-67.1964829449244
7.624999936,1.0000242327645428,-68.60236748718066
7.666666496,1.000031508028082,-70.00888023396921
7.708333568,1.0000383838502183,-71.41610223581874
7.750000128,1.0000448503178823,-72.82387227026707
7.791666688,1.0000506422797655,-74.2323195245506
7.833333248,1.0000559843781653,-75.64136738538605
7.874999808,1.0000607532924566,-77.05104164903983
7.91666688,1.0000645075803951,-78.46133718257418
7.95833344,1.0000674897994868,-79.87220653853463
8.0,1.0000696041842478,-81.28369767234034
8.04166656,1.000070904406613,-82.69574830385608
8.08333312,1.0000712368048967,-84.10838279756445
8.125000192,1.000070807017295,-85.52160812622022
8.166666752,1.000069400225371,-86.93537131777184
8.208333312,1.0000670224010502,-88.34968981680684
8.249999872,1.0000639957617214,-89.76454704870915
8.291666432,1.0000598298318315,-91.17994506627767
8.333333504,1.0000551352087397,-92.59586311660634
8.375000064,1.0000495803985117,-94.01228549475715
8.416666624,1.000043428880768,-95.42922337017872
8.458333184,1.0000367633421332,-96.84668680878409
8.499999744,1.0000294111991659,-98.26460962586756
8.541666816,1.0000217096172848,-99.68302124124337
8.583333376,1.000013782477895,-101.10191362237542
8.625000448,1.0000055214235486,-102.52130556161863
8.666667008,0.9999972006896607,-103.94114560533835
8.708333568,0.999988893759565,-105.36143884522944
8.750000128,0.9999805849693304,-106.78222173130457
8.791666688,0.9999726083801656,-108.2034302162269
8.833333248,0.9999648708354605,-109.62510247875147
8.874999808,0.9999574961570923,-111.04725355404567
8.916666368,0.9999506758170235,-112.46983332208488
8.958332928,0.9999444085988214,-113.89287062633956
8.999999488,0.9999387460710941,-115.31634697536842
9.041667072,0.9999338516226024,-116.74026000796864
9.083333632,0.9999297651861541,-118.16467287977343
9.125000192,0.9999265495414367,-119.58945905042657
9.166666752,0.9999243084574425,-121.01474769508445
9.208333312,0.9999229098855114,-122.44045214143598
9.249999872,0.9999224952872622,-123.86663146015651
9.291666432,0.9999231029085477,-125.29325995256774
9.333332992,0.9999246566660728,-126.72034399741916
9.374999552,0.9999271248445929,-128.14787896478646
9.416667136,0.9999305158898013,-129.5758606729409
9.458333696,0.9999348323103967,-131.00428677853324
9.500000256,0.9999400024999892,-132.43319233423856
9.541666816,0.9999459146684744,-133.8625385452126
9.583333376,0.9999525608667963,-135.2923455891871
9.624999936,0.9999598616087269,-136.72259971101198
9.666666496,0.9999677698610616,-138.15330843359558
9.708333056,0.9999760543701534,-139.58446452286262
9.749999616,0.9999846561772997,-141.01605176085275
9.791666176,0.9999934767037703,-142.44809082621683
9.83333376,1.0000025939759816,-143.88056431173572
9.87500032,1.0000115324312262,-145.31346845606367
9.91666688,1.0000205284207107,-146.74678936682895
9.95833344,1.0000292414779837,-148.1805490028169
10.0,1.0000377553687079,-149.6147049904475
10.04166656,1.0000456407418812,-151.04926460591145
10.08333312,1.0000531831304074,-152.48419391671487
10.12499968,1.00006001195529,-153.91953042548374
10.16666624,1.0000661922411498,-155.35522922949121
10.208333824,1.000071562125896,-156.79126686378362
10.250000384,1.000076022358089,-158.22767152639116
10.291666944,1.000079607600487,-159.66440993285917
10.333333504,1.0000822357591654,-161.10145782137317
10.375000064,1.0000837359733323,-162.53883238786875
10.416666624,1.0000843489851432,-163.97649765192526
10.458333184,1.000083798473099,-165.41444432796655
10.499999744,1.0000821543089515,-166.85264559584854
10.541666304,1.0000795133847435,-168.29109692845492
10.583332864,1.000075959277756,-169.7298046575101
10.625000448,1.0000713537706538,-171.168715131951
10.666667008,1.0000657468241607,-172.60784816634478
10.708333568,1.0000592899489285,-174.04719877714865
10.750000128,1.0000520854810682,-175.48671847678546
10.791666688,1.0000441796384667,-176.92641153912552
10.833333248,1.0000356460325577,-178.36627801560678
10.874999808,1.000026577293829,-179.80628396592797
10.916666368,1.0000170970353055,178.75356662013826
10.958332928,1.0000072741490038,177.31329259433775
11.000000512,0.999997380084543,175.87288140568302
11.041667072,0.9999873777936827,174.4323852189245
11.083333632,0.9999774780200583,172.99176217343415
11.125000192,0.9999677446682396,171.5510405993656
11.166666752,0.9999583908530195,170.1102500669342
11.208333312,0.999949476206133,168.6693522916017
11.249999872,0.9999410207265507,167.22837350453256
11.291666432,0.9999332481746246,165.78733115700462
11.333332992,0.9999263614182566,164.34622248680978
11.374999552,0.999920267457322,162.90502659108031
11.416667136,0.9999150496959374,161.46376880193682
11.458333696,0.9999108545289498,160.02243397807888
11.500000256,0.9999078184838651,158.58105676455975
11.541666816,0.9999058994305774,157.13959815796844
11.583333376,0.9999050420806618,155.69808574550103
11.624999936,0.9999054039868315,154.25650658605312
11.666666496,0.9999069906979818,152.8148749503712
11.708333056,0.999909682513051,151.37315848191398
11.749999616,0.9999135520684855,149.9314134445357
11.791666176,0.9999185175861769,148.48958474280676
11.83333376,0.9999244988775394,147.04770207236606
11.87500032,0.9999315205805664,145.6057589594358
11.91666688,0.9999394906602,144.16376724207157
11.95833344,0.9999483084236944,142.72171170376794
12.0,0.9999577910203654,141.27961469283466
12.04166656,0.999967864600866,139.83746432368383
12.08333312,0.9999784151610479,138.3952869375004
12.12499968,0.9999894422874972,136.95305254413452
12.16666624,1.0000006083576733,135.51078785028076
12.208333824,1.0000120201057918,134.0685000933237
12.250000384,1.0000232061592742,132.62619057928768
12.291666944,1.000034285951791,131.1838749222992
12.333333504,1.0000450643966847,129.7415493278072
12.375000064,1.0000553854066776,128.29924461442155
12.416666624,1.0000650184834394,126.85693888736117
12.458333184,1.0000740868917755,125.4146833429396
12.499999744,1.0000822653650474,123.97247746222095
12.541666304,1.0000894436219236,122.53030340491294
12.583332864,1.0000956932031826,121.08821426038587
12.625000448,1.0001007664932764,119.64621137095355
12.666667008,1.000104588267709,118.20430505690399
12.708333568,1.0001071804956498,116.76251797535899
12.750000128,1.0001084586308955,115.32085721426074
12.791666688,1.0001084283213328,113.87934376667803
12.833333248,1.000106920345193,112.43800823342855
12.874999808,1.0001041029396662,110.99683647904585
12.916666368,1.000100024878141,109.5558367173071
12.958332928,1.000094618953098,108.11509204810463
12.999999488,1.0000878849258839,106.6745527886275
13.041667072,1.000080005939935,105.23427457538102
13.083333632,1.000071051706871,103.79423260086281
13.125000192,1.000061073553536,102.35447583974253
13.166666752,1.0000501363476775,100.91500424573363
13.208333312,1.0000385759277286,99.47584195801049
13.249999872,1.0000263157718594,98.03697936967711
13.291666432,1.0000135012797677,96.59843902019779
13.333332992,1.0000003584316646,95.16023301930154
13.374999552,0.9999871054157581,93.72237077144729
13.416667136,0.9999737797991491,92.28485742792736
13.458333696,0.9999606104208054,90.84770466595181
13.500000256,0.999947651027663,89.41090320509373
13.541666816,0.9999353243892408,87.9744879506401
13.583333376,0.9999234838944638,86.53843359593606
13.624999936,0.9999123846787015,85.10277270888479
13.666666496,0.9999023678003162,83.66747939223423
13.708333056,0.9998933412731756,82.23256630033299
13.749999616,0.9998854283010634,80.79801619823337
13.791666176,0.9998789464934327,79.36386580146737
13.83333376,0.9998738295690556,77.93008618484929
13.87500032,0.9998702283132133,76.49667718726575
13.91666688,0.9998681327980282,75.06364415427872
13.95833344,0.9998677471043527,73.63099491159149
14.0,0.9998689697648081,72.19866605073776
