freq,mag,phase
6.0,1.0003338952334213,-58.09116203340786
6.00959232,1.00031885370354,-58.514519023239146
6.01918464,1.000288847776104,-58.937752809801566
6.02877696,1.0002443166932224,-59.36073143772012
6.03836928,1.0001872821347735,-59.78315224534434
6.0479616,1.0001209883628368,-60.20495514833794
6.05755392,1.0000483950633443,-60.626050731887815
6.06714624,0.9999731481738507,-61.04633846830645
6.07673856,0.9998996304118567,-61.46585665666546
6.08633088,0.99983090528614,-61.88458348600648
6.0959232,0.9997707007147558,-62.30265297488255
6.10551552,0.9997222565877617,-62.72023202207289
6.11510784,0.9996878375293186,-63.13741288183545
6.12470016,0.999669134320879,-63.55441689567217
6.13429248,0.9996672996583674,-63.971468930210904
6.1438848,0.9996822241908445,-64.38872746204767
6.15347712,0.9997134790896566,-64.80647239872036
6.16306944,0.9997590988610051,-65.22490786250732
6.17266176,0.9998174031824704,-65.64416906559681
6.18225408,0.9998848289508258,-66.0644359955356
6.1918464,0.9999580533622154,-66.48576432131483
6.20143872,1.0000337181004104,-66.9082418162908
6.21103104,1.0001077462041532,-67.33188101846369
6.22062336,1.0001764729058178,-67.75656370492267
6.23021568,1.0002363025127239,-68.18232479898293
6.239808,1.0002844877356112,-68.60887793233947
6.24940032,1.0003181672946706,-69.03618410059484
6.25899264,1.0003358963440616,-69.4639889400403
6.26858496,1.0003366892274477,-69.89208620337067
6.27817728,1.0003205852025738,-70.32027136476862
6.2877696,1.0002882896270453,-70.74830496798754
6.29736192,1.000241251130975,-71.17602121424981
6.30695424,1.0001821888369988,-71.60316801026696
6.31654656,1.0001137820439654,-72.0297254277498
6.32613888,1.0000395253743557,-72.45547250997093
6.3357312,0.9999634137396399,-72.88043782745092
6.34532352,0.999888872544316,-73.30463470163438
6.35491584,0.9998199900313264,-73.72802625976392
6.36450816,0.9997602655338502,-74.15075807704076
6.37410048,0.9997125293165531,-74.57298264821945
6.3836928,0.9996793256726566,-74.99483307435416
6.39328512,0.9996623038960099,-75.41654190472423
6.402877952,0.9996624622792818,-75.83830472271272
6.412470272,0.9996797041806524,-76.26038034058091
6.422062592,0.9997132351226755,-76.68291807863474
6.431654912,0.9997613290200221,-77.10612281408015
6.441247232,0.9998214967863643,-77.53027004837095
6.450839552,0.9998909065778069,-77.95537778616426
6.460431872,0.9999658640349752,-78.38162790225412
6.470024192,1.0000428102658054,-78.80900383468102
6.479616512,1.000117414912286,-79.23757927392805
6.489208832,1.0001864724670284,-79.66720843153145
6.498801152,1.00024613088804,-80.09785848658039
6.508393472,1.000293470726587,-80.5293838552975
6.517985792,1.0003258855168455,-80.96158928290548
6.527578112,1.0003421783625592,-81.39430278219191
6.537170432,1.0003409960990772,-81.82725771674158
6.546762752,1.0003226808060406,-82.26030000494377
6.556355072,1.0002882355436629,-82.69315410727332
6.565947392,1.0002389364574216,-83.12562481792104
6.575539712,1.0001776954348274,-83.55757145083238
6.585132032,1.0001072607625798,-83.98882701408576
6.594724352,1.0000315349460658,-84.41929471944432
6.604316672,0.9999540795439494,-84.8489751809087
6.613908992,0.9998787946735229,-85.27783210073389
6.623501312,0.9998096779817752,-85.70591307746618
6.633093632,0.9997500821507709,-86.13331808089663
6.642685952,0.9997030167077675,-86.56023238710446
6.652278272,0.9996709686662509,-86.98679495778184
6.661870592,0.9996555103634691,-87.41318248986082
6.671462912,0.999657468372319,-87.83966600396333
6.681055232,0.9996767649272525,-88.26646599136437
6.690647552,0.999712374176094,-88.69378381515948
6.700239872,0.999762658904484,-89.12183707672484
6.709832192,0.9998251527273392,-89.55078736083817
6.719424512,0.999896284506139,-89.98079120695225
6.729016832,0.9999729688773472,-90.4118845863442
6.738609152,1.0000510246680028,-90.84417345128043
6.748201472,1.000126621950041,-91.27760975835572
6.757793792,1.0001959679336323,-91.71215971131087
6.767386112,1.0002555099617614,-92.14773866184935
6.776978432,1.0003021249028137,-92.58419412944801
6.786570752,1.0003335965442728,-93.02129173384432
6.796163072,1.0003483533604345,-93.45885824605348
6.805755392,1.0003455393664806,-93.89670641711693
6.815347712,1.000325243473711,-94.3345436502817
6.824940032,1.000288494241188,-94.7721790951333
6.834532352,1.0002371987843734,-95.20944041199895
6.844124672,1.0001737643032482,-95.64615312803622
6.853716992,1.0001015540487594,-96.08209457425761
6.863309312,1.0000241259063596,-96.51725683889472
6.872901632,0.9999453135993415,-96.95164716941785
6.882493952,0.9998692675900066,-97.38511411739256
6.892086272,0.999799677487256,-97.81784347945339
6.901678592,0.9997402063454063,-98.24989460378664
6.911270912,0.9996936020579418,-98.6814633393541
6.920863232,0.9996626703922092,-99.11265971414488
6.930455552,0.9996485466876492,-99.54369984662155
6.940047872,0.9996522031604412,-99.97486475626302
6.949640192,0.999673410374757,-100.40642794526927
6.959232512,0.9997111895880123,-100.83843136891544
6.968824832,0.9997635960032883,-101.2712104646667
6.978417152,0.9998280388188933,-101.70494290480426
6.988009472,0.9999012256834461,-102.13972825293176
6.997601792,0.9999794891877574,-102.57565566080787
7.007194112,1.0000587985513978,-103.01280977577066
7.016786432,1.0001353403847861,-103.45108894358613
7.026378752,1.0002052021852967,-103.89048811591032
7.035971072,1.0002646551480383,-104.33090020220033
7.045563392,1.0003108056774648,-104.7721789759841
7.055155712,1.0003415197973005,-105.21408839299055
7.064748032,1.0003548898253154,-105.65648300754027
7.074340352,1.0003503735722465,-106.09911532815592
7.083932672,1.000328189246054,-106.54170944973966
7.093524992,1.0002893729444207,-106.98412560241916
7.103117312,1.0002359633576314,-107.42605587571924
7.112709632,1.0001705182779592,-107.86742334663937
7.122301952,1.0000963026201495,-108.3080600608156
7.131894272,1.0000173115497495,-108.74787871565728
7.141486592,0.9999372789058235,-109.1867815881663
7.151078912,0.999860218215626,-109.62489108360882
7.160671232,0.9997900533731089,-110.06216907568162
7.170263552,0.999730514718133,-110.4987782040059
7.179855872,0.9996844316288355,-110.93487952657756
7.189448192,0.9996541304949212,-111.3706458530701
7.199040512,0.9996413223226057,-111.80629147067216
7.208633344,0.9996465398594134,-112.24203575206886
7.218225664,0.9996695878147579,-112.67815807935534
7.227817984,0.999709388430704,-113.11481669918054
7.237410304,0.9997639545315262,-113.55225443944863
7.247002624,0.9998303414498981,-113.99062768356778
7.256594944,0.999905419656619,-114.43010519158398
7.266187264,0.9999854027351689,-114.87071194600848
7.275779584,1.000066153941656,-115.31256350529084
7.285371904,1.000143703575128,-115.75557546669351
7.294964224,1.0002140283408876,-116.19973204179531
7.304556544,1.0002736235717242,-116.64489523766505
7.314148864,1.0003196271825863,-117.0908647464588
7.323741184,1.0003494843133778,-117.53752180521755
7.333333504,1.0003617008741146,-117.98459828601162
7.342925824,1.0003557662390041,-118.4318850120451
7.352518144,1.0003317728357817,-118.87916461007208
7.362110464,1.0002910271932115,-119.32618229950769
7.371702784,1.000235559480528,-119.77274083846058
7.381295104,1.0001681211286795,-120.21866062617822
7.390887424,1.0000920635505115,-120.66379841719387
7.400479744,1.0000113058344737,-121.10809977581414
7.410072064,0.9999297546229812,-121.55149212435026
7.419664384,0.9998516509574898,-121.99402705322751
7.429256704,0.9997809671548303,-122.43577923607499
7.438849024,0.9997210866011345,-122.87681080621357
7.448441344,0.9996751936204574,-123.31732541548308
7.458033664,0.9996456721535888,-123.75748590188614
7.467625984,0.9996338053179576,-124.19756316959094
7.477218304,0.9996406064292256,-124.63775505403669
7.486810624,0.9996652307698519,-125.07829912960419
7.496402944,0.9997070129377507,-125.5194324334763
7.505995264,0.9997634466579417,-125.96136542650144
7.515587584,0.9998319578037691,-126.40426994852388
7.525179904,0.999908959563633,-126.84827198062727
7.534772224,0.9999906131408103,-127.29340657605125
7.544364544,1.000072882468265,-127.73979471133696
7.553956864,1.0001515177859392,-128.1873733394552
7.563549184,1.0002225780642349,-128.63608487369757
7.573141504,1.0002825359734193,-129.08581886992138
7.582733824,1.0003283949125743,-129.5363683230695
7.592326144,1.0003576125347635,-129.98757138468227
7.601918464,1.0003688396593513,-130.43919477368655
7.611510784,1.0003615562703212,-130.890978088117
7.621103104,1.0003359457408922,-131.34276439882797
7.630695424,1.00029336748031,-131.79421684570883
7.640287744,1.0002359293884089,-132.24517754942457
7.649880064,1.0001664744203107,-132.69550106733925
7.659472384,1.000088495640973,-133.14499688859138
7.669064704,1.000005852059279,-133.59363042005052
7.678657024,0.9999228441395277,-134.04134816799032
7.688249344,0.9998435178094071,-134.4881488636478
7.697841664,0.99977191253777,-134.93413478487244
7.707433984,0.9997116601260181,-135.37942262444906
7.717026304,0.9996659124982422,-135.82414455005
7.726618624,0.9996367285699785,-136.2685757913713
7.736210944,0.9996258718316265,-136.71286041403778
7.745803264,0.9996338522938607,-137.15729200877044
7.755395584,0.999660162960407,-137.60205982525272
7.764987904,0.9997036595347968,-138.04746269678296
7.774580224,0.999762100014061,-138.4936461804461
7.784172544,0.999832610059109,-138.9408329786941
7.793764864,0.9999115091115299,-139.38912436011168
7.803357184,0.9999950134526062,-139.8386340888816
7.812949504,1.000078811587679,-140.28935281742088
7.822541824,1.000158737829694,-140.7412688471538
7.832134144,1.0002307697965322,-141.19432412519944
7.841726464,1.0002911589621961,-141.648391006063
7.851318784,1.000337006728099,-142.10328664406717
7.860911104,1.0003659302080028,-142.55880976453844
7.870503424,1.0003763319958494,-143.01476875846316
7.880095744,1.0003678464877936,-143.4708710227449
7.889688064,1.0003407487300229,-143.92688839053778
7.899280384,1.0002964022566492,-144.38258799136173
7.908872704,1.0002369847042636,-144.8377812806461
7.918465024,1.0001655235975242,-145.29225571421546
7.928057344,1.0000856296514236,-145.74589092643632
7.937649664,1.000001132952279,-146.19865725035712
7.947241984,0.9999164420791304,-146.6504218471095
7.956834304,0.9998358788490473,-147.10128324683885
7.966426624,0.9997632210045362,-147.55128993347898
7.976018944,0.9997024163136615,-148.00057309094348
7.985611264,0.9996564026338968,-148.44929868366586
7.995203584,0.9996276443634993,-148.8976874575897
8.004796416,0.999617461247078,-149.3459641594472
8.014388736,0.9996265047307189,-149.79436805044514
8.023981056,0.9996543326441384,-150.24315004455264
8.033573376,0.9996994853984985,-150.6925265049409
8.043165696,0.999759886086018,-151.14274379048067
8.052758016,0.9998323215812375,-151.59389993821517
8.062350336,0.9999132907326875,-152.0462528242022
8.071942656,0.999998628725148,-152.4998155747076
8.081534976,1.0000841805405827,-152.9546016457067
8.091127296,1.0001655453898244,-153.41061569576146
8.100719616,1.0002386647227233,-153.86773027454385
8.110311936,1.0002998067616542,-154.32588054582337
8.119904256,1.000345848983991,-154.7848737666214
8.129496576,1.0003745567325073,-155.244480415654
8.139088896,1.0003843882716172,-155.70446143194943
8.148681216,1.0003748322032788,-156.16459759088312
8.158273536,1.0003463443448581,-156.62463671201073
8.167865856,1.0003003316651229,-157.08433405251466
8.177458176,1.0002390457767527,-157.5434564932601
8.187050496,1.0001655341833564,-158.00182509638202
8.196642816,1.0000835829016443,-158.45934580747763
8.206235136,0.9999972076767888,-158.915931030867
8.215827456,0.9999107163500951,-159.37152945511733
8.225419776,0.9998285210145539,-159.82615904062166
8.235012096,0.9997547600681576,-160.27989437105106
8.244604416,0.9996931166576823,-160.73289361673548
8.254196736,0.9996468419536811,-161.18531050199675
8.263789056,0.999618143912936,-161.63740076310071
8.273381376,0.9996085503565901,-162.08933967854045
8.282973696,0.9996184732481486,-162.54142995347794
8.292566016,0.9996476199943127,-162.99389201195035
8.302158336,0.9996945298178698,-163.44694434701665
8.311750656,0.9997566602084319,-163.90086282798035
8.321342976,0.9998312255425236,-164.3557690559665
8.330935296,0.9999142595599337,-164.81183237640053
8.340527616,1.0000016404396042,-165.26912340757926
8.350119936,1.0000890169533307,-165.72765684598014
8.359712256,1.000172036906341,-166.18742933263482
8.369304576,1.000246454084807,-166.6483308387972
8.378896896,1.0003084696751898,-167.1102691019781
8.388489216,1.0003550307914435,-167.5730140156099
8.398081536,1.0003836857655952,-168.03638904017336
8.407673856,1.0003930896108035,-168.50012008485862
8.417266176,1.0003826762692547,-168.96401515427215
8.426858496,1.000352905823659,-169.4277177694882
8.436450816,1.0003052527259502,-169.89107914342455
8.446043136,1.0002421450940815,-170.35383838500013
8.455635456,1.0001666173781372,-170.81582258866658
8.465227776,1.0000825102065283,-171.2769395484904
8.474820096,0.9999940278966107,-171.73701721327777
8.484412416,0.9999055900525895,-172.19609420644295
8.494004736,0.999821750641218,-172.65417480878418
8.503597056,0.9997465571244974,-173.1113233408227
8.513189376,0.9996839755744767,-173.5677159614112
8.522781696,0.9996370650414195,-174.0235461874665
8.532374016,0.999608196766935,-174.47894111227865
8.541966336,0.9995989530188096,-174.9342320394861
8.551558656,0.9996098065481408,-175.38964825317524
8.561150976,0.9996401247608474,-175.845450193288
8.570743296,0.9996885769151944,-176.30185561278816
8.580335616,0.9997526239905264,-176.7591047648684
8.589927936,0.9998291965243371,-177.2173860379552
8.599520256,0.9999143932990538,-177.67678931217065
8.609113088,1.0000039638263272,-178.13748998738708
8.618704896,1.000093447006707,-178.59942118323957
8.628297728,1.0001781997032486,-179.06261238481574
8.637889536,1.0002540331568985,-179.52694671720621
8.647482368,1.0003173441203883,-179.99231776970757
8.657074176,1.0003645023349048,179.54151827520064
8.666667008,1.0003935384432332,179.0747305981068
8.676258816,1.0004026866038835,178.6075973319543
8.685851648,1.0003914575388364,178.14036688783176
8.695443456,1.000360489316132,177.6732466824671
8.705036288,1.0003112672117453,177.20655824621923
8.714628096,1.000246267819303,176.74051335990822
8.724220928,1.0001686910141163,176.2752593633961
8.733812736,1.000082362463207,175.81094777689154
8.743405568,0.9999916434985134,175.34767267957483
8.752997376,0.999901182384806,174.88546750770627
8.762590208,0.9998153195371124,174.42429505785498
8.772182016,0.9997384768815293,173.96409171297208
8.781774848,0.9996746011426716,173.5046357135553
8.791366656,0.9996269279421681,173.04585113998874
8.800959488,0.9995977632067465,172.5874348900178
8.810551296,0.9995885705525192,172.1292091850938
8.820144128,0.9996000333529966,171.6708492288327
8.829735936,0.999631513309514,171.21209820751972
8.839328768,0.9996814706186733,170.75272733659662
8.848920576,0.9997474520710172,170.29253112434654
8.858513408,0.9998262743600773,169.8312612502194
8.868105216,0.9999136214233699,169.36886772171704
8.877698048,1.0000055579150768,168.90519001362244
8.887289856,1.000097124976197,168.44020200642407
8.896882688,1.000183974633033,167.97400256247474
8.906474496,1.000261687011087,167.50662221267058
8.916067328,1.0003262487920632,167.03821967666298
8.925659136,1.0003743632111648,166.56898561292076
8.935251968,1.000403792351815,166.0991443350692
8.944843776,1.0004129155647163,165.62898030682717
8.954436608,1.0004011644343715,165.15870933363095
8.964028416,1.0003693110230698,164.6886248725997
8.973621248,1.0003185166660535,164.21896893715783
8.983213056,1.0002515927208477,163.7499856924171
8.992805888,1.0001717815473814,163.28184930014356
9.002397696,1.0000831587042718,162.81469273649225
9.011990528,0.9999901433120089,162.34863616333286
9.021582336,0.9998972423143879,161.8836479988279
9.031175168,0.9998092726243185,161.41979410598884
9.040766976,0.9997305997551515,160.95687236278465
9.050359808,0.9996651925418257,160.49483280631412
9.059951616,0.9996163081042295,160.0334196140383
9.069544448,0.9995866179473918,159.57243692464482
9.079136256,0.9995773812363602,159.11162591704803
9.088729088,0.9995893585486076,158.65069375272927
9.098320896,0.9996219398214538,158.1894223810236
9.107913728,0.999673413574086,157.72751215666148
9.117505536,0.999741321421607,157.26474191565913
9.127098368,0.9998221050507514,156.8009114230214
9.136690176,0.9999120831604685,156.33590460114908
9.146283008,1.0000063452744412,155.86964724696418
9.155874816,1.0001004615099995,155.40205016067605
9.165467648,1.0001895941648375,154.93320855601334
9.175059456,1.0002691879468222,154.4631831717098
9.184652288,1.0003354519598278,153.99212590705258
9.194244096,1.0003848500542036,153.52025566585783
9.203836928,1.0004148462814089,153.04776926207182
9.21342976,1.0004240542688128,152.57493262785823
9.223021568,1.000411934015573,152.1020451801948
9.2326144,1.0003789783059858,151.6293477434471
9.242206208,1.000326804275134,151.157126219551
9.25179904,1.0002579154656397,150.6856099533324
9.261390848,1.0001759365444765,150.21494102271072
9.27098368,1.0000848713978854,149.74532401514952
9.280575488,0.9999890954434072,149.2768633113667
9.29016832,0.9998937867855494,148.80951051720936
9.299760128,0.9998032964476864,148.3433258063128
9.30935296,0.9997223566052005,147.87814693714833
9.318944768,0.9996551390730665,147.41385380742946
9.3285376,0.9996051242875617,146.95025717016534
9.338129408,0.999574491128513,146.48709231721097
9.34772224,0.999565153334238,146.02414037967998
9.357314048,0.999577534608096,145.5610977989179
9.36690688,0.9996109697299307,145.09768220705726
9.376498688,0.9996638973173626,144.63361304010567
9.38609152,0.9997336898580744,144.16871609061891
9.395683328,0.9998168140663067,143.7027696932609
9.40527616,0.9999093070635211,143.23557693049642
9.414867968,1.0000062277789394,142.76711724732908
9.4244608,1.0001030924258802,142.29734981915897
9.434052608,1.000194737197631,141.82625404517333
9.44364544,1.0002768375631472,141.35400750571773
9.453237248,1.000344945642026,140.8806989337119
9.46283008,1.0003957472554852,140.40653978825335
9.472421888,1.0004267456098344,139.93180262831234
9.48201472,1.0004362635681874,139.45670434880427
9.491606528,1.0004237353617331,138.98154770014824
9.50119936,1.000389902018686,138.506650665959
9.510791168,1.0003363738710087,138.03225444399058
9.520384,1.000265478086708,137.55852873143834
9.529975808,1.0001811297742822,137.0857990080675
9.53956864,1.0000874442421173,136.6140959802523
9.549160448,0.999988847320533,136.1435813969753
9.55875328,0.9998906083825758,135.6743020292843
9.568345088,0.9997974503150343,135.20618472876498
9.57793792,0.9997140956089805,134.73911975093284
9.587529728,0.9996448674706828,134.27298933099414
9.59712256,0.9995930882929918,133.80760550996393
9.606714368,0.9995613921604433,133.34269364052616
9.6163072,0.9995517194562914,132.8779969129896
9.625899008,0.9995642605926779,132.41320902024924
9.63549184,0.9995985279658622,131.94808201822892
9.645083648,0.9996529188953154,131.48232153713724
9.65467648,0.9997247490928965,131.01568820554746
9.664268288,0.9998103427280232,130.54799308530846
9.67386112,0.9999054661227326,130.07906354543698
9.683452928,1.0000055075515828,129.60883015074927
9.69304576,1.000105258233817,129.13723974056657
9.702637568,1.000199791579767,128.6643397414781
9.7122304,1.000284487016638,128.19023071949022
9.721822208,1.0003548312074186,127.71506103492679
9.73141504,1.0004074179600766,127.23903764420986
9.741006848,1.000439569115781,126.7623918991379
9.75059968,1.0004495544788308,126.28543483366727
9.760191488,1.000437018479914,125.8084174226916
9.76978432,1.0004022526758545,125.33164907423206
9.779376128,1.0003471582571848,124.85539691205632
9.78896896,1.0002744096472647,124.37993214897716
9.798560768,1.000187511752514,123.90541471424655
9.8081536,1.0000908721473247,123.4320308306865
9.817745408,0.9999892650776876,122.95988025679355
9.82733824,0.9998879110280824,122.48898480953336
9.836930048,0.999791721318898,122.01933068829683
