freq,mag,phase
6.0,1.0000231854543153,-56.700306316161544
6.003703808,1.0000320399053977,-56.87382522909967
6.007407616,1.0000390278291362,-57.04751148656057
6.011110912,1.0000440725380373,-57.22135163774945
6.01481472,1.0000465578423132,-57.39525993690856
6.018518528,1.0000465499067623,-57.56925345919989
6.022222336,1.0000438286366522,-57.74325396313719
6.025926144,1.0000387495798966,-57.917244949716455
6.02962944,1.0000312406695717,-58.09119052840365
6.033333248,1.0000222645797223,-58.26505566145318
6.037037056,1.0000120036370301,-58.438837561578275
6.040740864,1.0000013793179603,-58.61250316673248
6.044444672,0.9999906449475022,-58.786107629191164
6.048147968,0.99998097891339,-58.95954609514556
6.051851776,0.9999725728860199,-59.13293847625257
6.055555584,0.9999658582293889,-59.30627680168609
6.059259392,0.999961506763818,-59.47952926304142
6.0629632,0.9999597844299433,-59.65282432353511
6.066666496,0.9999608429464759,-59.82612752551365
6.070370304,0.9999642472144848,-59.99953696234909
6.074074112,0.9999704216553267,-60.17301914179843
6.07777792,0.9999781825063147,-60.34665310710199
6.081481728,0.9999877639020944,-60.52047387256598
6.085185024,0.9999983514603225,-60.694470585508306
6.088888832,1.0000092438035426,-60.8686561975727
6.09259264,1.0000198554927102,-61.04305359981926
6.096296448,1.0000293182737465,-61.21763808319981
6.099999744,1.0000374958947336,-61.39235803018478
6.103703552,1.0000432204904093,-61.56729143603602
6.10740736,1.000046758218914,-61.7422506141786
6.111111168,1.0000478643433441,-61.917315878856044
6.114814976,1.0000458838432855,-62.092438822351724
6.118518272,1.0000416359473432,-62.26751977344872
6.12222208,1.0000347923107749,-62.442611645737564
6.125925888,1.0000263005029189,-62.617612820496475
6.129629696,1.0000162475171819,-62.79255182729601
6.133333504,1.0000053932236757,-62.96735969305707
6.1370368,0.9999945283040891,-63.14205245002377
6.140740608,0.9999840725462608,-63.3166730179698
6.144444416,0.9999748662228065,-63.49116319208297
6.148148224,0.9999675188503719,-63.66558183203942
6.151852032,0.999962061118258,-63.83994789427164
6.155555328,0.9999593679235814,-64.01428287857375
6.159259136,0.9999593150103483,-64.18864814282082
6.162962944,0.999962023329399,-64.36307741743808
6.166666752,0.9999671674924085,-64.53764303872293
6.17037056,0.9999745165023851,-64.71231205741678
6.174073856,0.9999837776554849,-64.8871388569697
6.177777664,0.999994085364808,-65.06212855729886
6.181481472,1.000005237260893,-65.2373269544898
6.18518528,1.0000162075587382,-65.41276941495966
6.188889088,1.0000264156535286,-65.5883459015954
6.192592384,1.0000352541670896,-65.7641302315952
6.196296192,1.0000420936605081,-65.94004235291234
6.2,1.0000465261243077,-66.11611517013586
6.203703808,1.0000485100326766,-66.29225852676228
6.207407616,1.0000477101954353,-66.46846113752544
6.211110912,1.0000442259216822,-66.64465395861546
6.21481472,1.0000382397664571,-66.82085016097511
6.218518528,1.0000301700558676,-66.99697014353256
6.222222336,1.0000204902545982,-67.1730209764201
6.225926144,1.000009561201293,-67.34893635808412
6.22962944,0.9999983068866942,-67.52480200962601
6.233333248,0.9999875474510734,-67.70048603947855
6.237037056,0.999977608573018,-67.8760939624208
6.240740864,0.9999692765891994,-68.0515865261237
6.244444672,0.9999630646426693,-68.22702635150014
6.248147968,0.999959233130961,-68.40246782080106
6.251851776,0.999958264363432,-68.5778689683312
6.255555584,0.9999597986483454,-68.75336680388489
6.259259392,0.9999642520962918,-68.92892108466626
6.2629632,0.9999710416665982,-69.10459207562916
6.266666496,0.9999796394904611,-69.28043406186214
6.270370304,0.9999900313999621,-69.45642495095794
6.274074112,1.0000011187879385,-69.63263080930675
6.27777792,1.000012250589928,-69.80903118583593
6.281481728,1.0000230917918402,-69.98564550034797
6.285185024,1.0000326406633742,-70.16240876012385
6.288888832,1.0000404184178608,-70.33938373363287
6.29259264,1.0000459781512216,-70.51648720428273
6.296296448,1.0000490022818072,-70.69368447898388
6.300000256,1.0000491753023355,-70.8709394866303
6.303703552,1.0000467214675317,-71.04820911065175
6.30740736,1.0000414655510985,-71.22548396488338
6.311111168,1.0000339597620684,-71.40267337323868
6.314814976,1.0000245488591626,-71.57988065544373
6.318518272,1.000013921652126,-71.75691291854197
6.32222208,1.0000025774386627,-71.93385600350295
6.325925888,0.9999913528444598,-72.11061647434848
6.329629696,0.9999807667695922,-72.28733326246993
6.333333504,0.9999716318499873,-72.46393838680937
6.3370368,0.9999643938872917,-72.64043928026553
6.340740608,0.9999596300670539,-72.8169114890748
6.344444416,0.9999574590501898,-72.99337896925394
6.348148224,0.9999580809350767,-73.1698865370698
6.351852032,0.9999615251621423,-73.34644190957813
6.355555328,0.9999674002624781,-73.5231346582186
6.359259136,0.9999758038972414,-73.69995041586255
6.362962944,0.9999857290914569,-73.87695782394937
6.366666752,0.9999968060293792,-74.05410145755233
6.37037056,1.0000082689012109,-74.23149206103557
6.374073856,1.0000194558752167,-74.40907201806064
6.377777664,1.000029684858838,-74.58683721347515
6.381481472,1.0000385028467194,-74.76478761877225
6.38518528,1.0000448898959289,-74.94288651286767
6.388889088,1.0000490929530865,-75.12111555672016
6.392592384,1.000050355798131,-75.29939180408986
6.396296192,1.0000487432620488,-75.47777407291625
6.4,1.000044463238527,-75.65608512527682
6.403703808,1.0000377446987145,-75.83437121750337
6.407407616,1.0000288399792243,-76.01261880300122
6.411110912,1.0000183060633894,-76.19077101305302
6.41481472,1.0000070349187697,-76.36877540673429
6.418518528,0.9999955092328091,-76.54665948006641
6.422222336,0.9999843747678804,-76.72442706349241
6.425926144,0.9999744048951416,-76.90209548544964
6.42962944,0.9999662933665421,-77.07970232352169
6.433333248,0.9999604158034651,-77.25718151414696
6.437037056,0.9999571085844753,-77.43467722332905
6.440740864,0.9999566526185617,-77.61219678426549
6.444444672,0.9999591635138378,-77.78975923836917
6.448147968,0.9999643336382253,-77.9674001494332
6.451851776,0.9999719708003425,-78.14517578750414
6.455555584,0.9999813837456241,-78.32311558041417
6.459259392,0.9999922371346891,-78.50127095075295
6.4629632,1.0000038681515946,-78.67959912596375
6.466666496,1.0000154089186033,-78.85811478197427
6.470370304,1.0000263165192533,-79.03686375287009
6.474074112,1.0000357819425671,-79.21579278810547
6.47777792,1.000043538443436,-79.39488383967836
6.481481728,1.0000486151456798,-79.57409171851383
6.485185024,1.0000509404532196,-79.75339090538017
6.488888832,1.0000504591731791,-79.9327683068785
6.49259264,1.0000471695625568,-80.11215251193222
6.496296448,1.000041098639006,-80.29149767197637
6.499999744,1.000032819315325,-80.47075374548089
6.503703552,1.000022637399652,-80.64998034449167
6.50740736,1.0000113607259251,-80.82906322996212
6.511111168,0.9999995357241082,-81.00801682503268
6.514814976,0.9999879949049464,-81.18686198777598
6.518518272,0.9999773401850376,-81.36557115915618
6.52222208,0.9999684289110204,-81.54417813058204
6.525925888,0.999961520881858,-81.72271707213064
6.529629696,0.9999571359426243,-81.90119297630149
6.533333504,0.9999555609613189,-82.0797068673435
6.5370368,0.9999568402462192,-82.25824289722608
6.540740608,0.9999612040011354,-82.43680729952528
6.544444416,0.9999679704748045,-82.6155973777964
6.548148224,0.999977035193025,-82.79443268086598
6.551852032,0.9999877672845825,-82.97349888896144
6.555555328,0.9999992672627565,-83.15275728018946
6.559259136,1.0000110964145381,-83.33223396497111
6.562962944,1.0000226232822085,-83.5119042477035
6.566666752,1.0000329813701505,-83.69173858175114
6.57037056,1.0000414798322275,-83.87180277104615
6.574073856,1.000047765644778,-84.05198523127471
6.577777664,1.0000512948868212,-84.23226893745826
6.581481472,1.0000518988326375,-84.4126256663489
6.58518528,1.0000495532764822,-84.59300841970199
6.588889088,1.0000444103069126,-84.77336562944298
6.592592384,1.0000368686050447,-84.95367220893085
6.596296192,1.0000271226567963,-85.13395579468035
6.6,1.0000160341455238,-85.31403240185358
6.603703808,1.0000041440902547,-85.49405144050907
6.607407616,0.9999921777009426,-85.67391127879414
6.611110912,0.9999809356900466,-85.85366852903256
6.61481472,0.9999709925128567,-86.03332948887456
6.618518528,0.9999630690485428,-86.21282614451131
6.622222336,0.9999575361245118,-86.39234026723187
6.625926144,0.9999548461389531,-86.57178491906389
6.62962944,0.9999552975871351,-86.75126930750736
6.633333248,0.9999585155564676,-86.93081840713634
6.637037056,0.9999644382946662,-87.11044702463542
6.640740864,0.9999727635847127,-87.29024841653336
6.644444672,0.9999830318875731,-87.47023719273618
6.648147968,0.9999946536504548,-87.650364541324
6.651851776,1.00000674069024,-87.83074699921694
6.655555584,1.000018603811146,-88.01131414857518
6.659259392,1.000029670728741,-88.19208046485772
6.6629632,1.0000390837408426,-88.37304148205232
6.666666496,1.0000463824245909,-88.55410117849107
6.670370304,1.0000510059849992,-88.73536894261048
6.674074112,1.000052867492527,-88.9166752016548
6.67777792,1.0000514909553837,-89.09804439530248
6.681481728,1.000047437830359,-89.27941502109161
6.685185024,1.0000405409176076,-89.46072196019342
6.688888832,1.0000314466400275,-89.64195720578995
6.69259264,1.0000206205566162,-89.82311229927342
6.696296448,1.0000087048504982,-90.00410962035139
6.700000256,0.9999963331720764,-90.18502700937022
6.703703552,0.9999846118545913,-90.3657519890804
6.70740736,0.9999739354648675,-90.54634203022083
6.711111168,0.9999650715966978,-90.72686681847433
6.714814976,0.9999585454268807,-90.90732582513091
6.718518272,0.9999547099731251,-91.087738661512
6.72222208,0.999953752693094,-91.26814784827853
6.725925888,0.9999559943531265,-91.44860631753231
6.729629696,0.9999609861004234,-91.62915437431758
6.733333504,0.9999686412106641,-91.80982421366473
6.7370368,0.9999785181201316,-91.9906412341734
6.740740608,0.9999898517398468,-92.17167448592339
6.744444416,1.0000020646736392,-92.35290120488948
6.748148224,1.0000143618844535,-92.53433271381311
6.751852032,1.00002592648659,-92.71595150158555
6.755555328,1.0000362716664832,-92.89778094186221
6.759259136,1.0000446197769735,-93.0797839142414
6.762962944,1.0000503059494947,-93.26192562342808
6.766666752,1.0000533329105479,-93.44418954248722
6.77037056,1.0000531883470378,-93.62647503776216
6.774073856,1.000050015632251,-93.80880290968643
6.777777664,1.0000441236382493,-93.99108088648615
6.781481472,1.0000356214185766,-94.1733105270921
6.78518528,1.0000251779357932,-94.35541979755907
6.788889088,1.0000133855322044,-94.53742209012916
6.792592384,1.0000009286240192,-94.71926782622799
6.796296192,0.9999886843424738,-94.9010031791163
6.8,0.999977277264761,-95.08258158374636
6.803703808,0.9999674208152186,-95.26405495067851
6.807407616,0.9999597952461617,-95.44541186921207
6.811110912,0.9999548985722254,-95.62671008013491
6.81481472,0.9999527636981698,-95.80804149655516
6.818518528,0.9999539282416242,-95.98936975041046
6.822222336,0.999957976916764,-96.1707927578993
6.825926144,0.9999647989680592,-96.35233820175121
6.82962944,0.9999740274163913,-96.53399260100126
6.833333248,0.9999849678663633,-96.71584766963753
6.837037056,0.9999972318047446,-96.89790334676157
6.840740864,1.0000098401709725,-97.08016449782323
6.844444672,1.000021982984339,-97.26263118344697
6.848147968,1.0000330003179998,-97.44531715126034
6.851851776,1.0000423261550424,-97.62817263638631
6.855555584,1.0000492162360215,-97.81115392735299
6.859259392,1.0000534135289598,-97.9942733570399
6.8629632,1.000054470993543,-98.17749070387165
6.866666496,1.0000524077091042,-98.36069305095758
6.870370304,1.0000473099543024,-98.54391775737511
6.874074112,1.000039667016317,-98.72707944847077
6.87777792,1.0000297663714306,-98.91011390615012
6.881481728,1.0000181729495652,-99.0930828463548
6.885185024,1.000005682328014,-99.27589068293278
6.888888832,0.9999930978981177,-99.45851366644337
6.89259264,0.9999810081868825,-99.64104033876843
6.896296448,0.999970316503479,-99.8234362971991
6.899999744,0.9999616145463215,-100.00572503364324
6.903703552,0.999955483400148,-100.18792455999913
6.90740736,0.9999522027346851,-100.37010860955412
6.911111168,0.9999521039632001,-100.55232427427964
6.914814976,0.9999551199164909,-100.73456809800498
6.918518272,0.9999610404268489,-100.91690259403704
6.92222208,0.9999695832517144,-101.09936529183216
6.925925888,0.9999801324655175,-101.28201786313208
6.929629696,0.9999921359911647,-101.46486783805236
6.933333504,1.000004943000508,-101.64791214259434
6.9370368,1.0000175700260334,-101.83117398224
6.940740608,1.0000293724386244,-102.01465227636265
6.944444416,1.00003964077621,-102.19831316610417
6.948148224,1.000047661090838,-102.38212416468181
6.951852032,1.000052951369023,-102.56606776189827
6.955555328,1.000055240387283,-102.75015028737312
6.959259136,1.0000543867926592,-102.9342425667786
6.962962944,1.0000504341996341,-103.11832839358074
6.966666752,1.0000436263162373,-103.30235192055044
6.97037056,1.0000342447848443,-103.48634246160051
6.974073856,1.0000230444250064,-103.67019345229205
6.977777664,1.0000105839622104,-103.85390044234146
6.981481472,0.9999976486043595,-104.03746850003262
6.98518528,0.9999850689323039,-104.22085654306774
6.988889088,0.9999736338108417,-104.40415292846811
6.992592384,0.9999639574288931,-104.58732128108066
6.996296192,0.9999566387727012,-104.77039021815192
7.0,0.9999521910228479,-104.95338136914968
7.003703808,0.9999507508173262,-105.13641830519072
7.007407616,0.9999526439536354,-105.31946437714548
7.011110912,0.9999575764557521,-105.50258634280951
7.01481472,0.9999653045305116,-105.6858204539456
7.018518528,0.9999754199992713,-105.86923080651117
7.022222336,0.9999871833890388,-106.05282530649632
7.025926144,0.9999998748532671,-106.23662812111525
7.02962944,1.0000129124308568,-106.42061721582594
7.033333248,1.0000252732706076,-106.60484259178874
7.037037056,1.0000364034792442,-106.78928824385906
7.040740864,1.0000454670668006,-106.97388633395258
7.044444672,1.000052048061985,-107.15866203012871
7.048147968,1.0000556191284478,-107.34348191892478
7.051851776,1.0000559488680378,-107.52839689365298
7.055555584,1.0000531203756988,-107.7133216238967
7.059259392,1.0000471059487233,-107.89821009435387
7.0629632,1.0000386373301784,-108.08304141967677
7.066666496,1.00002785874833,-108.26775843546469
7.070370304,1.0000155610404637,-108.45230925279667
7.074074112,1.0000025501403544,-108.63677421741905
7.07777792,0.9999896090081528,-108.82104625042875
7.081481728,0.999977330448546,-109.00514738471118
7.085185024,0.9999666378607981,-109.18916322459036
7.088888832,0.9999582148997516,-109.37306443500836
7.09259264,0.9999524725669221,-109.55687008138267
7.096296448,0.9999499166303604,-109.74068414554152
7.100000256,0.9999504976559674,-109.92449873476778
7.103703552,0.999954328468625,-110.1083316498684
7.10740736,0.9999611999446911,-110.29230764845354
7.111111168,0.999970612971332,-110.47643449243041
7.114814976,0.999982056580584,-110.66072791334973
7.118518272,0.9999946997018756,-110.84525128551492
7.12222208,1.0000079590426159,-111.02997015969011
7.125925888,1.0000209591806344,-111.21489349144659
7.129629696,1.0000328844442712,-111.400011259676
7.133333504,1.0000429363393264,-111.58535401709098
7.1370368,1.0000506675277145,-111.77081817769688
7.140740608,1.000055558300517,-111.9564397089813
7.144444416,1.000057163079666,-112.14214651208414
7.148148224,1.0000554873853726,-112.32781522008678
7.151852032,1.000050715580654,-112.51351162577669
7.155555328,1.0000429193847509,-112.69916006632063
7.159259136,1.0000327979765846,-112.88469332437798
7.162962944,1.0000207704850386,-113.07010393598317
7.166666752,1.0000077505815834,-113.25535516608872
7.17037056,0.999994364640129,-113.44045001879172
7.174073856,0.9999815484253831,-113.62538887410777
7.177777664,0.9999699890641424,-113.8101814284302
7.181481472,0.9999605333503098,-113.99485714216877
7.18518528,0.9999534842617787,-114.17944964362778
7.188889088,0.9999496359142841,-114.36398728254966
7.192592384,0.9999489307354452,-114.54850525679605
7.196296192,0.9999515977391635,-114.73306529202408
7.2,0.999957490015911,-114.91776191411559
7.203703808,0.9999660482560845,-115.10255619846174
7.207407616,0.9999769450961389,-115.2875107777527
7.211110912,0.9999894598688529,-115.47267127848593
7.21481472,1.0000027938225213,-115.65801810450286
7.218518528,1.0000161756524972,-115.84363003984947
7.222222336,1.0000288388128946,-116.02942149146428
7.225926144,1.0000399193077962,-116.21541433920176
7.22962944,1.0000487200640145,-116.40158838189643
7.233333248,1.0000548455212952,-116.58788271256337
7.237037056,1.0000577825578845,-116.77428562749849
7.240740864,1.000057367987812,-116.96072764155052
7.244444672,1.0000537203380602,-117.14716519115998
7.248147968,1.00004689138706,-117.33354092481711
7.251851776,1.0000374885976426,-117.51987480673971
7.255555584,1.0000259399586784,-117.70604143735088
7.259259392,1.0000129574262964,-117.89209494063404
7.2629632,0.9999993559369935,-118.07796806575648
7.266666496,0.9999860371675177,-118.26366153080836
7.270370304,0.9999736593638134,-118.44919264113183
7.274074112,0.9999630991477704,-118.6346434773424
7.27777792,0.9999549522279582,-118.81995092736817
7.281481728,0.9999497690485427,-119.00518909567474
7.285185024,0.9999478139086506,-119.19038659830024
7.288888832,0.9999492329427938,-119.3756287825667
7.29259264,0.9999539734094188,-119.56093730037655
7.296296448,0.9999616253210427,-119.74637323940948
7.299999744,0.9999719006099647,-119.93194713780731
7.303703552,0.9999840028007505,-120.11772818904994
7.30740736,0.9999974412009643,-120.3036657124177
7.311111168,1.00001117993193,-120.4898661213771
7.314814976,1.0000244510675047,-120.67627941784488
7.318518272,1.0000364029366184,-120.86288254463253
7.32222208,1.0000462811909685,-121.04966948627933
7.325925888,1.0000537084242551,-121.23663763056479
7.329629696,1.0000579449391387,-121.42368526464749
7.333333504,1.000058856371949,-121.61078932186362
7.3370368,1.0000563656041594,-121.79793264789095
7.340740608,1.0000506696389568,-121.98503987767212
7.344444416,1.0000420374809407,-122.17205648125767
7.348148224,1.0000310578606635,-122.35896416715259
7.351852032,1.000018264794358,-122.54574603318139
7.355555328,1.0000045392185466,-122.73231500495334
7.359259136,0.9999908516584166,-122.91875014272703
7.362962944,0.9999777434433742,-123.10504046895286
7.366666752,0.9999661861058821,-123.29115013874413
7.37037056,0.9999569545627788,-123.47714388790794
7.374073856,0.9999503757381748,-123.66305838487625
7.377777664,0.9999471139210903,-123.84889684377438
7.381481472,0.9999472479082264,-124.03474648798284
7.38518528,0.9999507402732013,-124.22067086652766
7.388889088,0.9999575027894237,-124.40666160632006
7.392592384,0.9999669480168571,-124.59282547912557
7.396296192,0.9999787059239964,-124.77915390056945
7.4,0.9999918625370959,-124.96564778959626
7.403703808,1.0000058493838346,-125.15237836434113
7.407407616,1.0000195422757399,-125.33936515216406
7.411110912,1.0000323415215826,-125.52652333989646
7.41481472,1.000043377159585,-125.71387144908007
7.418518528,1.0000518799000193,-125.90142465976703
7.422222336,1.0000574493440861,-126.0890651523338
7.425926144,1.0000598126442286,-126.2768087078758
7.42962944,1.0000586212687803,-126.46453878625456
7.433333248,1.0000539520849487,-126.65232840411451
7.437037056,1.0000463296579067,-126.84001012135934
7.440740864,1.000035901688099,-127.02757188221695
7.444444672,1.0000236137381295,-127.21502240804749
7.448147968,1.0000099591538696,-127.40229071114904
7.451851776,0.9999958661359168,-127.58940619384852
7.455555584,0.9999821245107449,-127.77634781611931
7.459259392,0.9999697242087454,-127.96313675202963
7.4629632,0.9999592315157618,-128.14973453484194
7.466666496,0.9999515509588691,-128.3362650603752
7.470370304,0.9999468669025363,-128.52271542605345
7.474074112,0.999945659374263,-128.70911577767066
7.47777792,0.9999478438540199,-128.89557497363919
7.481481728,0.9999534708336686,-129.0821176067281
