freq,mag,phase
6.0,1.0003063222351152,161.53886560513897
6.002288128,1.0003383522571763,161.37748850516553
6.004576768,1.0003496545018857,161.2157972411118
6.006864896,1.0003392580110326,161.05408712888877
6.009153536,1.0003076683632897,160.8927013728519
6.011441664,1.0002572095044067,160.73190199539565
6.013729792,1.0001907451265861,160.5719899400485
6.016018432,1.0001126542880163,160.41310635062877
6.01830656,1.0000278267714129,160.25544084670472
6.0205952,0.9999417178798291,160.09900081668226
6.022883328,0.9998595736345488,159.94380004681128
6.025171456,0.9997867338279348,159.78973205295847
6.027460096,0.9997278441222,159.63662738431316
6.029748224,0.9996867100505727,159.48423864241894
6.032036864,0.9996659068642874,159.33234052536665
6.034324992,0.9996664359922224,159.1805972640674
6.03661312,0.9996888868850947,159.0286778916757
6.03890176,0.9997313188102982,158.87629515889705
6.041189888,0.99979135927793,158.72316637043033
6.043478016,0.9998649376517548,158.56907633374942
6.045766656,0.9999476097804965,158.41388619082574
6.048054784,1.000034073934208,158.25745254680263
6.050343424,1.0001188649359332,158.0997751880505
6.052631552,1.0001965687942103,157.94092523041897
6.05491968,1.0002623139448825,157.7810459128523
6.05720832,1.000311803133792,157.6203190743468
6.059496448,1.0003421849698955,157.45903091578134
6.061785088,1.0003511102955602,157.29748644105956
6.064073216,1.000338317652072,157.13595202106816
6.066361344,1.0003045473700587,156.9747436459892
6.068649984,1.0002519324228478,156.81419127977577
6.070938112,1.000183687980616,156.6545171714793
6.073226752,1.0001042119342805,156.4959297998362
6.07551488,1.0000186857560622,156.3385158830003
6.077803008,0.9999323011743463,156.18241286424913
6.080091648,0.9998504859073499,156.02750092751128
6.082379776,0.9997786581701155,155.87372639298047
6.084668416,0.99972124948806,155.72090816374495
6.086956544,0.9996819516138445,155.5687838258216
6.089244672,0.9996632732189743,155.4170833539435
6.091533312,0.9996663626243573,155.26554231243333
6.09382144,0.9996908820996298,155.1137619791214
6.09611008,0.9997356509572207,154.96152063891802
6.098398208,0.9997974904878564,154.8084994200387
6.100686336,0.9998727993595137,154.65447601063224
6.102974976,0.9999565192438336,154.49932688879727
6.105263104,1.000043393303011,154.34293635287094
6.107551232,1.0001280242896027,154.18528330467197
6.109839872,1.000205032397807,154.0264821454401
6.112128,1.0002696318393045,153.8666572014186
6.11441664,1.0003174214003985,153.7060287165804
6.116704768,1.0003456369735917,153.5448351247865
6.118992896,1.0003523852589093,153.3834137502058
6.121281536,1.0003371748053365,153.22205512099168
6.123569664,1.000301094056053,153.06106074609232
6.125858304,1.0002464484439983,152.90074733477834
6.128146432,1.0001764041034897,152.74135292462216
6.13043456,1.0000957368276633,152.58305348552605
6.1327232,1.0000093797135932,152.42597033100253
6.135011328,0.9999228257526468,152.2701645305743
6.137299968,0.999841553865584,152.11557690140734
6.139588096,0.9997707460202598,151.96206868774135
6.141876224,0.9997148598016493,151.80954126058504
6.144164864,0.9996775190938785,151.6577014905222
6.146452992,0.9996609513447726,151.50623263999518
6.148741632,0.9996662916696689,151.35486885929646
6.15102976,0.9996933590298042,151.20327466408185
6.153317888,0.9997401864937859,151.05114374842506
6.155606528,0.9998040650744363,150.89823702038677
6.157894656,0.9998806779150955,150.7442803398707
6.160183296,0.9999654933302013,150.58919813641432
6.162471424,1.0000526973305215,150.43282864905524
6.164759552,1.0001372568113358,150.2752551192338
6.167048192,1.0002136086349263,150.11651298377987
6.16933632,1.0002766017361182,149.95675633524235
6.17162496,1.000322734184396,149.79618781632925
6.173913088,1.0003489226695428,149.63516546500017
6.176201216,1.0003533491491703,149.47386837014182
6.178489856,1.0003357731715627,149.3126999332583
6.180777984,1.000297423442176,149.15194144321282
6.183066112,1.0002406477990504,148.99189560929221
6.185354752,1.0001688756852847,148.83275869466266
6.18764288,1.000087078775751,148.67476443724183
6.18993152,0.9999999601246287,148.51801390501632
6.192219648,0.9999133298339754,148.36250656936286
6.194507776,0.9998325189555874,148.2082445995738
6.196796416,0.9997627999972166,148.05509046092197
6.199084544,0.9997084635451833,147.9028412736786
6.201373184,0.9996731093363547,147.7512541525112
6.203661312,0.9996587310035755,147.60000800420622
6.20594944,0.999666493924167,147.44884361846442
6.20823808,0.9996959030306252,147.29742742690087
6.210526208,0.9997449599704067,147.14544493840177
6.212814848,0.999810646547814,146.99263814021464
6.215102976,0.9998889599955724,146.8387942649333
6.217391104,0.9999745385413337,146.68373945016535
6.219679744,1.000062231709721,146.52746703073535
6.221967872,1.000146444717915,146.3699131449067
6.224256512,1.000221871219894,146.21122629677515
6.22654464,1.0002837545411452,146.05156960933652
6.228832768,1.0003280980821017,145.89112132308878
6.231121408,1.0003519724570664,145.73018258114527
6.233409536,1.0003539674811215,145.56908965468222
6.235698176,1.0003341084956134,145.40812521812592
6.237986304,1.0002934266998298,145.2476100409516
6.240274432,1.000234729096296,145.08781012118462
6.242563072,1.000161219583853,144.92898644271116
6.2448512,1.000078156978106,144.77132018461543
6.24713984,0.9999904199864037,144.61486466353688
6.249427968,0.999903716307467,144.4597148797735
6.251716096,0.9998235032396449,144.30578320692817
6.254004736,0.999754858753853,144.1529352188128
6.256292864,0.9997022249072319,144.00096974398224
6.258580992,0.9996688032149822,143.84967275910086
6.260869632,0.9996568219876952,143.69869193098
6.26315776,0.9996669625736325,143.5477438696866
6.2654464,0.9996987493623805,143.39647282586753
6.267734528,0.9997499536036074,143.24464534010053
6.270022656,0.9998175216920738,143.09193375346106
6.272311296,0.9998971399013863,142.9381997028625
6.274599424,0.9999836844755758,142.78321863735476
6.276888064,1.0000717774464547,142.62699909224014
6.279176192,1.000155757417197,142.4695337289716
6.28146432,1.0002303220142956,142.3109136226626
6.28375296,1.000290728353687,142.15133412804326
6.286041088,1.0003331003116338,141.9909932037225
6.288329728,1.0003548850628676,141.83022998368537
6.290617856,1.0003545815576238,141.66930628272763
6.292905984,1.0003323159509492,141.50855938845584
6.295194624,1.0002891244832182,141.3482621704584
6.297482752,1.0002283971633554,141.18875101151932
6.299771392,1.0001534505685772,141.03024570621554
6.30205952,1.000069135360204,140.8728789397435
6.304347648,0.9999808223402755,140.71680775324805
6.306636288,0.9998941977264622,140.5619966451782
6.308924416,0.9998145961478812,140.40840107791152
6.311213056,0.9997471308024795,140.2558621577906
6.313501184,0.9996961444085463,140.10422573299215
6.315789312,0.9996647377142469,139.95319862783606
6.318077952,0.9996551213506016,139.80247947471793
6.32036608,0.9996676523131617,139.6517334884341
6.322654208,0.9997017170439285,139.50067439677503
6.324942848,0.9997553080350838,139.34897591046143
6.327230976,0.9998247099356787,139.1963810516257
6.329519616,0.9999056187253629,139.04273013109886
6.331807744,0.9999929984966421,138.88782273261486
6.334095872,1.000081314536907,138.73168729410978
6.336384512,1.0001650048788726,138.57428835834054
6.33867264,1.0002385435044114,138.41577545651296
6.34096128,1.000297372161881,138.25627670384856
6.343249408,1.0003379445672929,138.09607590947851
6.345537536,1.0003575450450424,137.9354542485682
6.347826176,1.000354826173251,137.7747281646225
6.350114304,1.0003300540034181,137.6141991360963
6.352402944,1.0002848330999092,137.45417749321894
6.354691072,1.0002219227621783,137.29496466291081
6.3569792,1.0001453612498652,137.13678140848992
6.35926784,1.0000598702522365,136.9797265741343
6.361555968,0.9999710845171107,136.82398498323164
6.363844608,0.9998845088835823,136.66955682241758
6.366132736,0.9998055825952186,136.51630086747832
6.368420864,0.9997394104935012,136.36412077162728
6.370709504,0.9996900966470869,136.21278676875093
6.372997632,0.9996608952119341,136.06204586982867
6.375286272,0.9996536107788506,135.91156862019542
6.3775744,0.9996687257974504,135.76105908396187
6.379862528,0.9997051655843291,135.6101646479795
6.382151168,0.9997607978310734,135.45863652115884
6.384439296,0.9998320132995673,135.3061527362693
6.386727936,0.9999143035581399,135.15258021363442
6.389016064,1.0000025124386185,134.99779284494772
6.391304192,1.0000910433149959,134.8417120151894
6.393592832,1.0001741352137683,134.68438593066506
6.39588096,1.0002467627639178,134.52596565474457
6.398169088,1.0003040845875892,134.36659179653674
6.400457728,1.0003427204553756,134.20652360604979
6.402745856,1.0003598968612273,134.0460765701347
6.405034496,1.0003547642248047,133.88554959025646
6.407322624,1.000327634494234,133.7252449533084
6.409610752,1.0002800518949722,133.5654984340333
6.411899392,1.000215217090905,133.40657237515975
6.41418752,1.0001369637279454,133.2487131969016
6.41647616,1.0000505073980153,133.09203253372968
6.418764288,0.9999612052797897,132.93665544329608
6.421052416,0.9998747763824638,132.78257836432977
6.423341056,0.9997966954846368,132.62967502145108
6.425629184,0.9997318103020524,132.47784741124502
6.427917824,0.9996843599985613,132.32683914156206
6.430205952,0.9996573058438277,132.17636836148452
6.43249408,0.9996523017998011,132.02616540261738
6.43478272,0.9996698630525628,131.8758804311055
6.437070848,0.9997088469171429,131.7251558900371
6.439359488,0.999766551221962,131.57377565585008
6.441647616,0.9998395630107886,131.42143709873375
6.443935744,0.999923308206867,131.26797873140134
6.446224384,1.000012133436034,131.1132828540945
6.448512512,1.0001007822534493,130.9572685531736
6.450801152,1.0001834854251608,130.80006727320793
6.45308928,1.0002549079273324,130.64171669130207
6.455377408,1.0003106061040483,130.48245845253214
6.457666048,1.0003472274553964,130.32253408756006
6.459954176,1.0003621268449854,130.16224462254988
6.462242816,1.0003545399667393,130.00192080490885
6.464530944,1.000324926455492,129.8418801372937
6.466819072,1.0002751185741947,129.6824166048214
6.469107712,1.0002081733272743,129.52381797957793
6.47139584,1.000128461064692,129.36629212265996
6.473683968,1.000041052395786,129.2099667596883
6.475972608,0.9999513268929453,129.054953076318
6.478260736,0.9998650894491203,128.90121785091495
6.480549376,0.9997879286821774,128.748715483553
6.482837504,0.9997243485474514,128.59720471069306
6.485125632,0.9996786983012886,128.44652583642426
6.487414272,0.9996538111350624,128.2963653587175
6.4897024,0.9996514035314931,128.14642521541026
6.49199104,0.9996714199445701,127.99632977687484
6.494279168,0.9997126238845715,127.84582832935779
6.496567296,0.9997725802545222,127.69459946464816
6.498855936,0.999847460274855,127.542380168568
6.501144064,0.9999322900430291,127.38903495917643
6.503432704,1.0000218588916783,127.23441113672793
6.505720832,1.000110639387355,127.07851339919779
6.50800896,1.0001926882469885,126.9213736999033
6.5102976,1.0002630668495478,126.76314317315779
6.512585728,1.0003171391967158,126.60400661917448
6.514874368,1.0003515188339225,126.44425687056454
6.517162496,1.0003640915273146,126.28414970426655
6.519450624,1.0003540276697018,126.12404422918684
6.521739264,1.0003219041303848,125.96425868128428
6.524027392,1.0002697221978945,125.80508394584977
6.526316032,1.0002009357090458,125.64679230569449
6.52860416,1.000119708112627,125.48963145653545
6.530892288,1.0000313237294884,125.33367469932854
6.533180928,0.9999412851647026,125.17903538009395
6.535469056,0.9998552929165988,125.02567562241909
6.537757184,0.9997788085056352,124.87351683297544
6.540045824,0.9997167847497632,124.72239234474272
6.542333952,0.9996731667226414,124.57202183047659
6.544622592,0.9996505825924257,124.4221396236456
6.54691072,0.9996505819324775,124.2724594921227
6.549198848,0.9996730861720079,124.1226087261329
6.551487488,0.999716719862639,123.97228796186671
6.553775616,0.9997789244741422,123.82122000509781
6.556064256,0.9998552925678567,123.6691413614287
6.558352384,0.999941460599644,123.51590913288427
6.560640512,1.0000316692513762,123.36140293459015
6.562929152,1.0001203533143392,123.2055822880042
6.56521728,1.000201908350623,123.04856796246227
6.56750592,1.0002709881743168,122.89041384429409
6.569794048,1.0003233900911839,122.7314119390561
6.572082176,1.0003556811493592,122.57180494947772
6.574370816,1.0003657921938809,122.41190322810817
6.576658944,1.0003532371111823,122.25203701516834
6.578947584,1.0003187336372001,122.09251078513576
6.581235712,1.0002642720834407,121.93364230281466
6.58352384,1.0001934211775936,121.7756885074969
6.58581248,1.0001107694954294,121.61883897021518
6.588100608,1.000021380980637,121.46328841193176
6.590389248,0.9999311502753487,121.30902078969855
6.592677376,0.9998455182789593,121.15605959307285
6.594965504,0.9997700435440966,121.00426413433617
6.597254144,0.9997095146717369,120.85350048533807
6.599542272,0.999667809140841,120.70346680393838
6.601830912,0.9996475683049226,120.5538992831631
6.60411904,0.9996500210404482,120.40447388892778
6.606407168,0.9996750574186135,120.25485870708906
6.608695808,0.9997211439566605,120.10473166849083
6.610983936,0.9997853313734609,119.95381468598428
6.613272064,0.999863614591653,119.80186833452765
6.615560704,0.9999508342805427,119.64873718812112
6.617848832,1.0000415994013776,119.49431244939628
6.620137472,1.0001302987861904,119.33858971481583
6.6224256,1.0002110701413167,119.18166104967787
6.624713728,1.0002789146284066,119.02364922256257
6.627002368,1.0003295333059732,118.864791200687
6.629290496,1.0003596570598072,118.70533400868008
6.631579136,1.0003673975817688,118.54565861915907
6.633867264,1.0003522047885147,118.38600007706202
6.636155392,1.0003151372971584,118.22675528072641
6.638444032,1.000258406446599,118.0682146516254
6.64073216,1.0001857312055433,117.91058405438451
6.6430208,1.0001016289817755,117.75410448023483
6.645308928,1.0000114039867858,117.5989121621256
6.647597056,0.9999208048235262,117.44505777013627
6.649885696,0.9998356370465035,117.29246876267052
6.652173824,0.9997612560133842,117.14108405709831
6.654462464,0.9997023502880305,116.99064135363098
6.656750592,0.999662597415998,116.84095012723519
6.65903872,0.9996447461237009,116.69168918225041
6.66132736,0.9996497121334261,116.54251289531395
6.663615488,0.9996773259420298,116.39312793920718
6.665904128,0.9997258108510748,116.24319457408959
6.668192256,0.9997920713412821,116.0924356195864
6.670480384,0.9998719718902103,115.94063869538338
6.672769024,0.9999603499479547,115.78759583956418
6.675057152,1.0000516812616806,115.63329269275539
6.677345792,1.0001401666730854,115.47766993224558
6.67963392,1.000220181743537,115.3208358441678
6.681922048,1.0002866913552717,115.16293713388568
6.684210688,1.0003354481680944,115.00422533898221
6.686498816,1.0003633223021386,114.84496333790997
6.688786944,1.0003685334851353,114.68548018740243
6.691075584,1.0003508834100576,114.52607194871771
6.693363712,1.0003112329721098,114.3671179967554
6.695652352,1.0002523736701112,114.20886248745286
6.69794048,1.0001777945562451,114.0515885212016
6.700228608,1.0000923422412573,113.8954859941053
6.702517248,1.0000013394274618,113.74069594428651
6.704805376,0.99991052357091,113.58721581555936
6.707094016,0.9998258526130991,113.43504121141575
6.709382144,0.9997525155628462,113.28400818475313
6.711670272,0.9996952168900344,113.13393878758897
6.713958912,0.9996576707969006,112.9845806680549
6.71624704,0.9996422536221901,112.83560954036892
6.71853568,0.9996496638439927,112.68670339117551
6.720823808,0.9996799092859439,112.53755291919252
6.723111936,0.9997307788607795,112.38781026141527
6.725400576,0.9997991741544805,112.23720954870008
6.727688704,0.9998805228870156,112.08552230428506
6.729977344,0.9999700899995204,111.93260685300089
6.732265472,1.00006193957138,111.77840015610607
6.7345536,1.0001502462943366,111.62288657758258
6.73684224,1.0002293883421025,111.46615971967006
6.739130368,1.000294421858526,111.308402108252
6.741419008,1.0003412238084723,111.14983441450711
6.743707136,1.0003667700209595,110.99075912808767
6.745995264,1.000369584595542,110.8314690344416
6.748283904,1.000349210236218,110.67231291934256
6.750572032,1.0003071370651258,110.51363618179178
6.75286016,1.0002459811696642,110.35571438133913
6.7551488,1.0001695458785371,110.19880055861339
6.757436928,1.0000827558335725,110.04307499871034
6.759725568,0.9999910384466111,109.88865564130063
6.762013696,0.9999001870529627,109.7355942785596
6.764301824,0.9998160261107671,109.58378963577141
6.766590464,0.9997438282956556,109.4331537201838
6.768878592,0.9996883483736866,109.28346221594994
6.771167232,0.9996529623653435,109.1344151510192
6.77345536,0.9996398285787474,108.98576488340676
6.775743488,0.9996500113403037,108.83711584039649
6.778032128,0.9996826858607936,108.68817784805812
6.780320256,0.999736005524007,108.53862693332164
6.782608896,0.9998063546598025,108.38820178747356
6.784897024,0.9998894129903522,108.23663891348738
6.787185152,0.9999800064311206,108.08384373846987
6.789473792,1.0000721573145899,107.9297392236131
6.79176192,1.0001601911522575,107.77431826835019
6.79405056,1.0002385359463084,107.6177009100544
6.796338688,1.000302072705653,107.46005583325025
6.798626816,1.000346843986275,107.30164144587167
6.800915456,1.0003700876133432,107.14275934495842
6.803203584,1.0003702104610035,106.98368239986223
6.805492224,1.0003473031950818,106.8248110198492
6.807780352,1.0003028348079586,106.6664316248956
6.81006848,1.000239322894057,106.50882894024025
6.81235712,1.0001610698512091,106.35227275309444
6.814645248,1.0000729891152587,106.1969216011957
6.816933888,0.9999805778599657,106.04291115906354
6.819222016,0.9998896795633088,105.89024319574501
6.821510144,0.9998061846572135,105.73884429702386
6.823798784,0.9997352603887587,105.58858193788883
6.826086912,0.9996814593250828,105.43923222962862
6.82837504,0.9996482361390768,105.29054219495943
6.83066368,0.9996376286687219,105.14218620980442
6.832951808,0.9996505054482839,104.99381447947722
6.835240448,0.9996858520023403,104.84509672433654
6.837528576,0.9997414188545719,104.69572868358401
6.839816704,0.9998138432983956,104.5454593244821
6.842105344,0.9998984568855949,104.39402213134039
6.844393472,0.9999899859894577,104.24134682997718
6.846682112,1.000082473973052,104.08732687327279
6.84897024,1.000170212200842,103.93201770726937
6.851258368,1.0002475377908284,103.77551255010131
6.853547008,1.0003095012624867,103.61801550223788
6.855835136,1.000352270002343,103.45975451653291
6.858123776,1.0003731363179127,103.30104523116853
6.860411904,1.0003706204984577,103.14221748884964
6.862700032,1.0003451226255995,102.98356657573062
6.864988672,1.0002980755961233,102.82547800281162
6.8672768,1.0002324162986862,102.66822699776851
6.86956544,1.0001523603783469,102.51204065385879
6.871853568,1.0000630007007594,102.35710238563505
6.874141696,0.9999699706693086,102.20347652429163
6.876430336,0.9998791428764644,102.05119998324172
6.878718464,0.9997963411611814,101.90021871966017
6.881007104,0.9997268023915192,101.75033406979983
6.883295232,0.999674793659613,101.60135792947258
6.88558336,0.9996438320822154,101.45298567489552
6.887872,0.999635828104089,101.30492590539535
6.890160128,0.9996512712942901,101.15679529767624
6.892448768,0.999689142108479,101.008318074014
6.894736896,0.999747201196609,100.85912842019276
6.897025024,0.9998216677831951,100.7089967039078
6.899313664,0.9999077295478223,100.55771479696998
6.901601792,1.0000002326366706,100.4051417666741
6.90388992,1.0000928823760176,100.25122379195784
6.90617856,1.0001801909399146,100.09602250920406
6.908466688,1.0002564441227066,99.93962420965056
6.910755328,1.0003168305354393,99.78225569300314
6.913043456,1.0003574959188068,99.6241515942109
6.915331584,1.0003759028809065,99.46563821849219
6.917620224,1.0003708128487436,99.30703080488092
6.919908352,1.0003426373581743,99.1486729230986
6.922196992,1.0002930483170909,98.99090851547456
6.92448512,1.000225208673825,98.8339677766924
