freq,mag,phase
6.0,1.000493669210823,-163.0642369552448
6.002287104,1.000499934558002,-163.21670090569106
6.004574208,1.000474959977826,-163.369067382801
6.006861312,1.0004196150783022,-163.52080778471648
6.009147904,1.0003376191878566,-163.67159345465902
6.011435008,1.0002340538835761,-163.82099600540772
6.013722112,1.0001154161296415,-163.9687805246686
6.016009216,0.999989383632824,-164.11481130132503
6.01829632,0.9998637598323744,-164.2589556176548
6.020583424,0.9997465781505993,-164.40135496732438
6.022870016,0.9996453146566479,-164.54217781210934
6.02515712,0.9995662620663915,-164.68170052533077
6.027444224,0.9995145630632062,-164.8202146790865
6.029731328,0.9994935613710006,-164.95821949168106
6.032018432,0.9995043969001016,-165.09612095676806
6.034305536,0.9995465336752518,-165.234435875976
6.036592128,0.9996172372940562,-165.37353401422916
6.038879232,0.9997120405448923,-165.51387097959213
6.041166336,0.9998250905053687,-165.65569535534675
6.04345344,0.9999489467276815,-165.79925273917365
6.045740544,1.0000760028404347,-165.94461638709808
6.048027648,1.0001981443778645,-166.09175801166984
6.05031424,1.000307492500227,-166.24059866339397
6.052601344,1.000397309093614,-166.39089323720458
6.054888448,1.000461775080621,-166.5423027410857
6.057175552,1.0004969360309546,-166.69441113883082
6.059462656,1.0005004737373069,-166.84682009571148
6.06174976,1.0004721887164658,-166.9990286920256
6.064036352,1.0004138165118477,-167.15060986553001
6.066323456,1.0003290329761678,-167.30113426658315
6.06861056,1.0002232796317942,-167.45029235975096
6.070897664,1.0001031651379089,-167.59780216471086
6.073184768,0.999976350084905,-167.74352135292335
6.075471872,0.9998509285381648,-167.88736004072248
6.077758464,0.9997345580152056,-168.02946983048398
6.080045568,0.999634909939738,-168.17000221491733
6.082332672,0.9995582271461202,-168.3092215448435
6.084619776,0.9995093405075877,-168.44755923809953
6.08690688,0.999491442581821,-168.58536079000532
6.089193984,0.9995055398678839,-168.72316125643758
6.091481088,0.9995507809405013,-168.86139041873787
6.09376768,0.9996245058936349,-169.00047830712262
6.096054784,0.9997218443445401,-169.14079541663338
6.098341888,0.9998365598333138,-169.28265223583782
6.100628992,0.9999616740068756,-169.4262167537699
6.102916096,1.000088916477751,-169.57165812918998
6.1052032,1.0002104776600114,-169.71888142534914
6.107489792,1.0003185443165434,-169.86773500060818
6.109776896,1.0004063891304467,-170.01806511080298
6.112064,1.0004682893646155,-170.16944156579012
6.114351104,1.0005003697024264,-170.32150180865963
6.116638208,1.000500634381611,-170.47377825213053
6.118925312,1.0004690246234416,-170.62585663963475
6.121211904,1.0004076531018944,-170.77723208802027
6.123499008,1.0003201774555603,-170.92752470321025
6.125786112,1.0002122761181016,-171.07640372092064
6.128073216,1.0000907297378836,-171.22359588129413
6.13036032,0.9999632399220267,-171.36898141913153
6.132647424,0.9998378760937817,-171.51254192204613
6.134934016,0.9997226775232096,-171.6542893968244
6.13722112,0.9996247752243457,-171.79454649362472
6.139508224,0.9995503863671626,-171.93351373732784
6.141795328,0.9995044281003171,-172.07159158891125
6.144082432,0.9994897192580285,-172.20922908880058
6.146369536,0.9995070852200365,-172.34688459340146
6.148656128,0.9995556175506882,-172.48501950796998
6.150943232,0.999632229339699,-172.6240306077326
6.153230336,0.9997319399693526,-172.76436126589243
6.15551744,0.9998484982466195,-172.906220972464
6.157804544,0.9999745138228926,-173.04984012174816
6.160091648,1.0001020683009778,-173.19529537014532
6.162378752,1.0002229854548346,-173.3425672952619
6.164665344,1.000329633156707,-173.49148862662645
6.166952448,1.0004152702842146,-173.64179456961887
6.169239552,1.000474544846828,-173.793131500285
6.171526656,1.0005035624167238,-173.94510410219962
6.17381376,1.0005005425720372,-174.0972695490947
6.176100864,1.0004657133638657,-174.24915493995883
6.178387456,1.0004011792040433,-174.40032863899856
6.18067456,1.00031112613216,-174.5503534727259
6.182961664,1.0002010344786931,-174.69893859969824
6.185248768,1.0000781319010943,-174.84582501874644
6.187535872,0.9999501040927216,-174.99085067420995
6.189822976,0.9998250160856257,-175.1340590534733
6.192109568,0.9997107234137838,-175.2755170681682
6.194396672,0.9996146571563626,-175.41543001996942
6.196683776,0.9995428291904684,-175.55410366688454
6.19897088,0.9994997165356186,-175.69195798468357
6.201257984,0.9994881876377487,-175.82941647845647
6.203545088,0.9995089747903243,-175.96689908340852
6.20583168,0.9995606788847554,-176.1049194378127
6.208118784,0.9996401511391417,-176.2438748739323
6.210405888,0.9997421617838199,-176.384164140065
6.212692992,0.999860445758425,-176.52604874720936
6.214980096,0.9999874563791435,-176.66969201700743
6.2172672,1.000115112288887,-176.81516881758634
6.219553792,1.0002353679574298,-176.9624737185021
6.221840896,1.0003405915499675,-177.1114101511704
6.224128,1.0004239815748213,-177.2616813012483
6.226415104,1.0004804726129217,-177.41299598819012
6.228702208,1.0005064206532566,-177.56484791366563
6.230989312,1.0005000613198987,-177.71689678647382
6.233275904,1.0004619885657635,-177.86856332555817
6.235563008,1.0003943304045368,-178.01951078139763
6.237850112,1.0003017377427033,-178.1692553466503
6.240137216,1.0001896758736928,-178.31752603886096
6.24242432,1.000065459633538,-178.46407010307416
6.244711424,0.9999368992078412,-178.60876554724317
6.246998528,0.9998120962657095,-178.75160978547314
6.24928512,0.999699119980567,-178.89269928602076
6.251572224,0.9996048132989286,-179.03230784435974
6.253859328,0.9995354780717101,-179.17068276005745
6.256146432,0.9994955069222028,-179.30828468005978
6.258433536,0.9994871748974143,-179.4455184148796
6.26072064,0.9995112654836561,-179.58287175538103
6.263007232,0.9995661468903958,-179.7207678586183
6.265294336,0.9996484099174534,-179.85967784835506
6.26758144,0.9997528195405413,-179.99987380618998
6.269868544,0.9998728254000067,179.85821314988522
6.272155648,1.0000006080535293,179.71455668956773
6.274442752,1.000128307525843,179.56904252212942
6.276729344,1.0002477565627634,179.42173915588776
6.279016448,1.0003512885038643,179.27283101674584
6.281303552,1.0004325016167679,179.1225554722919
6.283590656,1.0004861953007593,178.97136360478012
6.28587776,1.0005089212131537,178.81957343395027
6.288164864,1.0004993478301294,178.66772050482965
6.290451456,1.000457883889751,178.5162247936542
6.29273856,1.0003872743490947,178.36556617676172
6.295025664,1.0002919593173174,178.2161255573968
6.297312768,1.0001779209226904,178.06818329352726
6.299599872,1.0000524705493525,177.92201218684897
6.301886976,0.9999234343013982,177.77767705931845
6.304173568,0.999799188232333,177.63521701384883
6.306460672,0.999687248154255,177.49446932189758
6.308747776,0.9995950955224152,177.35520830580094
6.31103488,0.9995283600758886,177.21712191497093
6.313321984,0.9994912692205979,177.07979453400412
6.315609088,0.9994864073287527,176.9427946258624
6.317896192,0.9995137623105599,176.80561352685956
6.320182784,0.9995718318084944,176.66782507848438
6.322469888,0.9996569155676278,176.52900399608848
6.324756992,0.9997636245793925,176.38880519113818
6.327044096,0.9998852284253062,176.2469583591488
6.3293312,1.0000137817298254,176.1032987110867
6.331618304,1.000141579092725,175.95777937970004
6.333904896,1.0002600525238414,175.81047198401896
6.336192,1.0003620394362127,175.66154792698862
6.338479104,1.0004409255896254,175.51136369877543
6.340766208,1.0004917072816855,175.3602291623299
6.343053312,1.000511327999145,175.20859365213934
6.345340416,1.0004982520686805,175.05691154324361
6.347627008,1.000453514280997,174.905660078178
6.349914112,1.0003799347474231,174.7552679734307
6.352201216,1.0002820513142698,174.60612890155886
6.35448832,1.0001660780393804,174.45856226129948
6.356775424,1.0000393946384012,174.31273973905746
6.359062528,0.999910122004538,174.16880906629157
6.36134912,0.9997862324362465,174.02672890994992
6.363636224,0.9996756888043111,173.88634469651993
6.365923328,0.999585550760309,173.74739811114415
6.368210432,0.9995214019389672,173.60964628787377
6.370497536,0.9994876241717158,173.47260120365212
6.37278464,0.9994858703929804,173.3358317700932
6.375071232,0.9995166658633816,173.19882126148391
6.377358336,0.9995779405189105,173.06118562547357
6.37964544,0.9996659326944534,172.9224361214157
6.381932544,0.9997748115756467,172.78229557179128
6.384219648,0.9998978342695386,172.64045729974455
6.386506752,1.000027303580104,172.49681527243598
6.388793344,1.0001547865161784,172.351300233539
6.391080448,1.0002723697188391,172.20400477089336
6.393367552,1.0003725930428058,172.05514615876575
6.395654656,1.000449068288768,171.90499940384572
6.39794176,1.0004969144717752,171.75398191767601
6.400228864,1.0005132700585873,171.60248935733958
6.402515968,1.0004968053366314,171.45101558588928
6.40480256,1.0004488116314085,171.29998590645346
6.407089664,1.0003721168973152,171.14987549869053
6.409376768,1.0002717781979318,171.0010874879866
6.411663872,1.0001541498161046,170.85388452022357
6.413950976,1.0000262161303153,170.70848689553708
6.41623808,0.9998965642575803,170.56492888662532
6.418524672,0.999773344942092,170.42323265834224
6.420811776,0.999664201446703,170.28323030119762
6.42309888,0.9995761599755364,170.1446926549137
6.425385984,0.9995147897386686,170.00725163338322
6.427673088,0.9994839692033691,169.87048324843087
6.429960192,0.9994856626004747,169.7339231581922
6.432246784,0.9995199746651561,169.59710763852618
6.434533888,0.9995844610975316,169.45959809229927
6.436820992,0.9996751722024587,169.32097421038947
6.439108096,0.9997862259442296,169.18086920113672
6.4413952,0.9999108076485915,169.03906484511486
6.443682304,1.0000408031528754,168.89544686777978
6.445968896,1.0001681463822494,168.74995936237852
6.448256,1.0002846577842301,168.602698691678
6.450543104,1.0003830346560199,168.45388160430699
6.452830208,1.000457001682817,168.3038129907208
6.455117312,1.0005018110736859,168.1528937352841
6.457404416,1.0005149350869325,168.00159310511148
6.459691008,1.0004950420967398,167.85029673321066
6.461978112,1.0004437174726812,167.69956564116433
6.464265216,1.00036407023541,167.54977717719626
6.46655232,1.0002612082023106,167.40132856743415
6.468839424,1.000141576390094,167.25448028784
6.471126528,1.0000127995290706,167.10949636960743
6.473413632,0.9998829785222269,166.966350113979
6.475700224,0.9997602907934785,166.8250625883638
6.477987328,0.9996526509197132,166.68548568936114
6.480274432,0.9995668261771736,166.54728735750416
6.482561536,0.9995082474011989,166.4101935448031
6.48484864,0.9994806052610964,166.27367581127206
6.487135744,0.9994858748220772,166.13738441655443
6.489422336,0.9995235365065913,166.00076690387542
6.49170944,0.9995910701657591,165.86342539922555
6.493996544,0.9996845295687571,165.72488178331398
6.496283648,0.9997977706247345,165.58487641316077
6.498570752,0.9999237109914625,165.443092103601
6.500857856,1.000054486025874,165.2994856602321
6.503144448,1.0001814519800316,165.1540336162983
6.505431552,1.0002968502950411,165.00679686213138
6.507718656,1.0003933534002682,164.85805228580747
6.51000576,1.0004648165536696,164.7080860473057
6.512292864,1.0005066577253308,164.5572943606985
6.514579968,1.0005162139543766,164.4061695650136
6.51686656,1.0004929854160538,164.2551216089803
6.519153664,1.000438337303125,164.10465570357545
6.521440768,1.0003556806195064,163.95518542947673
6.523727872,1.0002504147388938,163.80711127472495
6.526014976,1.0001290836547272,163.66066025474575
6.52830208,0.9999992039607737,163.51608426647533
6.530588672,0.9998692351726612,163.3733911566751
6.532875776,0.9997473568271488,163.23254068664494
6.53516288,0.9996412889149736,163.09333907214028
6.537449984,0.9995577257239959,162.9555387186382
6.539737088,0.9995021256630515,162.81872799334857
6.542024192,0.9994778159512652,162.682592903649
6.544310784,0.9994863128425897,162.54651173806226
6.546597888,0.9995274104916204,162.41009207753066
6.548884992,0.9995982260788926,162.27289482429404
6.551172096,0.9996942535136862,162.13446969475785
6.5534592,0.9998096532546755,161.99452470487702
6.555746304,0.9999369086902484,161.85281505558146
6.558033408,1.0000680658761567,161.7092517945109
6.56032,1.00019469999602,161.56382567500808
6.562607104,1.0003090174650773,161.4166407776367
6.564894208,1.0004034392567158,161.26795944846108
6.567181312,1.0004722471797647,161.11808916081085
6.569468416,1.0005109400950656,160.96748875290794
6.57175552,1.0005172431114657,160.816524589864
6.574042112,1.0004904489135098,160.665748141662
6.576329216,1.0004324506239624,160.51556972972708
6.57861632,1.0003468875865762,160.36644367354737
6.580903424,1.000239179667836,160.21874182010575
6.583190528,1.0001161294828491,160.07272078225628
6.585477632,0.9999855714745893,159.9285822111135
6.587764224,0.9998555888221494,159.78629099373703
6.590051328,0.9997345381821353,159.6458642217592
6.592338432,0.9996301369258769,159.50708021970772
6.594625536,0.9995489931372428,159.36966376392996
6.59691264,0.999496246093238,159.23323515914765
6.599199744,0.9994751805974355,159.09736065712016
6.601486336,0.9994872631635152,158.96156646645207
6.60377344,0.9995317447234823,158.8253597776169
6.606060544,0.9996056867387356,158.6882993856768
6.608347648,0.9997043941593784,158.54999506805237
6.610634752,0.999821839514788,158.41013642622877
6.612921856,0.9999504255324743,158.2684776294303
6.615208448,1.0000820543383113,158.12495672951917
6.617495552,1.0002082732368303,157.97956858126616
6.619782656,1.0003210591252694,157.83246041030523
6.62206976,1.0004134354386303,157.68386789111543
6.624356864,1.0004795493875227,157.53411998855964
6.626643968,1.000515112097238,157.3836471124853
6.628931072,1.000517895491081,157.23290234956428
6.631217664,1.0004876680072319,157.08237102580546
6.633504768,1.0004264859788157,156.93251475868686
6.635791872,1.0003379600651225,156.78376817445002
6.638078976,1.0002278151417472,156.63644971763134
6.64036608,1.0001031049153037,156.49087886277937
6.642653184,0.9999716829363315,156.3471400347196
6.644939776,0.9998417665378733,156.20534122375966
6.64722688,0.9997216340976384,156.06535797427378
6.649513984,0.9996189671733827,155.9270077231708
6.651801088,0.9995402804611991,155.78998178711632
6.654088192,0.9994905174415245,155.6538989265326
6.656375296,0.9994728965234329,155.51833366878748
6.658661888,0.999488460042993,155.38278246366593
6.660948992,0.999536357452403,155.24678414970134
6.663236096,0.9996134593113377,155.1098842604596
6.6655232,0.9997148715090444,154.97170765369543
6.667810304,0.9998343065572519,154.83192619046656
6.670097408,0.9999640149353654,154.69034485712874
6.672384,1.0000958157203803,154.5468764521502
6.674671104,1.00022146254906,154.40154984070836
6.676958208,1.0003330634596,154.2544802955865
6.679245312,1.0004232464250549,154.10599616546511
6.681532416,1.0004865878821319,153.95638032307428
6.68381952,1.0005188580986684,153.80607648418538
6.686106112,1.0005181488013666,153.65558609660764
6.688393216,1.0004844834019317,153.50536036652372
6.69068032,1.0004199081749299,153.35580800402602
6.692967424,1.0003285348875528,153.20740682016205
6.695254528,1.0002161376339904,153.06049301859136
6.697541632,1.0000897980552976,152.91535841565673
6.699828224,0.9999576631715699,152.7721228592207
6.702115328,0.9998278972239056,152.63076598815294
6.704402432,0.9997088080384865,152.49121266464914
6.706689536,0.9996080581111664,152.35329534961835
6.70897664,0.9995317712280049,152.21666220296513
6.711263744,0.9994851530876598,152.08094636132824
6.713550848,0.9994710030331971,151.94570043043825
6.71583744,0.999490048031717,151.81042601801266
6.718124544,0.9995413582622141,151.67463737979483
6.720411648,0.9996215858604215,151.53790484124653
6.722698752,0.999725696306805,151.39983943993258
6.724985856,0.9998469544228766,151.2601422027761
6.72727296,0.999977797435022,151.11864466929032
6.729559552,1.0001098649317226,150.97523182476033
6.731846656,1.000234885578701,150.8299873596902
6.73413376,1.0003447717278582,150.683011934782
6.736420864,1.000432826603625,150.53459177713324
6.738707968,1.0004933064775179,150.3851356725887
6.740995072,1.0005223307309528,150.23503343218962
6.743281664,1.000518101188389,150.08475904151737
6.745568768,1.0004807543259067,149.9348168720892
6.747855872,1.0004130585651978,149.78562658177705
6.750142976,1.000318778733665,149.63763980947087
6.75243008,1.0002041269316435,149.49111874008787
6.754717184,1.0000763628820264,149.34643813900115
6.757003776,0.9999433589143746,149.20361880022367
6.75929088,0.9998140499826331,149.0627505938703
6.761577984,0.9996959361896958,148.92367996631876
6.763865088,0.9995972264730031,148.78619316144957
6.766152192,0.9995236010773868,148.65000710554202
6.768439296,0.9994800556708284,148.51463553021202
6.770725888,0.9994693362142161,148.37970097365152
6.773012992,0.9994919784289966,148.24467436807706
6.775300096,0.9995465998394869,148.10910834190753
6.7775872,0.9996300988848695,147.97253897531488
6.779874304,0.9997366611667338,147.83461419753914
6.782161408,0.999859817552062,147.69500561003568
6.784448512,0.9999917469203506,147.5535850472036
6.786735104,1.0001240175139048,147.41024537645464
6.789022208,1.0002483167579501,147.26503651505908
6.791309312,1.0003566310633931,147.11816507728344
6.793596416,1.0004423941548413,146.96988376856132
6.79588352,1.0004998436930623,146.82057885671887
6.798170624,1.000525498418818,146.6706641795552
6.800457216,1.00051762665977,146.52066542812273
6.80274432,1.0004769928585706,146.371000996998
6.805031424,1.0004057858029225,146.22217612504863
6.807318528,1.000308640797718,146.07456092665626
6.809605632,1.0001918295923993,145.9285245168439
6.811892736,1.0000625783983783,145.78426917719065
6.814179328,0.9999292290161916,145.64195981274037
6.816466432,0.9998000169630905,145.50155590701246
6.818753536,0.9996833188976655,145.36296866475382
6.82104064,0.9995864864271511,145.22591844047793
6.823327744,0.9995155918237179,145.09010125034084
6.825614848,0.999475218039735,144.95514585042554
6.82790144,0.9994680093203732,144.82050208175997
6.830188544,0.9994943483383608,144.68576425619625
6.832475648,0.9995524790634236,144.5504159274768
6.834762752,0.9996389776291841,144.414027588409
6.837049856,0.9997481003842311,144.27621258014562
6.83933696,0.9998729647263234,144.13672950831264
6.841623552,1.0000058164805279,143.9953416884508
6.843910656,1.0001382824470462,143.85209761272426
6.84619776,1.0002615305292903,143.70696673680567
6.848484864,1.000368382064256,143.560182259534
6.850771968,1.0004515757855428,143.41202201573597
6.853059072,1.0005059533041414,143.2629022694696
6.855345664,1.0005282598466285,143.11320997437588
6.857632768,1.0005168329093443,142.96343601924178
6.859919872,1.0004725505277896,142.81410315993583
6.862206976,1.000398186395606,142.66564151350033
6.86449408,1.0002983024184395,142.51844465349484
6.866781184,1.0001792407594083,142.37284436233944
6.869068288,1.000048610582167,142.22908412012285
6.87135488,0.9999147558920245,142.0872605729554
6.873641984,0.9997859785435653,141.94732219444123
6.875929088,0.9996706192168311,141.80921464441906
6.878216192,0.9995760269412468,141.67262486236683
6.880503296,0.9995077153162327,141.53723167852053
6.8827904,0.9994707856508797,141.4026078582847
6.885076992,0.999467162011365,141.26833704257817
6.887364096,0.9994970409772578,141.133859387156
6.8896512,0.9995587283856687,140.99871221254566
6.891938304,0.999648082485025,140.86251256194288
6.894225408,0.9997598147977793,140.7248363411535
6.896512512,0.9998864349487568,140.58543708244505
6.898799104,1.0000202221990182,140.44415321802637
6.901086208,1.000152500100638,140.3009672630173
6.903373312,1.000275040877096,140.15592230814542
6.905660416,1.0003800291738902,140.00924583986577
6.90794752,1.0004607791995477,139.8612346930564
6.910234624,1.0005120217428367,139.71226164623877
6.912521216,1.0005307203768863,139.5627993118564
6.91480832,1.0005157753521605,139.41331418422865
6.917095424,1.00046779723261,139.26428859895523
6.919382528,1.0003901574905372,139.1162202748747
