freq,mag,phase
6.0,0.999948428722033,173.44609944707545
6.014492672,0.9999364141832796,172.54637937880614
6.028985344,0.9999264120909951,171.6469768983329
6.043478016,0.9999193944945394,170.74790773662866
6.0579712,0.9999158497197823,169.8490701916579
6.072463872,0.9999158867831665,168.95049213515702
6.086956544,0.999919417184337,168.052083755818
6.101449216,0.9999263730726139,167.15385303968037
6.115941888,0.9999365558767385,166.25570848547935
6.13043456,0.9999493722766603,165.35766798652216
6.144927744,0.9999644104591735,164.45966897921025
6.159420416,0.9999811320937573,163.56169856009174
6.173913088,0.9999986753059728,162.663747552782
6.18840576,1.0000164705218162,161.76581002456342
6.202898432,1.0000337682736176,160.8678572982407
6.217391104,1.000049733199623,159.96997665966512
6.231884288,1.0000637620892463,159.07208887098236
6.24637696,1.000075529568739,158.17430596509732
6.260869632,1.0000840992332884,157.27663769953773
6.275362304,1.0000894624485743,156.37906155068708
6.289854976,1.0000912905679027,155.48170535093868
6.304347648,1.0000896247888196,154.58454688620006
6.318840832,1.000084204441234,153.68764073551583
6.333333504,1.0000755134331785,152.79109318580248
6.347826176,1.0000639044374802,151.89484756037533
6.362318848,1.0000498046401503,150.99899583052817
6.37681152,1.0000337172749967,150.10353928862958
6.391304192,1.0000163418683887,149.20849640120355
6.405796864,0.9999983618243224,148.31386289323063
6.420290048,0.9999805567203432,147.41969980677274
6.43478272,0.9999637712776266,146.5259804792391
6.449275392,0.9999484337276818,145.6326295116568
6.463768064,0.9999354074073623,144.73968229439618
6.478260736,0.9999250190779521,143.8471254450012
6.492753408,0.9999178675211656,142.95488377545269
6.507246592,0.9999142265334341,142.06293833837796
6.521739264,0.9999141221392681,141.17127042977194
6.536231936,0.9999177889279065,140.2797756103988
6.550724608,0.9999248485149187,139.38844805195768
6.56521728,0.9999351179657532,138.49727020241227
6.579709952,0.9999481730528609,137.60617619336392
6.594203136,0.9999634665815762,136.71515218236775
6.608695808,0.9999804500690003,135.82416545817435
6.62318848,0.9999983862843518,134.93321515777023
6.637681152,1.0000164474765425,134.04227595957343
6.652173824,1.0000340539083497,133.1513514623446
6.666666496,1.0000503633362612,132.26048122334365
6.681159168,1.0000647589879266,131.36963512044537
6.695652352,1.000076579943543,130.47888488627794
6.710145024,1.0000854576217928,129.5882439053366
6.724637696,1.000091012198284,128.69773439347293
6.739130368,1.0000928966084393,127.8074194823394
6.75362304,1.0000911801637058,126.91732899025001
6.768115712,1.0000857616263545,126.0275046901196
6.782608896,1.0000768949795733,125.1379903661756
6.797101568,1.0000650700126847,124.24882983024243
6.81159424,1.0000507834809365,123.36004817005576
6.826086912,1.00003428238447,122.47165824086932
6.840579584,1.0000166126334638,121.58370355558156
6.855072256,0.999998327184161,120.69618132717152
6.86956544,0.9999800855420721,119.80912133712332
6.884058112,0.9999629573931332,118.92247403041327
6.898550784,0.9999474217767546,118.03625469173473
6.913043456,0.9999340742114988,117.15041959306696
6.927536128,0.9999234201682143,116.26494901892677
6.9420288,0.9999161657623141,115.37980592938511
6.956521984,0.9999123793616301,114.49495188139177
6.971014656,0.9999123420895458,113.61035278668801
6.985507328,0.9999159716745949,112.72591943723074
7.0,0.9999231545315437,111.84168949156326
7.014492672,0.9999335475191128,110.95754607894206
7.028985344,0.9999469055784848,110.07349449671733
7.043478016,0.9999625782449757,109.18950273217233
7.0579712,0.9999798692962252,108.30553165117934
7.072463872,0.9999981274218772,107.42157265595704
7.086956544,1.0000166458324544,106.53760070163065
7.101449216,1.000034562556128,105.6536380828061
7.115941888,1.0000512543441076,104.76970615197686
7.13043456,1.0000659576126436,103.88579577478325
7.144927744,1.0000780661833895,103.00193088143286
7.159420416,1.0000871888877114,102.11816439787117
7.173913088,1.000092812012838,101.2345287042623
7.18840576,1.0000947581964026,100.35105680149336
7.202898432,1.000092912251329,99.46777354612358
7.217391104,1.0000873762884215,98.58475093521143
7.231884288,1.0000784214394656,97.7020392578347
7.24637696,1.0000663457432235,96.819614661542
7.260869632,1.0000515926311613,95.93758752583283
7.275362304,1.000034809573516,95.05593099052848
7.289854976,1.0000167981450887,94.17467283713852
7.304347648,0.9999980990345431,93.29385150989243
7.318840832,0.9999795641898853,92.41341710501084
7.333333504,0.999961970063243,91.53342502360529
7.347826176,0.9999460160519568,90.6538267085627
7.362318848,0.9999323991349041,89.77457275559225
7.37681152,0.9999216188800784,88.89566975437316
7.391304192,0.9999141486949343,88.01707124746079
7.405796864,0.999910348277625,87.13872415954377
7.420290048,0.9999102603713842,86.26059826837601
7.43478272,0.9999139982506309,85.38264352175247
7.449275392,0.9999213630956094,84.5048201338382
7.463768064,0.9999321496524186,83.62705664710705
7.478260736,0.9999457029604908,82.74936016386359
7.492753408,0.9999617624972326,81.87167491275376
7.507246592,0.9999794776819945,80.99396429415683
7.521739264,0.9999982486547675,80.11624154072007
7.536231936,1.0000170795411485,79.23845233881788
7.550724608,1.0000354300182976,78.36065044160459
7.56521728,1.0000524533250355,77.48279579879664
7.579709952,1.0000675206830907,76.60495197777047
7.594203136,1.0000799231794475,75.72711469773637
7.608695808,1.000089129464301,74.84933285072073
7.62318848,1.0000949318714072,73.97162851227002
7.637681152,1.0000968266031234,73.0940513983593
7.652173824,1.0000949126703997,72.21662224205043
7.666666496,1.0000892392430034,71.3394313088587
7.681159168,1.000080022070696,70.46247603802034
7.695652352,1.0000675646699388,69.58581080194091
7.710145024,1.0000524707792295,68.70947677288174
7.724637696,1.0000352895430937,67.83347443787481
7.739130368,1.0000167711784973,66.95785004406339
7.75362304,0.9999976244682316,66.08260220193024
7.768115712,0.9999786028367323,65.2077200506463
7.782608896,0.9999606066993844,64.3332124477348
7.797101568,0.9999443122860485,63.4590719756452
7.81159424,0.9999303643450205,62.585240573810125
7.826086912,0.9999193609446574,61.7117193318894
7.840579584,0.9999117314906496,60.8384396121909
7.855072256,0.9999079096423009,59.96537743647029
7.86956544,0.999907834330077,59.09248251322782
7.884058112,0.9999118075751733,58.21972332167595
7.898550784,0.9999194018166435,57.34700681812863
7.913043456,0.9999304608270759,56.474349402120566
7.927536128,0.9999445194148734,55.60166629908193
7.9420288,0.9999609520068504,54.72894662786086
7.956521984,0.9999791710344526,53.85614230236542
7.971014656,0.9999984206331509,52.98325562638505
7.985507328,1.0000177713247667,52.11028933411512
8.0,1.00003665916254,51.237196334550305
8.014492672,1.0000540805364329,50.36404856060115
8.028985344,1.0000694548079725,49.490824428343934
8.043478016,1.0000820983276784,48.61755121242922
8.0579712,1.00009161485337,47.74424529167114
8.072463872,1.0000974114777075,46.87100384159653
8.086956544,1.0000993300278314,45.99780283844156
8.101449216,1.0000972675084694,45.124733591965494
8.115941888,1.000091360839052,44.251812402860715
8.13043456,1.000081785697606,43.37907805694543
8.144927744,1.0000689356834793,42.50659501397769
8.159420416,1.0000533786376473,41.63438189146458
8.173913088,1.0000357207165154,40.76246730424588
8.18840576,1.0000165863497874,39.89086826140755
8.202898432,0.9999969130400266,39.01957746913102
8.217391104,0.9999774424983325,38.14864132492615
8.231884288,0.9999590008886924,37.27799362696581
8.24637696,0.9999422043352023,36.40765745301415
8.260869632,0.9999279317761902,35.53758568210606
8.275362304,0.9999166835868809,34.667745413064125
8.289854976,0.9999089789874029,33.79813325207328
8.304347648,0.9999051495410419,32.928647323798835
8.318840832,0.9999051582698232,32.0592831460791
8.333333504,0.9999093196670703,31.1899746082374
8.347826176,0.999917271396207,30.32067627313929
8.362318848,0.9999287199370859,29.451327495364616
8.37681152,0.9999432786664727,28.581904992508747
8.391304192,0.9999602573345504,27.712382781092213
8.405796864,0.9999791563412613,26.842710851382304
8.420290048,0.9999988009633759,25.972905574732867
8.43478272,1.0000188047097585,25.102914474996584
8.449275392,1.0000382293185957,24.232770824549934
8.463768064,1.0000562033179006,23.362455794968596
8.478260736,1.0000718239081994,22.492009994007294
8.492753408,1.0000849102331653,21.621459249679226
8.507246592,1.0000945271344903,20.75081379711107
8.521739264,1.000100414018902,19.880137612374938
8.536231936,1.0001022643106996,19.009464830279423
8.550724608,1.0001000138452976,18.138854370516132
8.56521728,1.0000937781995802,17.268339775659744
8.579709952,1.0000838154520368,16.39795274701332
8.594202624,1.0000704522576493,15.527746382823183
8.608695296,1.0000543439430842,14.657750688476556
8.623187968,1.0000360156310493,13.788003062270656
8.637681664,1.0000162966294714,12.9184903535373
8.652174336,0.9999959620638573,12.049281275705665
8.666667008,0.9999759301050894,11.180314710513509
8.68115968,0.9999568149181169,10.311605800209067
8.695652352,0.9999396788833814,9.44314204477977
8.710145024,0.9999249917611558,8.574887753017599
8.724637696,0.999913522041805,7.706813619357254
8.739130368,0.999905680945754,6.838874915947789
8.75362304,0.9999018083513784,5.971022941535492
8.768115712,0.9999020902079145,5.103224396245409
8.782608384,0.9999064510819253,4.235392512022555
8.797101056,0.9999148228042404,3.3675199624536933
8.811593728,0.9999267515390466,2.499535824412493
8.826087424,0.9999418896921932,1.6314046266238185
8.840580096,0.9999595749906913,0.7630608250631007
8.855072768,0.9999790441817528,-0.10546105736688748
8.86956544,0.9999994741596937,-0.9742150307495491
8.884058112,1.000020137846334,-1.843203718446421
8.898550784,1.0000401528537524,-2.712447462284166
8.913043456,1.000058674438491,-3.581923043071642
8.927536128,1.0000748179162033,-4.451594537399383
8.9420288,1.0000880733318744,-5.321459209493007
8.956521472,1.0000979572551156,-6.191466577279405
8.971014144,1.0001038342686244,-7.061576713275368
8.985506816,1.0001055785013284,-7.931730556793369
8.999999488,1.00010311351,-8.801910577287535
9.014493184,1.0000966278875911,-9.672072522905145
9.028985856,1.000086081560974,-10.542152541346525
9.043478528,1.0000721005440678,-11.412104849175966
9.0579712,1.0000553652580855,-12.28187596372238
9.072463872,1.0000363938901595,-13.151518437015659
9.086956544,1.0000158700842208,-14.020923805151622
9.101449216,0.999994826348013,-14.890133146993701
9.115941888,0.9999740489638923,-15.759123596191444
9.13043456,0.9999543832639985,-16.62791959057764
9.144927232,0.999936725305061,-17.496533826440974
9.159419904,0.999921725054458,-18.364994035328493
9.173912576,0.9999098765978619,-19.23331373114464
9.188406272,0.9999019169173181,-20.1015878468576
9.202898944,0.999898069347696,-20.969824084290657
9.217391616,0.9998984742623003,-21.83808741562398
9.231884288,0.9999032911041174,-22.706433128337263
9.24637696,0.999912051236044,-23.574900368612262
9.260869632,0.9999246461063479,-24.44354309116873
9.275362304,0.99994037747868,-25.312415103721726
9.289854976,0.9999587482729309,-26.18153330602738
9.304347648,0.999979008715255,-27.050944327930765
9.31884032,1.0000002404713544,-27.920643051193093
9.333332992,1.0000216383459926,-28.79065978334878
9.347825664,1.0000422537364937,-29.660981094412882
9.362318336,1.0000613560001452,-30.531611592503648
9.376812032,1.000078036174398,-31.402507481230074
9.391304704,1.0000916740307226,-32.273644880370775
9.405797376,1.000101747047973,-33.14501829141977
9.420290048,1.000107677177073,-34.016533566394656
9.43478272,1.0001093214696757,-34.88818360258654
9.449275392,1.0001066057012429,-35.75991444077049
9.463768064,1.0000995315316634,-36.63164747432914
9.478260736,1.00008844688189,-37.503368913043914
9.492753408,1.0000738529557731,-38.375014325321416
9.50724608,1.0000563279698171,-39.246569781325626
9.521738752,1.0000364268413757,-40.11798563874263
9.536231424,1.0000151626410543,-40.989263418598064
9.55072512,0.9999932771713743,-41.860361624450114
9.565217792,0.9999717802008935,-42.73131424946474
9.579710464,0.9999514325703117,-43.60209811721231
9.594203136,0.9999332018322011,-44.47275264165039
9.608695808,0.9999176246373571,-45.34332349821066
9.62318848,0.9999055528622405,-46.213800842621794
9.637681152,0.9998974241638496,-47.084278900874196
9.652173824,0.999893635414402,-47.954794932907454
9.666666496,0.9998942945937869,-48.82536174824843
9.681159168,0.9998993619852083,-49.69608937199178
9.69565184,0.9999086743165322,-50.56699936455643
9.710144512,0.9999219522896337,-51.438153630622125
9.724637184,0.9999383841289189,-52.3095780142037
9.73913088,0.9999576033492223,-53.18131729071437
9.753623552,0.999978742896057,-54.05342251889045
9.768116224,1.000000806096642,-54.92587609677071
9.782608896,1.0000230686674836,-55.79870258488409
9.797101568,1.0000444805316095,-56.67190608172195
9.81159424,1.0000642541196938,-57.54548607255207
9.826086912,1.000081538632944,-58.419381007338025
9.840579584,1.0000955911184144,-59.2935844625308
9.855072256,1.000105834842245,-60.16806333421371
9.869564928,1.000111917102749,-61.04275423612202
9.8840576,1.0001134004735348,-61.91762005429337
9.898550272,1.0001103781879899,-62.79260771080327
9.913043968,1.0001028515593549,-63.66764584819131
9.92753664,1.0000912106590354,-64.54271934245483
9.942029312,1.000075974746265,-65.4177778540756
9.956521984,1.0000575530640072,-66.29274338417532
9.971014656,1.0000369089156955,-67.16764418918078
9.985507328,1.0000147039381537,-68.04241595703202
10.0,0.9999919217121952,-68.91706786062868
10.014492672,0.9999695764741757,-69.79158351529074
10.028985344,0.9999485284871276,-70.66599737885929
10.043478016,0.9999295737604237,-71.54030567115507
10.057970688,0.9999136476740698,-72.41456802661764
10.07246336,0.999901292210286,-73.28878738461019
10.086956032,0.9998930287014127,-74.16302203375251
10.101449728,0.9998892220783114,-75.03733821685535
10.1159424,0.9998901256785055,-75.91178936584745
10.130435072,0.999895588619289,-76.78640948010525
10.144927744,0.9999054642520879,-77.66127723663458
10.159420416,0.9999193694389322,-78.53642886147514
10.173913088,0.9999367197248975,-79.41190548976125
10.18840576,0.9999567450494897,-80.28775072478221
10.202898432,0.9999788342123742,-81.16399641486099
10.217391104,1.000001847174474,-82.04066528469754
10.231883776,1.0000250013073226,-82.91774614977946
10.246376448,1.0000472385940524,-83.79524757531487
10.26086912,1.000067715966778,-84.67317019810591
10.275362816,1.0000855092312428,-85.55144970688943
10.289855488,1.0001000272786758,-86.43009820652237
10.30434816,1.0001105302294664,-87.3090383492879
10.318840832,1.0001165873149926,-88.18824301050208
10.333333504,1.0001178680653897,-89.06764813624528
10.347826176,1.0001146271220782,-89.94720237903138
10.362318848,1.0001066462144308,-90.82686176020502
10.37681152,1.0000941845664553,-91.70656421694113
10.391304192,1.0000781030947776,-92.5862654843657
10.405796864,1.0000587456430743,-93.46592851112146
10.420289536,1.0000370676480272,-94.34551123725757
10.434782208,1.0000139310498906,-95.22501345082853
10.44927488,0.9999900705702403,-96.1043955856854
10.463768576,0.9999667093924645,-96.98366617739325
10.478261248,0.9999447886523309,-97.8628570757643
10.49275392,0.9999250743352066,-98.74196180318371
10.507246592,0.9999084298457646,-99.62102461266738
10.521739264,0.9998954475937085,-100.50007949365076
10.536231936,0.9998869479561466,-101.37917558794327
10.550724608,0.9998830860311089,-102.25837624430557
10.56521728,0.999883978092652,-103.13773023824282
10.579709952,0.9998897438331676,-104.0172861415661
10.594202624,0.9999000109061974,-104.89710523407628
10.608695296,0.9999144823983395,-105.77723708484916
10.623187968,0.9999324873818181,-106.65774368670483
10.637681664,0.9999534320333128,-107.53864404565364
10.652174336,0.9999762875533048,-108.41997661235027
10.666667008,1.0000000732399288,-109.3017521927872
10.68115968,1.0000240017764235,-110.18398265882651
10.695652352,1.000047039150052,-111.06666231942813
10.710145024,1.000068078702383,-111.94977912594157
10.724637696,1.000086441573611,-112.83328777758884
10.739130368,1.0001012366342006,-113.71717489941457
10.75362304,1.0001118886437448,-114.60138130253539
10.768115712,1.0001179258447375,-115.48588590710018
10.782608384,1.0001189970231783,-116.37057830852109
10.797101056,1.0001152457818399,-117.25546249249078
10.811593728,1.0001066242154992,-118.14043406257608
10.826087424,1.0000934778913972,-119.02545507730579
10.840580096,1.000076506090183,-119.91049120185416
10.855072768,1.0000561863336204,-120.79547416511858
10.86956544,1.0000335172847212,-121.68039517675442
10.884058112,1.0000092739570607,-122.56520291631327
10.898550784,0.999984440787129,-123.4499149285607
10.913043456,0.999960187153202,-124.33451567778292
10.927536128,0.9999373353047557,-125.2190048080635
10.9420288,0.9999170200097782,-126.10343117642712
10.956521472,0.9998998947638851,-126.98779176573132
10.971014144,0.9998868542528153,-127.87215882384467
10.985506816,0.9998782219984744,-128.75658064292895
11.000000512,0.999874559881216,-129.64108873390907
11.014493184,0.9998760433147316,-130.5257668249246
11.028985856,0.9998825098619414,-131.41065811066343
11.043478528,0.9998937102307724,-132.29580643924052
11.0579712,0.9999093689243136,-133.18130036127698
11.072463872,0.999928726919538,-134.06716410729265
11.086956544,0.9999510432170723,-134.95345174172886
11.101449216,0.9999754007648839,-135.84016274784656
11.115941888,1.0000008144460488,-136.7273513394383
11.13043456,1.000026238951446,-137.61499390013591
11.144927232,1.0000507030809223,-138.50309741508667
11.159419904,1.0000731155661666,-139.39165161097722
11.173912576,1.0000925671031227,-140.28062288906776
11.188406272,1.0001083511419844,-141.16996040465918
11.202898944,1.000119696413529,-142.0596405522529
11.217391616,1.0001262005714315,-142.94956878811934
11.231884288,1.0001275630515454,-143.83973580830775
11.24637696,1.0001236646851996,-144.73004805904196
11.260869632,1.000114874407744,-145.6204427345923
11.275362304,1.0001012633484705,-146.51088262008503
11.289854976,1.0000833410651475,-147.40132610814666
11.304347648,1.0000622224782971,-148.29168305393387
11.31884032,1.0000383835699178,-149.18195852637916
11.333332992,1.0000129555494968,-150.0720985976523
11.347825664,0.9999869833835257,-150.96210500943513
11.362318336,0.9999615334971892,-151.85197427096853
11.376812032,0.9999375969308709,-152.741692867697
11.391304704,0.9999161647069769,-153.63134291395662
11.405797376,0.9998982096488253,-154.52088983234322
11.420290048,0.9998844408206754,-155.41043194290341
11.43478272,0.9998753354608425,-156.29998316339163
11.449275392,0.9998714440247993,-157.18962884390268
11.463768064,0.9998728619015517,-158.07939497370597
11.478260736,0.9998795317252892,-158.96936491656294
11.492753408,0.9998912954219104,-159.8595849410015
11.50724608,0.9999075830180768,-160.7501283678949
11.521738752,0.9999276455023421,-161.6410310197293
11.536231424,0.9999509759452361,-162.53233115037045
11.55072512,0.9999763833580273,-163.42407932161558
11.565217792,1.000002942831945,-164.31625188877152
11.579710464,1.0000295024253492,-165.20890124472587
11.594203136,1.0000550090240772,-166.10200508111672
11.608695808,1.0000784146089619,-166.99552406147117
11.62318848,1.0000987695479349,-167.88945120195206
11.637681152,1.00011513601207,-168.7837428026167
11.652173824,1.0001270256619366,-169.67833561596245
11.666666496,1.0001337554192684,-170.57316912825286
11.681159168,1.0001350804352795,-171.46819853976936
11.69565184,1.0001309360196695,-172.36335686415097
11.710144512,1.0001215568755224,-173.2585683026975
11.724637184,1.0001072593949003,-174.15379438867697
11.73913088,1.0000885175310705,-175.04893792639763
11.753623552,1.0000660981867955,-175.94400649657928
11.768116224,1.0000410440361678,-176.83890613959653
11.782608896,1.0000142750037617,-177.73364651636635
11.797101568,0.9999869668927452,-178.6282072486092
