freq,mag,phase
6.0,1.0004342474318237,141.69555466521047
6.002286592,1.000577517789769,141.5274667370224
6.004572672,1.0006842863765217,141.3576037826768
6.006859264,1.0007485234031597,141.1865097848091
6.009145344,1.000765932452064,141.0148754446657
6.011431936,1.0007357210156123,140.84332070809768
6.013718016,1.0006594413792984,140.67259882107123
6.016004608,1.0005422232118426,140.50326927607964
6.018290688,1.0003912471034957,140.33590101576308
6.02057728,1.0002161663000904,140.1709387977592
6.022863872,1.0000278103279503,140.0086366797407
6.025149952,0.9998381845740381,139.8491097927575
6.027436544,0.9996593921286246,139.69223589291127
6.029722624,0.9995025883950807,139.53786594105577
6.032009216,0.9993778654841379,139.38554247528603
6.034295296,0.9992930271163669,139.2348044156041
6.036581888,0.9992533503481372,139.08496095192865
6.03886848,0.999261636865846,138.9354070598285
6.04115456,0.99931720216177,138.78538587035882
6.043441152,0.9994165624387663,138.63426969365293
6.045727232,0.9995534278090921,138.48145876988664
6.048013824,0.9997191425236368,138.32648422021558
6.050299904,0.9999032929753114,138.16896537264816
6.052586496,1.0000940699046137,138.0087931686657
6.054872576,1.0002796970355308,137.84585594132855
6.057159168,1.0004483182155686,137.68041637447666
6.05944576,1.0005891804734022,137.51274281629142
6.06173184,1.0006934377355345,137.34329649808566
6.064018432,1.0007543686050426,137.1726961763227
6.066304512,1.0007684985598577,137.00155834274767
6.068591104,1.0007345513553005,136.83058911468024
6.070877184,1.0006548108978015,136.66049244390072
6.073163776,1.0005342684600542,136.49185649769439
6.075450368,1.0003804666667748,136.3252119549653
6.077736448,1.0002031271999792,136.16100329595335
6.08002304,1.0000135097358156,135.99947766005448
6.08230912,0.9998234638093544,135.8407300564638
6.084595712,0.99964516845641,135.68468186776835
6.086881792,0.9994899116974617,135.53109096881815
6.089168384,0.9993671565508706,135.37952925739816
6.091454464,0.9992852655753411,135.22950650533141
6.093741056,0.9992490239322124,135.08036576822047
6.096027648,0.9992608950933126,134.93141864866922
6.098313728,0.9993201835974412,134.78195329684587
6.10060032,0.9994229420132383,134.63136278162378
6.1028864,0.9995628941442362,134.47902733802138
6.105172992,0.999731196559285,134.3244744132393
6.107459072,0.9999169541982397,134.16737941039736
6.109745664,1.000108701526261,134.00757492021484
6.112032256,1.0002942071821856,133.84502066367676
6.114318336,1.0004617384515593,133.67993449713518
6.116604928,1.000600807742555,133.5126727934997
6.118891008,1.0007024112954848,133.34368337993894
6.1211776,1.0007602906193052,133.17354044861835
6.12346368,1.0007708181644617,133.0029371686408
6.125750272,1.0007329596113743,132.8325674647586
6.128036352,1.0006496549402137,132.6630835349288
6.130322944,1.0005257577498765,132.4951064536242
6.132609536,1.0003690641311842,132.3292210961526
6.134895616,1.000189647935195,132.16573746976565
6.137182208,0.9999988228183677,132.00502993959407
6.139468288,0.9998083922356722,131.84707615407424
6.14175488,0.9996306503026402,131.69184604774117
6.14404096,0.9994768130903587,131.5390301767275
6.146327552,0.9993565631145622,131.38824233242855
6.148614144,0.9992775423205994,131.2389217597105
6.150900224,0.9992446413345804,131.09042794310017
6.153186816,0.9992602958247166,130.9421197853308
6.155472896,0.9993232565176362,130.7932252650144
6.157759488,0.9994296061767859,130.6431462358895
6.160045568,0.9995727733341843,130.49126534868486
6.16233216,0.9997434830795442,130.33716201755888
6.16461824,0.9999309695828218,130.18044654584574
6.166904832,1.000123604046851,130.02098245520415
6.169191424,1.0003089710698312,129.858825357532
6.171477504,1.0004752502738996,129.69414940656173
6.173764096,1.0006123214258282,129.52725120008998
6.176050176,1.0007112634148996,129.35867437034238
6.178336768,1.0007658951755756,129.1890209277549
6.180622848,1.0007726757723834,129.01897508665922
6.18290944,1.0007312497650585,128.84916127208527
6.18519552,1.0006441187412751,128.68032467721983
6.187482112,1.000516941147191,128.51303987960458
6.189768704,1.0003573645847643,128.34785138103035
6.192054784,1.0001759535635546,128.18518193308583
6.194341376,0.9999837570889889,128.02523719054534
6.196627456,0.9997930496567619,127.86810067172425
6.198914048,0.9996159771014768,127.71363160573516
6.201200128,0.999463733946534,127.56160639104341
6.20348672,0.9993457852086346,127.41158468335428
6.205773312,0.9992698731299109,127.26296115626128
6.208059392,0.99924074460698,127.11517093141403
6.210345984,0.9992600970768807,126.96742845947323
6.212632064,0.9993268718691445,126.81912061837436
6.214918656,0.9994367789164381,126.66954237149957
6.217204736,0.9995831171117115,126.51812860282689
6.219491328,0.9997561920867291,126.36440351564352
6.221777408,0.9999454564223765,126.20809507671456
6.224064,1.0001387261617114,126.04898308852178
6.226350592,1.0003238788330808,125.88720173462066
6.228636672,1.0004891252145662,125.72285834641235
6.230923264,1.000624097032365,125.55639601675992
6.233209344,1.000720342570714,125.38825248978425
6.235495936,1.0007715250122462,125.21907923174766
6.237782016,1.000774546990407,125.04952491853669
6.240068608,1.00072926471059,124.88027481288994
6.2423552,1.0006383877389615,124.71208213661168
6.24464128,1.0005077361409906,124.54548660768013
6.246927872,1.0003453525369714,124.38104035700441
6.249213952,1.000161819942453,124.21912407982748
6.251500544,0.999968458153562,124.0599628346276
6.253786624,0.9997775140870624,123.90363286992975
6.256073216,0.9996012557778415,123.74998710275933
6.258359296,0.9994505685223485,123.5987265055858
6.260645888,0.9993351346111271,123.44944232101805
6.26293248,0.9992623239364543,123.30154721999816
6.26521856,0.999236899499094,123.15438807023766
6.267505152,0.9992601808533016,123.00727582898506
6.269791232,0.9993308465305522,122.85947824723544
6.272077824,0.9994443736965646,122.71041386714178
6.274363904,0.9995936904669709,122.55943824152591
6.276650496,0.9997693708498722,122.40610677830713
6.278937088,0.99996018539348,122.2501754551113
6.281223168,1.0001541631922228,122.09143024121178
6.28350976,1.000338945702979,121.92997098840536
6.28579584,1.0005030119985268,121.76601974191864
6.288082432,1.0006358528678294,121.59993378850348
6.290368512,1.0007291315419389,121.4322203106816
6.292655104,1.0007767510546746,121.26350240406278
6.294941184,1.0007760560028962,121.09446653260154
6.297227776,1.0007267310172145,120.92583528591533
6.299514368,1.0006320974894702,120.75824184052875
6.301800448,1.0004979812816623,120.59233593279308
6.30408704,1.0003328068826214,120.42864046395196
6.30637312,1.000147199497057,120.26747721005228
6.308659712,0.9999526717157652,120.10911244358887
6.310945792,0.999761585100302,119.95358767601586
6.313232384,0.999586170538451,119.80071243901715
6.315518464,0.9994372764246557,119.65023603364412
6.317805056,0.9993246071453901,119.50169554806624
6.320091648,0.9992549916864768,119.35450542162985
6.322377728,0.9992331407596432,119.20800234780714
6.32466432,0.9992604092640894,119.06146232758938
6.3269504,0.9993350389917439,118.9142142026093
6.329236992,0.9994522266083039,118.76559616098231
6.331523072,0.9996047993139962,118.61507460624416
6.333809664,0.9997828884664244,118.46213899643101
6.336096256,0.9999752700551482,118.30654336686018
6.338382336,1.000169904237409,118.14816635643429
6.340668928,1.0003542770753127,117.98703555217584
6.342955008,1.0005170612963548,117.82340845680973
6.3452416,1.0006475700931285,117.65771244807534
6.34752768,1.0007377398197863,117.49041343903842
6.349814272,1.00078189893047,117.32217238476136
6.352100352,1.0007772152090304,117.15366400304092
6.354386944,1.0007238120524962,116.98559319218789
6.356673536,1.0006253556224805,116.81863670727792
6.358959616,1.0004878501071748,116.65342215014705
6.361246208,1.000319895531664,116.49042785026872
6.363532288,1.0001322055623894,116.33003217300282
6.36581888,0.9999365769749686,116.17245352239566
6.36810496,0.9997454346867881,116.01769248147282
6.370391552,0.9995709033245346,115.86563499289298
6.372678144,0.999423930976676,115.71593630553134
6.374964224,0.9993138571721871,115.56812008006017
6.377250816,0.999247691684515,115.42162202414352
6.379536896,0.9992296171801139,115.27574166998576
6.381823488,0.9992610905041395,115.12981030560026
6.384109568,0.9993395508179101,114.98308784430279
6.38639616,0.9994604630908782,114.8349379832534
6.38868224,0.9996161609527088,114.68480794021872
6.390968832,0.9997967021587626,114.53226151595126
6.393255424,0.9999906825882139,114.37700039696587
6.395541504,1.0001858294679624,114.21894205425558
6.397828096,1.000369771551103,114.05815638526644
6.400114176,1.0005309746179654,113.89489830647372
6.402400768,1.0006591584400175,113.72953291716001
6.404686848,1.0007463112992159,113.56264796110977
6.40697344,1.0007867401128365,113.39487259476897
6.409260032,1.000778042663708,113.22685532662175
6.411546112,1.000720705527341,113.05936205411896
6.413832704,1.00061832718543,112.89304124191553
6.416118784,1.000477271429477,112.72849881318652
6.418405376,1.0003065404082032,112.56621895285257
6.420691456,1.0001168980236552,112.40660989767312
6.422978048,0.999920322067383,112.2497989844811
6.425264128,0.9997290960553503,112.09583097731901
6.42755072,0.9995555478372066,111.94453628247547
6.429837312,0.9994105164774393,111.79559804080334
6.432123392,0.9993033753449256,111.64851226889843
6.434409984,0.9992405789961246,111.50269561537966
6.436696064,0.9992265560996489,111.35746176179568
6.438982656,0.9992618938140762,111.21207935829067
6.441268736,0.9993445593155064,111.06584530765295
6.443555328,0.9994691511047533,110.91817258077346
6.44584192,0.999628096564327,110.76843524392395
6.448128,0.9998109534242045,110.61621764371466
6.450414592,1.0000063775755728,110.46128893871037
6.452700672,1.0002020154733706,110.30355239349046
6.454987264,1.0003854165323571,110.14308246252716
6.457273344,1.000545075129033,109.98014519929217
6.459559936,1.0006707651414946,109.81514894361692
6.461846016,1.0007546515122279,109.64864699680832
6.464132608,1.00079130565307,109.4813077008742
6.4664192,1.0007786653728987,109.31382081914022
6.46870528,1.000717034183779,109.14688253410061
6.470991872,1.0006107531638255,108.98117208179119
6.473277952,1.000466315984943,108.81730219055571
6.475564544,1.0002927241749233,108.65576050254592
6.477850624,1.0001011919140348,108.49689808762868
6.480137216,0.9999035729877445,108.34088058233651
6.482423296,0.9997125677578451,108.18769423023227
6.484709888,0.9995399701340263,108.03719393244644
6.48699648,0.9993971129475463,107.88898672016694
6.48928256,0.9992927630435303,107.74261594743531
6.491569152,0.9992337382024581,107.59744251504179
6.493855232,0.9992236436065456,107.4528048848227
6.496141824,0.9992632457464488,107.30798171370593
6.498427904,0.9993498732817325,107.16226174061659
6.500714496,0.9994782779032764,107.0149979122817
6.503001088,0.9996403355180702,106.86563383508337
6.505287168,0.9998255658430758,106.7137922270467
6.50757376,1.0000224194445244,106.55918078449082
6.50985984,1.0002185496159262,106.40173205093474
6.512146432,1.0004011970292364,106.2415540262212
6.514432512,1.0005591271642573,106.0789285860656
6.516719104,1.0006823148411192,105.91427058378022
6.519005184,1.0007628877973742,105.74816422939489
6.521291776,1.000795689385596,105.58126126953836
6.523578368,1.0007787755807322,105.41427532600854
6.525864448,1.000713131339925,105.2478900633212
6.52815104,1.0006028303251995,105.08280739268824
6.53043712,1.0004548409755105,104.91960316627215
6.532723712,1.0002785760527457,104.75875818576866
6.535009792,1.0000850749334165,104.6006639212748
6.537296384,0.9998865358184205,104.44540426293969
6.539582976,0.9996956791408153,104.29298306057963
6.541869056,0.9995243843799843,104.14324717714385
6.544155648,0.9993836805048397,103.99577599358705
6.546441728,0.9992823851508114,103.85012131615406
6.54872832,0.999226959751629,103.70559755443897
6.5510144,0.9992210220573017,103.56157490535091
6.553300992,0.9992647200254302,103.41725664967477
6.555587072,0.9993557240256673,103.27201342162797
6.557873664,0.9994879027240618,103.12514008533586
6.560160256,0.9996530173663004,102.97616324279257
6.562446336,0.9998406306762835,102.82462899212659
6.564732928,1.0000388929741557,102.67030185829765
6.567019008,1.00023522038606,102.5131618339969
6.5693056,1.0004172114624759,102.3532574269264
6.57159168,1.0005734349688196,102.1909189044041
6.573878272,1.0006938340292495,102.02662454565538
6.576164864,1.00077099411264,101.86087688725085
6.578450944,1.0007998397414681,101.69439314712218
6.580737536,1.0007786593055965,101.52789884769908
6.583023616,1.000708717800102,101.36207364009341
6.585310208,1.00059449518995,101.19760204452344
6.587596288,1.000442888596871,101.03504885034967
6.58988288,1.0002638834554558,100.8749428421015
6.59216896,1.0000685441859745,100.71755270683362
6.594455552,0.9998692018589638,100.5630738167213
6.596742144,0.9996785349487675,100.41143033779339
6.599028224,0.9995086744740447,100.26243155430255
6.601314816,0.9993702833939976,100.1156809202934
6.603600896,0.9992720818576422,99.97070131096926
6.605887488,0.9992205068914276,99.82681563961302
6.608173568,0.9992186755312961,99.68335172219774
6.61046016,0.9992667851385526,99.53957127547197
6.612746752,0.9993619202504386,99.39476362766537
6.615032832,0.9994978794844497,99.24831195329092
6.617319424,0.9996662307097443,99.09966469326285
6.619605504,0.9998561051725787,98.94841687835766
6.621892096,1.0000556723180107,98.79437413676014
6.624178176,1.0002522510998775,98.63747495901772
6.626464768,1.0004333580238598,98.47783382126218
6.628750848,1.000587706548085,98.3158191887433
6.63103744,1.0007052578958076,98.15181175864856
6.633324032,1.000778845190936,97.98645331059659
6.635610112,1.0008037155807483,97.82041187753539
6.637896704,1.0007781368395794,97.65436466190963
6.640182784,1.0007038640716135,97.48907482229025
6.642469376,1.0005854967699366,97.3251980601819
6.644755456,1.0004305713029384,97.16331403265966
6.647042048,1.0002487315689943,97.0038957326483
6.649328128,1.0000516815762077,96.84724541842999
6.65161472,0.999851591821231,96.69348714455074
6.653901312,0.9996613454613832,96.54260744802099
6.656187392,0.9994927587422365,96.39435659392899
6.658473984,0.9993568076838221,96.24833813833988
6.660760064,0.9992619617038958,96.10403001677095
6.663046656,0.9992142541832518,95.96074154726621
6.665332736,0.9992166622433735,95.81785007468227
6.667619328,0.999269203984563,95.67455324473325
6.66990592,0.9993686449828052,95.53016649679645
6.672192,0.9995083392907497,95.38407534532136
6.674478592,0.9996797029635851,95.23576421771651
6.676764672,0.999871936211348,95.08480254449917
6.679051264,1.0000727420579907,94.93101316785807
6.681337344,1.0002694138170347,94.7743533797156
6.683623936,1.0004496762147526,94.61498198013501
6.685910016,1.0006019233184504,94.45320730911254
6.688196608,1.0007166393359799,94.28950725030117
6.6904832,1.0007864988693247,94.12450449838342
6.69276928,1.0008072044945557,93.9588542209494
6.695055872,1.0007772665520687,93.79327243852651
6.697341952,1.0006986377514837,93.62853338279533
6.699628544,1.0005762191629033,93.46524448647841
6.701914624,1.0004177757041217,93.30401764718258
6.704201216,1.0002333253634412,93.14526783836028
6.706487808,1.0000343011876176,92.98935160914426
6.708773888,0.9998336183489468,92.83634872888044
6.71106048,0.9996437566043772,92.68618928226475
6.71334656,0.9994768656434427,92.53866634409377
6.715633152,0.9993433025038467,92.39335123495698
6.717919232,0.9992518615225535,92.24968402547184
6.720205824,0.9992081021393997,92.1070207982642
6.722491904,0.9992150197152816,91.96462888522751
6.724778496,0.9992720030319122,91.8218156834933
6.727065088,0.99937551438581,91.67787329680482
6.729351168,0.9995191732163734,91.53211728448528
6.73163776,0.9996937264649426,91.38410241735336
6.73392384,0.9998881597286896,91.2333804041496
6.736210432,1.0000901086078104,91.07983159495843
6.738496512,1.0002868999723562,90.92339358248076
6.740783104,1.0004660586982386,90.76424741586344
6.743069696,1.0006161259680135,90.60273356802234
6.745355776,1.0007278636133674,90.43931431510552
6.747642368,1.0007939893323705,90.27466684162114
6.749928448,1.0008104209149806,90.10939825306082
6.75221504,1.0007759293526326,89.94429874927557
6.75450112,1.0006929456732991,89.78005654618973
6.756787712,1.0005663860807104,89.617340242417
6.759073792,1.0004045013744758,89.4567567665248
6.761360384,1.0002172617174632,89.29869176649453
6.763646976,1.0000165470570044,89.1434869015963
6.765933056,0.9998153343359311,88.99122248953474
6.768219648,0.9996259441286027,88.84179796373698
6.770505728,0.9994607122412945,88.69499693572725
6.77279232,0.9993298744829847,88.55033845754208
6.7750784,0.9992419366451484,88.40728955201305
6.777364992,0.9992022143019172,88.26522302407774
6.779651584,0.9992135949300752,88.1233664823427
6.781937664,0.9992751939202376,87.98099924829259
6.784224256,0.9993830868349458,87.83740873410763
6.786510336,0.9995304698671463,87.69199992577754
6.788796928,0.9997081604447948,87.5442312758028
6.791083008,0.9999047556721067,87.39377807268926
6.7933696,1.00010786896809,87.24042344300658
6.79565568,1.0003045761665987,87.08420018700502
6.797942272,1.0004826196472305,86.9252517547788
6.800228864,1.0006305534893303,86.76395873537956
6.802514944,1.0007390454227767,86.60083370578221
6.804801536,1.0008012928898262,86.43649090915713
6.807087616,1.0008132723934167,86.27161379980998
6.809374208,1.0007743434061662,86.10693548407342
6.811660288,1.000686824973644,85.94323533364864
6.81394688,1.000556194617025,85.78108669213454
6.81623296,1.0003907520555437,85.62110656706132
6.818519552,1.0002009452494904,85.46374909709161
6.820806144,0.9999986945480789,85.30922487815867
6.823092224,0.999796913941455,85.15766443380747
6.825378816,0.999608213070264,85.00896319800229
6.827664896,0.9994447354002529,84.86284220637448
6.829951488,0.9993165889759608,84.71884179234492
6.832237568,0.9992322740163966,84.5764459795388
6.83452416,0.9991968303564961,84.43490863581131
6.836810752,0.9992127226143315,84.2935612234852
6.839096832,0.9992788650608757,84.15160938117005
6.841383424,0.9993910767478551,84.00838846022464
6.843669504,0.9995423852129589,83.86328149646862
6.845956096,0.9997231069461114,83.7157650962113
6.848242176,0.9999217756732046,83.56550580550284
6.850528768,1.0001259091306314,83.41234480927466
6.852814848,1.0003225392622246,83.25628244858619
6.85510144,1.0004992933211638,83.09754436905138
6.857388032,1.0006448049488306,82.93647644072355
6.859674112,1.0007500040538986,82.77359915824044
6.861960704,1.0008083696957102,82.6095565543729
6.864246784,1.0008159312749305,82.4450511428891
6.866533376,1.0007722765964464,82.28081986308626
6.868819456,1.0006801744897347,82.11759057700662
6.871106048,1.0005454355447518,81.95602100617403
6.87339264,1.0003764950418816,81.79665990412516
6.87567872,1.0001840437140441,81.63994065913843
6.877965312,0.9999802577145998,81.48612077299343
6.880251392,0.9997781090655085,81.33526409471018
6.882537984,0.9995901185475204,81.1872509960706
6.884824064,0.9994285001289019,81.04180610318858
6.887110656,0.9993033725142717,80.89848004392441
6.889396736,0.9992227196969083,80.75665302487937
6.891683328,0.99919162013892,80.61566594069035
6.89396992,0.9992120802680751,80.47477438002718
6.896256,0.9992828631389474,80.33323071915845
6.898542592,0.9993995242929644,80.19035098675832
6.900828672,0.9995546529584489,80.04550927187336
6.903115264,0.9997383952680273,79.89821743599913
6.905401344,0.9999391388999013,79.74814700466881
6.907687936,1.000144286061716,79.59515938441362
6.909974528,1.000340625233219,79.43925169615358
6.912260608,1.0005159209418364,79.28067062827661
6.9145472,1.0006590471167467,79.11980011755243
6.91683328,1.0007609317036832,78.95715901102712
6.919119872,1.0008150629889199,78.79340359830329
6.921405952,1.0008181340859394,78.62925678274992
6.923692544,1.0007698177974318,78.46544944148464
6.925978624,1.0006731798817659,78.30269249656172
6.928265216,1.00053429857005,78.14166931400716
