freq,mag,phase
6.0,1.0000058732915584,-176.5043960899172
6.011080192,1.0000196657620952,-177.17647994661445
6.022160896,1.0000328898084638,-177.84864882831266
6.033241088,1.0000448642759827,-178.52084732430916
6.04432128,1.0000551298756226,-179.1930692185966
6.055401472,1.0000628461962084,-179.86527468388545
6.066482176,1.0000679564666917,179.46256233561888
6.077562368,1.000070375902903,178.79042875012266
6.08864256,1.0000694718095313,178.1184166912313
6.099722752,1.0000657011484895,177.44654915758846
6.110803456,1.000059092797172,176.7748801901466
6.121883648,1.000050031473738,176.1034110825032
6.13296384,1.0000388002814256,175.4322011086091
6.144044544,1.000026050656108,174.761261292265
6.155124736,1.000012273536997,174.0905774275228
6.166204928,0.9999982721597936,173.42021587094754
6.17728512,0.9999845752802496,172.7501461617435
6.188365824,0.999971860695106,172.08035487226556
6.199446016,0.9999608441061547,171.41083618769065
6.210526208,0.9999518064190349,170.74156474671415
6.2216064,0.9999454201237735,170.07250790540553
6.232687104,0.9999418364436388,169.4036675383455
6.243767296,0.9999411929921602,168.73493991341195
6.254847488,0.9999436847166485,168.06634040164113
6.265928192,0.9999491399731024,167.3978150141023
6.277008384,0.9999572817335032,166.72934180826454
6.288088576,0.9999675554796412,166.06086338110862
6.299168768,0.9999798687780732,165.3923749706557
6.310249472,0.9999933427470921,164.72385235267888
6.321329664,1.0000074414032882,164.05530023728505
6.332409856,1.0000214778261516,163.38667507919453
6.34349056,1.0000348257378902,162.71802699878708
6.354570752,1.0000466323339083,162.04935635937417
6.365650944,1.0000567034694738,161.3806742778453
6.376731136,1.0000644561494696,160.71199855212603
6.38781184,1.000069430980067,160.04335047762922
6.398892032,1.0000713423098002,159.37481485328382
6.409972224,1.000070128528013,158.7064295503873
6.421052416,1.0000660123184515,158.03814804647612
6.43213312,1.000059051391558,157.37011812020614
6.443213312,1.0000496023339565,156.70229966949736
6.454293504,1.0000379183889734,156.0347442361621
6.465374208,1.000025001975067,155.3675010816998
6.4764544,1.0000109797335595,154.70051336908958
6.487534592,0.9999968036766737,154.03386488575296
6.498614784,0.9999829676555658,153.36751686399845
6.509695488,0.999970342362956,152.70147362459252
6.52077568,0.9999591794635568,152.0357045271201
6.531855872,0.9999503516577205,151.37020097022335
6.542936064,0.9999441622365646,150.70492323897233
6.554016768,0.9999408707465436,150.03983854545461
6.56509696,0.9999406749568978,149.37490854172918
6.576177152,0.9999435266633572,148.7101004423038
6.587257856,0.9999492906819442,148.04538398304712
6.598338048,0.9999577503274366,147.38070503570026
6.60941824,0.9999685222888522,146.71603840503428
6.620498432,0.9999811441232542,146.05137112908918
6.631579136,0.9999949315440324,145.3866348086111
6.642659328,1.0000090787314126,144.72192004547304
6.65373952,1.0000232324796474,144.05712683212442
6.664819712,1.0000366366691393,143.39228755037465
6.675900416,1.0000484663040246,142.72743997134452
6.686980608,1.0000584384293238,142.06259836542588
6.6980608,1.000065895128256,141.39779542884534
6.709141504,1.0000705098081606,140.73303563658996
6.720221696,1.0000721969156998,140.0683842793852
6.731301888,1.0000707134825904,139.40384381465176
6.74238208,1.0000661682442615,138.73948488982444
6.753462784,1.0000587685715314,138.07534167365412
6.764542976,1.0000488420142704,137.41144859606337
6.775623168,1.0000370048469036,136.74784051342786
6.78670336,1.000023602279742,136.08451810582446
6.797784064,1.0000093826739826,135.42149749082338
6.808864256,0.9999950203480813,134.7587897237714
6.819944448,0.9999811646034287,134.0963982105393
6.831025152,0.9999683641714665,133.43431852044154
6.842105344,0.9999575037974638,132.7725293566019
6.853185536,0.9999488244359263,132.11097628382143
6.864265728,0.9999428684887377,131.44966477304152
6.875346432,0.9999399019844807,130.788537856582
6.886426624,0.9999400271788657,130.1275845588068
6.897506816,0.9999432857736479,129.46672606617048
6.908587008,0.9999494272432435,128.80597400338758
6.919667712,0.9999583142048312,128.1452333075286
6.930747904,0.9999695112352334,127.48452771890555
6.941828096,0.9999823587725813,126.82380261306601
6.9529088,0.9999963847958963,126.16303727485526
6.963988992,1.0000108333875177,125.50223391296164
6.975069184,1.0000251941085447,124.84139047977321
6.986149376,1.000038528832165,124.18051130025837
6.99723008,1.0000504237867451,123.51960203907791
7.008310272,1.000060103259392,122.85870007843435
7.019390464,1.0000673854162159,122.19780943207626
7.030471168,1.0000717205936343,121.53700584453988
7.04155136,1.000073042996166,120.87628455589419
7.052631552,1.0000711409704008,120.21571613439951
7.063711744,1.000066120755199,119.55532049494964
7.074792448,1.0000583438633097,118.8951340609382
7.08587264,1.0000480697591532,118.2351959342125
7.096952832,1.0000357821885268,117.57553201438982
7.108033024,1.0000221520861263,116.91618026209477
7.119113728,1.0000075931876207,116.25711791704029
7.13019392,0.9999930876124964,115.59838366734401
7.141274112,0.9999791067633295,114.93995406993426
7.152354816,0.9999664227531544,114.2818368961331
7.163435008,0.9999555130406478,113.62397255045921
7.1745152,0.9999470454653081,112.96637696572193
7.185595392,0.9999413845996125,112.30901169960428
7.196676096,0.9999386561150244,111.65183055148506
7.207756288,0.9999391980731194,110.99477814535678
7.21883648,0.9999429079951307,110.33783560534309
7.229916672,0.9999495113405082,109.68097652389613
7.240997376,0.9999588002235057,109.02414194652602
7.252077568,0.9999703248686582,108.3673118335575
7.26315776,0.9999836140702608,107.71043848785861
7.274238464,0.9999979247149997,107.05354601912036
7.285318656,1.0000126333096158,106.3965898341031
7.296398848,1.0000270009579662,105.73958439323543
7.30747904,1.000040436361341,105.08252703784937
7.318559744,1.000052204339744,104.42542596304116
7.329639936,1.0000618727579553,103.76834956538426
7.340720128,1.0000688743587471,103.11128958694376
7.35180032,1.0000729260557117,102.45428148326644
7.362881024,1.0000737614930357,101.79736091550882
7.373961216,1.0000714919645421,101.14058067061715
7.385041408,1.0000660358907878,100.48399090550458
7.396122112,1.000057811653078,99.8275866974669
7.407202304,1.0000470918927378,99.17144684400058
7.418282496,1.000034416376434,98.51557718204934
7.429362688,1.0000203986204648,97.8599757623465
7.440443392,1.0000056324347,97.20469581225682
7.451523584,0.9999908667226785,96.54972040794354
7.462603776,0.9999768521423753,95.89503822290563
7.473683968,0.9999642034220305,95.24067251385604
7.484764672,0.9999534867153578,94.58655333632706
7.495844864,0.9999452193672393,93.93268813252394
7.506925056,0.9999398341134696,93.27902278891119
7.51800576,0.999937464906993,92.62554362131048
7.529085952,0.9999383767217495,91.97216412240732
7.540166144,0.9999424464918234,91.31888503964024
7.551246336,0.9999495261847031,90.66565733683012
7.56232704,0.9999594328475228,90.0124508811723
7.573407232,0.9999713416370304,89.3592129178527
7.584487424,0.9999849729170155,88.70593645054345
7.595567616,0.9999995668457987,88.05260261137201
7.60664832,1.0000145268408636,87.39920994775036
7.617728512,1.000029034713641,86.74572311771564
7.628808704,1.0000424727005284,86.09219688029478
7.639889408,1.0000542479744174,85.43862277494684
7.6509696,1.00006369353952,84.78503048144884
7.662049792,1.0000703994739026,84.13144833380943
7.673129984,1.0000741802836877,83.47792075157297
7.684210688,1.0000745948962102,82.82447383944826
7.69529088,1.000071869098279,82.17116398028983
7.706371072,1.0000660320653025,81.51798317048309
7.717451776,1.0000572407367052,80.86504549143653
7.728531968,1.000046059179005,80.21231379416581
7.73961216,1.0000329424228163,79.55986504599615
7.750692352,1.0000185923219786,78.90768201901028
7.761773056,1.0000036436896214,78.2558002312503
7.772853248,0.9999886929193724,77.60420730834548
7.78393344,0.9999745342201416,76.95290238779015
7.795013632,0.9999618529986354,76.30186537761213
7.806094336,0.9999512369904864,75.65111376781964
7.817174528,0.9999431818594768,75.00053497957104
7.82825472,0.9999381610918715,74.35017689867078
7.839335424,0.9999361358385659,73.69994760567961
7.850415616,0.9999375286858049,73.04984351613325
7.861495808,0.9999421570317835,72.39978873117178
7.872576,0.999949737579413,71.74977612172512
7.883656704,0.9999599782044324,71.09973465927467
7.894736896,0.9999723648235661,70.44967600754477
7.905817088,0.9999863959138422,69.79952569179348
7.91689728,1.0000013464136805,69.14931536335345
7.927977984,1.0000164880611377,68.49899476671565
7.939058176,1.0000311631425025,67.84859573841712
7.950138368,1.0000446171927826,67.19811175825869
7.961219072,1.0000563509478553,66.54757625054137
7.972299264,1.0000655986167286,65.89699121364781
7.983379456,1.0000720625674366,65.2464183470925
7.994459648,1.0000754282298403,64.59587261041465
8.005540352,1.0000754325845194,63.9453818273905
8.016620544,1.000072222415438,63.295028168118094
8.027700736,1.0000658018659256,62.64480402660194
8.038780928,1.0000565528584895,61.994783424389915
8.049861632,1.000044885293101,61.344959137803365
8.060941824,1.000031362933775,60.695412759014836
8.072022016,1.0000165548409496,60.04611607857478
8.08310272,1.0000012229304076,59.39708467059977
8.094182912,0.9999861746937724,58.74834887450901
8.105263104,0.9999719540364032,58.09989716485849
8.116343296,0.9999592889400192,57.45165168166185
8.127424,0.9999488236527597,56.803666507791924
8.138504192,0.9999409841771598,56.15588856735854
8.149584384,0.9999362266229443,55.50825376786981
8.160664576,0.9999347235843125,54.86074910963902
8.17174528,0.9999365494172661,54.213328759707075
8.182825472,0.9999416694687312,53.56594586059973
8.193905664,0.9999497023894215,52.91855890879712
8.204986368,0.9999605687380623,52.27113797278076
8.21606656,0.9999734042842506,51.62361685629837
8.227146752,0.9999878165098216,50.976048329420735
8.238226944,1.000003144154763,50.32832751935541
8.249307648,1.0000186144953143,49.680518255310524
8.26038784,1.000033387731153,49.03257811526734
8.271468032,1.0000468994501197,48.38454862801346
8.282548224,1.000058419363885,47.73643135836011
8.293628928,1.00006759480456,47.08825163323372
8.30470912,1.0000737888773132,46.440048610327736
8.315789312,1.000076695633482,45.79186182450346
8.326870016,1.0000762540265224,45.14372267696626
8.337950208,1.0000724831614913,44.495679356720814
8.3490304,1.0000655136910874,43.84778029923391
8.360110592,1.0000557338102838,43.2000386490833
8.371191296,1.0000435470461242,42.55252192744173
8.382271488,1.0000294955094287,41.905209965228494
8.39335168,1.0000144066616687,41.25816509379475
8.404432384,0.9999987561274919,40.61134894091117
8.415512576,0.9999834489159539,39.964811510655096
8.426592768,0.9999690856473651,39.3185286502791
8.43767296,0.9999564560033125,38.67246942433603
8.448753664,0.9999461542876249,38.026601258242856
8.459833856,0.9999385289258571,37.38093029033623
8.470914048,0.9999341991524299,36.7353660451822
8.48199424,0.9999330933757099,36.08990597337842
8.493074944,0.999935448580814,35.44449661475375
8.504155136,0.9999410663126509,34.79908286736067
8.515235328,0.9999497339144963,34.15364800962817
8.526316032,0.9999611241784186,33.5081463154552
8.537396224,0.9999745848142296,32.86253185105684
8.548476416,0.9999893759955293,32.21681741856173
8.559556608,1.0000050975209813,31.570936847292238
8.570637312,1.0000208229143586,30.92492181040999
8.581717504,1.0000357825768758,30.278739475701457
8.592797696,1.0000493095787935,29.632454028994086
8.6038784,1.0000607700342843,28.98604650182718
8.61495808,1.0000696741175592,28.33956926591122
8.626038784,1.0000754791182602,27.69305189924683
8.637119488,1.0000780517006622,27.04650547189163
8.648199168,1.000077121429179,26.400004772281495
8.659279872,1.0000728218821546,25.753563122580108
8.670360576,1.0000653127474273,25.10724927680917
8.681440256,1.0000548877646405,24.46110075423996
8.69252096,1.000042163593889,23.815111056803126
8.70360064,1.000027668329497,23.169360809988778
8.714681344,1.0000119894811463,22.52381783290575
8.725762048,0.999996066718414,21.878509951728592
8.736841728,0.999980504386854,21.233452165505376
8.747922432,0.9999660802727554,20.58859483257666
8.759003136,0.9999534618248753,19.943969569500148
8.770082816,0.9999432745790823,19.29949589024439
8.78116352,0.9999360200101256,18.655193957583435
8.792244224,0.9999319686851854,18.010961568299457
8.803323904,0.9999314099858794,17.36681450510085
8.814404608,0.9999343296652619,16.722668904997136
8.825484288,0.999940531632745,16.078517670681535
8.836564992,0.9999498335635733,15.434267811251885
8.847645696,0.9999617884036832,14.789956170911422
8.858725376,0.9999757682011509,14.145475054590882
8.86980608,0.9999911371652502,13.500842634256259
8.880886784,1.0000072892859744,12.856043873787137
8.891966464,1.0000231872934584,12.211045513399895
8.903047168,1.000038391075765,11.565907433401431
8.914127872,1.0000519359372115,10.920587206430506
8.925207552,1.000063369163353,10.275138770337433
8.936288256,1.000072018550771,9.629601545107763
8.947367936,1.0000774824326404,8.983975616246374
8.95844864,1.0000795425747862,8.338315190642183
8.969529344,1.000078124761829,7.692684276604556
8.980609024,1.0000731672192564,7.047100886416852
8.991689728,1.0000650264262234,6.40159886826508
9.002770432,1.0000540108178566,5.756245619263539
9.013850112,1.000040648375694,5.1110658697680575
9.024930816,1.0000255254373835,4.466068674439737
9.03601152,1.0000094698943987,3.821288508466554
9.0470912,0.9999931356576843,3.1766902545160094
9.058171904,0.9999773832556557,2.532339918409645
9.069251584,0.9999628061508572,1.8881676039008541
9.080332288,0.999950243019641,1.2441769308230686
9.091412992,0.9999402705731155,0.6003443247307274
9.102492672,0.9999333505559809,-0.043377951553196625
9.113573376,0.9999296689137508,-0.6870311750918449
9.12465408,0.9999296153429207,-1.330671368497369
9.13573376,0.9999331576580407,-1.9742957395847998
9.146814464,0.9999399779635979,-2.618011426055068
9.157895168,0.9999500109234313,-3.2618088712587676
9.168974848,0.9999626060063554,-3.9057567223336394
9.180055552,0.9999771364155358,-4.5498701952398095
9.191135232,0.99999312393364,-5.194185613647337
9.202215936,1.0000095729745668,-5.838711386473197
9.21329664,1.0000258823030044,-6.483419526132572
9.22437632,1.0000412045042413,-7.128353256188905
9.235457024,1.0000547808650706,-7.773461512837364
9.246537728,1.0000661115038911,-8.41872423035379
9.257617408,1.000074506941506,-9.06413158026652
9.268698112,1.000079630692776,-9.709640341619092
9.279778816,1.0000811738511768,-10.355195327419848
9.290858496,1.0000791865489864,-11.000741057026605
9.3019392,1.0000735673144152,-11.646264885526753
9.31301888,1.0000647261975737,-12.291704017235137
9.324099584,1.000053065509228,-12.937040243737819
9.335180288,1.000039028852948,-13.582213724496356
9.346259968,1.0000233838367005,-14.227209733457563
9.357340672,1.0000068139074707,-14.872052923175367
9.368421376,0.999990144224492,-15.516667253104034
9.379501056,0.9999740824882177,-16.161101373075976
9.39058176,0.9999593657758059,-16.805367920004883
9.401662464,0.9999468748172251,-17.449481976016816
9.412742144,0.9999370418532626,-18.093477148988487
9.423822848,0.999930384689064,-18.73736636420712
9.434903552,0.9999273098496911,-19.381246572689545
9.445983232,0.99992775557736,-20.025130161125823
9.457063936,0.9999319217649278,-20.66903125091764
9.468143616,0.9999394411990551,-21.313040247742748
9.47922432,0.9999501682418422,-21.95719869794473
9.490305024,0.9999633737229132,-22.60152784518194
9.501384704,0.9999786255452775,-23.246064152900917
9.512465408,0.9999951435046457,-23.890832134340958
9.523546112,1.000012033464611,-24.535835321324157
9.534625792,1.000028671721073,-25.181074031554687
9.545706496,1.000044170924375,-25.826528830924786
9.5567872,1.0000578246342873,-26.47222251559248
9.56786688,1.0000689652835457,-27.118086710043308
9.578947584,1.0000770903061245,-27.764117339214987
9.590027264,1.0000817749498672,-28.410250486910865
9.601107968,1.000082800856201,-29.05645186521475
9.612188672,1.000080162473281,-29.702706935559743
9.623268352,1.0000739240528014,-30.348902923191204
9.634349056,1.0000643703558196,-30.99505112350264
9.64542976,1.0000519200444884,-31.641116873154385
9.65650944,1.0000372903732742,-32.28703174056305
9.667590144,1.0000209590572064,-32.932804850503636
9.678670848,1.0000037911502708,-33.57840425634936
9.689750528,0.9999867332578766,-34.22384866980556
9.700831232,0.999970477893392,-34.869097691118576
9.711910912,0.9999556897144715,-35.514204719416696
9.722991616,0.9999431799849657,-36.159161267338504
9.73407232,0.9999336169345359,-36.804055701115836
9.745152,0.9999273522463004,-37.448896204151694
9.756232704,0.999924673081408,-38.09369692193987
9.767313408,0.9999257915966347,-38.73855337924691
9.778393088,0.9999306611787274,-39.38350046964659
9.789473792,0.9999388898778385,-40.028559342959056
9.800554496,0.9999503294400166,-40.673794452736324
9.811634176,0.999964373495577,-41.31922291423728
9.82271488,0.9999802027522038,-41.96491127415957
9.83379456,0.9999972944611628,-42.610863700852114
9.844875264,1.0000147342351606,-43.25708768490681
9.855955968,1.0000317372894538,-43.90355722753813
9.867035648,1.0000473095741282,-44.55028233063808
9.878116352,1.0000610796629474,-45.19725392354682
9.889197056,1.000072098443814,-45.84444285770205
9.900276736,1.000079830129487,-46.49180025298408
9.91135744,1.000084066000311,-47.13928525487572
9.922438144,1.0000845987541351,-47.786869660247966
9.933517824,1.0000812682871003,-48.43448934717927
9.944598528,1.0000742561717748,-49.082105672659615
9.955678208,1.00006396008874,-49.729688013872114
9.966758912,1.0000507392408533,-50.37715620899693
9.977839616,1.0000353365765904,-51.02452105618086
9.988919296,1.0000184336364397,-51.67174550696753
10.0,1.0000008383292924,-52.31881132637103
10.011080704,0.9999833131522157,-52.96572746830923
10.022160384,0.9999667167394398,-53.61249255822228
10.033241088,0.9999518960891005,-54.259119974681155
10.044321792,0.9999396139165977,-54.905651012866024
10.055401472,0.9999300942774565,-55.55209889852193
10.066482176,0.999924299411268,-56.19852934649005
10.077561856,0.9999222156519821,-56.84497574985644
10.08864256,0.9999239748430943,-57.49147232216181
10.099723264,0.9999294843852485,-58.138100777102395
10.110802944,0.9999386162617612,-58.78487220505066
10.121883648,0.9999507553252842,-59.43186510550668
10.132964352,0.9999655312826955,-60.0790853642453
10.144044032,0.9999820944529011,-60.726560143552135
10.155124736,0.9999997785919316,-61.374336165895436
10.16620544,1.0000177102205028,-62.022406760619646
10.17728512,1.0000349015139045,-62.67077076241641
10.188365824,1.0000507614640317,-63.31942070634334
10.199445504,1.0000644585626313,-63.96832201666822
10.210526208,1.0000753250069827,-64.61746520312333
10.221606912,1.000082775323633,-65.26679670186296
10.232686592,1.00008659282159,-65.9162682217463
10.243767296,1.0000863896481538,-66.56583869761899
10.254848,1.000082356613896,-67.21547042400108
10.26592768,1.000074570473131,-67.86510721724882
10.277008384,1.0000634877267212,-68.51470278401547
10.288089088,1.000049503507253,-69.16422966324957
10.299168768,1.0000333397932746,-69.81364163770499
10.310249472,1.000015682072717,-70.46291815278227
10.321329152,0.9999975373808092,-71.11205100658992
10.332409856,0.9999796352241038,-71.76105148479158
10.34349056,0.9999628230741902,-72.40990609348496
10.35457024,0.9999478491316133,-73.05864778013128
10.365650944,0.9999355554331542,-73.7072910570389
10.376731648,0.9999264427004744,-74.35591724341846
10.387811328,0.9999209673470094,-75.00450760405923
10.398892032,0.9999194136060688,-75.65314324261132
10.409972736,0.9999217918993215,-76.30187975220215
10.421052416,0.9999280724340668,-76.95072972422389
10.43213312,0.9999379506383249,-77.59979254361666
10.4432128,0.999951020828961,-78.24908013960264
10.454293504,0.9999664603244885,-78.89863757323306
10.465374208,0.99998381911296,-79.54847859527818
