freq,mag,phase
6.0,1.0004749897984238,-48.78898149333273
6.003111424,1.0005305821724175,-48.93335710886716
6.00622336,1.0005547045702734,-49.07832263796277
6.009334784,1.0005448682030904,-49.223441251872956
6.01244672,1.0005013968417462,-49.36816332092934
6.015558144,1.0004271153900972,-49.51213780925582
6.018669568,1.0003265152405907,-49.65480030588276
6.021781504,1.000206033960009,-49.795968499781154
6.024892928,1.0000728636749692,-49.935275312353916
6.028004864,0.9999357345633305,-50.072670858335236
6.031116288,0.9998025320372992,-50.20815802379997
6.034227712,0.9996823316132084,-50.34181392685489
6.037339648,0.9995822071242506,-50.47394769822025
6.040451072,0.9995085315562174,-50.60482064433584
6.043563008,0.9994658279057235,-50.734915545649876
6.046674432,0.9994568017614622,-50.8646246070651
6.049785856,0.9994819709619243,-50.994498026380185
6.052897792,0.9995400057919511,-51.124934771478394
6.056009216,0.9996269943407807,-51.256457888036714
6.059121152,0.9997378887010082,-51.389444431276026
6.062232576,0.9998652639864741,-51.524241179160626
6.065344,1.0000016889245382,-51.660895132624624
6.068455936,1.0001384069348933,-51.79954906812963
6.07156736,1.0002670290368196,-51.940170661438216
6.074679296,1.0003791833714015,-52.08248664047749
6.07779072,1.000468573630377,-52.226322929111674
6.080902144,1.0005288385609308,-52.37130523356329
6.08401408,1.0005565602793225,-52.51691154368687
6.087125504,1.0005502455359052,-52.66268447860998
6.09023744,1.000509823553112,-52.80813873884314
6.093348864,1.000438246558119,-52.95280795323865
6.096460288,1.0003396819576595,-53.09631805210224
6.099572224,1.0002201013485894,-53.23824012675911
6.102683648,1.000087317170814,-53.37838888078337
6.105795584,0.9999492933177418,-53.51659474454961
6.108907008,0.9998148239071225,-53.652893471799395
6.112018432,0.9996923600404988,-53.78734354011373
6.115130368,0.9995893365600571,-53.92023073589821
6.118241792,0.9995121674554489,-54.051805292611284
6.121353728,0.9994658232438065,-54.18251406600604
6.124465152,0.999453207056679,-54.312784916680116
6.127576576,0.9994749554137928,-54.44316698535315
6.130688512,0.999530066125886,-54.5741595727921
6.133799936,0.9996147071810901,-54.70616094571134
6.136911872,0.9997239983881374,-54.83958463979986
6.140023296,0.9998506012028503,-54.974719881320205
6.14313472,0.9999873482856473,-55.11180192426128
6.146246656,1.0001250114018847,-55.25087806780577
6.14935808,1.0002555524462193,-55.39192700094958
6.152470016,1.000370433611659,-55.53473852340193
6.15558144,1.0004627534603812,-55.67910677906087
6.158692864,1.0005267560105116,-55.824566674872514
6.1618048,1.0005580444585243,-55.97079081201493
6.164916224,1.0005550874888154,-56.117205256778966
6.16802816,1.0005183142099667,-56.26341041874728
6.171139584,1.0004493987498535,-56.408843423620276
6.17425152,1.000352687217782,-56.5531023390214
6.177362944,1.000234433190828,-56.69587724627158
6.180474368,1.000102187612753,-56.836823255430204
6.183586304,0.9999635064902824,-56.97589864197977
6.186697728,0.9998275332769342,-57.11294137026746
6.189809664,0.9997026299465328,-57.24819904184939
6.192921088,0.9995966683659854,-57.38179792834334
6.196032512,0.999516075658263,-57.51404969205702
6.199144448,0.9994662302874789,-57.64540081098642
6.202255872,0.9994500618358697,-57.77631307716603
6.205367808,0.999468401741373,-57.90723326752761
6.208479232,0.9995202718997426,-58.038677320416355
6.211590656,0.9996024519769328,-58.17114308452629
6.214702592,0.99970985553325,-58.304972528928495
6.217814016,0.999835919861364,-58.440516143834664
6.220925952,0.9999724421942625,-58.57801206459479
6.224037376,1.0001113178269405,-58.71746086968802
6.2271488,1.0002435342568037,-58.85890790629943
6.230260736,1.0003611045103067,-59.00222751526402
6.23337216,1.000456545860642,-59.1470424135534
6.236484096,1.000523955630924,-59.293095540923744
6.23959552,1.0005593463133078,-59.4398629717879
6.242706944,1.0005601348380257,-59.58698063964969
6.24581888,1.0005263711929295,-59.733848319187906
6.248930304,1.000460277256394,-59.880028282357834
6.25204224,1.0003657342472092,-60.025065797315385
6.255153664,1.0002489641285115,-60.168632251114886
6.258265088,1.0001169008935307,-60.31040053245239
6.261377024,0.999977834408481,-60.45026364387237
6.264488448,0.9998403839192713,-60.58815811107239
6.267600384,0.9997133427645986,-60.72419961129943
6.270711808,0.9996046673277308,-60.85848924322698
6.273823232,0.9995206190055937,-60.991456249541606
6.276935168,0.9994670577462698,-61.12344160804255
6.280046592,0.9994469589269104,-61.254934503908444
6.283158528,0.9994616937023441,-61.38638559232468
6.286269952,0.9995104185815148,-61.518371893477806
6.289381376,0.9995902338640162,-61.65123143412931
6.292493312,0.999695852180002,-61.785470686632976
6.295604736,0.9998208095578419,-61.921414822227135
6.298716672,0.9999573664849039,-62.059295647225376
6.301828096,1.0000970929983763,-62.19917244180418
6.30493952,1.0002312569805998,-62.34101871417033
6.308051456,1.00035122372804,-62.48475053092285
6.31116288,1.0004499066475634,-62.630072094380175
6.314274816,1.0005209870139031,-62.776601048395136
6.31738624,1.0005601078869257,-62.924024263303444
6.320497664,1.0005643810976945,-63.071738934763594
6.3236096,1.0005342905363637,-63.21930209355795
6.326721024,1.0004711466835834,-63.36620486927644
6.32983296,1.000378942002606,-63.51202420470731
6.332944384,1.000263488679164,-63.65637670165921
6.336055808,1.0001318723151404,-63.7989434245514
6.339167744,0.9999924581527606,-63.93966455171481
6.342279168,0.9998539504217022,-64.07834068578107
6.345391104,0.9997246882079762,-64.21509767726828
6.348502528,0.9996128391021889,-64.35021444923875
6.351613952,0.9995255530840248,-64.48383998798897
6.354725888,0.9994681913359059,-64.61648250705892
6.357837312,0.9994443291076196,-64.74853850308594
6.360949248,0.9994554815863638,-64.88054184157606
6.364060672,0.9995008701073161,-65.0129544433317
6.367172096,0.9995778964016557,-65.14628607379495
6.370284032,0.9996816592317331,-65.28092818770733
6.373395456,0.9998055505466718,-65.4172750051015
6.376507392,0.9999421555086785,-65.55550422444267
6.379618816,1.0000826596977748,-65.69573037665765
6.38273024,1.000218416288372,-65.837996096697
6.385842176,1.0003410410340068,-65.98217414790396
6.3889536,1.0004429299002189,-66.12792933010307
6.392065536,1.0005175657909848,-66.27501972062562
6.39517696,1.0005604794118883,-66.42296746906406
6.398288384,1.0005686557171087,-66.57131731727328
6.40140032,1.0005419485915878,-66.71955121625739
6.404511744,1.000481816099619,-66.8671927551792
6.40762368,1.0003920968700701,-67.01379845400966
6.410735104,1.000278131216287,-67.15889186543409
6.413846528,1.000147368901573,-67.30231202523562
6.416958464,1.00000754712153,-67.44377881280576
6.420069888,0.9998676786399712,-67.5832806251595
6.423181824,0.999736319534448,-67.72082872481822
6.426293248,0.9996216892183115,-67.85663192919904
6.429404672,0.9995309110021411,-67.99097352000689
6.432516608,0.9994697485457809,-68.12427013551711
6.435628032,0.9994420750661708,-68.25687605106795
6.438739968,0.9994494688293112,-68.38940075414435
6.441851392,0.9994916118215409,-68.5223050794539
6.444962816,0.9995658740029952,-68.65607161102561
6.448074752,0.9996675384510145,-68.79113586730733
6.451186176,0.9997902946924482,-68.92780356672351
6.454298112,0.9999266630130356,-69.06640428547402
6.457409536,1.0000678026436696,-69.20704328904893
6.46052096,1.0002053989929565,-69.34965734139651
6.463632896,1.000330492348453,-69.49419808761922
6.46674432,1.0004355852226114,-69.6404844317811
6.469856256,1.0005138248282424,-69.78801776717984
6.47296768,1.0005604383319922,-69.93655098491489
6.476079104,1.0005725872924491,-70.08550724602321
6.47919104,1.0005494329421991,-70.23442020574805
6.482302464,1.0004925919929977,-70.38278168083454
6.4854144,1.000405254234667,-70.53008892401117
6.488525824,1.000293103284613,-70.67600283390321
6.491637248,1.0001629277736395,-70.8202381607135
6.494749184,1.0000229598197978,-70.96248788798847
6.497860608,0.9998818895020741,-71.10277663368542
6.500972544,0.9997483525280358,-71.24108134088502
6.504083968,0.9996309034443359,-71.37763395541742
6.507195392,0.9995367440454039,-71.51265321095424
6.510307328,0.9994718202535393,-71.64658874680762
6.513418752,0.9994401677044383,-71.77978504733434
6.516530688,0.9994436902899816,-71.91282579921375
6.519642112,0.9994823844256906,-72.04619364125757
6.522754048,0.9995537006089021,-72.18039269919248
6.525865472,0.9996531734041548,-72.31583786425286
6.528976896,0.9997747541595285,-72.45289464357775
6.532088832,0.9999107250914797,-72.59181446394294
6.535200256,1.0000526594957106,-72.73279641373877
6.538312192,1.0001918905440679,-72.87577129967217
6.541423616,1.0003194080109505,-73.02072624110234
6.54453504,1.0004275911045084,-73.16742637970194
6.547646976,1.0005094669750032,-73.31546284281042
6.5507584,1.0005600594617314,-73.46453590541267
6.553870336,1.0005761592898228,-73.6140791712102
6.55698176,1.0005566545001934,-73.76363263398257
6.560093184,1.0005030367254528,-73.9126588226213
6.56320512,1.000418467258358,-74.06072445676945
6.566316544,1.0003079859728035,-74.20741158868569
6.56942848,1.0001787459481897,-74.35240846278964
6.572539904,1.000038521764932,-74.49548923724315
6.575651328,0.9998963905348922,-74.63654355024666
6.578763264,0.9997607827804753,-74.77564059577293
6.581874688,0.9996405213373812,-74.91290908922895
6.584986624,0.9995430671756055,-75.04859855929575
6.588098048,0.9994742323338935,-75.18317467974721
6.591209472,0.9994386468015637,-75.31693120101092
6.594321408,0.9994382115806434,-75.45050125661194
6.597432832,0.999473374707385,-75.58435647457671
6.600544768,0.999541608724595,-75.71896324633799
6.603656192,0.9996388640541737,-75.85476156383014
6.606767616,0.9997590045172924,-75.9921535740451
6.609879552,0.9998947418988929,-76.13138640957791
6.612990976,1.000037208008413,-76.2727181204267
6.616102912,1.000177779242711,-76.41607442047622
6.619214336,1.0003079011917524,-76.56139679231529
6.62232576,1.0004189361298488,-76.70851685097435
6.625437696,1.0005046552647916,-76.85701940250028
6.62854912,1.0005592063242126,-77.00657901725421
6.631661056,1.0005791968206796,-77.1567328211417
6.63477248,1.00056354406514,-77.30689278890407
6.637883904,1.000513257023756,-77.45662812999682
6.64099584,1.0004313520116794,-77.60540863428581
6.644107264,1.000322837068982,-77.75285893960093
6.6472192,1.0001944521436397,-77.89864076529189
6.650330624,1.0000543771249604,-78.04251692834872
6.653442048,0.9999110743247202,-78.18435721339785
6.656553984,0.9997737009510023,-78.32419965473889
6.659665408,0.9996506816540826,-78.46216608188375
6.662777344,0.9995496879498971,-78.59857741736556
6.665888768,0.99947723445477,-78.73371501681204
6.669000192,0.999437407871647,-78.86810065127361
6.672112128,0.9994330296974167,-79.00216941320807
6.675223552,0.999464529741779,-79.13643831212364
6.678335488,0.9995297832853507,-79.27143361566995
6.681446912,0.9996244939326936,-79.40761308580517
6.684558336,0.9997431059755169,-79.54536241880102
6.687670272,0.9998782686177977,-79.68493167462918
6.690781696,1.0000212745788495,-79.82655858055388
6.693893632,1.000163324397331,-79.97027528451426
6.697005056,1.0002957522642617,-80.11593918380518
6.70011648,1.000410101624657,-80.2634368733554
6.703228416,1.0004993690450747,-80.41238713354063
6.70633984,1.0005579073119333,-80.56246408838106
6.709451776,1.0005819401574254,-80.71315616716623
6.7125632,1.000570320318391,-80.86397336318763
6.715674624,1.0005234012665993,-81.01437432654932
6.71878656,1.000444271397192,-81.16386160175462
6.721897984,1.0003378239349654,-81.31206095816016
6.72500992,1.0002105334000118,-81.45858661861574
6.728121344,1.000070511670036,-81.6032519681276
6.731232768,0.9999263031764808,-81.7458726671363
6.734344704,0.9997869997492949,-81.88646321020813
6.737456128,0.9996612378744407,-82.02512322804972
6.740568064,0.9995568776406469,-82.16220434349687
6.743679488,0.9994805120746525,-82.2979800393004
6.746790912,0.9994366977856977,-82.4328933080427
6.749902848,0.9994283706285292,-82.56746956553108
6.753014272,0.9994560457297056,-82.70219881746
6.756126208,0.9995179145763381,-82.83762657334836
6.759237632,0.9996102692236922,-82.97413570773521
6.762349056,0.999727335073311,-83.11218250707869
6.765460992,0.9998615975959603,-83.25208989161872
6.768572416,1.0000051150667588,-83.39400953890919
6.771684352,1.0001486457690225,-83.53801195038484
6.774795776,1.0002832707682763,-83.68404564368625
6.7779072,1.0004006577373579,-83.83190981154254
6.781019136,1.0004934680614295,-83.98130699232348
6.78413056,1.0005561304054935,-84.13183212443658
6.787242496,1.0005842659567303,-84.2830791337129
6.79035392,1.000576651761875,-84.43443526987733
6.793465344,1.0005333155795844,-84.58551287542407
6.79657728,1.000457175175094,-84.73571957250074
6.799688704,1.0003528750468798,-84.88466441270415
6.80280064,1.000226759589674,-85.03196896153258
6.805912064,1.0000870121895695,-85.17733734249317
6.809023488,0.9999419335506387,-85.32072801890871
6.812135424,0.9998007067848217,-85.46205869799775
6.815246848,0.999672373554437,-85.60147291117401
6.818358784,0.9995645702327631,-85.739200349558
6.821470208,0.9994842942198534,-85.87558037149721
6.824581632,0.9994363994041693,-86.01108940426492
6.827693568,0.9994239097827627,-86.14614956921844
6.830804992,0.9994476503831317,-86.28128685684759
6.833916928,0.9995062600721984,-86.41708557051109
6.837028352,0.9995959234659408,-86.5539454375576
6.840139776,0.9997112631217199,-86.69228652169325
6.843251712,0.9998448920021002,-86.8324633006079
6.846363136,0.9999886190275705,-86.97467537943777
6.849475072,1.0001333735574383,-87.11894959294071
6.852586496,1.000270333702929,-87.26531696566467
6.85569792,1.0003908492035047,-87.41353294460336
6.858809856,1.0004873708816124,-87.56334715013155
6.86192128,1.000553959331592,-87.7143671641674
6.865033216,1.0005864042781571,-87.86609568284426
6.86814464,1.0005827660600204,-88.01807558723974
6.871256576,1.0005430951528906,-88.16976413993908
6.874368,1.0004700164707552,-88.32063225961801
6.877479424,1.0003679562321115,-88.4702945827114
6.88059136,1.0002431893498136,-88.61833548399183
6.883702784,1.0001036497610276,-88.76448213599484
6.88681472,0.9999578888148575,-88.90861132529764
6.889926144,0.9998149485405737,-89.05068865872585
6.893037568,0.9996839655502708,-89.1907648003574
6.896149504,0.9995727797642983,-89.32916619573395
6.899260928,0.9994885871935671,-89.46613527083325
6.902372864,0.9994363873144954,-89.6021940091087
6.905484288,0.9994198479180295,-89.73773249716407
6.908595712,0.9994397154709249,-89.87331819593048
6.911707648,0.9994947450937092,-90.0094752666366
6.914819072,0.9995817500540246,-90.14664750684888
6.917931008,0.9996951186879456,-90.2853078721975
6.921042432,0.9998279896226163,-90.42576936165727
6.924153856,0.9999716913868696,-90.56823561466253
6.927265792,1.000117802610168,-90.71278594881763
6.930377216,1.0002570074197796,-90.85943271116295
6.933489152,1.0003804758415866,-91.00800772174487
6.936600576,1.0004807292974227,-91.15819958638295
6.939712,1.000551278284758,-91.30962827671561
6.942823936,1.0005880403554301,-91.46185547416377
6.94593536,1.000588489582164,-91.61438186511297
6.949047296,1.0005526203032893,-91.76669207245827
6.95215872,1.0004827485358838,-91.91822578243392
6.955270144,1.0003830838342895,-92.06856322023359
6.95838208,1.0002598337219433,-92.2173516162661
6.961493504,1.000120714726676,-92.36426367315065
6.96460544,0.9999742168533844,-92.50911652186386
6.967716864,0.9998296621844046,-92.65190186734758
6.970828288,0.9996959907227507,-92.79271544187023
6.973940224,0.9995815642439835,-92.93171305158029
6.977051648,0.9994934153940851,-93.06931603469594
6.980163584,0.9994370974958021,-93.2058804020387
6.983275008,0.9994161749367979,-93.3419153360472
6.986386432,0.9994319012486507,-93.47792052454419
6.989498368,0.9994835115196938,-93.61438395643364
6.992609792,0.9995675303085633,-93.75191093446611
6.995721728,0.9996789655864308,-93.8908507546203
6.998833152,0.9998106555886813,-94.03153825845226
7.001944576,0.9999545962165889,-94.1742596723391
7.005056512,1.000101729867742,-94.31905475774593
7.008167936,1.0002430995429534,-94.46598993067828
7.011279872,1.0003695285431393,-94.61488459321501
7.014391296,1.0004734414393284,-94.76541014302741
7.01750272,1.000548144847129,-94.91727130573553
7.020614656,1.0005891498183344,-95.06997390525723
7.02372608,1.0005938811559076,-95.22300863072033
7.026838016,1.0005618987536236,-95.37591416167487
7.02994944,1.0004953044764577,-95.52808452390137
7.033060864,1.0003981714667254,-95.67911258682062
7.0361728,1.000276557296079,-95.8286012221524
7.039284224,1.0001379639513615,-95.97622467520887
7.04239616,0.9999910016156205,-96.12182634175433
7.045507584,0.9998448053669244,-96.2653435021134
7.048619008,0.9997085897703556,-96.40681362416146
7.051730944,0.9995907719741042,-96.54649481888433
7.054842368,0.9994986220104689,-96.68467281530727
7.057954304,0.9994381769979235,-96.82173345350645
7.061065728,0.999412901592767,-96.95820191033994
7.064177152,0.9994245396973135,-97.09462573639799
7.067289088,0.9994723746434068,-97.2314839878738
7.070400512,0.9995534437312309,-97.3692900023584
7.073512448,0.9996626710011864,-97.50846393819089
7.076623872,0.9997933314150147,-97.64938609389078
7.079735296,0.9999372558913915,-97.7923356991765
7.082847232,1.0000853739656435,-97.93737730006868
7.085958656,1.0002287013953903,-98.08453611150394
7.089070592,1.0003580707224407,-98.23369512936367
7.092182016,1.0004655939997518,-98.38459154432037
7.09529344,1.0005445132773254,-98.53679538649871
7.098405376,1.0005898008805796,-98.68997157810357
7.1015168,1.0005988351170636,-98.84352034772539
7.104628736,1.0005708712884054,-98.99697427355153
7.10774016,1.0005076404505215,-99.1497908575062
7.110851584,1.0004131488448775,-99.30149740822144
7.11396352,1.000293232542617,-99.45167541079736
7.117074944,1.0001551772110648,-99.60000966749534
7.12018688,1.000007793520321,-99.74632405468469
7.123298304,0.9998602826680622,-99.890495192941
7.126409728,0.9997215553353048,-100.03265888504765
7.129521664,0.9996004709575064,-100.1729788421286
7.132633088,0.9995044306717524,-100.31169809672504
7.135745024,0.9994396174633393,-100.44932281663174
7.138856448,0.9994099475468954,-100.58622918463739
7.141967872,0.9994173702586852,-100.72302126056795
7.145079808,0.9994614027924369,-100.86019771357283
7.148191232,0.9995393935250273,-100.99829113827924
7.151303168,0.9996463543550644,-101.13771208769887
7.154414592,0.9997757769926839,-101.27885254830224
7.157526016,0.9999194523908803,-101.42200199039756
7.160637952,1.00006861868775,-101.56723310075515
7.163749376,1.0002138251139214,-101.71463023060008
7.166861312,1.0003460997704283,-101.8640597923822
7.169972736,1.0004572063444648,-102.01525287945609
7.17308416,1.000540249995101,-102.16784503084743
7.176196096,1.0005900554093652,-102.32140080952956
7.17930752,1.0006033772262637,-102.47544011167996
7.182419456,1.0005795022821298,-102.62943739092378
7.18553088,1.00051987549063,-102.78285133209819
7.188642304,1.0004281082753483,-102.93521737751863
7.19175424,1.0003101031511565,-103.08608142880477
7.194865664,1.0001728805450003,-103.2351138568006
7.1979776,1.0000252404565892,-103.38209838333196
7.201089024,0.9998762518678208,-103.52694424556488
7.204200448,0.9997349986844802,-103.6697640329922
7.207312384,0.9996106539032397,-103.81070911148943
7.210423808,0.9995108209164646,-103.94999612888256
7.213535744,0.9994415246258741,-104.08809970297683
7.216647168,0.9994075133133558,-104.22549001394704
7.219759104,0.9994106038104336,-104.36262171520113
7.222870528,0.9994507463861665,-104.500131746001
7.225981952,0.9995254393416043,-104.63847365525123
7.229093888,0.9996300773125074,-104.77812361271177
7.232205312,0.9997580462664412,-104.91946818997586
7.235317248,0.9999013912277548,-105.06275459628901
7.238428672,1.0000513635998378,-105.20818725642656
7.241540096,1.0001984451241144,-105.355793521973
7.244652032,1.0003335828366797,-105.50544507078729
7.247763456,1.0004482849859917,-105.65693550102344
