freq,mag,phase
6.0,0.9994420173013926,-151.91140612421916
6.002287616,0.9995507216247081,-152.0504381656362
6.004575232,0.9996880341785629,-152.19128286715366
6.006862848,0.9998453151692077,-152.33423620061384
6.009150464,1.0000126504733027,-152.47954547638815
6.011438592,1.000179387953185,-152.62730556480574
6.013726208,1.0003349293328199,-152.7773977667242
6.016013824,1.0004695056572133,-152.9295852683174
6.01830144,1.0005745453161345,-153.08353581819043
6.020589056,1.0006432808199788,-153.2387340732438
6.022876672,1.0006713272460657,-153.39464508003158
6.025164288,1.000657060318518,-153.5506679341981
6.027451904,1.0006012148558578,-153.70615483955865
6.029740032,1.0005073450631268,-153.86054767424284
6.032027648,1.0003813649381783,-154.01336212603894
6.034315264,1.00023130922841,-154.16416153263356
6.03660288,1.0000665158792206,-154.31268583630313
6.038890496,0.9998976450775031,-154.45877448647005
6.041178112,0.9997352750318836,-154.60243465558136
6.043465728,0.9995897685826822,-154.74384648909424
6.045753344,0.9994703685160228,-154.8833741518744
6.04804096,0.9993846770250486,-155.02137665930536
6.050329088,0.9993382455989732,-155.15839783690276
6.052616704,0.9993338938182108,-155.29505283340416
6.05490432,0.999371988193495,-155.4319390671836
6.057191936,0.9994502092809908,-155.56967488378257
6.059479552,0.9995634165426985,-155.70879447063228
6.061767168,0.9997046536053468,-155.84977784673367
6.064054784,0.9998648317026313,-155.9929489685564
6.0663424,1.00003376968507,-156.13849904455162
6.068630016,1.0002008220585565,-156.28652094081627
6.070918144,1.0003553860421193,-156.43682940809444
6.07320576,1.0004875531400994,-156.58926197363056
6.075493376,1.00058905298509,-156.74338038837004
6.077780992,1.000653478076917,-156.8986826500202
6.080068608,1.0006764610274304,-157.05464514004584
6.082356224,1.0006567589744186,-157.21062495124878
6.08464384,1.0005955564937192,-157.36600208751756
6.086931456,1.000496648050581,-157.52023317812197
6.089219584,1.0003663901539372,-157.67278677001474
6.0915072,1.0002128690581014,-157.823304184035
6.093794816,1.000045921321021,-157.9714375567076
6.096082432,0.9998761019123228,-158.11717077682286
6.098370048,0.9997141998272787,-158.26046645845867
6.100657664,0.9995704628404949,-158.401498381269
6.10294528,0.9994541367376025,-158.54067939643318
6.105232896,0.9993724546719437,-158.67837639633208
6.107520512,0.9993308031969506,-158.81520703947706
6.10980864,0.9993317579072147,-158.95171648561046
6.112096256,0.9993753720510347,-159.08856323254318
6.114383872,0.9994587171517323,-159.22628533376312
6.116671488,0.9995767156874796,-159.365501513546
6.118959104,0.9997218024696555,-159.50662583580723
6.12124672,0.9998847642848734,-159.6499593595918
6.123534336,1.000055232635877,-159.7957497061906
6.125821952,1.000222401216233,-159.9439783945176
6.128109568,1.000375810516837,-160.09453892693904
6.130397696,1.000505447447784,-160.2471468518568
6.132685312,1.000603331153411,-160.4014236601959
6.134972928,1.0006631212634685,-160.55683181019964
6.137260544,1.0006809651745208,-160.71277617176776
6.13954816,1.0006558070678595,-160.86871488967574
6.141835776,1.000589222088939,-161.0239765859142
6.144123392,1.0004853428396778,-161.17796630351899
6.146411008,1.0003507800294624,-161.3302334578188
6.148699136,1.0001940199939645,-161.4803856316098
6.150986752,1.0000249337787517,-161.62817472073246
6.153274368,0.9998543129464006,-161.77349571742317
6.155561984,0.9996930429477258,-161.91636129698156
6.1578496,0.9995513126655519,-162.0570467515551
6.160137216,0.9994380795844696,-162.19586108566085
6.162424832,0.9993606697409361,-162.33326614625844
6.164712448,0.9993239437787763,-162.46985321453775
6.167000064,0.9993302779709811,-162.60620414535452
6.169288192,0.9993793493799515,-162.74293203459442
6.171575808,0.9994680199593601,-162.88068245886288
6.173863424,0.9995906324356487,-163.01997590594945
6.17615104,0.9997394442147081,-163.16124063736055
6.178438656,0.9999050579544019,-163.3047524084528
6.180726272,1.0000768566832074,-163.45072579348346
6.183013888,1.000244140644658,-163.59917635193307
6.185301504,1.0003961314106906,-163.74992372857875
6.18758912,1.0005231312950529,-163.90272216943208
6.189877248,1.0006171443848209,-164.05710707563952
6.192164864,1.0006722559280545,-164.2125569079227
6.19445248,1.0006848974806328,-164.36852255803655
6.196740096,1.0006542714688178,-164.52436134651356
6.199027712,1.0005822739814973,-164.67943634005061
6.201315328,1.000473373187502,-164.833179230205
6.203602944,1.0003345917200333,-164.98513531473273
6.20589056,1.000174598182165,-165.13492429436565
6.208178688,1.000003567016811,-165.28231438575344
6.210466304,0.9998324295166359,-165.4272044850996
6.21275392,0.9996718102280818,-165.56964838919703
6.215041536,0.9995321972867216,-165.7099217261302
6.217329152,0.9994223546097838,-165.84834902223056
6.219616768,0.9993492234353171,-165.98544264654558
6.221904384,0.9993175902080789,-166.12180472991426
6.224192,0.9993294057893617,-166.2579613019226
6.226479616,0.9993839551251208,-166.39462504012891
6.228767744,0.9994778946044434,-166.53233049745305
6.23105536,0.9996051552108601,-166.67167284509105
6.233342976,0.9997576360557993,-166.81305384932895
6.235630592,0.9999257309190707,-166.95672516795557
6.237918208,1.0000988494025318,-167.10288102892727
6.240205824,1.0002659215148966,-167.2515285330289
6.24249344,1.0004163583060615,-167.40245056792904
6.244781056,1.0005404624659504,-167.55538649130608
6.247068672,1.0006306357324182,-167.70987132643782
6.2493568,1.0006809014540892,-167.86539657051708
6.251644416,1.0006882478177441,-168.021322381374
6.253932032,1.00065205717157,-168.17700545052395
6.256219648,1.0005746353337521,-168.33183533284154
6.258507264,1.000460821709328,-168.48534394333794
6.26079488,1.0003178590291388,-168.63695607296165
6.263082496,1.0001548358480508,-168.78635290496862
6.265370112,0.9999819234146775,-168.93330327827996
6.26765824,0.9998102693528281,-169.07773736996614
6.269945856,0.9996506771469496,-169.21973502721556
6.272233472,0.9995133424037049,-169.35956144161705
6.274521088,0.999406919492265,-169.49761240329852
6.276808704,0.9993382896395114,-169.6343824460734
6.27909632,0.9993118385099743,-169.7704514689778
6.281383936,0.9993292028897545,-169.9064367055827
6.283671552,0.9993893037153319,-170.0429859680312
6.285959168,0.9994883699756703,-170.1807135405981
6.288247296,0.9996201655047722,-170.32006289637147
6.290534912,0.9997763689053817,-170.4615176616754
6.292822528,0.9999468317210046,-170.60535013528192
6.295110144,1.0001210283021638,-170.75169223863625
6.29739776,1.0002877100423737,-170.90051944389288
6.299685376,1.0004363272727124,-171.05160439625817
6.301972992,1.0005576154296,-171.2046614183924
6.304260608,1.0006436656345714,-171.3592221820566
6.306548224,1.0006889977923474,-171.51471418507285
6.308836352,1.0006909316057595,-171.6705621072582
6.311123968,1.0006491280367156,-171.8261031859144
6.313411584,1.0005662490002085,-171.98077324695916
6.3156992,1.0004475241137871,-172.13394457448808
6.317986816,1.0003004765488943,-172.28518694307047
6.320274432,1.0001344209148961,-172.43411447095065
6.322562048,0.999959892696703,-172.58058838611467
6.324849664,0.9997879455631696,-172.72457234908728
6.327137792,0.9996294729821664,-172.86609639767514
6.329425408,0.9994945139099783,-173.00547658384372
6.331713024,0.999391903021332,-173.14313933036624
6.33400064,0.9993277977962585,-173.27953188450604
6.336288256,0.9993065345600338,-173.41535597599514
6.338575872,0.9993295329097908,-173.5511466401968
6.340863488,0.9993952500972558,-173.68755929125206
6.343151104,0.9994996273383883,-173.8252439210355
6.34543872,0.9996358354485915,-173.96466001029634
6.347726848,0.9997954577630388,-174.10619906117472
6.350014464,0.99996832666142,-174.2501695171549
6.35230208,1.0001433694294146,-174.39667959888263
6.354589696,1.0003096172040067,-174.54561758921898
6.356877312,1.0004563566047622,-174.696859846393
6.359164928,1.0005744391490032,-174.850006477426
6.361452544,1.0006562796433096,-175.00461201796196
6.36374016,1.000696630954471,-175.1600960003682
6.366027776,1.0006930097345887,-175.31583733720268
6.368315904,1.0006455528649154,-175.47122436282172
6.37060352,1.0005572236156357,-175.6255891974022
6.372891136,1.0004336329146353,-175.77842745310755
6.375178752,1.0002825589721664,-175.9292382343155
6.377466368,1.0001136526377175,-176.07777197631367
6.379753984,0.9999376356011164,-176.22374027011958
6.3820416,0.999765522590673,-176.36718851672794
6.384329216,0.9996083694717721,-176.50824203533045
6.386617344,0.9994760616291702,-176.6471403149661
6.38890496,0.999377072620396,-176.78438657144528
6.391192576,0.999317824596752,-176.92046978833343
6.393480192,0.9993019844796558,-177.05598013953167
6.395767808,0.9993306035382508,-177.19154048395004
6.398055424,0.9994019040838518,-177.32785799495147
6.40034304,0.9995114362301925,-177.4654694393031
6.402630656,0.9996521131321605,-177.60489354827882
6.404918272,0.9998152248703659,-177.74654408643923
6.4072064,0.9999902042003056,-177.89060041326348
6.409494016,1.000166043808837,-178.03724870029436
6.411781632,1.0003315438944151,-178.1863467355134
6.414069248,1.0004762167284464,-178.33772719941382
6.416356864,1.0005910472170974,-178.4909530237989
6.41864448,1.000668450269197,-178.6455495570914
6.420932096,1.000703571300757,-178.8010012668238
6.423219712,1.0006943846695946,-178.9565894792326
6.425507328,1.0006411841798621,-179.1117677738291
6.427795456,1.0005474111875419,-179.2658377379854
6.430083072,1.000419078075377,-179.4183155846397
6.432370688,1.000264250708413,-179.56873232359936
6.434658304,1.0000924496996193,-179.7167392289767
6.43694592,0.9999149736649653,-179.86223341649696
6.439233536,0.9997428695925862,179.9948553725358
6.441521152,0.9995871305199964,179.85433160728343
6.443808768,0.9994577249974254,179.71589953805065
6.446096896,0.9993626712774017,179.57910127801705
6.448384512,0.9993082898515171,179.44342209027073
6.450672128,0.999297917735627,179.30821529554183
6.452959744,0.9993323763816477,179.17283980729937
6.45524736,0.9994093745639655,179.03665769440815
6.457534976,0.9995239628774999,178.89910039395195
6.459822592,0.9996691836009373,178.7596494598039
6.462110208,0.9998354238433279,178.61793620635484
6.464397824,1.000012407774662,178.47375091808004
6.466685952,1.000188878580456,178.32701570766574
6.468973568,1.000353587803599,178.1777753300902
6.471261184,1.0004960788102508,178.0263341599414
6.4735488,1.0006072940116453,177.87305234701506
6.475836416,1.000680219796386,177.71842576142456
6.478124032,1.0007101458229462,177.56309319144538
6.480411648,1.000695233311971,177.4076020229763
6.482699264,1.0006361784882583,177.25269422599848
6.48498688,1.0005371159380527,177.0989107295865
6.487275008,1.0004039464055903,176.94683984971732
6.489562624,1.0002451264952918,176.79691322549635
6.49185024,1.0000709055846753,176.6493748318465
6.494137856,0.9998920968085213,176.50446897837628
6.496425472,0.9997201799941968,176.3620808051888
6.498713088,0.9995661507549299,176.22207799991148
6.501000704,0.9994396339709238,176.08415491112504
6.50328832,0.9993488383482443,175.94780014405097
6.505576448,0.9992994320704855,175.81250600935937
6.507864064,0.9992946753333408,175.67757382018172
6.51015168,0.9993348338916793,175.5424400158682
6.512439296,0.9994174617757643,175.40641009907128
6.514726912,0.9995372812782585,175.26892550065065
6.517014528,0.9996866319384322,175.12948346148113
6.519302144,0.9998561682201744,174.98772077276016
6.52158976,1.0000350311610013,174.84343781736152
6.523877376,1.000212049238369,174.69657366823228
6.526165504,1.0003756314084415,174.5472153154566
6.52845312,1.0005157644865585,174.39570438786592
6.530740736,1.000623321066498,174.24238390727132
6.533028352,1.000691493410096,174.0877982618563
6.535315968,1.00071606764729,173.93252021794942
6.537603584,1.0006953458879733,173.77725226672675
6.5398912,1.0006305286385822,173.62258600392778
6.542178816,1.0005260630625163,173.4691738391172
6.544466432,1.0003881168587516,173.3175330178295
6.54675456,1.0002256060205799,173.16808865022904
6.549042176,1.0000487868384826,173.02111535113667
6.551329792,0.99986890278078,172.8767239884115
6.553617408,0.999697480006069,172.73489877451823
6.555905024,0.9995451165002347,172.59548697880572
6.55819264,0.9994218309936165,172.45805944732047
6.560480256,0.999335227670041,172.32215171748857
6.562767872,0.9992910280014393,172.18726862124012
6.565056,0.9992919946929961,172.05265962835747
6.567343616,0.9993380422366697,171.91775504790598
6.569631232,0.9994263362829203,171.7818711169636
6.571918848,0.9995511667161316,171.6444557691233
6.574206464,0.9997047777580983,171.50501287566775
6.57649408,0.999877412453084,171.36321699156755
6.578781696,1.000058117509444,171.21882406795672
6.581069312,1.000235185846221,171.07185498747643
6.583356928,1.0003976484337544,170.92244963671055
6.585645056,1.0005351439631618,170.7708816949211
6.587932672,1.000638889276054,170.61752505905042
6.590220288,1.0007022327192538,170.46300756896431
6.592507904,1.000721252377794,170.30786946138608
6.59479552,1.0006946328131272,170.15279206955546
6.597083136,1.0006240672890925,169.99841915768522
6.599370752,1.0005140158905999,169.84540120582042
6.601658368,1.0003714716263798,169.6941663608072
6.603945984,1.000205337874576,169.54526413454073
6.606234112,1.0000261827796106,169.39884079236165
6.608521728,0.9998454752666899,169.25500884768925
6.610809344,0.9996744241115891,169.1138162555498
6.61309696,0.9995242942352044,168.97494291633976
6.615384576,0.9994042229880646,168.83803946040965
6.617672192,0.9993221448072055,168.7026185385646
6.619959808,0.9992831907057056,168.56811873995352
6.622247424,0.9992899319799234,168.43383834272734
6.624535552,0.999341961447595,168.2991754281535
6.626823168,0.9994359073157059,168.16345020136455
6.629110784,0.9995658418254365,168.02609397612616
6.6313984,0.9997237193076,167.8866714712134
6.633686016,0.9998992173836151,167.7448338787904
6.635973632,1.0000814139039258,167.60038468325777
6.638261248,1.0002586543914413,167.4533518763655
6.640548864,1.0004196875447486,167.30387186663594
6.64283648,1.000554462909188,167.1522281775901
6.645124608,1.0006541581867403,166.99888180055456
6.647412224,1.0007124881379998,166.8444103747699
6.64969984,1.000725952323541,166.68942808105618
6.651987456,1.0006934314796216,166.53459406733248
6.654275072,1.0006170607727127,166.38055051480418
6.656562688,1.0005015197341376,166.22793476570217
6.658850304,1.000354303844592,166.07719189156649
6.66113792,1.0001846418742926,165.92879291540018
6.663426048,1.0000032531394845,165.7829428377915
6.665713664,0.9998217574972023,165.63978243588014
6.66800128,0.9996515281994859,165.49915520295147
6.670288896,0.9995034715169077,165.36085840387574
6.672576512,0.9993869768903555,165.22449746003485
6.674864128,0.9993094992617713,165.0895961656584
6.677151744,0.9992759784367494,164.9554985699873
6.67943936,0.9992885989777205,164.8215561022571
6.681726976,0.9993466076507422,164.68712490079247
6.684015104,0.999446219969187,164.55154489408812
6.68630272,0.9995812957655374,164.41427993570215
6.688590336,0.9997431177293401,164.27489350889027
6.690877952,0.9999214936093044,164.13300826776637
6.693165568,1.000105192523858,163.98848797218866
6.695453184,1.0002823637091476,163.8413800683717
6.6977408,1.000441805059662,163.69184067753264
6.700028416,1.0005734830757103,163.54014929726463
6.702316032,1.0006689626597318,163.38685974788592
6.70460416,1.0007222628123524,163.23248391164506
6.706891776,1.000729852673122,163.0776951331662
6.709179392,1.0006913327509765,162.92309135368166
6.711467008,1.0006090396463363,162.76943530385373
6.713754624,1.0004882169355258,162.6172190095761
6.71604224,1.0003364873255194,162.46697760609055
6.718329856,1.000163257321208,162.31914969711093
6.720617472,0.9999798901384315,162.1739072927909
6.7229056,0.9997977771929996,162.03134245467263
6.725193216,0.9996284114203298,161.8913475616503
6.727480832,0.9994827829429741,161.75366204642228
6.729768448,0.9993700059314292,161.6178539359696
6.732056064,0.9992973021804799,161.48344533214106
6.73434368,0.9992693701956643,161.3497310450101
6.736631296,0.9992879744788078,161.2161616181158
6.738918912,0.9993520171503965,161.08195528494866
6.741206528,0.9994573567840924,160.94656361160983
6.743494656,0.9995974190445294,160.80939504405956
6.745782272,0.9997632903476501,160.66999602159999
6.748069888,0.9999443522137671,160.52810605218883
6.750357504,1.000129154426655,160.38352977573544
6.75264512,1.0003060984941228,160.23634806668244
6.754932736,1.0004638707628388,160.08673884476937
6.757220352,1.0005924345114197,159.93507631472906
6.759507968,1.0006834482189275,159.7818196427059
6.761795584,1.0007314447283244,159.62755432895136
6.764083712,1.0007332474257666,159.4729717889236
6.766371328,1.0006885521513216,159.3186438136713
6.768658944,1.0006004157011261,159.16534919854877
6.77094656,1.000474090686524,159.0135860323088
6.773234176,1.0003178362209362,158.86390835078106
6.775521792,1.0001415147635266,158.71665371963434
6.777809408,0.9999560020062936,158.5720379600672
6.780097024,0.9997734801651535,158.4301266478929
6.782385152,0.9996053223631967,158.29073874860148
6.784672768,0.999462208574601,158.15367524730863
6.786960384,0.9993533354505475,158.0184476245589
6.789248,0.9992856119940556,157.88449811574839
6.791535616,0.999263442216,157.75125743270974
6.793823232,0.9992880761335704,157.6180003884688
6.796110848,0.9993582483055004,157.48405456305218
6.798398464,0.9994692323598471,157.3488209269027
6.80068608,0.99961426762132,157.2117692758738
6.802974208,0.9997840056293477,157.07236996434193
6.805261824,0.9999676582385286,156.93045222687627
6.80754944,1.0001536165153628,156.78584999796342
6.809837056,1.000330105505313,156.6386068879885
6.812124672,1.000485795362938,156.48896589484542
6.814412288,1.0006109114990758,156.33732010275287
6.816699904,1.0006975564299483,156.1841331850847
6.81898752,1.0007400591819782,156.03000250273774
6.821275136,1.0007358157303912,155.87559924429334
6.823563264,1.0006851154775767,155.7216408973527
6.82585088,1.0005908583423544,155.5687218338536
6.828138496,1.000459361862805,155.41743165837627
6.830426112,1.000298628286759,155.26830466742973
6.832713728,1.0001190112581975,155.12165964029057
6.835001344,0.9999318793302222,154.97768289500613
6.83728896,0.9997490130529619,154.83640969593918
6.839576576,0.9995822051218951,154.69770479233037
6.841864704,0.9994417462580634,154.56124997533686
6.84415232,0.9993370091279435,154.42658801255982
6.846439936,0.9992744641403521,154.29318014423473
6.848727552,0.9992581634770147,154.16035643917454
6.851015168,0.9992888567937371,154.0274448212642
6.853302784,0.9993651351868641,153.89375180205633
6.8555904,0.9994819972205541,153.7586977862668
6.857878016,0.9996319270264327,153.621695397039
6.860165632,0.9998052881408668,153.48234792709857
6.86245376,0.9999914199373374,153.34040953938725
6.864741376,1.0001783426455209,153.1957535781531
6.867028992,1.000354090950132,153.0484892842567
6.869316608,1.000507681179751,152.89883205795914
6.871604224,1.000629240037136,152.74719096748288
6.87389184,1.0007110739845706,152.59407564429927
6.876179456,1.0007480514670402,152.44011208921188
6.878467072,1.000737730228014,152.28597630727702
6.880754688,1.0006807292776836,152.13233308453667
6.883042816,1.00058061235032,151.97983699548712
6.885330432,1.0004437191385507,151.82905221863578
6.887618048,1.0002786498649427,151.6804905005092
6.889905664,1.000095894241316,151.53447460380025
6.89219328,0.9999071589032769,151.39115782094427
6.894480896,0.9997243254528644,151.25056641877242
6.896768512,0.9995589411113622,151.11254915075148
6.899056128,0.9994216072796027,150.97671685955754
6.901344256,0.9993211639112507,150.84265646523633
6.903631872,0.9992636920603394,150.7097525177903
6.905919488,0.9992533226565967,150.57734367254204
6.908207104,0.999290643480847,150.44477955786797
6.91049472,0.9993730281239334,150.31133707733926
6.912782336,0.9994954299228466,150.17645680656335
6.915069952,0.9996500384513356,150.03953988872567
6.917357568,0.9998273983806086,149.90023175800283
