freq,mag,phase
6.0,0.9999713642744815,-61.11087836281525
6.007187968,0.9999795372345263,-61.406588540753894
6.014375424,0.9999891293973959,-61.702491365797
6.021563392,0.9999993685617614,-61.998500588948076
6.02875136,1.0000098207137782,-62.29473297442604
6.035938816,1.0000198465920473,-62.59107343208621
6.043126784,1.0000288776593373,-62.88752992290501
6.05031424,1.0000363311544678,-63.18415080400645
6.057502208,1.000042066570643,-63.48092097804033
6.064690176,1.000045435423581,-63.777744772901364
6.071877632,1.0000465492049315,-64.0745741561316
6.0790656,1.0000450886093164,-64.37145758842233
6.086253568,1.0000413966427513,-64.66831785216924
6.093441024,1.0000352669093433,-64.96507660339913
6.100628992,1.000027410501019,-65.26182362012953
6.10781696,1.000018165192539,-65.55847597980086
6.115004416,1.000008070347856,-65.85501246886311
6.122192384,0.999997449525925,-66.15137049889373
6.12937984,0.9999871345095266,-66.44767359382193
6.136567808,0.9999775473871606,-66.74379333662775
6.143755776,0.9999691905364444,-67.03989876317762
6.150943232,0.9999627638534722,-67.33584697725306
6.1581312,0.9999583229070691,-67.63178312755528
6.165319168,0.9999561568417293,-67.92766300730166
6.172506624,0.9999567716160482,-68.22353750870948
6.179694592,0.9999596618555389,-68.5194575612067
6.186882048,0.9999649839628868,-68.81548348729953
6.194070016,0.9999720336169763,-69.11156840660425
6.201257984,0.9999809422202502,-69.407817815828
6.20844544,0.9999910474734873,-69.7041901767019
6.215633408,1.0000015643511257,-70.00073156580645
6.222821376,1.000012244027636,-70.29743619567788
6.230008832,1.0000223187881676,-70.59425921839782
6.2371968,1.0000311898871421,-70.89126161311424
6.244384768,1.000038602277162,-71.18832377893561
6.251572224,1.000043825375811,-71.48562609675386
6.258760192,1.0000470000109085,-71.78287070149243
6.265947648,1.0000474895497957,-72.08024431775081
6.273135616,1.0000455330100781,-72.37758544947437
6.280323584,1.000041241816001,-72.67489389683777
6.28751104,1.0000346866557674,-72.97216505706889
6.294699008,1.0000262472722308,-73.26932294055256
6.301886976,1.000016634893391,-73.56640222119789
6.309074432,1.0000061260912512,-73.86336532011597
6.3162624,0.9999952866979087,-74.16020055492395
6.323450368,0.9999847299220121,-74.45692297486733
6.330637824,0.9999753297002999,-74.75351902215188
6.337825792,0.999967013672037,-75.0499773672957
6.345013248,0.9999608675642797,-75.34636947334555
6.352201216,0.9999568068101216,-75.64275765411102
6.359389184,0.9999552328007628,-75.93904197189578
6.36657664,0.999956174586403,-76.23538717454882
6.373764608,0.999959734862687,-76.53174919546656
6.380952576,0.9999654364350438,-76.82822186130426
6.388140032,0.9999732043046883,-77.12477651721413
6.395328,0.9999825086532002,-77.42146729220116
6.402515968,0.9999929700333822,-77.71833049056944
6.409703424,1.0000039233204046,-78.01531895881536
6.416891392,1.0000146255362132,-78.31250422091459
6.424078848,1.0000248500555753,-78.60983634261612
6.431266816,1.0000336461200157,-78.90729431389
6.438454784,1.000040765536895,-79.20488169348845
6.44564224,1.000045802542435,-79.502613705043
6.452830208,1.0000484176217057,-79.80035144160402
6.460018176,1.0000483681589365,-80.09816591200969
6.467205632,1.0000458771316594,-80.39595864742064
6.4743936,1.0000410207567467,-80.69369045836996
6.481581056,1.0000339756664378,-80.99143289354306
6.488769024,1.0000250066009166,-81.28903067817353
6.495956992,1.0000148305355379,-81.58652759419219
6.503144448,1.0000040861688138,-81.8838829939128
6.510332416,0.9999929859888539,-82.18112633772166
6.517520384,0.9999824123285966,-82.47820912798555
6.52470784,0.9999728410325293,-82.77520291290226
6.531895808,0.9999649214662506,-83.07210872441605
6.539083776,0.9999589177497581,-83.36887997766043
6.546271232,0.9999552276221064,-83.66567045341084
6.5534592,0.9999541869353109,-83.96237214604783
6.560646656,0.9999556304837388,-84.25917391271805
6.567834624,0.9999598499217988,-84.55595899823247
6.575022592,0.9999662051356591,-84.8528333381952
6.582210048,0.9999744471172454,-85.14986720285368
6.589398016,0.9999842816555324,-85.44700965144877
6.596585984,0.9999951579611125,-85.7443011438032
6.60377344,1.0000063744695578,-86.04177102821322
6.610961408,1.0000172854328748,-86.33940861223026
6.618149376,1.0000273221945406,-86.63718268315917
6.625336832,1.0000361474717867,-86.93512162150171
6.6325248,1.0000429264010164,-87.2331479086878
6.639712256,1.000047706991401,-87.53132104220782
6.646900224,1.000049853186003,-87.82950329976484
6.654088192,1.0000493540964481,-88.12773135050982
6.661275648,1.0000461972606107,-88.42594620144823
6.668463616,1.0000407510602962,-88.72412462536248
6.675651584,1.000032960513833,-89.0222310226254
6.68283904,1.000023587678003,-89.32024653435158
6.690027008,1.0000130914878638,-89.61812640225104
6.697214976,1.0000019118812171,-89.91589360804286
6.704402432,0.9999905518433584,-90.21350954245243
6.7115904,0.9999798109493491,-90.51102110988349
6.718777856,0.9999704140575003,-90.8083470566059
6.725965824,0.999962593546533,-91.10562539260725
6.733153792,0.9999570831487663,-91.40279558887185
6.740341248,0.9999538902170769,-91.69993378650896
6.747529216,0.9999532631883871,-91.9970755172373
6.754717184,0.9999553764513937,-92.29421754345383
6.76190464,0.9999600079915808,-92.59146075499422
6.769092608,0.9999670627102883,-92.88873815692527
6.776280576,0.9999758939578635,-93.18617782570139
6.783468032,0.9999861340926725,-93.4837343625467
6.790656,0.9999972695544814,-93.78145808687833
6.797843456,1.000008748408575,-94.0793548084054
6.805031424,1.0000199705445985,-94.37743851760212
6.812219392,1.0000300933673296,-94.67563473406956
6.819406848,1.0000386926894242,-94.97400619680037
6.826594816,1.0000452181712054,-95.2724870585111
6.833782784,1.0000495243085554,-95.57105351056414
6.84097024,1.000051162467951,-95.86968538429318
6.848158208,1.0000500431930595,-96.16833545612175
6.855345664,1.000046458634735,-96.46691622133775
6.862533632,1.0000403122284707,-96.76551591485234
6.8697216,1.000032047860788,-97.06395859227901
6.876909056,1.0000220718841792,-97.36237318332398
6.884097024,1.0000111107025407,-97.66062066352116
6.891284992,0.9999994150547339,-97.95873264041616
6.898472448,0.9999880925536324,-98.2567178291192
6.905660416,0.9999773751044634,-98.5545246880245
6.912848384,0.9999679629492586,-98.85225861332489
6.92003584,0.9999604335725738,-99.14988119339895
6.927223808,0.9999551047371175,-99.44741451509076
6.934411264,0.9999524344013043,-99.74488416237288
6.941599232,0.9999524293565432,-100.04240133525008
6.9487872,0.9999550948580411,-100.33993096743174
6.955974656,0.9999604262071871,-100.63749443120206
6.963162624,0.9999679355860375,-100.93523766940109
6.970350592,0.9999772963921065,-101.23304046972001
6.977538048,0.9999881592573742,-101.53101109964301
6.984726016,0.9999997313956688,-101.82910963275721
6.991913984,1.0000114196647076,-102.12741935241388
6.99910144,1.0000226613853218,-102.42589748936817
7.006289408,1.0000328096896365,-102.7245002396513
7.013476864,1.0000412411249395,-103.02330061846627
7.020664832,1.0000474859452149,-103.32216624537382
7.0278528,1.0000513671865927,-103.62114770581445
7.035040256,1.0000524885415958,-103.92014172602029
7.042228224,1.0000508264873296,-104.21916638106129
7.049416192,1.0000465011843964,-104.51814777150082
7.056603648,1.0000397375829873,-104.8170540031335
7.063791616,1.000030907893883,-105.11589995234907
7.070979584,1.0000204699307902,-105.41465270068747
7.07816704,1.0000090521463543,-105.71322791806286
7.085355008,0.9999970659895484,-106.01168922585842
7.092542464,0.9999854615460207,-106.30995762863964
7.099730432,0.9999746608579745,-106.60812009022993
7.1069184,0.9999655079479126,-106.90617234604473
7.114105856,0.9999582521602394,-107.2040802932947
7.121293824,0.9999532516687584,-107.50194518777914
7.128481792,0.9999510949473918,-107.79979073108082
7.135669248,0.9999516084460206,-108.09761481585294
7.142857216,0.9999549653089894,-108.39549709245574
7.150044672,0.9999607941767223,-108.69341994386434
7.15723264,0.9999689686636064,-108.99146056879877
7.164420608,0.9999789934927372,-109.28962104833977
7.171608064,0.9999902956605037,-109.58800353867564
7.178796032,1.0000022023026172,-109.88650853186557
7.185984,1.0000141803435276,-110.18517373579924
7.193171456,1.0000253748309647,-110.48404468228301
7.200359424,1.0000355911160044,-110.78305348894845
7.207547392,1.0000436983578558,-111.0821965803283
7.214734848,1.000049722982804,-111.38140724532043
7.221922816,1.0000531180756005,-111.68077089659853
7.229110272,1.0000536413320256,-111.98012973513433
7.23629824,1.0000514258563222,-112.27949508280335
7.243486208,1.0000463559195576,-112.57884341647348
7.250673664,1.000038990249535,-112.87807736071665
7.257861632,1.0000295094910867,-113.17723540409787
7.2650496,1.000018609195118,-113.47627628896701
7.272237056,1.0000067025170274,-113.77515716966774
7.279425024,0.9999945206273149,-114.07388596914105
7.286612992,0.9999827423630369,-114.37247111942972
7.293800448,0.9999719778172015,-114.67092772336507
7.300988416,0.9999629033415954,-114.96925342341135
7.308175872,0.999955912254508,-115.26748286311069
7.31536384,0.9999514357121663,-115.5656532767175
7.322551808,0.9999498058691978,-115.86376463041684
7.329739264,0.9999509143488992,-116.16192780769758
7.336927232,0.9999548850456345,-116.4600766528921
7.3441152,0.9999614562110521,-116.75834655497124
7.351302656,0.999970235220203,-117.05674040764282
7.358490624,0.9999807754502769,-117.35525552487269
7.365678592,0.9999925473387146,-117.65392499635705
7.372866048,1.0000048395613237,-117.95279810590436
7.380054016,1.0000169433385941,-118.25184405348526
7.387241472,1.0000283806212051,-118.55103702661687
7.39442944,1.000038326545443,-118.85036634276773
7.401617408,1.0000463700526685,-119.1498793444799
7.408804864,1.0000519090244309,-119.44946392722936
7.415992832,1.0000547726799276,-119.74909748436252
7.4231808,1.0000547629164913,-120.0488035919835
7.430368256,1.000051898418932,-120.34849814175654
7.437556224,1.0000461810896035,-120.64815207682246
7.44474368,1.000038163412597,-120.94769710681294
7.451931648,1.0000280911525818,-121.24712994857559
7.459119616,1.0000166533396628,-121.54642331791761
7.466307072,1.000004299316972,-121.8455733040819
7.47349504,0.999991881134307,-122.14459311686079
7.480683008,0.9999800129487748,-122.44343493430618
7.487870464,0.999969240845847,-122.74216570741682
7.495058432,0.9999602938330772,-123.04071540126324
7.5022464,0.9999536519886669,-123.33924224851279
7.509433856,0.9999496583044621,-123.63764053686616
7.516621824,0.9999485346634025,-123.93602960841739
7.52380928,0.9999503524042959,-124.23445757486539
7.530997248,0.9999549572443743,-124.5329281386359
7.538185216,0.9999621833618647,-124.83150394524132
7.545372672,0.9999716637096725,-125.13015246350004
7.55256064,0.9999827994477004,-125.42898888476958
7.559748608,0.999994947595068,-125.72796437663197
7.566936064,1.0000076310195727,-126.0271499231636
7.574124032,1.0000200236861334,-126.32650145828288
7.581312,1.0000313747791172,-126.62602309437003
7.588499456,1.0000412319973875,-126.92570278036186
7.595687424,1.000048906326402,-127.22548335997217
7.60287488,1.0000540855641036,-127.52539433624983
7.610062848,1.0000564689805207,-127.82534879614768
7.617250816,1.000055732442821,-128.12531622235642
7.624438272,1.0000521707807588,-128.42529011071184
7.63162624,1.0000458409191733,-128.7251868232022
7.638814208,1.0000372081192002,-129.0250296972833
7.646001664,1.0000265633673275,-129.32472641164583
7.653189632,1.0000144560635142,-129.62426348350456
7.6603776,1.000001782286169,-129.92367217986305
7.667565056,0.9999891163637399,-130.22289141594413
7.674753024,0.9999770393716486,-130.52196126873093
7.68194048,0.9999664681237772,-130.8209006446172
7.689128448,0.9999577205558161,-131.1197031940108
7.696316416,0.9999514745152789,-131.41841670133
7.703503872,0.9999479294927274,-131.71707681514704
7.71069184,0.9999473594496974,-132.01569735133845
7.717879808,0.9999498673891248,-132.31435175811646
7.725067264,0.9999552301190647,-132.61307625153896
7.732255232,0.9999630283504858,-132.91190446312763
7.7394432,0.9999732076003448,-133.21084217159972
7.746630656,0.9999848872463016,-133.5099543944124
7.753818624,0.9999974909373481,-133.80923025575265
7.76100608,1.000010474163904,-134.10868136723622
7.768194048,1.0000229589663414,-134.40831981894522
7.775382016,1.0000344109477601,-134.70812990346968
7.782569472,1.000044078373281,-135.00805553964707
7.78975744,1.0000514104476341,-135.30816466729047
7.796945408,1.000056138099965,-135.6083253152819
7.804132864,1.000057940171023,-135.90854836523343
7.811320832,1.0000566526462573,-136.2088062636731
7.818508288,1.000052371823998,-136.5090205308367
7.825696256,1.0000453050407847,-136.80913890044786
7.832884224,1.0000359728729062,-137.1091685565287
7.84007168,1.0000247005048093,-137.40907784529915
7.847259648,1.0000122254022206,-137.7088383905542
7.854447616,0.9999991184896388,-138.00843588725618
7.861635072,0.9999861969726023,-138.30785448510056
7.86882304,0.9999741402735021,-138.60711167764046
7.876011008,0.9999635378818698,-138.90621480809338
7.883198464,0.9999550882844738,-139.2052208892573
7.890386432,0.9999492560836714,-139.50412423696633
7.897573888,0.9999462521075682,-139.80297797063528
7.904761856,0.9999462912125412,-140.1018253181562
7.911949824,0.9999494579907692,-140.4006979012888
7.91913728,0.9999555127938298,-140.69962915610245
7.926325248,0.9999641793421964,-140.99867252451455
7.933513216,0.9999748842204389,-141.29787163537793
7.940700672,0.9999871482557738,-141.59720465964745
7.94788864,1.000000227486315,-141.89672998423052
7.955076608,1.0000135701112072,-142.1964496821897
7.962264064,1.0000262132721742,-142.49633552213604
7.969452032,1.0000375612392638,-142.79639405714502
7.976639488,1.0000470204015917,-143.0965813599678
7.983827456,1.0000540458832523,-143.3969293622411
7.991015424,1.0000582337819326,-143.69732784813021
7.99820288,1.0000594155773967,-143.99776729287348
8.005390848,1.0000574603787191,-144.29822330659357
8.012578816,1.0000524688253638,-144.59865218098886
8.019766272,1.0000447154295606,-144.8989885705534
8.02695424,1.0000346435599219,-145.1992285879267
8.034142208,1.0000227060961338,-145.49931854997718
8.041329664,1.0000097295216854,-145.7992195699138
8.048517632,0.9999962891502889,-146.09896083862273
8.055705088,0.9999831682764174,-146.3985660719911
8.062893056,0.9999711136305578,-146.69796236835913
8.070081024,0.9999606782045347,-146.99722853768375
8.07726848,0.9999525249588755,-147.2963848241243
8.084456448,0.9999470721117392,-147.59544150701524
8.091644416,0.9999446194864647,-147.8944644495267
8.098831872,0.9999454046147169,-148.19345580134242
8.10601984,0.9999492621840614,-148.49250740772797
8.113207296,0.9999560552903868,-148.79163925565678
8.120395264,0.99996532739051,-149.09089612057312
8.127583232,0.9999768273961491,-149.39027816554338
8.134770688,0.9999896041728392,-149.68981386016884
8.141958656,1.0000030917602671,-149.98955707487968
8.149146624,1.0000166833140698,-150.28947194479707
8.15633408,1.000029445779088,-150.58957600054708
8.163522048,1.0000407477549778,-150.88985045605858
8.170710016,1.0000499632126545,-151.1902972170499
8.177897472,1.0000566106797169,-151.49083215391428
8.18508544,1.0000603217256878,-151.79142852095086
8.192272896,1.0000607804686439,-152.09206775721023
8.199460864,1.0000581204468222,-152.39271842433737
8.206648832,1.0000523496833813,-152.69331677563716
8.213836288,1.0000439461381876,-152.99378858612167
8.221024256,1.0000331276867114,-153.29417661231125
8.228212224,1.0000206667227554,-153.59439189670982
8.23539968,1.0000070995814379,-153.8944225256933
8.242587648,0.9999933045178844,-154.1943167454282
8.249775616,0.999980008707464,-154.4940149656517
8.256963072,0.999967910287721,-154.7935376821775
8.26415104,0.9999576137901938,-155.0929169134369
8.271338496,0.9999498229770389,-155.39219750776002
8.278526464,0.9999449368839175,-155.6913645584076
8.285714432,0.9999430503481642,-155.9905333855766
8.292901888,0.9999445719003285,-156.28965629416635
8.300089856,0.9999491695507701,-156.58884953146955
8.307277824,0.9999566523854895,-156.88812074534064
8.31446528,0.9999668553932016,-157.1875098771401
8.321653248,0.9999788698666833,-157.48708158618314
8.328841216,0.9999922568066629,-157.78678480792834
8.336028672,1.000006132383101,-158.0867211906644
8.34321664,1.0000200268318586,-158.3868183546809
8.350404096,1.0000327825667727,-158.68710156465175
8.357592064,1.0000439886725183,-158.98758264928594
8.364780032,1.000052950869922,-159.28814362066836
8.371967488,1.000059177463997,-159.588883964314
8.379155456,1.0000622876453447,-159.889663516026
8.386343424,1.0000621786489583,-160.19043110133342
8.39353088,1.0000586297593448,-160.49123332111373
8.400718848,1.0000522110172911,-160.79194807964836
8.407906304,1.000042900904738,-161.09257545990465
8.415094272,1.0000314519308504,-161.39306925202013
8.42228224,1.0000183056968097,-161.69336778488403
8.429469696,1.0000043555098181,-161.99351284716857
8.436657664,0.9999901948853317,-162.29348918831357
8.443845632,0.999976774252551,-162.59323724039427
8.451033088,0.9999646487907188,-162.89284692207653
8.458221056,0.9999547086652449,-163.1923145797293
8.465409024,0.9999471796431505,-163.49163134609313
8.47259648,0.9999428545600523,-163.7909202735161
8.479784448,0.9999416029552839,-164.09014912876782
8.486971904,0.9999438239716704,-164.38937783627736
8.494159872,0.9999491673702234,-164.68865904663406
8.50134784,0.9999575238681738,-164.9880775224508
8.508535296,0.999968396694464,-165.28760770132445
8.515723264,0.999981075548175,-165.58727012012199
8.522911232,0.999995090891033,-165.8871450086177
8.530098688,1.0000094272644153,-166.18720396716196
8.537286656,1.0000233954525077,-166.4874710308906
8.544474624,1.0000362523373065,-166.78789659217642
8.55166208,1.000047442469668,-167.08851789923614
8.558850048,1.0000560512881778,-167.38924914964608
8.566037504,1.0000617882376461,-167.69010564048386
8.573225472,1.0000642784582061,-167.9910120561796
8.58041344,1.0000633465920836,-168.29191458013398
8.587600896,1.000059098639547,-168.5928118862171
8.594788352,1.0000517733220808,-168.89361007134193
8.601976832,1.0000418545943703,-169.19431275583332
8.609164288,1.0000295683523674,-169.49487159337963
8.616351744,1.0000158413813571,-169.79524016792124
8.623540224,1.0000014716212053,-170.09544695266905
8.63072768,0.9999870539277647,-170.39544809650528
8.637915136,0.999973447907706,-170.695248371156
8.645103616,0.9999613835269497,-170.99489870809361
8.652291072,0.9999515647512646,-171.29437532582386
8.659478528,0.9999445341625922,-171.59375931212097
8.666667008,0.9999407579445655,-171.89310089129907
8.673854464,0.999940303853015,-172.1923723255703
8.68104192,0.9999431930891433,-172.4916660871101
8.6882304,0.9999494499925757,-172.79103393611325
8.695417856,0.9999585500709959,-173.09051205100496
8.702605312,0.9999701989557533,-173.3901189184855
8.709793792,0.9999834745814591,-173.6898912789046
8.716981248,0.9999979867212625,-173.9898782787598
8.724168704,1.0000127265905763,-174.29004782965498
8.731357184,1.000026940751096,-174.59042457190918
8.73854464,1.0000399150180415,-174.89097595188414
8.745732096,1.0000507650117387,-175.1916961141899
8.752919552,1.0000590429946934,-175.49252148277506
8.760108032,1.000064239571174,-175.79346465767554
8.767295488,1.0000660525037137,-176.09446821678594
8.774482944,1.0000644682665292,-176.39546384641147
8.781671424,1.0000594025216099,-176.69642737031788
8.78885888,1.0000513520662957,-176.99727557871145
8.796046336,1.0000405317453458,-177.29801094794306
8.803234816,1.000027542401485,-177.5985968693212
8.810422272,1.0000132664190748,-177.898999177175
8.817609728,0.9999983260427204,-178.19919712381784
8.824798208,0.9999836209773709,-178.49919566188072
8.831985664,0.999969918896845,-178.79903615307063
8.83917312,0.9999580307747152,-179.09865368050458
8.8463616,0.9999484724928305,-179.39815886526185
8.853549056,0.9999419306257907,-179.6975360394031
8.860736512,0.9999387279136167,-179.99687379503425
