freq,mag,phase
6.0,1.0001627111947344,-41.71473054549904
6.004046336,1.0003346287641144,-41.88878947014206
6.008093184,1.0004832887487582,-42.06513252671995
6.01213952,1.0006028612521476,-42.24342203134519
6.016186368,1.0006859959574967,-42.42318366027801
6.020232704,1.0007276208304063,-42.60386532278642
6.02427904,1.0007251510820643,-42.784864449316665
6.028325888,1.0006787249553086,-42.965596006829664
6.032372224,1.0005911513229977,-43.1453664719231
6.036419072,1.0004680308107297,-43.32373836149985
6.040465408,1.0003161026713066,-43.50015076288833
6.044511744,1.0001451833680535,-43.674367553477
6.048558592,0.9999652373312555,-43.84606815345464
6.052604928,0.9997874815879441,-44.01531725647034
6.056651264,0.9996221901485177,-44.18213964917858
6.060698112,0.9994795985844416,-44.34679970277914
6.064744448,0.9993686333435572,-44.509680306040664
6.068791296,0.9992956283957498,-44.671334437736704
6.072837632,0.9992653042425587,-44.83226513712456
6.076883968,0.9992794475526523,-44.993127252690435
6.080930816,0.9993372766049463,-45.1545458941753
6.084977152,0.9994350513508007,-45.31707733417972
6.089024,0.9995670786069961,-45.48127359771035
6.093070336,0.9997252272105881,-45.64757075664296
6.097116672,0.9999001822796784,-45.816357663319984
6.10116352,1.0000812479821068,-45.98763439911872
6.105209856,1.0002573792681346,-46.16147396785807
6.109256704,1.000418015348223,-46.33774647370207
6.11330304,1.0005533057603324,-46.516181482111655
6.117349376,1.0006551325851567,-46.696303093825215
6.121396224,1.0007172676106668,-46.87765990995604
6.12544256,1.0007361348063462,-47.059621228877376
6.129488896,1.0007104220118002,-47.24156114210034
6.133535744,1.0006417170620876,-47.42291740900936
6.13758208,1.0005342156362678,-47.60301054963996
6.141628928,1.0003940357140695,-47.78141274195145
6.145675264,1.00023022309966,-47.95771849463472
6.1497216,1.0000521131754478,-48.13159873698728
6.153768448,0.9998707675171067,-48.302946050343955
6.157814784,0.9996971539480229,-48.4718922249902
6.161861632,0.9995418131827785,-48.6384519633063
6.165907968,0.9994139752786734,-48.803098163128354
6.169954304,0.9993215412119844,-48.966199571393844
6.174001152,0.9992701670656214,-49.12828965519046
6.178047488,0.9992628202122187,-49.290022019434076
6.182094336,0.9993001734196706,-49.45197444731034
6.186140672,0.9993800403013445,-49.614803385835614
6.190187008,0.9994970628427785,-49.77910458099764
6.194233856,0.9996449521692653,-49.945283160219816
6.198280192,0.9998141171631364,-50.11377257161606
6.202326528,0.9999945664054404,-50.284757767777286
6.206373376,1.000175430310103,-50.45833349475844
6.210419712,1.0003457008196222,-50.634505952495516
6.21446656,1.00049514254438,-50.81293309581837
6.218512896,1.0006144872389842,-50.99333764308653
6.222559232,1.0006967491897236,-51.17518509301915
6.22660608,1.0007368823282774,-51.35795781589028
6.230652416,1.0007327776922545,-51.540993536965466
6.234699264,1.000683910051429,-51.72373178086846
6.2387456,1.0005937727411907,-51.90552524546323
6.242791936,1.0004676100922993,-52.085795296044374
6.246838784,1.0003131005682344,-52.26409836061245
6.25088512,1.0001395900692263,-52.44016144295321
6.254931968,0.9999573795230964,-52.613718567204295
6.258978304,0.9997777177366363,-52.78473694149339
6.26302464,0.9996112225542569,-52.95335412287337
6.267071488,0.9994681758595504,-53.119791481109445
6.271117824,0.9993573693209978,-53.284462242586365
6.27516416,0.9992852243522754,-53.447878226448815
6.279211008,0.999256370865355,-53.61062009527964
6.283257344,0.9992725729902534,-53.77325053631605
6.287304192,0.9993327704363376,-53.93650434405386
6.291350528,0.9994332357930986,-54.100949254126576
6.295396864,0.9995680903571493,-54.26707830089045
6.299443712,0.9997291004777726,-54.43529132025248
6.303490048,0.9999065497366442,-54.60605494131171
6.307536896,1.0000897176538954,-54.779345667039486
6.311583232,1.0002674593306493,-54.95525957957804
6.315629568,1.0004290566631733,-55.133617075802746
6.319676416,1.0005648173429464,-55.314135036648985
6.323722752,1.00066631057995,-55.49634968617452
6.3277696,1.0007276575036765,-55.67976313654242
6.331815936,1.000744892969007,-55.86382078868199
6.335862272,1.0007172638065063,-56.04777908130594
6.33990912,1.000646157668193,-56.231065584227785
6.343955456,1.000535692555994,-56.41313751323313
6.348001792,1.0003928771248487,-56.59349694725118
6.35204864,1.0002262813386835,-56.771649889974256
6.356094976,1.0000458663467544,-56.94739574888007
6.360141824,0.999862343219066,-57.120575992400376
6.36418816,0.9996872273629044,-57.29126608919611
6.368234496,0.9995308199237434,-57.4595938052103
6.372281344,0.9994028051516208,-57.62600045709273
6.37632768,0.999310737058656,-57.79082884772231
6.380374528,0.9992604698673185,-57.95470834608603
6.384420864,0.9992546866406492,-58.11821955235855
6.3884672,0.9992941641400112,-58.28198618982215
6.392514048,0.99937637755638,-58.44665099401724
6.396560384,0.9994962490298681,-58.61282812637596
6.400607232,0.9996467790885736,-58.780939518490456
6.404653568,0.999818637777322,-58.95138353555897
6.408699904,1.0000013927200087,-59.124352492904166
6.412746752,1.0001842955677611,-59.299973762457604
6.416793088,1.0003560316769309,-59.478171738841986
6.420839424,1.0005062475906672,-59.658662570817995
6.424886272,1.0006259161721127,-59.84110202768591
6.428932608,1.0007078000505218,-60.02504326800669
6.432979456,1.0007468350361846,-60.2098387254803
6.437025792,1.000740762661989,-60.39491362486432
6.441072128,1.0006897640438759,-60.57968404420686
6.445118976,1.000597182474457,-60.763417230495406
6.449165312,1.0004683339799736,-60.945634947055154
6.45321216,1.0003110673901645,-61.12585599016569
6.457258496,1.0001348161810242,-61.30374307871169
6.461304832,0.9999503034999406,-61.47910859134095
6.46535168,0.9997686784410161,-61.65193811137913
6.469398016,0.9996010624449317,-61.82227043727822
6.473444864,0.9994572652058309,-61.99048342846808
6.4774912,0.9993462732287727,-62.15687874075401
6.481537536,0.9992747897316101,-62.322075392678016
6.485584384,0.9992470523317886,-62.48652997034334
6.48963072,0.999264969317338,-62.65096512751409
6.493677056,0.9993273358294215,-62.81600239305496
6.497723904,0.9994303671541532,-62.98227481855325
6.50177024,0.9995679966802602,-63.15027469020552
6.505817088,0.9997316522418327,-63.32045321314125
6.509863424,0.9999116589354046,-63.49312183345677
6.51390976,1.000097215527386,-63.66842141999747
6.517956608,1.0002766840775825,-63.84633117718325
6.522002944,1.0004395097397374,-64.02669616501863
6.526049792,1.0005759558680545,-64.20928489066317
6.530096128,1.0006775245377029,-64.39353040354376
6.534142464,1.0007380537234014,-64.57897372340396
6.538189312,1.0007540674732611,-64.76500613770838
6.542235648,1.000724559023008,-64.95098430871853
6.546282496,1.0006510446085828,-65.13630082262675
6.550328832,1.0005383046190308,-65.32030683495297
6.554375168,1.000392883573544,-65.5025043256432
6.558422016,1.000223356167147,-65.68251641068338
6.562468352,1.0000403817351275,-65.86009166287715
6.566514688,0.9998548410336426,-66.03509521202166
6.570561536,0.9996779068421937,-66.20752102162362
6.574607872,0.9995202571469801,-66.37761684801363
6.57865472,0.9993916234350416,-66.54574744631765
6.582701056,0.9992995742171661,-66.71228488426742
6.586747392,0.9992499645369605,-66.87789826369992
6.59079424,0.999245854727532,-67.0431243590915
6.594840576,0.9992871853328497,-67.20867412863946
6.598887424,0.9993715714010059,-67.37513641538794
6.60293376,0.999494081835565,-67.54310459757426
6.606980096,0.9996472052134534,-67.71305770969164
6.611026944,0.9998217269925418,-67.88539850743794
6.61507328,1.000007093638731,-68.06032770286889
6.619120128,1.0001921028022025,-68.23791400884511
6.623166464,1.0003655517633878,-68.41806107332019
6.6272128,1.0005168299269918,-68.60057359058669
6.631259648,1.0006370976141616,-68.78504481986175
6.635305984,1.0007186140049396,-68.9709935133371
6.63935232,1.0007568794207775,-69.1578151674385
6.643399168,1.0007494668964751,-69.34490213359857
6.647445504,1.000696531022619,-69.53159219578997
6.651492352,1.0006015493998903,-69.71729462037707
6.655538688,1.0004700840748695,-69.90140584756496
6.659585024,1.0003101254815991,-70.08348333633639
6.663631872,1.000131273179038,-70.26322009851899
6.667678208,0.9999443156211808,-70.44038511982598
6.671725056,0.9997605550363455,-70.61495694202746
6.675771392,0.9995912687107308,-70.78705566627193
6.679817728,0.9994464119977469,-70.95692418979374
6.683864576,0.999335200751238,-71.12503795630019
6.687910912,0.9992639056616376,-71.29190309079809
6.69195776,0.9992371775905653,-71.45806980103626
6.696004096,0.99925657008592,-71.62421691171522
6.700050432,0.9993208358127275,-71.79102068358507
6.70409728,0.9994263356045254,-71.95902977432088
6.708143616,0.9995664827742332,-72.1288494928371
6.712189952,0.9997328964590626,-72.30087271584743
6.7162368,0.9999155520589705,-72.4754035388915
6.720283136,1.0001033799657768,-72.65262535929976
6.724329984,1.0002849725769474,-72.83248841090501
6.72837632,1.0004494227304506,-73.0148334718073
6.732422656,1.000586526043038,-73.19937087433662
6.736469504,1.0006884360350918,-73.38564141726538
6.74051584,1.0007487037172413,-73.5730701104849
6.744562688,1.0007637141340882,-73.76106574199316
6.748609024,1.0007326137594257,-73.94901864761466
6.75265536,1.0006570319630954,-74.1362153021678
6.756702208,1.0005417972455601,-74.32213827905191
6.760748544,1.0003936588564446,-74.50621515510905
6.764795392,1.0002216360059275,-74.68807709429124
6.768841728,1.0000360721117327,-74.86742989999553
6.772888064,0.9998481281036227,-75.0441403608775
6.776934912,0.9996692786480792,-75.21830178712369
6.780981248,0.9995101417777271,-75.39008516577532
6.785027584,0.9993807182811856,-75.5598696063166
6.789074432,0.999288534409685,-75.72811921544319
6.793120768,0.9992394581663129,-75.89534387860776
6.797167616,0.9992361643739234,-76.06227315864241
6.801213952,0.9992791277428847,-76.22952447192613
6.805260288,0.9993656544694032,-76.39771121048176
6.809307136,0.9994906180414357,-76.56741574774422
6.813353472,0.9996464227940618,-76.73916903362166
6.81740032,0.9998236113651339,-76.91331543600411
6.821446656,1.000011519024376,-77.0900991935473
6.825492992,1.0001987749924963,-77.26956324690761
6.82953984,1.0003741424816956,-77.45165009023897
6.833586176,1.0005267887974354,-77.6361079601492
6.837633024,1.0006477069828001,-77.82250302028086
6.84167936,1.0007295904922333,-78.01040105024845
6.845725696,1.000767238813162,-78.19917023604043
6.849772544,1.000758526483006,-78.38820103656997
6.85381888,1.0007039603759693,-78.57682292594588
6.857865216,1.0006068037320535,-78.76436578644672
6.861912064,1.0004729331699096,-78.95035968624941
6.8659584,1.0003101654303947,-79.13428007182321
6.870005248,1.0001286793717876,-79.31578249484733
6.874051584,0.9999392024089758,-79.49467822680698
6.87809792,0.9997531759324033,-79.67095358491272
6.882144768,0.9995820511553218,-79.84468130014156
6.886191104,0.9994359965743345,-80.01627214599166
6.890237952,0.9993240495280338,-80.18599418171272
6.894284288,0.9992527712360256,-80.35447583645467
6.898330624,0.9992266830349182,-80.52225747930154
6.902377472,0.9992472571429494,-80.69009541751406
6.906423808,0.9993133524655164,-80.85854887755679
6.910470656,0.9994210076498606,-81.0282582356883
6.914516992,0.9995637111474072,-81.19978861462909
6.918563328,0.9997329068311407,-81.37354847564276
6.922610176,0.9999182425382478,-81.54991315638911
6.926656512,1.0001085335570084,-81.72891557046884
6.930702848,1.0002922988066678,-81.91064926509361
6.934749696,1.0004584570072597,-82.0948892337228
6.938796032,1.0005969986598648,-82.28132880349898
6.94284288,1.000699401078527,-82.46949184286021
6.946889216,1.000759690304726,-82.65885066238096
6.950935552,1.0007740130101528,-82.84876379325421
6.9549824,1.0007414227932556,-83.0385671281316
6.959028736,1.0006640514694864,-83.22768714686934
6.963075584,1.0005464990463506,-83.4154475129353
6.96712192,1.0003957531494592,-83.60133873203598
6.971168256,1.0002211241407788,-83.78491897073644
6.975215104,1.000032754798875,-83.96601485137693
6.97926144,0.9998423323912045,-84.14439990171982
6.983308288,0.9996612678104537,-84.32024911576988
6.987354624,0.9995004886850416,-84.49365107633483
6.99140096,0.9993699275037442,-84.66501911215524
6.995447808,0.9992773107397419,-84.83481301737018
6.999494144,0.9992282377592405,-85.00369229656276
7.00354048,0.999225820763987,-85.17218707778763
7.007587328,0.9992701945155221,-85.34102107702405
7.011633664,0.9993587689712683,-85.5108349426143
7.015680512,0.9994860124429604,-85.68220165640507
7.019726848,0.9996444879787907,-85.85564788592426
7.023773184,0.9998244039375448,-86.03152551020585
7.027820032,1.000014963110797,-86.21004878812411
7.031866368,1.0002047178088278,-86.3913201470571
7.035913216,1.0003821121276553,-86.57524018179
7.039959552,1.0005364782151107,-86.76152919540019
7.044005888,1.0006584846287028,-86.94982846701599
7.048052736,1.000740693004717,-87.13957845244312
7.052099072,1.0007781507138573,-87.33023932285575
7.05614592,1.0007685939125364,-87.52110229353353
7.060192256,1.0007125567692667,-87.71157015109934
7.064238592,1.000613356601356,-87.90094815397379
7.06828544,1.000477010970743,-88.08874231464003
7.072331776,1.0003116737687052,-88.27436950600811
7.076378112,1.0001274089518002,-88.45759127280944
7.08042496,0.9999351882501353,-88.6381514762486
7.084471296,0.9997467892115413,-88.81605337240536
7.088518144,0.9995734804950104,-88.99141758523118
7.09256448,0.9994259231556362,-89.16452817338798
7.096610816,0.9993127824770255,-89.33583447921107
7.100657664,0.9992413232571068,-89.50583978248885
7.104704,0.9992155053262937,-89.67519853392646
7.108750848,0.9992371635002547,-89.84451730296625
7.112797184,0.9993048036569535,-90.01455268543803
7.11684352,0.9994145749488346,-90.18583738432719
7.120890368,0.9995597681782918,-90.35897273404831
7.124936704,0.9997316325301286,-90.53439500336226
7.128983552,0.9999197654086933,-90.71244109168389
7.133029888,1.0001126896017274,-90.89315228869526
7.137076224,1.000298908130272,-91.0766479885755
7.141123072,1.0004670513909182,-91.26267820372261
7.145169408,1.0006071533002026,-91.45091888110461
7.149215744,1.000710422739982,-91.64092083214926
7.153262592,1.0007708651270042,-91.8320936688462
7.157308928,1.0007847391974656,-92.0238615408772
7.161355776,1.000751052073522,-92.21550795276613
7.165402112,1.0006721308750277,-92.4063586133217
7.169448448,1.0005523419251112,-92.59587702338257
7.173495296,1.0003991356440292,-92.78350808132014
7.177541632,1.0002216599627136,-92.96879387567644
7.18158848,1.0000305017066213,-93.15150497322382
7.185634816,0.999837524845851,-93.33153157817102
7.189681152,0.9996539566849054,-93.50890286817297
7.193728,0.9994913684947359,-93.68382859216862
7.197774336,0.9993591762375239,-93.85676811604118
7.201821184,0.9992657079061831,-94.02808146243625
7.20586752,0.9992165176823428,-94.19836880574381
7.209913856,0.9992147183354869,-94.36836237051942
7.213960704,0.999260289692339,-94.53870702865353
7.21800704,0.9993506429516789,-94.70999639584058
7.222053376,0.9994802119681115,-94.88291009831954
7.226100224,0.9996411417830716,-95.05794825621177
7.23014656,0.9998239071378368,-95.23539926385546
7.234193408,1.0000173000968313,-95.41558450354238
7.238239744,1.000209602819922,-95.59852420367258
7.24228608,1.0003894575134489,-95.7841388808069
7.246332928,1.0005457236162774,-95.97218746183252
7.250379264,1.0006689987233037,-96.16220970161119
7.254426112,1.0007519564069975,-96.3537638367025
7.258472448,1.0007895162174751,-96.54620917650391
7.262518784,1.0007792137528415,-96.73885463449595
7.266565632,1.0007218445419224,-96.93106899746164
7.270611968,1.000620798528868,-97.1221847109232
7.274658816,1.0004821961215193,-97.31164023313433
7.278705152,1.0003142075639424,-97.49895423996809
7.282751488,1.0001270196736662,-97.68380036948489
7.286798336,0.9999321388908061,-97.8659463777192
7.290844672,0.9997409605419164,-98.04536899486664
7.294891008,0.9995654266997389,-98.222252999103
7.298937856,0.9994159135661982,-98.39682735888853
7.302984192,0.9993016545819289,-98.56954649686585
7.30703104,0.9992293711759448,-98.74098653837429
7.311077376,0.9992036250770202,-98.91176674247708
7.315123712,0.9992259808339766,-99.08252868228988
7.31917056,0.9992951397002647,-99.25396248052608
7.323216896,0.9994069296917039,-99.42671742408598
7.327263744,0.9995545136968949,-99.60137530820451
7.33131008,0.9997290464474998,-99.77833429771681
7.335356416,0.9999199790667697,-99.95786634982697
7.339403264,1.0001158928859588,-100.14022206425162
7.3434496,1.0003045729809152,-100.32535162671215
7.347496448,1.000475171071524,-100.51300121060383
7.351542784,1.000616956793715,-100.70294036510445
7.35558912,1.0007214631042334,-100.894642199104
7.359635968,1.0007823886249114,-101.0875631691423
7.363682304,1.0007960429286094,-101.28104431583874
7.36772864,1.0007616076318073,-101.47435810819921
7.371775488,1.0006811206355821,-101.66694303466427
7.375821824,1.0005592702899424,-101.85811500388216
7.379868672,1.0004035745978004,-102.04733411470298
7.383915008,1.0002232569064338,-102.23423126117152
7.387961344,1.0000292919929763,-102.418509719829
7.392008192,0.9998334233183903,-102.60003014696841
7.396054528,0.9996474299215561,-102.7788449457468
7.400101376,0.9994823016939705,-102.95525412958622
7.404147712,0.9993485750341338,-103.12951163313659
7.408194048,0.9992539101219949,-103.30219217710282
7.412240896,0.9992043397747566,-103.47388622236241
7.416287232,0.9992026904016958,-103.64521888975926
7.42033408,0.9992493461184055,-103.8168999288134
7.424380416,0.9993411812698552,-103.98961607770052
7.428426752,0.9994730323514673,-104.16389444635989
7.4324736,0.9996365963083605,-104.34034901971346
7.436519936,0.9998221842956345,-104.51928898065749
7.440566272,1.0000185659487506,-104.7009730703314
7.44461312,1.0002138611251365,-104.88547388077343
7.448659456,1.0003961509329136,-105.0726493110176
7.452706304,1.0005546856735452,-105.26229310635703
7.45675264,1.0006795650118891,-105.45399537641073
7.460798976,1.000763595641459,-105.64718034513646
7.464845824,1.0008013573530692,-105.84126348266295
7.46889216,1.000790750520635,-106.03556363197228
7.472939008,1.0007322240574115,-106.22943442253253
7.476985344,1.000629435506702,-106.42217038885352
7.48103168,1.0004885247640336,-106.61321332600818
7.485078528,1.0003179296325058,-106.80208241000942
7.489124864,1.000127875925749,-106.9884117271432
7.493171712,0.9999298989587851,-107.17203833227768
7.497218048,0.9997359987207071,-107.35291565863729
7.501264384,0.9995577976180433,-107.53114729692885
7.505311232,0.9994061727804044,-107.70704907570165
7.509357568,0.9992902327843179,-107.88112520425277
7.513403904,0.9992170510264081,-108.05386023218942
7.517450752,0.9991911197210042,-108.22590009367936
7.521497088,0.9992139966137245,-108.39793205521917
7.525543936,0.9992843254480778,-108.57069941756733
7.529590272,0.9993979774427474,-108.74473786694004
7.533636608,0.9995479188184252,-108.92073333377013
7.537683456,0.9997252691461795,-109.09904508377434
7.541729792,0.9999191808642979,-109.2800123605619
7.54577664,1.0001179985578106,-109.46381695855501
7.549822976,1.000309711355673,-109.6504217489232
7.553869312,1.0004827441937092,-109.83960655266436
7.55791616,1.0006266379813782,-110.03110359845302
7.561962496,1.0007326845294084,-110.22439199652739
7.566009344,1.0007944202979078,-110.41886245062881
7.57005568,1.0008082159812515,-110.61393830749559
7.574102016,1.0007731352508757,-110.80886764289377
7.578148864,1.0006912895926932,-111.00300006164518
7.5821952,1.0005674863071996,-111.19569851388245
7.586241536,1.000409205419293,-111.38648186179935
7.590288384,1.0002262092924854,-111.57481008550677
7.59433472,1.0000291082146278,-111.76049516094574
7.598381568,0.9998301377503918,-111.94341267827375
7.602427904,0.9996411507765933,-112.12358667809276
7.60647424,0.9994737135846751,-112.30125197817726
7.610521088,0.9993378090002072,-112.476783456969
7.614567424,0.9992418497786991,-112.650694577771
7.618614272,0.9991915457304371,-112.82358547491185
7.622660608,0.9991899299692377,-112.99612839141882
