freq,mag,phase
6.0,0.9998672878794004,132.78898844975072
6.041025536,0.9998684841264008,130.04455993340932
6.082051072,0.9998702750595115,127.30368668635514
6.12307712,0.9998732458652582,124.56631531076971
6.164102656,0.9998774441360659,121.8323658944412
6.205128192,0.9998826316637933,119.10174699959786
6.246153728,0.9998889183329371,116.37437358125987
6.287179264,0.9998961210072965,113.65020181841062
6.328205312,0.9999043497416592,110.92911530890929
6.369230848,0.9999133977053025,108.21099791615073
6.410256384,0.9999232398618187,105.49582382785991
6.45128192,0.9999338216841434,102.78344309576809
6.492307456,0.9999449151727081,100.07378508741738
6.533333504,0.9999566443780359,97.36672565769253
6.57435904,0.9999687126364262,94.66219295619572
6.615384576,0.9999811073935406,91.96006739259181
6.656410112,0.9999936983984258,89.26026081803262
6.697435648,1.0000063570966284,86.56262159924322
6.738461696,1.0000190622674114,83.8671006179475
6.779487232,1.0000314912460746,81.17356234084289
6.820512768,1.0000437088307048,78.48189131771116
6.861538304,1.0000555443331276,75.79197762373002
6.902564352,1.0000669466817078,73.10372601250678
6.943589888,1.0000776973022387,70.41699325574157
6.984615424,1.000087767418033,67.73171061693826
7.02564096,1.0000971363036704,65.04772690240627
7.066666496,1.0001056552246859,62.36492392313843
7.107692544,1.0001131803179004,59.68322529814248
7.14871808,1.000119752096692,57.00248755918687
7.189743616,1.0001252064329285,54.32258402978077
7.230769152,1.0001296458524347,51.6434385497758
7.271794688,1.0001329093381697,48.96490337133605
7.312820736,1.0001348936148462,46.28685896305527
7.353846272,1.0001358554659057,43.60920068198235
7.394871808,1.0001355165351538,40.93183102501363
7.435897344,1.0001340693752312,38.254589796938525
7.47692288,1.0001314453832884,35.5774115431723
7.517948928,1.0001276581634695,32.900132517882646
7.558974464,1.0001228432439386,30.222680838932074
7.6,1.0001169397941494,27.544903436767818
7.641025536,1.0001100739396678,24.86671419100408
7.682051072,1.0001021970271275,22.1879704002252
7.72307712,1.0000936291005427,19.508567089647983
7.764102656,1.0000842270981039,16.82840006445006
7.805128192,1.0000740937759929,14.147341894988813
7.846153728,1.0000635380933343,11.465297783380672
7.887179264,1.0000524022176893,8.782143063932736
7.928205312,1.000040959194207,6.097774339587365
7.969230848,1.0000292400091677,3.4120660142926513
8.010256384,1.0000173930616498,0.7249092224622671
8.05128192,1.0000055725571788,-1.9637799157749554
8.092307456,0.9999937412847405,-4.654140817481651
8.133333504,0.9999820246704302,-7.346249407692502
8.17435904,0.999970691743101,-10.04024082171761
8.215384576,0.9999596580216297,-12.736199226232527
8.256410112,0.999949248956559,-15.434236314490342
8.297435648,0.9999392380256172,-18.13444020918623
8.338461696,0.9999299786744553,-20.836911451227092
8.379487232,0.9999213200773955,-23.541740967069696
8.420512768,0.9999136523008987,-26.249022622238673
8.461538304,0.9999066031372588,-28.95886852351177
8.502564352,0.9999006191628192,-31.671345118989706
8.543589888,0.9998955246256933,-34.38654741215473
8.584615424,0.9998912727644458,-37.10452919906757
8.625641472,0.9998881134599759,-39.82541520898666
8.666667008,0.9998859124986793,-42.54922780484388
8.707692544,0.9998848138229922,-45.276092153870636
8.74871808,0.9998844865020327,-48.00603858934367
8.789743616,0.9998853689052924,-50.73915431066232
8.830769152,0.9998870239940455,-53.47547987841575
8.871794688,0.9998895429778083,-56.215082086179294
8.912820224,0.9998930027626691,-58.95800703247105
8.95384576,0.9998973115912408,-61.70430963257674
8.994871296,0.9999023708905553,-64.45404151271688
9.035897856,0.9999080311058882,-67.20721238442079
9.076923392,0.9999144300141503,-69.96388198130198
9.117948928,0.9999213124908224,-72.72406904703283
9.158974464,0.999928707893294,-75.48779534263562
9.2,0.9999364347229742,-78.255061538522
9.241025536,0.9999445537780923,-81.02593312638602
9.282051072,0.9999529294244224,-83.80036794298456
9.323076608,0.9999614263980369,-86.57840491223958
9.364102144,0.9999701093351013,-89.36002979865103
9.405128704,0.9999787647888085,-92.14520817918645
9.44615424,0.9999873539648947,-94.9339812888692
9.487179776,0.9999958802288202,-97.72627739351968
9.528205312,1.0000041716385077,-100.52212349598099
9.569230848,1.0000122602485995,-103.32145357134844
9.610256384,1.0000200098790866,-106.12425361510843
9.65128192,1.0000274104019973,-108.93046085495746
9.692307456,1.0000344401988086,-111.74007398963744
9.733332992,1.0000409998513704,-114.55300956280023
9.774358528,1.0000471624437397,-117.36922568832321
9.815385088,1.0000527954706733,-120.1886850241715
9.856410624,1.00005772122261,-123.01128708882865
9.89743616,1.0000622990150445,-125.83698131604048
9.938461696,1.0000662979299646,-128.6656965608468
9.979487232,1.000069771171717,-131.4973541118199
10.020512768,1.0000726110391223,-134.33188190769718
10.061538304,1.000074961191262,-137.16916374156517
10.10256384,1.000076647061298,-140.0091428794748
10.143589376,1.0000779774870658,-142.8517189916853
10.184614912,1.0000786480247368,-145.69677903428817
10.225641472,1.0000787922796173,-148.54421269704252
10.266667008,1.0000785169829784,-151.39394705349306
10.307692544,1.0000777167111556,-154.24585558176634
10.34871808,1.0000765682833979,-157.09982551859395
10.389743616,1.000074925193801,-159.95574352965738
10.430769152,1.0000728032940203,-162.81349053667088
10.471794688,1.0000704229458028,-165.67293941322686
10.512820224,1.0000677108958802,-168.53397019965334
10.55384576,1.000064591176491,-171.39646443166848
10.594871296,1.000061302291386,-174.2602669110462
10.635897856,1.0000575851377063,-177.12526902901362
10.676923392,1.0000536555796458,-179.99134900652976
10.717948928,1.0000495273668866,177.14165866624725
10.758974464,1.0000451658643255,174.2738856813977
10.8,1.0000405615815888,171.4054544158069
10.841025536,1.0000356967226132,168.5365024885749
10.882051072,1.000030842284801,165.66719132248497
10.923076608,1.0000256816477031,162.79763248114514
10.964102144,1.0000204342717618,159.92800132096664
11.005128704,1.0000149370861235,157.05841550373447
11.04615424,1.0000093966155883,154.18901362669678
11.087179776,1.0000035966561283,151.31995692978654
11.128205312,0.9999977841407527,148.45138213950966
11.169230848,0.9999918557479345,145.58341868052946
11.210256384,0.9999858221410016,142.7162100604515
11.25128192,0.9999795568573517,139.84988886201003
11.292307456,0.9999733337730146,136.98461467466043
11.333332992,0.9999670756650968,134.12049167395298
11.374358528,0.9999606852642338,131.25768063228165
11.415385088,0.9999542549377808,128.39628820748305
11.456410624,0.9999478110104971,125.53646569784743
11.49743616,0.9999413413127097,122.6783224548349
11.538461696,0.9999349474538531,119.82200689101259
11.579487232,0.9999285862905118,116.967606182107
11.620512768,0.9999222308559605,114.11526969218176
11.661538304,0.9999160524255422,111.26509760348915
11.70256384,0.9999100389608846,108.41720368504119
11.743589376,0.9999040177756079,105.57168365409387
11.784614912,0.9998983872112251,102.7286730939949
11.825641472,0.9998930391098078,99.88823595304397
11.866667008,0.9998879213319197,97.05048445332329
11.907692544,0.9998831440838856,94.215508120202
11.94871808,0.9998787375932606,91.38340457210687
11.989743616,0.9998747801419263,88.55424898165232
12.030769152,0.999871287635518,85.72810607547711
12.071794688,0.9998684614748075,82.90504939086186
12.112820224,0.9998660833580991,80.08517788626472
12.15384576,0.9998643075250899,77.26851692055607
12.194871296,0.9998632217151061,74.45513880065471
12.235897856,0.9998628367676772,71.64509764889098
12.276923392,0.9998631982641145,68.83846548156336
12.317948928,0.9998642637966612,66.0352343005427
12.358974464,0.9998661423951498,63.235492980812225
12.4,0.9998687032523802,60.43922454528538
12.441025536,0.9998721341667303,57.64649405242413
12.482051072,0.9998764387623775,54.85732907191424
12.523076608,0.9998814775142344,52.07172986739109
12.564102144,0.999887315695285,49.28968683738164
12.605128704,0.9998939430463695,46.51125041168272
12.64615424,0.9999012792320361,43.736414884749095
12.687179776,0.9999094790987997,40.965178183023355
12.728205312,0.999918225968635,38.19750190881073
12.769230848,0.9999276609543789,35.43342045196843
12.810256384,0.9999375934345494,32.67290151816031
12.85128192,0.9999480424995544,29.915941305500525
12.892307456,0.9999591068469718,27.162486835220047
12.933332992,0.9999703666997081,24.412535973328787
12.974358528,0.9999819029938517,21.66604678766609
13.015385088,0.9999935486211665,18.92298139270909
13.056410624,1.0000053300337504,16.183325305337437
13.09743616,1.000017132266561,13.447009916796487
13.138461696,1.0000287272935906,10.714019682510857
13.179487232,1.0000401763046782,7.984275110955773
13.220512768,1.0000513176933907,5.257746589951948
13.261538304,1.00006182691477,2.534375357254801
13.30256384,1.0000719023476465,-0.1859065892837946
13.343589376,1.000081285911014,-2.9031290217512336
13.384614912,1.0000898203870516,-5.617393038104677
13.425641472,1.0000974822312414,-8.32872120312083
13.466667008,1.0001042707577315,-11.037224698628616
13.507692544,1.000109809612217,-13.742947399077238
13.54871808,1.0001143425452932,-16.44596876339759
13.589743616,1.0001175610487751,-19.14635033617449
13.630769152,1.0001194825930606,-21.844189416482045
13.671794688,1.000120007545953,-24.539543027188955
13.712820224,1.000119067148435,-27.232502951953204
13.75384576,1.000116811319507,-29.923158410168703
13.794871296,1.0001129557224326,-32.611573516862926
13.835897856,1.0001075803245225,-35.29785297987965
13.876923392,1.00010081766206,-37.98208405614703
13.917948928,1.0000925396855957,-40.66434451135606
13.958974464,1.00008269470266,-43.3447366029752
14.0,1.0000714078231165,-46.023350425560785
