freq,mag,phase
6.0,1.0000102970333513,-141.29355892382432
6.0217984,1.000006788878814,-142.49057802339576
6.0435968,1.0000031268080711,-143.68762155081168
6.0653952,0.9999992597573057,-144.88462997644194
6.0871936,0.9999953665700778,-146.08161762858404
6.108992,0.9999914915255397,-147.27855092351572
6.1307904,0.9999877896460172,-148.47550094219312
6.1525888,0.9999843710882088,-149.67238536577247
6.174386688,0.9999813485848376,-150.86925113448444
6.196185088,0.9999788970644989,-152.06608860858194
6.217983488,0.9999769876220722,-153.26289535426585
6.239781888,0.999975636570634,-154.45970434218054
6.261580288,0.9999750958114206,-155.65643486179954
6.283378688,0.9999750670652681,-156.85319455091104
6.305177088,0.9999758590079322,-158.0499379797387
6.326975488,0.9999773003317753,-159.2466431481858
6.348773888,0.9999793419655428,-160.44333613730606
6.370572288,0.9999819262191884,-161.6400624838202
6.392370688,0.9999850328688205,-162.83676934087774
6.414169088,0.9999885145581937,-164.03350095429548
6.435967488,0.9999923206537065,-165.23018766458455
6.457765888,0.9999962576298793,-166.4268856485961
6.479564288,1.000000343084462,-167.623616972645
6.501362176,1.0000042581415396,-168.82031503754484
6.523160576,1.0000080170308088,-170.01700918500583
6.544958976,1.0000115885596719,-171.21369107143445
6.566757376,1.0000145891715089,-172.41033976252703
6.588555776,1.000017180728074,-173.6069741745163
6.610354176,1.0000192118529099,-174.8035558813584
6.632152576,1.0000203980390765,-176.00010115911797
6.653950976,1.0000212051184574,-177.19660125461124
6.675749376,1.0000211248080082,-178.39303226001047
6.697547776,1.000020378814261,-179.5893589922081
6.719346176,1.000019024671698,179.2143706036872
6.741144576,1.0000169396572345,178.01820523945585
6.762942976,1.0000143802276167,176.82214663340906
6.784741376,1.0000112382711677,175.6261905440667
6.806539264,1.0000076850191886,174.43034080363483
6.828337664,1.0000039458221368,173.23462550890383
6.850136064,0.9999998661879497,172.03903560093377
6.871934464,0.9999958394424565,170.84358258855542
6.893732864,0.9999917956239122,169.64826490574643
6.915531264,0.9999880032974787,168.4530867188926
6.937329664,0.9999844770984069,167.25805263014004
6.959128064,0.9999814699023651,166.06316635678596
6.980926464,0.9999788204212576,164.86838777629802
7.002724864,0.999976807059222,163.67374690876022
7.024523264,0.9999754297163628,162.4792266222821
7.046321664,0.9999747632527737,161.28484407003722
7.068120064,0.9999747659836715,160.09057138393626
7.089918464,0.9999755678486884,158.89641858249158
7.111716864,0.9999769697463488,157.70235992169017
7.133514752,0.9999790776148505,156.5084115519479
7.155313152,0.9999818365698242,155.31458370398275
7.177111552,0.9999849384048861,154.12082969475554
7.198909952,0.999988557777055,152.92717641782892
7.220708352,0.9999924969890187,151.7336235633664
7.242506752,0.9999965478573208,150.54015184439274
7.264305152,1.0000007588772613,149.34676087980336
7.286103552,1.000004809359699,148.15347998712585
7.307901952,1.0000087347177327,146.96029130597134
7.329700352,1.0000124173975988,145.7672186714097
7.351498752,1.000015550485842,144.57425295902652
7.373297152,1.0000183559722167,143.381392134985
7.395095552,1.0000203885690422,142.18864825635652
7.416893952,1.0000217581545259,140.99605319203314
7.438692352,1.0000225826288847,139.80357497418518
7.46049024,1.000022524559526,138.61124377690223
7.48228864,1.0000219000012769,137.41908826353384
7.50408704,1.0000203520050872,136.2270859146995
7.52588544,1.0000183376277891,135.03526804315362
7.54768384,1.0000156275254555,133.84363131306415
7.56948224,1.0000123787733886,132.65214125323902
7.59128064,1.0000087711285388,131.46088816124902
7.61307904,1.00000488713852,130.269809031352
7.63487744,1.0000007555913801,129.07895826800257
7.65667584,0.999996514790011,127.88829572490272
7.67847424,0.9999923126539783,126.69786135814101
7.70027264,0.9999884340512515,125.50760891415514
7.72207104,0.9999847161526915,124.31759335741117
7.74386944,0.9999814599321856,123.12776413390738
7.765667328,0.9999787320245487,121.93814509827442
7.787465728,0.999976598113029,120.74870134095379
7.809264128,0.9999751198056547,119.55945307258297
7.831062528,0.9999744173035909,118.37040655334333
7.852860928,0.9999743982777698,117.18153661540973
7.874659328,0.9999751133541729,115.99283625293428
7.896457728,0.9999765311959143,114.80430194235234
7.918256128,0.9999786555312473,113.61591534963267
7.940054528,0.9999814102125782,112.42771360867309
7.961852928,0.9999847524737556,111.23964127382386
7.983651328,0.9999883852360538,110.05171865081309
8.005449728,0.9999924853954073,108.86395287211069
8.027248128,0.9999966839510639,107.67632241729181
8.049046528,1.0000010270201314,106.48881752221283
8.070844928,1.0000053256335,105.30146674457475
8.092642816,1.00000937790271,104.114261964489
8.114441216,1.0000132192623072,102.9271895449709
8.136239616,1.00001657358098,101.7402795557363
8.158038016,1.0000194243826586,100.55352415424007
8.179836416,1.000021610786679,99.36690473443586
8.201634816,1.0000231626557903,98.1804930364409
8.223433216,1.0000240598367622,96.99422018868682
8.245231616,1.0000240725650538,95.8081502520413
8.267030016,1.000023354501388,94.62226376637255
8.288828416,1.000022008780875,93.43658770143801
8.310626816,1.0000198799171067,92.25109983493509
8.332425216,1.0000171017392314,91.06585403266479
8.354223616,1.0000137275242784,89.88079739372886
8.376022016,1.0000100760048078,88.69598639541006
8.397820416,1.0000059034908912,87.51139735271258
8.419618304,1.0000016158778409,86.32703890550748
8.441416704,0.9999971962720922,85.14291265941335
8.463215104,0.9999928493468621,83.95902717268999
8.485013504,0.9999887034456022,82.77536546208026
8.506811904,0.9999848438360895,81.59193692955644
8.528610304,0.9999814248520851,80.4087233447843
8.550408704,0.999978433137556,79.22574767608121
8.572207104,0.9999761548772658,78.04299291327733
8.594004992,0.9999745654773781,76.86042137159247
8.615803904,0.9999736708328011,75.67807084542147
8.637601792,0.9999735692239106,74.49591170613343
8.659400704,0.9999743532714205,73.3139493004772
8.681198592,0.999975737164416,72.13214556942
8.702997504,0.9999778470541162,70.95051878286405
8.724795392,0.9999806871184032,69.76905496354613
8.746594304,0.9999840818625694,68.58775256339094
8.768392192,0.9999880001305637,67.40660944651346
8.790191104,0.9999921485023243,66.22560061559345
8.811988992,0.9999966094499627,65.04472482120153
8.833787904,1.0000011286885548,63.8639918722758
8.855585792,1.000005699217131,62.68340602289431
8.877384704,1.0000099892538548,61.502957398895134
8.899182592,1.0000139454158963,60.322658834613286
8.92098048,1.0000175389723986,59.14249467946229
8.942779392,1.0000205886241214,57.96249363354459
8.96457728,1.0000229632459985,56.78262220306654
8.986376192,1.0000247296371818,55.60292135118319
9.00817408,1.0000256521773847,54.42339609095369
9.029972992,1.0000257475991234,53.24403934534294
9.05177088,1.0000250697303439,52.06486212326674
9.073569792,1.0000236801581737,50.88587203943437
9.09536768,1.000021504372095,49.70705737448094
9.117166592,1.000018618221759,48.5284630736119
9.13896448,1.0000151402063733,47.35006607674078
9.160763392,1.000011144087291,46.17189705765834
9.18256128,1.0000069005733798,44.99393397246064
9.204359168,1.0000022700015727,43.816180077497734
9.22615808,0.9999975990547466,42.6386444949134
9.247955968,0.9999929438201719,41.461311129410916
9.26975488,0.9999885169906582,40.28421181906548
9.291552768,0.9999843819835784,39.107314373554935
9.31335168,0.9999806544652313,37.93063951790096
9.335149568,0.9999775312543215,36.754145116465374
9.35694848,0.999975002892741,35.57783580743301
9.378746368,0.9999731773749988,34.40172927532782
9.40054528,0.9999721674328226,33.22578701691483
9.422343168,0.9999720730578593,32.05001969709596
9.44414208,0.9999726716249316,30.874399191264853
9.465939968,0.9999741080953656,29.69893304522125
9.48773888,0.9999762891672415,28.523609670345557
9.509536768,0.9999793081647378,27.348410643025097
9.531334656,0.9999828411154114,26.173333105216223
9.553133568,0.9999868671197293,24.998358037691904
9.574931456,0.9999913783365566,23.823512539471764
9.596730368,0.9999960761844103,22.648742051583874
9.618528256,1.0000009421133795,21.474092155551155
9.640327168,1.0000057103740736,20.29954811440381
9.662125056,1.000010334961552,19.125082776946666
9.683923968,1.0000146055946324,17.950719387277303
9.705721856,1.0000185155823529,16.776463896092523
9.727520768,1.000021841600359,15.602303041094197
9.749318656,1.0000244640930929,14.428266995429189
9.771117568,1.0000262471827666,13.254330650222588
9.792915456,1.000027378033762,12.080494773144476
9.814714368,1.0000275708102213,10.906817985689553
9.836512256,1.0000269512041606,9.733258920613519
9.858310144,1.0000255194053222,8.559843349574951
9.880109056,1.000023150185923,7.386583326640857
9.901906944,1.0000201112826905,6.213452665006999
9.923705856,1.0000164592793053,5.0404974980390795
9.945503744,1.00001218992482,3.8677163314469554
9.967302656,1.0000075859622832,2.6950891318963843
9.989100544,1.0000026768291548,1.5226289997969156
10.010899456,0.9999977128756732,0.350337447418332
10.032697344,0.9999926488394064,-0.8217914584477816
10.054496256,0.9999878023762029,-1.9937524744732915
10.076294144,0.9999832631215524,-3.165554292253219
10.098093056,0.999979314546878,-4.337203206052579
10.119890944,0.9999757831682489,-5.508708897081643
10.141689856,0.9999730614315036,-6.680055078927075
10.163487744,0.9999710792106139,-7.851288479103039
10.185285632,0.9999699876245876,-9.022399972020684
10.207084544,0.9999696174424085,-10.19341420100853
10.228882432,0.9999703381093293,-11.364306660019292
10.250681344,0.9999718231651045,-12.535114363216413
10.272479232,0.9999741938996778,-13.705850431692982
10.294278144,0.9999772911216974,-14.876526881039757
10.316076032,0.9999811561496708,-16.047128625940676
10.337874944,0.9999854804260306,-17.21769259204534
10.359672832,0.9999902891569583,-18.388205526137817
10.381471744,0.9999953406636158,-19.558683096341717
10.403269632,1.0000006467037594,-20.729126317632787
10.425068544,1.0000057260474733,-21.89953650836511
10.446866432,1.0000107991862985,-23.06991297308299
10.468665344,1.0000154706566005,-24.24027316730096
10.490463232,1.0000196531276708,-25.410588361455748
10.51226112,1.0000232968951699,-26.580882559023298
10.534060032,1.0000261365039118,-27.751120794683775
10.55585792,1.000028157207175,-28.92131905947652
10.577656832,1.000029409432232,-30.09146077284409
10.59945472,1.0000296129493051,-31.261549984542686
10.621253632,1.000028939762515,-32.43156563278817
10.64305152,1.000027354896945,-33.601498462054714
10.664850432,1.00002489115171,-34.77136680791783
10.68664832,1.0000215990500447,-35.94114410947821
10.708447232,1.0000176273739851,-37.11083312995928
10.73024512,1.00001305889058,-38.28040521600585
10.752044032,1.000008060194836,-39.44987929956336
10.77384192,1.0000027077079163,-40.61926177101591
10.795640832,0.9999973122375689,-41.788538329330635
10.81743872,0.9999917744788782,-42.95770020918447
10.839236608,0.9999865613026628,-44.12676405569594
10.86103552,0.999981610054366,-45.295746953359185
10.882833408,0.9999772868997484,-46.464636581151964
10.90463232,0.9999734384981871,-47.63342964544046
10.926430208,0.9999704136406449,-48.80216229406357
10.94822912,0.9999682066492643,-49.9708267009574
10.970027008,0.9999669545939984,-51.139430316834336
10.99182592,0.9999666404982644,-52.308002036683
11.013623808,0.9999673432072056,-53.4765593667229
11.03542272,0.9999689863291524,-54.64507330114546
11.057220608,0.999971485623258,-55.81358956625284
11.07901952,0.9999748887491754,-56.98210227908884
11.100817408,0.9999789783296634,-58.15065897821331
11.122615296,0.9999837219684522,-59.319207167667194
11.144414208,0.9999889970645939,-60.48780410648587
11.166212096,0.9999945319913837,-61.65642076396198
11.188011008,1.00000023241645,-62.8250836328008
11.209808896,1.0000057977549637,-63.99378958033001
11.231607808,1.0000113708137375,-65.16255009170362
11.253405696,1.0000164498218174,-66.33133815228258
11.275204608,1.0000211194093753,-67.50018000936342
11.297002496,1.0000250201291188,-68.66904377870671
11.318801408,1.0000281764724215,-69.83795435566743
11.340599296,1.0000303504955934,-71.00688398406947
11.362398208,1.000031707122507,-72.1758304976447
11.384196096,1.0000320814771104,-73.34480843806352
11.405995008,1.0000312668209481,-74.51375915564714
11.427792896,1.0000295558266614,-75.68271765560847
11.449590784,1.0000268740418026,-76.85165680214163
11.471389696,1.0000234052680663,-78.02057083228371
11.493187584,1.0000190153832094,-79.18947548627223
11.514986496,1.000014051162755,-80.35831655006386
11.536784384,1.0000085681891824,-81.52712287510919
11.558583296,1.0000026924000525,-82.69591271541054
11.580381184,0.99999676252765,-83.86463927811795
11.602180096,0.9999907796171557,-85.03331837186818
11.623977984,0.9999850078695792,-86.20196973631751
11.645776896,0.9999796440521913,-87.37058947666678
11.667574784,0.999974758862576,-88.53919004861218
11.689373696,0.9999706285957446,-89.70775885153182
11.711171584,0.9999672288686952,-90.87631398650198
11.732970496,0.9999648642565142,-92.04486925926325
11.754768384,0.9999634484787553,-93.2134369942485
11.776566272,0.9999630383897076,-94.38202798825859
11.798365184,0.9999638109584121,-95.55063895187837
11.820163072,0.9999655091405605,-96.71931547391316
11.841961984,0.9999682712673591,-97.88803786272659
11.863759872,0.9999719894192765,-99.05683434931923
11.885558784,0.9999765038323225,-100.22570125665324
11.907356672,0.999981732892903,-101.39467381875957
11.929155584,0.999987434896052,-102.56373097713414
11.950953472,0.9999934846263419,-103.73289914929856
11.972752384,0.9999997767598932,-104.90215941808354
11.994550272,1.0000060331179892,-106.07153628299776
12.016349184,1.0000121085417821,-107.24102543811925
12.038147072,1.000017716418839,-108.41060885146395
12.059945984,1.0000228091297492,-109.58031054987997
12.081743872,1.0000271789522794,-110.75011385283648
12.10354176,1.0000306525599145,-111.9200094603208
12.125340672,1.0000331774743925,-113.08998757984668
12.14713856,1.000034663846033,-114.26005037216676
12.168937472,1.0000350978572932,-115.43017535430532
12.19073536,1.000034350909647,-116.60035907713662
12.212534272,1.0000325768272358,-117.77059106842137
12.23433216,1.0000296278225722,-118.94085637873104
12.256131072,1.0000257669405028,-120.11116055459168
12.27792896,1.0000211152304397,-121.28147149101419
12.299727872,1.0000155691381707,-122.45180772589322
12.32152576,1.0000095708625194,-123.62214989917733
12.343324672,1.0000032008430202,-124.79249997097139
12.36512256,0.9999965951661005,-125.9628546779196
12.386921472,0.9999900673675546,-127.1332036144205
12.40871936,0.9999836725517991,-128.30356890041247
12.430517248,0.9999776402110334,-129.47393569639917
12.45231616,0.9999722638604498,-130.64431630680957
12.474114048,0.9999675971146459,-131.814721781243
12.49591296,0.9999638333359097,-132.98516151838754
12.517710848,0.9999610547065153,-134.1556227644953
12.53950976,0.9999594549793429,-135.3261579788727
12.561307648,0.999958977142535,-136.49675895744815
12.58310656,0.9999596380878899,-137.6674225036938
12.604904448,0.9999615371911943,-138.83818606368828
12.62670336,0.999964482200675,-140.0090565047015
12.648501248,0.9999685298568146,-141.18003484253305
12.67030016,0.9999734428002255,-142.35114289857702
12.692098048,0.9999791021481584,-143.52237274626813
12.71389696,0.9999853680022452,-144.6937578212491
12.735694848,0.9999921481654445,-145.86528183385954
12.757492736,0.9999991654122126,-147.03697899681669
12.779291648,1.0000060578312138,-148.20881061828322
12.801089536,1.000012852344034,-149.38078137789697
12.822888448,1.0000191305075175,-150.55293860419494
12.844686336,1.0000249029849007,-151.72522475460678
12.866485248,1.0000298172052906,-152.8976549063954
12.888283136,1.0000339079796847,-154.0702217447584
12.910082048,1.0000368601716345,-155.24291429471506
12.931879936,1.000038648894406,-156.4157116907948
12.953678848,1.0000392374546425,-157.58861150073608
12.975476736,1.000038552640787,-158.76161904570236
12.997275648,1.0000367133317483,-159.93469371922248
13.019073536,1.0000335956939934,-161.10783827415386
13.040871424,1.0000293782863063,-162.28103846421703
13.062670336,1.0000242350363682,-163.45429024280338
13.084468224,1.0000182188215363,-164.62757612868432
13.106267136,1.0000115116420196,-165.80088728037697
13.128065024,1.0000043304339414,-166.974219242814
13.149863936,0.9999970399959393,-168.14759281218758
13.171661824,0.999989507240436,-169.32096811761556
13.193460736,0.9999822914992706,-170.49436207204602
13.215258624,0.999975506744072,-171.66778603366916
13.237057536,0.9999693087914642,-172.8412419477997
13.258855424,0.9999639325692355,-174.01472528156836
13.280654336,0.9999594358348377,-175.1882690281025
13.302452224,0.9999561129149159,-176.36184821254292
13.324251136,0.9999541148826618,-177.53550771861072
13.346049024,0.9999533254725005,-178.7092405128623
13.367846912,0.9999538625885642,-179.8830592436206
13.389645824,0.9999556363228184,178.94300291780334
13.411443712,0.9999588220566744,177.76895187870355
13.433242624,0.9999630813248409,176.59476883987998
13.455040512,0.9999684950173217,175.42045661532617
13.476839424,0.9999748048684908,174.24597337883722
13.498637312,0.9999818673596893,173.07133781972396
13.520436224,0.9999894193692586,171.89653454160344
13.542234112,0.9999973146067727,170.72155771717567
13.564033024,1.0000051220892066,169.54641783818818
13.585830912,1.0000128482011132,168.37110025789426
13.607629824,1.0000202676111074,167.19560867741333
13.629427712,1.0000269224397416,166.01994237293633
13.651226624,1.0000327103054223,164.8441288423658
13.673024512,1.0000375955052585,163.66817496275618
13.6948224,1.0000411842721382,162.49207193820473
13.716621312,1.0000435120340687,161.31584601656238
13.7384192,1.0000444670355966,160.1395115397404
13.760218112,1.0000439698432888,158.96308488146082
13.782016,1.000042204246033,157.78656090862086
13.803814912,1.0000388517931151,156.60999539572535
13.8256128,1.0000342892589897,155.43334677702242
13.847411712,1.000028553371328,154.25666353661092
13.8692096,1.0000218203073237,153.0799647858739
13.891008512,1.0000142371580716,151.90322897289434
13.9128064,1.000006090285232,150.72648910283877
13.934605312,0.9999976710914465,149.5497293885662
13.9564032,0.9999891256254685,148.37297953478767
13.978202112,0.9999806789034801,147.19621756177537
14.0,0.9999726541042594,146.0194563602638
