freq,mag,phase
6.0,1.000261656558123,-62.52748012247742
6.003125248,1.0002385301347285,-62.678833391784
6.006249984,1.0001988695895683,-62.829698889513296
6.009375232,1.000146260240943,-62.97998291964681
6.012499968,1.0000842555989662,-63.129455150870044
6.015625216,1.0000166267311474,-63.27802813381569
6.018749952,0.999947622191804,-63.42563194684057
6.0218752,0.9998813752429807,-63.572275058939866
6.024999936,0.9998221487140397,-63.718048993154454
6.028125184,0.9997736277070421,-63.863081244826
6.03124992,0.9997387564282708,-64.00754805745666
6.034375168,0.9997198038163695,-64.15162146425823
6.037499904,0.999717733170761,-64.29556045972271
6.040625152,0.9997331376666263,-64.4396575213861
6.043749888,0.9997646901625914,-64.58409242301086
6.046875136,0.9998107232201348,-64.72911489921903
6.049999872,0.9998679626695399,-64.87488780030861
6.05312512,0.9999332131109485,-65.021594076469
6.056249856,1.0000024451188299,-65.16929011344202
6.059375104,1.0000710946682347,-65.31801277562339
6.06249984,1.0001351198582706,-65.46766309706938
6.065625088,1.0001903358518796,-65.61827630854104
6.068749824,1.0002334240544277,-65.76952299016665
6.071875072,1.000261465846679,-65.92140179291961
6.074999808,1.0002732328745036,-66.07356026376691
6.078125056,1.0002675967640577,-66.22579460184858
6.081249792,1.0002449962100575,-66.37780219686657
6.08437504,1.0002066914691974,-66.52944715943804
6.087499776,1.0001550957884435,-66.68046199961265
6.090625024,1.0000935758001326,-66.83072111116735
6.09374976,1.000025714885208,-66.98004694529673
6.096875008,0.9999559448107177,-67.12837735170798
6.099999744,0.9998886824124388,-67.27578067944076
6.103124992,0.9998277700446562,-67.42227906470832
6.10625024,0.9997771202831898,-67.56795491175858
6.109374976,0.9997402054143879,-67.71305117724573
6.112500224,0.9997186287001387,-67.85778821708314
6.11562496,0.9997147590565261,-68.00227335258529
6.118750208,0.9997278920243741,-68.14691687321219
6.121874944,0.9997577887607426,-68.2919251493313
6.125000192,0.9998024388472215,-68.4374416410524
6.128124928,0.9998591627561749,-68.5837218711334
6.131250176,0.9999240428957763,-68.7308824017916
6.134374912,0.9999935552686062,-68.87907224185446
6.13750016,1.0000631307016878,-69.02826893448518
6.140624896,1.000128592598774,-69.17847966979633
6.143750144,1.0001855739054968,-69.3295403402549
6.14687488,1.0002308623900629,-69.48145898777597
6.150000128,1.0002614267688936,-69.63384525689048
6.153124864,1.0002754477659908,-69.78665439572845
6.156250112,1.0002719095829684,-69.93951634234946
6.159374848,1.0002512078678305,-70.09224855900294
6.162500096,1.0002144890306783,-70.24461366616003
6.165624832,1.0001642191975282,-70.39632705563652
6.16875008,1.000103055237905,-70.5473192964796
6.171874816,1.0000352294223926,-70.69739373460902
6.175000064,0.9999648855420622,-70.8465054664303
6.1781248,0.9998962526837221,-70.99456011270752
6.181250048,0.9998337000290274,-71.14178322063144
6.184374784,0.9997811403596244,-71.28815191609428
6.187500032,0.999741690430313,-71.43390505201889
6.190624768,0.9997181423514739,-71.57921328367826
6.193750016,0.9997117972561987,-71.72434638401594
6.196874752,0.9997227925033595,-71.86951109660433
6.2,0.9997507490380744,-72.0150007395297
6.203125248,0.9997941939439442,-72.16102305814225
6.206249984,0.9998498025119348,-72.30776638763382
6.209375232,0.9999146225915111,-72.45545034348285
6.212499968,0.9999843709372805,-72.60410158150061
6.215625216,1.0000549863573864,-72.75372095777304
6.218749952,1.0001217518534027,-72.90443417733222
6.2218752,1.0001807560003433,-73.05603542622993
6.224999936,1.0002279976181798,-73.20846136016614
6.228125184,1.000260987009048,-73.36141889879575
6.23124992,1.0002773989626694,-73.5148268384151
6.234375168,1.000276121652299,-73.66838951606802
6.237499904,1.0002573580963428,-73.82176190322653
6.240625152,1.000222321744604,-73.97480479996099
6.243749888,1.0001732358901532,-74.12723180076836
6.246875136,1.0001127813774426,-74.27892823250279
6.249999872,1.0000449405389622,-74.42974740910645
6.25312512,0.9999741661274636,-74.57952673408145
6.256249856,0.9999043393004358,-74.72837027543976
6.259375104,0.9998401818696736,-74.87625803798103
6.26249984,0.999785600481789,-75.02332802021688
6.265625088,0.9997438622152378,-75.1696864254647
6.268749824,0.9997179143667115,-75.31561964475462
6.271875072,0.9997090924169724,-75.46127650087985
6.274999808,0.999718073423811,-75.60702685899125
6.278125056,0.9997441314880585,-75.75298881841395
6.281249792,0.9997858352343255,-75.89950285464374
6.28437504,0.9998407140800372,-76.04668246470156
6.287499776,0.9999052156746162,-76.19478527700788
6.290625024,0.9999750996418002,-76.34389726028525
6.29374976,1.0000464929613977,-76.49399405296771
6.296875008,1.0001146895042192,-76.64516520049126
6.300000256,1.000175404037268,-76.79725514409338
6.303124992,1.000224974794131,-76.95022221788484
6.30625024,1.000260240941875,-77.1037316672351
6.309374976,1.0002789521484445,-77.25774607733277
6.312500224,1.0002802217071123,-77.41184648477504
6.31562496,1.0002635445352999,-77.5659070364195
6.318750208,1.0002302527985036,-77.71958517039134
6.321874944,1.0001822942358793,-77.87276234307318
6.325000192,1.0001224728260032,-78.02516361274564
6.328124928,1.0000548276684917,-78.17667677428578
6.331250176,0.999983341047052,-78.32719710011415
6.334374912,0.9999126061684115,-78.47673103826808
6.33750016,0.9998469101799299,-78.62533531102072
6.340624896,0.9997903808131646,-78.77302558064993
6.343750144,0.9997463906393151,-78.92003716757017
6.34687488,0.9997178467818663,-79.06650215357556
6.350000128,0.9997065847180903,-79.21277111249687
6.353124864,0.9997132153739983,-79.35901285775165
6.356250112,0.999737393214363,-79.5054574470095
6.359374848,0.9997776752772055,-79.65240738451276
6.362500096,0.9998315242814461,-79.80006906037806
6.365624832,0.9998954805619175,-79.94856941717232
6.36875008,0.9999654769638767,-80.09812554805424
6.371874816,1.0000375924557539,-80.248679874438
6.375000064,1.0001070919248738,-80.40026552501419
6.3781248,1.0001695606433634,-80.55283152466885
6.381250048,1.0002214557351867,-80.70625403640797
6.384374784,1.0002591493663957,-80.86032621870562
6.387500032,1.0002802940927926,-81.01486850144497
6.390624768,1.0002838492408512,-81.16963100770909
6.393750016,1.0002695223630929,-81.3242920861204
6.396874752,1.0002379280825282,-81.47864387325477
6.4,1.0001913881356825,-81.63247812628418
6.403125248,1.0001324710267328,-81.7855909021053
6.406249984,1.000064939939211,-81.9377891592303
6.409375232,0.9999930190737755,-82.08899517221664
6.412499968,0.9999212115028918,-82.23925839016397
6.415625216,0.9998539321758751,-82.38848693189672
6.418749952,0.9997953114188598,-82.53680900366155
6.4218752,0.9997491305746328,-82.6844096340508
6.424999936,0.9997181925047056,-82.83152246622738
6.428125184,0.9997043698704567,-82.97830125115145
6.43124992,0.9997086649423391,-83.12504041106986
6.434375168,0.999730800061037,-83.27195252437873
6.437499904,0.9997693916706824,-83.41934201861405
6.440625152,0.9998218571056949,-83.56745052234024
6.443749888,0.9998854301014256,-83.71635902460721
6.446875136,0.9999555829156919,-83.86626669102374
6.449999872,1.000028468753083,-84.01725300585406
6.45312512,1.0000991884071693,-84.16925965016453
6.456249856,1.0001635303880385,-84.32227821273723
6.459375104,1.0002174290450636,-84.47618068570739
6.46249984,1.0002575728494325,-84.6307691427009
6.465625088,1.0002812924248745,-84.7858346719048
6.468749824,1.0002874338629857,-84.9411317354331
6.471875072,1.0002751358920847,-85.09642838127473
6.474999808,1.0002455327336772,-85.25140612563298
6.478125056,1.00020038353907,-85.40589617697363
6.481249792,1.0001423381203685,-85.5596650384106
6.48437504,1.000075104424662,-85.71259434303882
6.487499776,1.0000028800739633,-85.86448928098379
6.490625024,0.9999301725979849,-86.01535958992895
6.49374976,0.9998612677421226,-86.16525073929148
6.496875008,0.9998007132342306,-86.31424633546754
6.499999744,0.9997523010654504,-86.46242305811134
6.503124992,0.9997187617892643,-86.61008783786134
6.50625024,0.9997023952937928,-86.7573740283131
6.509374976,0.9997043531497447,-86.90458128834445
6.512500224,0.9997242402677398,-87.0519970292863
6.51562496,0.9997610717325351,-87.19982219488891
6.518750208,0.9998123731766141,-87.34830121737973
6.521874944,0.9998754394708352,-87.49757238190197
6.525000192,0.9999457124575505,-87.64790056187562
6.528124928,1.0000190305992325,-87.79921420730336
6.531250176,1.0000910793036477,-87.9516704101973
6.534374912,1.0001570449453634,-88.10510652611484
6.53750016,1.0002130636894415,-88.25942809822678
6.540624896,1.000255694392602,-88.41449658010741
6.543750144,1.0002819902349587,-88.57007621064203
6.54687488,1.0002905760318561,-88.72591549360725
6.550000128,1.0002807406323333,-88.88177255337473
6.553124864,1.0002532137214852,-89.03741530213495
6.556250112,1.0002095909487116,-89.19254333637457
6.559374848,1.000152462292652,-89.34696144323375
6.562500096,1.0000858045500016,-89.50051614212454
6.565624832,1.0000131425917358,-89.65310719033737
6.56875008,0.9999393546733101,-89.80461869556487
6.571874816,0.9998691164760344,-89.95515242293187
6.575000064,0.9998065852220888,-90.10476038436383
6.5781248,0.9997557551097113,-90.25356232164782
6.581250048,0.9997197508802066,-90.40169222016353
6.584374784,0.9997008660957885,-90.54950863815837
6.587500032,0.9997002310095648,-90.69719732433036
6.590624768,0.999717959433292,-90.84503070443203
6.593750016,0.9997530116488105,-90.99324469065103
6.596874752,0.999802976493061,-91.14212161945262
6.6,0.999865137748997,-91.29179482420757
6.603125248,0.9999353421527811,-91.44246312339271
6.606249984,1.000009383692834,-91.59414128561228
6.609375232,1.000082564349224,-91.74692298431445
6.612499968,1.000150249266649,-91.90077561091792
6.615625216,1.000208542307427,-92.05552382450607
6.618749952,1.0002534911420948,-92.21104805688366
6.6218752,1.0002825024621476,-92.36707897919071
6.624999936,1.0002935048049266,-92.5234737868333
6.628125184,1.0002862151436895,-92.67990396013064
6.63124992,1.0002607044677299,-92.83610986275092
6.634375168,1.0002186163739082,-92.99184422807274
6.637499904,1.0001627262418993,-93.14690583171789
6.640625152,1.0000963775911949,-93.30110115170493
6.643749888,1.0000235566192863,-93.45431230721321
6.646875136,0.9999490402950706,-93.60650596863442
6.649999872,0.9998773703691002,-93.75765396404911
6.65312512,0.9998128421983157,-93.90782299934294
6.656249856,0.9997595559674639,-94.05719855231223
6.659375104,0.9997210087835335,-94.20588589017538
6.66249984,0.9996994988566248,-94.35419569333926
6.665625088,0.9996963221164126,-94.50231916594988
6.668749824,0.9997118361691019,-94.65056139765741
6.671875072,0.9997448565222317,-94.79919807102928
6.674999808,0.9997934512241982,-94.94837317995628
6.678125056,0.9998548072190376,-95.09837876299459
6.681249792,0.9999247723335009,-95.24938586948582
6.68437504,0.9999992682328507,-95.40144770155902
6.687499776,1.000073596552726,-95.55456555071703
6.690625024,1.0001430011362094,-95.70874396090777
6.69374976,1.0002033887965325,-95.86385787154842
6.696875008,1.0002509086536335,-96.01979873084467
6.700000256,1.000282512549871,-96.17635668048393
6.703124992,1.0002962758125078,-96.33321258991488
6.70625024,1.0002913896705588,-96.49015821220112
6.709374976,1.0002680597270275,-96.64694399311021
6.712500224,1.0002277230711139,-96.80327193486553
6.71562496,1.000172952821636,-96.95892414384856
6.718750208,1.0001071154024697,-97.1137610644709
6.721874944,1.000034242074181,-97.2676005974639
6.725000192,0.999958875498151,-97.42039215472376
6.728124928,0.9998857931697087,-97.57216140299951
6.731250176,0.999819394690647,-97.7228961375057
6.734374912,0.9997639412482555,-97.87279896026938
6.73750016,0.9997228012157741,-98.02198520249617
6.740624896,0.9996985245782584,-98.17078566181384
6.743750144,0.9996926975035496,-98.31934059489325
6.74687488,0.9997056112261493,-98.46797674512013
6.750000128,0.9997367654382033,-98.61694944759225
6.753124864,0.9997839891150163,-98.7664586049545
6.756250112,0.9998442722949811,-98.9168039802647
6.759374848,0.9999139819300117,-99.06810820686172
6.762500096,0.9999888735005159,-99.22044228554368
6.765624832,1.000064275693425,-99.37389433932064
6.76875008,1.0001353360316383,-99.52840492925922
6.771874816,1.0001978021151694,-99.68391952779848
6.775000064,1.0002478036818632,-99.84025598441065
6.7781248,1.0002820872078182,-99.99717093472364
6.781250048,1.0002986038610147,-100.15451353408712
6.784374784,1.0002962773701451,-100.31201109211666
6.787500032,1.000275231502296,-100.46929158140702
6.790624768,1.0002367521276416,-100.62617456045898
6.793750016,1.00018331383886,-100.78244537063084
6.796874752,1.0001180718087885,-100.93788578770175
6.8,1.000045177565913,-101.09231254811768
6.803125248,0.9999690841092005,-101.24570648145183
6.806249984,0.9998947230961998,-101.39802697588816
6.809375232,0.9998263893963053,-101.5493266371138
6.812499968,0.9997685227935904,-101.69977683881845
6.815625216,0.9997247736016782,-101.84947156380399
6.818749952,0.9996979195295836,-101.99867327615058
6.8218752,0.999689421523021,-102.14765268434135
6.824999936,0.9996999265136235,-102.29664498401499
6.828125184,0.9997288981373047,-102.4459468377304
6.83124992,0.9997744671553203,-102.59581255961427
6.834375168,0.9998338225236473,-102.74644816154479
6.837499904,0.9999031492345655,-102.89801450329865
6.840625152,0.999978380650511,-103.0506048182946
6.843749888,1.000054737797241,-103.20437547685036
6.846875136,1.0001275329177197,-103.35917521778822
6.849999872,1.00019205292746,-103.51500237652432
6.85312512,1.000244520145626,-103.67167398775968
6.856249856,1.0002815070505489,-103.82904197160047
6.859375104,1.0003006621331803,-103.98681899161261
6.86249984,1.0003010308598852,-104.14471417821049
6.865625088,1.0002822670865692,-104.3025729361125
6.868749824,1.0002457913521832,-104.45999749102144
6.871875072,1.0001936463610055,-104.61682388141317
6.874999808,1.0001291247895066,-104.7728170718176
6.878125056,1.0000563266367901,-104.92783018530723
6.881249792,0.9999797081650734,-105.08179528565108
6.88437504,0.9999038751750439,-105.23468862958978
6.887499776,0.9998338294419873,-105.38654106513751
6.890625024,0.9997736832533617,-105.53747621320575
6.89374976,0.9997272676533052,-105.68764144183642
6.896875008,0.9996975700579622,-105.83729368439415
6.899999744,0.9996862986786155,-105.98664595844205
6.903124992,0.9996942646132261,-106.13599516272522
6.90625024,0.9997209804997643,-106.28561586834913
6.909374976,0.9997647512372005,-106.4357436175755
6.912500224,0.9998230202455447,-106.58663213026772
6.91562496,0.9998919500313785,-106.73842571726958
6.918750208,0.9999674133845255,-106.89130503018558
6.921874944,1.000044777394185,-107.04530551674706
6.925000192,1.0001190206873145,-107.20039209634376
6.928124928,1.0001856907698785,-107.3565351110689
6.931250176,1.0002405494868976,-107.51353196832308
6.934374912,1.0002802773451058,-107.67124246416932
6.93750016,1.0003023929976604,-107.82943736539984
6.940624896,1.0003052801323071,-107.98778426134291
6.943750144,1.0002891207385771,-108.14609109816007
6.94687488,1.0002546107200594,-108.30403297939026
6.950000128,1.000203985365097,-108.46136543645083
6.953124864,1.0001403321009432,-108.61792060022601
6.956250112,1.0000676738415857,-108.77350067534053
6.959374848,0.9999905535501846,-108.92797730295247
6.962500096,0.9999135309807968,-109.08142439322361
6.965624832,0.9998415461827429,-109.23382793116332
6.96875008,0.9997791600788112,-109.38520201064829
6.971874816,0.9997301118476496,-109.53582304802522
6.975000064,0.9996975799873021,-109.68586717089362
6.9781248,0.9996834975970155,-109.83562768369514
6.981250048,0.9996889353481739,-109.98529227648596
6.984374784,0.999713319035723,-110.13517243762468
6.987500032,0.9997553268999197,-110.28557333364633
6.990624768,0.9998122991781846,-110.43669392645734
6.993750016,0.999880724502203,-110.58874472080049
6.996874752,0.9999563537520967,-110.74181089447887
7.0,1.000034406854923,-110.89604152914742
7.003125248,1.0001102735260243,-111.05136233720114
7.006249984,1.0001789550060611,-111.2077597692715
7.009375232,1.0002363357486772,-111.36506251423873
7.012499968,1.0002788747636269,-111.52312498939081
7.015625216,1.0003036838262631,-111.68165254514746
7.018749952,1.0003095669999378,-111.84041898600934
7.0218752,1.0002958258689956,-111.99919376177644
7.024999936,1.000263492498293,-112.15758922677871
7.028125184,1.0002143552562481,-112.315441038679
7.03124992,1.0001518378040182,-112.47251085427962
7.034375168,1.000079281302547,-112.62863290233621
7.037499904,1.0000015968068472,-112.78366361658368
7.040625152,0.999923496879798,-112.93759949767109
7.043749888,0.9998497760351164,-113.09044507869842
7.046875136,0.9997850562942202,-113.24233447795545
7.049999872,0.9997335345094333,-113.39338230218472
7.05312512,0.9996980549814062,-113.54380206692555
7.056249856,0.9996811690857198,-113.69388115730608
7.059375104,0.999683717117802,-113.84382876894436
7.06249984,0.9997057631370577,-113.9940426570783
7.065625088,0.999745849724934,-114.1446413878542
7.068749824,0.9998014919188233,-114.29595141536241
7.071875072,0.9998693311096689,-114.44819924446905
7.074999808,0.999944918474917,-114.60147966581071
7.078125056,1.0000238869248874,-114.75587345776177
7.081249792,1.0001010759554747,-114.9114046876381
7.08437504,1.0001717907917222,-115.06802804085983
7.087499776,1.0002317058471302,-115.22559483061538
7.090625024,1.0002769012044703,-115.38393989643163
7.09374976,1.000304763058859,-115.54279975619066
7.096875008,1.0003133899665357,-115.7019484956086
7.100000256,1.000302240320764,-115.86107696608097
7.103124992,1.0002721337555063,-116.01998098415854
7.10625024,1.00022477043789,-116.17833095011731
7.109374976,1.0001632347539335,-116.33585595964287
7.112500224,1.0000911677068784,-116.49246783929779
7.11562496,1.000013059007596,-116.64804539425064
7.118750208,0.9999338701967181,-116.80248272529927
7.121874944,0.9998583988096928,-116.95579761377263
7.125000192,0.9997915667539393,-117.10808576855833
7.128124928,0.999737153250215,-117.25955683796874
7.131250176,0.9996989183722553,-117.41034494747153
7.134374912,0.9996790972726475,-117.56074398644725
7.13750016,0.9996789004288708,-117.71100957619144
7.140624896,0.9996984720822486,-117.86137819420564
7.143750144,0.9997365367123225,-118.01218306638593
7.14687488,0.9997906417728774,-118.16370506765456
7.150000128,0.9998576363200503,-118.31611773619872
7.153124864,0.9999333596242168,-118.46952202034903
7.156250112,1.000013029319719,-118.6240822936116
7.159374848,1.0000914871764957,-118.77979557605349
7.162500096,1.0001643129341398,-118.93661149279785
7.165624832,1.0002266454248343,-119.09438886780161
7.16875008,1.0002746247102694,-119.25299002579665
7.171874816,1.000305396674561,-119.41216228701583
7.175000064,1.000316974179439,-119.57166439927484
7.1781248,1.0003086386949633,-119.73120947841011
7.181250048,1.0002807821860116,-119.89049041691558
7.184374784,1.0002352642172163,-120.0492556715336
7.187500032,1.0001748194222815,-120.20725516649689
7.190624768,1.0001032184960406,-120.3643430217737
7.193750016,1.0000247938230051,-120.520394538809
7.196874752,0.9999446424657921,-120.67527128595144
7.2,0.9998675315966947,-120.82902892347069
7.203125248,0.999798383325677,-120.98178693203391
7.206249984,0.9997414746377706,-121.13358517409613
7.209375232,0.999700281326109,-121.2847529651681
7.212499968,0.9996773514967822,-121.43542002564719
7.215625216,0.9996743974934194,-121.58592135501969
7.218749952,0.9996912854278958,-121.73651799527887
7.2218752,0.99972722600571,-121.88754844592172
7.224999936,0.9997798677630044,-122.03919632021956
7.228125184,0.9998460198682274,-122.19171444456673
7.23124992,0.9999214924470241,-122.34524994987447
7.234375168,1.0000017403235555,-122.49991790625582
7.237499904,1.000081606084426,-122.65575403930144
7.240625152,1.000156307725147,-122.81272281576781
7.243749888,1.0002209563094833,-122.97072637307474
7.246875136,1.0002717966694699,-123.12950878349547
7.249999872,1.0003056198287275,-123.28894947736939
7.25312512,1.0003200486203383,-123.44876265980871
