freq,mag,phase
6.0,0.9989849169250402,-35.87388694124504
6.008483328,0.9990325860815197,-36.190397144790566
6.016967168,0.9991315163290634,-36.50795448428186
6.025450496,0.9992762596036947,-36.82721905250057
6.033934336,0.9994592815828542,-37.14879230217493
6.042417664,0.9996708411769455,-37.473095556995986
6.050901504,0.9998999706307032,-37.80035255316329
6.059384832,1.0001343015837005,-38.13082986551785
6.067868672,1.0003612719542454,-38.464458614169615
6.076352,1.0005694237990868,-38.801065759898236
6.08483584,1.0007470628363684,-39.14033121953715
6.093319168,1.0008851045726266,-39.48180967002626
6.101803008,1.000976337364611,-39.82489127888317
6.110286336,1.0010156003668564,-40.168901352355576
6.118769664,1.0010009680050678,-40.51325190518369
6.127253504,1.000933190876694,-40.85710891691918
6.135736832,1.0008156240256454,-41.19984675607317
6.144220672,1.000654585704238,-41.54084818775184
6.152704,1.000458574525264,-41.87957618487486
6.16118784,1.000237930030923,-42.21567770182628
6.169671168,1.0000041994663125,-42.54883385338265
6.178155008,0.9997697843459151,-42.87895062652398
6.186638336,0.9995471577590707,-43.206187756555
6.195122176,0.9993481543399985,-43.530670327274876
6.203605504,0.9991833288252492,-43.85283752853757
6.212088832,0.9990613285032645,-44.173207652898476
6.220572672,0.9989889752991716,-44.4923741294887
6.229056,0.9989699550385045,-44.8109840639022
6.23753984,0.9990052687049964,-45.129825293123936
6.246023168,0.999093313090727,-45.449605665648505
6.254507008,0.9992291188298517,-45.77092140999363
6.262990336,0.9994058748113136,-46.09443968394211
6.271474176,0.9996139481416326,-46.420596065795706
6.279957504,0.9998425468272275,-46.749765674756894
6.288441344,1.0000793771082774,-47.08210425556111
6.296924672,1.0003119456043488,-47.41769537633615
6.305408512,1.0005280264677936,-47.756301035335156
6.31389184,1.0007161857419278,-48.09769575931707
6.322375168,1.0008663553175274,-48.44144836654717
6.330859008,1.0009705863669365,-48.787013312817145
6.339342336,1.0010232962316548,-49.133674846883785
6.347826176,1.0010217411380145,-49.48080377391267
6.356309504,1.0009658567649415,-49.827601121039606
6.364793344,1.0008585458371009,-50.17351968826507
6.373276672,1.0007055885516163,-50.517774748893004
6.381760512,1.0005150083942642,-50.85985585948855
6.39024384,1.0002965773871941,-51.19933985849391
6.39872768,1.0000622782370139,-51.535902182075105
6.407211008,0.9998241530373952,-51.86941371612393
6.415694336,0.9995948435432864,-52.199964779347255
6.424178176,0.9993866068315091,-52.5276829134689
6.432661504,0.9992105798504723,-52.85294973233485
6.441145344,0.9990759153167338,-53.17622826971593
6.449628672,0.998990042832598,-53.49811832471072
6.458112512,0.9989574944472418,-53.81929455677873
6.46659584,0.9989798444607725,-54.14058298740289
6.47507968,0.9990561653976291,-54.46252327812343
6.483563008,0.9991824056412699,-54.7859514530076
6.492046848,0.9993519163649173,-55.111465640305
6.500530176,0.9995557316775506,-55.439500084769115
6.509014016,0.9997830381312741,-55.77050772427646
6.517497344,1.000021960763543,-56.10472594824295
6.525980672,1.0002594888744447,-56.44223780491091
6.534464512,1.0004834141266448,-56.78287897533926
6.54294784,1.0006817571380338,-57.1263955955088
6.55143168,1.000843998903965,-57.47243044120975
6.559915008,1.000961386280175,-57.82038470973211
6.568398848,1.0010280305709378,-58.169695782179716
6.576882176,1.0010402363891997,-58.5196278735406
6.585366016,1.0009968865034482,-58.869439824742315
6.593849344,1.0009008409641,-59.21845164128631
6.602333184,1.0007569109302834,-59.56594788320202
6.610816512,1.0005724175890485,-59.91140969895349
6.619300352,1.0003572417684152,-60.254337246235025
6.62778368,1.0001227150397776,-60.594373442135826
6.636267008,0.9998815245135513,-60.93130579680988
6.644750848,0.9996458512218614,-61.26523915550016
6.653234176,0.999428769396785,-61.596229463973756
6.661718016,0.9992414725434444,-61.92464391591402
6.670201344,0.9990938919055239,-62.250923583921846
6.678685184,0.9989941221280172,-62.57563111360089
6.687168512,0.99894734880241,-62.89945325285338
6.695652352,0.9989561948259367,-63.223127631974556
6.70413568,0.9990202113838518,-63.547400968684485
6.71261952,0.999135987885462,-63.87291307335839
6.721102848,0.9992972972605033,-64.20041394860759
6.729586176,0.9994960156080553,-64.53035467291346
6.738070016,0.9997213846214441,-64.86322041523019
6.746553344,0.9999614186286796,-65.19931408621926
6.755037184,1.0002036409940214,-65.53867940710418
6.763520512,1.0004350423014283,-65.88128265176545
6.772004352,1.0006434821358938,-66.22691073662996
6.78048768,1.0008178209431893,-66.57514817152082
6.78897152,1.0009488132344808,-66.9255449046767
6.797454848,1.001029759344995,-67.27740545547968
6.805938688,1.0010559671011607,-67.6301087343585
6.814422016,1.0010263361998781,-67.98293006740302
6.822905856,1.0009420812380379,-68.3350249314958
6.831389184,1.00080782448783,-68.68583641189626
6.839872512,1.0006305381513791,-69.03466919808429
6.848356352,1.0004193995114696,-69.38102617325494
6.85683968,1.0001857546240855,-69.72454856815045
6.86532352,0.9999417618912555,-70.06501884340506
6.873806848,0.9997005399584714,-70.40232838242972
6.882290688,0.9994747559820435,-70.73667662483896
6.890774016,0.9992762638345504,-71.0682912399528
6.899257856,0.9991157171039182,-71.39758438891283
6.907741184,0.9990017496854618,-71.72517200397955
6.916225024,0.9989403544439158,-72.05163928561548
6.924708352,0.9989348898181638,-72.37782342443589
6.933192192,0.9989857154537247,-72.70435605669023
6.94167552,0.9990901239786415,-73.03203677300581
6.950158848,0.9992425437677087,-73.36151706400041
6.958642688,0.9994352392294819,-73.69336079549522
6.967126016,0.9996576959838349,-74.0280510239861
6.975609856,0.9998984047723802,-74.36596393942762
6.984093184,1.0001444724658946,-74.70716938181961
6.992577024,1.0003829305416119,-75.05171451709279
7.001060352,1.0006012014527392,-75.39934245381214
7.009544192,1.0007877047301357,-75.7497755643185
7.01802752,1.0009324939435278,-76.10249127732531
7.02651136,1.0010281051748822,-76.4569216729895
7.034994688,1.0010692567976802,-76.81234978096494
7.043478016,1.0010537322634503,-77.16804564287068
7.051961856,1.000982207503049,-77.52327039983544
7.060445184,1.0008587621065421,-77.87729514018862
7.068929024,1.000689374839997,-78.22952521380641
7.077412352,1.0004832284790728,-78.57938965092289
7.085896192,1.000251205380843,-78.92640778127412
7.09437952,1.0000053741805601,-79.2703399763957
7.10286336,0.9997589590608674,-79.61116167206237
7.111346688,0.9995247861571931,-79.94885845377459
7.119830528,0.9993153376236112,-80.28371622260377
7.128313856,0.9991417444398181,-80.61611824661462
7.136797696,0.9990132420129302,-80.94658823357778
7.145281024,0.9989367565704074,-81.27579464572251
7.153764352,0.9989163654935472,-81.60446472205727
7.162248192,0.9989531089432876,-81.93333118872047
7.17073152,0.9990452190672937,-82.26311815514202
7.17921536,0.9991879686315097,-82.59455827321001
7.187698688,0.9993735094122678,-82.92830896859125
7.196182528,0.9995923645227416,-83.26479912214971
7.204665856,0.9998327841281406,-83.60444159314528
7.213149696,1.0000821387126833,-83.94743134742755
7.221633024,1.000327141228231,-84.29382946212392
7.230116864,1.0005550711442692,-84.64343051732345
7.238600192,1.000753599795189,-84.99593653370839
7.24708352,1.0009125996149357,-85.3509477908634
7.25556736,1.0010230161136078,-85.70781382900189
7.264050688,1.001079547444541,-86.06591662947204
7.272534528,1.0010789275660936,-86.42449489940678
7.281017856,1.0010210909790338,-86.78276773169073
7.289501696,1.000909192458038,-87.14002772658989
7.297985024,1.0007488471458836,-87.49558986196391
7.306468864,1.0005487541968343,-87.84886087662957
7.314952192,1.0003191034666343,-88.19940418407224
7.323436032,1.000072105887738,-88.54688825508958
7.33191936,0.9998211324005638,-88.89117205965853
7.3404032,0.9995789834480419,-89.2322588383201
7.348886528,0.9993588559173522,-89.5703578536281
7.357369856,0.9991721281699516,-89.90588463141617
7.365853696,0.999028991462085,-90.2392946356365
7.374337024,0.9989368866770464,-90.57123080312039
7.382820864,0.998900866718356,-90.90241603887141
7.391304192,0.9989228354015112,-91.23358647279773
7.399788032,0.99900173946304,-91.56550805400272
7.40827136,0.9991335463662974,-91.89891374943133
7.4167552,0.9993111044364095,-92.23449887253066
7.425238528,0.9995251833399078,-92.57275178342998
7.433722368,0.9997644984551999,-92.91410241054355
7.442205696,1.0000164013439423,-93.25880902274676
7.450689536,1.000267491859713,-93.60694828706905
7.459172864,1.0005045744113439,-93.95840056470612
7.467656192,1.000715051605014,-94.31296062743701
7.476140032,1.0008879153355072,-94.67010493639853
7.48462336,1.001013930690033,-95.02938277408089
7.4931072,1.0010863470066362,-95.3900262664051
7.501590528,1.0011012540380666,-95.75135361667849
7.510074368,1.0010580801053914,-96.11262285022114
7.518557696,1.0009586329031785,-96.47304355066117
7.527041536,1.0008083580600413,-96.83192668670645
7.535524864,1.00061509525328,-97.18860433224715
7.544008704,1.0003890642603683,-97.54261932054652
7.552492032,1.0001419884173728,-97.89363196372506
7.56097536,0.999886893416384,-98.24135771299511
7.5694592,0.9996375595315987,-98.58586953573695
7.577942528,0.9994067489666814,-98.9272760827568
7.586426368,0.9992070314591024,-99.26589994253544
7.594909696,0.9990488822767567,-99.602251274997
7.603393536,0.9989408282429562,-99.93692885586704
7.611876864,0.9988885147691037,-100.27062064112249
7.620360704,0.9988949446431147,-100.60409344802548
7.628844032,0.9989596886125557,-100.93809499118784
7.637327872,0.999079478185759,-101.27346237799198
7.6458112,0.9992479884011108,-101.61078086856378
7.65429504,0.9994563506266934,-101.95074388264403
7.662778368,0.9996935385794299,-102.29369783472444
7.671261696,0.9999471297602719,-102.6400274311023
7.679745536,1.000203649044714,-102.98981342861694
7.688228864,1.000449627395634,-103.34307145646841
7.696712704,1.0006719315775379,-103.69946468174234
7.705196032,1.000858754150457,-104.05873023911012
7.713679872,1.0010004644363213,-104.42020166798089
7.7221632,1.0010893685473512,-104.78333818236229
7.73064704,1.001120663722907,-105.14734816444621
7.739130368,1.001092659339573,-105.51147591924656
7.747614208,1.001007010135614,-105.87498906747436
7.756097536,1.0008678727170452,-106.23707672231907
7.764581376,1.0006826610117563,-106.59714045765793
7.773064704,1.0004609348423803,-106.95463828215924
7.781548032,1.0002146463486807,-107.3090500391282
7.790031872,0.9999564357633619,-107.66027196406115
7.7985152,0.9997000948125443,-108.00820406333035
7.80699904,0.9994593182771649,-108.35286780566499
7.815482368,0.9992465848642219,-108.69463196157218
7.823966208,0.9990734453106117,-109.03390778846776
7.832449536,0.998948902252622,-109.37130551163581
7.840933376,0.9988798874051035,-109.7074859322539
7.849416704,0.9988698731546111,-110.04324085008183
7.857900544,0.9989194445066107,-110.37933117021217
7.866383872,0.9990262407592557,-110.7165236092622
7.8748672,0.9991845392577343,-111.05559930717008
7.88335104,0.9993861149213606,-111.3971183257061
7.891834368,0.999620202129326,-111.74162856670945
7.900318208,0.999874636039205,-112.08947791997942
7.908801536,1.0001358009638952,-112.4408069294421
7.917285376,1.0003899823938724,-112.79567245712212
7.925768704,1.0006237941979548,-113.153834558133
7.934252544,1.000824764853129,-113.51499286874294
7.942735872,1.000982299493478,-113.87858635428863
7.951219712,1.0010881226617572,-114.24404043674258
7.95970304,1.0011365492425275,-114.61059361582717
7.96818688,1.0011249208259505,-114.97753735371934
7.976670208,1.0010538518424106,-115.3439735530384
7.985153536,1.000926926284361,-115.70920129563737
7.993637376,1.0007507777782376,-116.07256723585735
8.002120704,1.0005348025071783,-116.43341522450409
8.010604544,1.0002900721394814,-116.79127510022991
8.019087872,1.0000296983491925,-117.14594052632523
8.027571712,0.9997673472962595,-117.49719690375284
8.03605504,0.9995166707089497,-117.84513173929138
8.04453888,0.9992912707524341,-118.18999812821471
8.053022208,0.9991029255458883,-118.53221913225957
8.061506048,0.9989617250552565,-118.87230409044074
8.069989376,0.998875210158286,-119.2109689759417
8.078472704,0.9988479437437626,-119.54894797557829
8.086956544,0.9988816112598136,-119.88704868246224
8.095439872,0.9989742944217694,-120.22608143716442
8.103923712,0.9991212519682848,-120.56677938590379
8.11240704,0.9993148313919834,-120.90980501345919
8.12089088,0.9995447392571634,-121.25572469949698
8.129374208,0.9997989228868608,-121.60495680242512
8.137858048,1.000064050436751,-121.95769103924331
8.146341376,1.0003258372435941,-122.31404093597111
8.154825216,1.0005706858052212,-122.6737856619984
8.163308544,1.0007857599903933,-123.03670595608281
8.171792384,1.000959388118869,-123.40224062631647
8.180275712,1.0010825590039802,-123.76987551956945
8.18875904,1.001148718503645,-124.13885843431429
8.19724288,1.0011543184765406,-124.50837822444394
8.205726208,1.0010988712298299,-124.87767955988753
8.214210048,1.000985332883035,-125.24596694849514
8.222693376,1.0008195297912041,-125.61249999330084
8.231177216,1.000610228086676,-125.97663666331606
8.239660544,1.000368295672473,-126.33786121131381
8.248144384,1.000106585580645,-126.69585675365047
8.256627712,0.9998388096510625,-127.05043596798747
8.265111552,0.9995791346076587,-127.40158264538061
8.27359488,0.9993412630918233,-127.74952691461985
8.28207872,0.9991377670526739,-128.0946438206897
8.290562048,0.9989795362044573,-128.43741030074284
8.299045376,0.9988750339828347,-128.7784715279089
8.307529216,0.9988297550762442,-129.11866581053798
8.316012544,0.9988463349173039,-129.45872358880393
8.324496384,0.9989238455709901,-129.7994678351409
8.332979712,0.9990583118139291,-130.14167660119503
8.341463552,0.9992426507274141,-130.48611703831392
8.34994688,0.9994671974461894,-130.83333492270688
8.35843072,0.9997201239377246,-131.18378269183123
8.366914048,0.9999880104674977,-131.53779684773966
8.375397888,1.0002569668689394,-131.895421399143
8.383881216,1.000512545553661,-132.25662258892118
8.392364544,1.0007412650804963,-132.6211010841244
8.400848384,1.0009311678457133,-132.98843485906028
8.409331712,1.0010720452285844,-133.35806030166128
8.417815552,1.0011565373733347,-133.72924639022634
8.42629888,1.0011800793674357,-134.10121458688073
8.43478272,1.0011413586442652,-134.47322490224485
8.443266048,1.0010423426265755,-134.84437126239197
8.451749888,1.0008881677821575,-135.21395817127296
8.460233216,1.0006868462285141,-135.5812893035044
8.468717056,1.0004488878157163,-135.9457924251284
8.477200384,1.00018698704283,-136.30709244913058
8.485684224,0.9999146543531555,-136.66490386965233
8.494167552,0.9996463490562933,-137.01922046004938
8.50265088,0.9993963973335047,-137.37017457461516
8.51113472,0.9991778241930411,-137.71811160118642
8.519618048,0.9990024146534487,-138.06348895726137
8.528101888,0.9988794681454148,-138.40696303985513
8.536585216,0.9988154514520285,-138.74925734576408
8.545069056,0.9988140006546451,-139.09117473635925
8.553552384,0.998875212778985,-139.4335787865927
8.562036224,0.9989959829727474,-139.77723077452438
8.570519552,0.9991697596414417,-140.12294168525335
8.579003392,0.9993877701336865,-140.47128019989074
8.58748672,0.9996382791230707,-140.82282585717255
8.595970048,0.9999081933136424,-141.17789744869893
8.604453888,1.0001832532195978,-141.5366586602291
8.612937728,1.0004489735954947,-141.89908470398953
8.621420544,1.0006912810521016,-142.26493626855455
8.629904384,1.0008973654528124,-142.63383236399528
8.638388224,1.0010563779607808,-143.0052396465631
8.646872064,1.0011598829569908,-143.37846672995346
8.65535488,1.001202258569096,-143.752718510302
8.66383872,1.0011814069124514,-144.1272150914816
8.67232256,1.0010980436836352,-144.5011300905034
8.6808064,1.0009566511269994,-144.87361149010928
8.689289216,1.000764624646194,-145.24402279068659
8.697773056,1.0005319325051276,-145.61164994409046
8.706256896,1.0002707233383443,-145.97612313029006
8.714739712,0.9999948796003812,-146.33711753609816
8.723223552,0.9997188161433388,-146.6945328850365
8.731707392,0.9994571818587786,-147.04842426341645
8.740191232,0.9992237332134122,-147.39912411745894
8.748674048,0.9990309887226794,-147.74705277690572
8.757157888,0.9988890551340438,-148.09284660269705
8.765641728,0.9988057548181968,-148.43717837411853
8.774125568,0.9987853564858672,-148.78089641838156
8.782608384,0.9988290909116511,-149.1248100726295
8.791092224,0.9989347999128503,-149.46981447800326
8.799576064,0.9990968661801108,-149.81661541957456
8.80805888,0.9993069231535967,-150.16598452319622
8.81654272,0.9995538310660602,-150.51844408869752
8.82502656,0.999824655479603,-150.8743901340356
8.8335104,1.0001050240678862,-151.23408036863617
8.841993216,1.0003801784444473,-151.59750372634585
8.850477056,1.000635745026724,-151.96452242211097
8.858960896,1.000858040006089,-152.33476402133763
8.867444736,1.0010353668370506,-152.70774393182344
8.875927552,1.0011583643299082,-153.08277660472422
8.884411392,1.001220442347458,-153.45910529632533
8.892895232,1.001218279423144,-153.8359022051224
8.901379072,1.0011518810074154,-154.21236674139044
8.909861888,1.0010246832000338,-154.5875962101432
8.918345728,1.0008432581192779,-154.96089786754362
8.926829568,1.0006170487517827,-155.3315694002196
8.935312384,1.0003578495386651,-155.6990837829979
8.943796224,1.0000795214743137,-156.06314406561168
8.952280064,0.9997964238203567,-156.42353673203317
8.960763904,0.9995235614165152,-156.7803268817609
8.96924672,0.9992755991550796,-157.13373194468042
8.97773056,0.999065400620261,-157.48411394817688
8.9862144,0.9989042121443165,-157.83214075226846
8.99469824,0.9988007648891736,-158.17843534062686
9.003181056,0.9987604355150651,-158.52383930042876
9.011664896,0.998785626527891,-158.8691989751564
9.020148736,0.9988750134520661,-159.21535942334498
9.028631552,0.9990240233733995,-159.56314618513443
9.037115392,0.9992247164757528,-159.91334844409593
9.045599232,0.9994666992756099,-160.2665462169707
9.054083072,0.9997372182946989,-160.62316454798258
9.062565888,1.00002195033333,-160.9835534024724
9.071049728,1.0003058812266044,-161.347760361134
9.079533568,1.0005742266766233,-161.71570286694322
9.088017408,1.0008124858592193,-162.08705629781488
9.096500224,1.0010083653788675,-162.46137752519797
9.104984064,1.001151348374528,-162.83796990217658
9.113467904,1.0012339163869384,-163.21612643182357
9.12195072,1.0012515440330432,-163.59504910522875
9.13043456,1.0012032048188264,-163.97382877365186
9.1389184,1.0010915177663178,-164.35163412777132
9.14740224,1.0009219723322207,-164.72765570068654
9.155885056,1.0007036335645478,-165.10117726111926
9.164368896,1.0004478106606098,-165.4716449412726
9.172852736,1.000167935539261,-165.83862981852286
9.181336576,0.999878821853374,-166.20191552457507
9.189819392,0.9995955141846737,-166.5614647490675
9.198303232,0.9993331787140018,-166.91748771591762
9.206787072,0.9991056111033447,-167.27026747820602
9.215270912,0.9989247791551293,-167.62040515569228
9.223753728,0.9988007673240152,-167.96858934166642
9.232237568,0.9987396056801758,-168.31553924519153
9.240721408,0.9987451431279752,-168.6622283753918
9.249204224,0.9988169632550976,-169.0094314502683
9.257688064,0.9989514305896995,-169.3580658357633
9.266171904,0.9991413361236795,-169.7088935617614
9.274655744,0.9993770877429473,-170.0626271948992
9.28313856,0.9996460144424368,-170.41971121277206
9.2916224,0.9999340172497229,-170.7805690150271
9.30010624,1.0002260152417193,-171.14534928185435
9.30859008,1.000506493764443,-171.5139599325118
9.317072896,1.00076064736599,-171.88615886045181
9.325556736,1.0009752281313626,-172.26153656352076
9.334040576,1.0011386761647068,-172.639462142759
9.342523392,1.0012424630129066,-173.01920148563192
9.351007232,1.0012808395136485,-173.39997133253556
9.359491072,1.0012519154756863,-173.78088237986537
9.367974912,1.001156927834401,-174.1610351766912
9.376457728,1.001000966918014,-174.5396123038183
9.384941568,1.0007918266200817,-174.9158341404321
