freq,mag,phase
6.0,1.0004073367551989,-178.18570440536794
6.002286592,1.0003436988382133,-178.3407127777409
6.004572672,1.0002587989532783,-178.49462228111213
6.006859264,1.0001572471188958,-178.64716399521865
6.009145344,1.000045305117811,-178.79814148506966
6.011431936,0.9999304738748908,-178.9474713347462
6.013718016,0.9998196844643278,-179.0951383291419
6.016004608,0.9997201392053855,-179.24123743491043
6.018290688,0.9996381378410126,-179.38600820851164
6.02057728,0.9995788328508912,-179.52968384296778
6.022863872,0.9995460820144862,-179.67275626938294
6.025149952,0.9995419361854825,-179.8154779726706
6.027436544,0.9995666401590099,-179.9583617573949
6.029722624,0.9996186764147224,179.89823732043072
6.032009216,0.9996948056702175,179.7539214587161
6.034295296,0.9997900647461946,179.60835225792513
6.036581888,0.9998985139137468,179.46134363327243
6.03886848,1.000013232389525,179.31272345036626
6.04115456,1.0001269950312788,179.16247367872035
6.043441152,1.0002324536924854,179.01060475007688
6.045727232,1.0003231249920967,178.8573800726119
6.048013824,1.0003929275525272,178.7029774923906
6.050299904,1.000437807177907,178.5477666665371
6.052586496,1.0004548377012714,178.39210338959546
6.054872576,1.0004426961035398,178.23644923014987
6.057159168,1.000402282688593,178.08118651146182
6.05944576,1.000336088469838,177.9267072191816
6.06173184,1.0002484603323387,177.77337298515675
6.064018432,1.0001447205725136,177.6214260364777
6.066304512,1.0000317074235923,177.47110047196455
6.068591104,0.9999163795208115,177.32243646672487
6.070877184,0.9998060740901422,177.17544855771183
6.073163776,0.999707889652927,177.02995760479445
6.075450368,0.9996278916230912,176.8858437732524
6.077736448,0.9995714963948418,176.74270566834565
6.08002304,0.999541908460192,176.60021662331894
6.08230912,0.9995412873285517,176.45796711236207
6.084595712,0.9995696133615649,176.31553236423426
6.086881792,0.9996250353922307,176.1725342848813
6.089168384,0.9997040888506931,176.028550804582
6.091454464,0.9998018268657293,175.8833042819813
6.093741056,0.9999118692126318,175.7365530263457
6.096027648,1.0000274016072996,175.58818623996385
6.098313728,1.0001410400459156,175.43817121860906
6.10060032,1.0002455655579028,175.28661155261528
6.1028864,1.0003343887181615,175.13365440378982
6.105172992,1.0004018536123338,174.97955843973781
6.107459072,1.0004435645167822,174.82469760549392
6.109745664,1.000457055489263,174.66946428258436
6.112032256,1.00044127588727,174.51425309056972
6.114318336,1.0003974967102804,174.35949169608648
6.116604928,1.000328097681805,174.20557913399657
6.118891008,1.0002377877267759,174.05284595912232
6.1211776,1.000132133391752,173.90155082227182
6.12346368,1.0000178626139244,173.7518571179446
6.125750272,0.9999020915377204,173.60387288494096
6.128036352,0.9997924943641879,173.45757291350338
6.130322944,0.9996957186788994,173.3127670442785
6.132609536,0.9996180029458104,173.169252048208
6.134895616,0.9995644720130441,173.02669228197323
6.137182208,0.9995382147956311,172.8847519195652
6.139468288,0.9995411815730677,172.7430139840868
6.14175488,0.9995730342406268,172.6010437110546
6.14404096,0.9996318173462011,172.45841060671518
6.146327552,0.9997138828975684,172.31479581329046
6.148614144,0.9998138872395728,172.16985701416397
6.150900224,0.9999255807817885,172.0233990404223
6.153186816,1.00004176750862,171.8753039975704
6.155472896,1.0001552413530979,171.72555819520986
6.157759488,1.0002587448316358,171.574258707612
6.160045568,1.0003456222570446,171.42160694793648
6.16233216,1.0004104897414434,171.26787454187289
6.16461824,1.0004490195774254,171.1133662174168
6.166904832,1.000458964554861,170.95857006091316
6.169191424,1.000439604159468,170.80382685202787
6.171477504,1.0003922184464649,170.64957771136076
6.173764096,1.0003197548841325,170.4962650400095
6.176050176,1.0002266738466865,170.34414193099053
6.178336768,1.0001191587454117,170.19349932060786
6.180622848,1.000003650083691,170.0445113360605
6.18290944,0.9998878571300926,169.8971916380643
6.18519552,0.9997788549300909,169.7515866771665
6.187482112,0.999683689283961,169.60743249832078
6.189768704,0.9996083728290216,169.4645783003308
6.192054784,0.9995577336760116,169.32261836500925
6.194341376,0.9995349086732427,169.18124154744444
6.196627456,0.9995414597498772,169.04000979094442
6.198914048,0.9995769351024549,168.89847545813092
6.201200128,0.9996391245192185,168.7562647455372
6.20348672,0.9997241717375144,168.61298823292947
6.205773312,0.9998264156620252,168.46840517699903
6.208059392,0.9999396017524372,168.32222932765302
6.210345984,1.000056383172095,168.17443459886795
6.212632064,1.000169587693868,168.02494547740648
6.214918656,1.00027186808451,167.8739119854459
6.217204736,1.0003566320283932,167.7215791859672
6.219491328,1.0004186813530205,167.56817891730114
6.221777408,1.000454020492823,167.41407441332413
6.224064,1.00046043082493,167.25973148327373
6.226350592,1.000437458615642,167.10548729586196
6.228636672,1.0003864934041196,166.9517969411399
6.230923264,1.000310827256424,166.7990494392917
6.233209344,1.000215148738173,166.64757710549077
6.235495936,1.0001056618465145,166.49763174204867
6.237782016,0.9999892568383801,166.34932558867754
6.240068608,0.999873227833742,166.20271957109134
6.2423552,0.9997651072568319,166.05779365093105
6.24464128,0.999671648993248,165.91431835653933
6.246927872,0.9995988958846835,165.7720993071913
6.249213952,0.9995511753465126,165.63078655682176
6.251500544,0.9995318943920477,165.48997728835562
6.253786624,0.9995421585042483,165.34923673123222
6.256073216,0.9995812965835938,165.20818486517163
6.258359296,0.999646857175722,165.06637426663886
6.260645888,0.9997347505938194,164.92345895256614
6.26293248,0.9998392407703935,164.7791774732979
6.26521856,0.9999538564388907,164.63332554942457
6.267505152,1.0000712293438976,164.48579911504333
6.269791232,1.0001838283826383,164.3366286777431
6.272077824,1.0002848022366408,164.18591509457107
6.274363904,1.0003674871396178,164.03388784190716
6.276650496,1.0004267140423597,163.8808365762604
6.278937088,1.0004587071278923,163.7271534925789
6.281223168,1.0004614227371347,163.57325162494826
6.28350976,1.0004346991045443,163.41952443589204
6.28579584,1.0003802886900726,163.2664013593212
6.288082432,1.0003013893656298,163.11427182837724
6.290368512,1.0002032237642047,162.96345003906941
6.292655104,1.0000919755197968,162.81418054908988
6.294941184,0.9999746001458031,162.66658516153132
6.297227776,0.9998586722888352,162.52071915997772
6.299514368,0.9997514685073519,162.37645785162914
6.301800448,0.9996598149984405,162.23370964664647
6.30408704,0.9995894239858294,162.09214317999857
6.30637312,0.9995450308990934,161.9514359454142
6.308659712,0.9995293668299211,161.81117878277087
6.310945792,0.9995432644411689,161.6709679693931
6.313232384,0.9995861282819188,161.5303661778528
6.315518464,0.9996550338460947,161.38897055736928
6.317805056,0.9997457378965612,161.24642011683653
6.320091648,0.9998524311262393,161.10248757723605
6.322377728,0.999968349834417,160.95693002391124
6.32466432,1.0000860021354538,160.80971131702356
6.3269504,1.0001982173956725,160.66082249963193
6.329236992,1.0002977907512105,160.51039976577448
6.331523072,1.0003782128506364,160.35872355210938
6.333809664,1.0004344401880838,160.2060505195059
6.336096256,1.0004630488835349,160.05280118502017
6.338382336,1.0004619477477044,159.89936155298875
6.340668928,1.0004314843460138,159.74616025113593
6.342955008,1.000373481287362,159.59364112477326
6.3452416,1.0002915543014823,159.44211826438186
6.34752768,1.0001908445034917,159.29197718936817
6.349814272,1.0000778022160604,159.14339943012598
6.352100352,0.9999596010625654,158.9965341787524
6.354386944,0.9998437928380584,158.85139016299584
6.356673536,0.9997376383069109,158.70788239237572
6.358959616,0.9996479890691651,158.5657772715484
6.361246208,0.9995802724525717,158.42491825071886
6.363532288,0.999539183091189,158.28480883563094
6.36581888,0.9995271409433252,158.1451639299817
6.36810496,0.9995448249976919,158.0054703273286
6.370391552,0.99959139963315,157.8653051115659
6.372678144,0.999663645821891,157.72431841423239
6.374964224,0.9997572228641585,157.58215294681602
6.377250816,0.9998660170517027,157.43854231855343
6.379536896,0.9999831227068406,157.29329662960578
6.381823488,1.0001012016414628,157.14633862161307
6.384109568,1.0002127022759904,156.99779256068396
6.38639616,1.0003106855582986,156.8476673080914
6.38868224,1.0003886822056736,156.69634508588948
6.390968832,1.0004418629709835,156.54406401695724
6.393255424,1.0004669139348672,156.39126384287852
6.395541504,1.0004621761202208,156.23829162049438
6.397828096,1.0004278695026934,156.08563793447254
6.400114176,1.0003662493432819,155.93367976525528
6.402400768,1.000281348282167,155.78284327546737
6.404686848,1.0001781685871398,155.63335029619176
6.40697344,1.0000634166248301,155.48552780081215
6.409260032,0.9999445916156926,155.33937992766008
6.411546112,0.9998290563420037,155.19495684028823
6.413832704,0.9997240379599144,155.05215888633512
6.416118784,0.9996363461029234,154.91080707623496
6.418405376,0.999571581241239,154.7705887192481
6.420691456,0.9995337524472939,154.63113798399613
6.422978048,0.9995254188216646,154.49202701755914
6.425264128,0.9995469540424087,154.3528543257433
6.42755072,0.9995970964350325,154.2131695634854
6.429837312,0.9996727575643836,154.07259791707975
6.432123392,0.9997690415887771,153.93080370441106
6.434409984,0.9998798795346021,153.78750719317478
6.436696064,0.9999981973798662,153.64257834101872
6.438982656,1.0001164548408947,153.49593200152046
6.441268736,1.0002270980955943,153.3476725262056
6.443555328,1.000323435219987,153.19792120673281
6.44584192,1.0003987793225422,153.04692030368022
6.448128,1.0004489665203902,152.89502516640928
6.450414592,1.0004704480544633,152.74264682886212
6.452700672,1.000461781364594,152.5902049872006
6.454987264,1.0004237676262198,152.43810698370905
6.457273344,1.0003585527598653,152.28677458580728
6.459559936,1.0002703630790724,152.13656515801827
6.461846016,1.0001649541524475,151.98781982488623
6.464132608,1.0000488569598782,151.840670916222
6.4664192,0.9999292765610213,151.69527439307788
6.46870528,0.9998140403408163,151.55161453010405
6.470991872,0.999710271618961,151.40957628531336
6.473277952,0.9996248267571209,151.26890118938746
6.475564544,0.9995629567646429,151.1293505374319
6.477850624,0.9995287486445829,150.99051720945735
6.480137216,0.999524058724848,150.85198720385694
6.482423296,0.9995495685763089,150.71332115540997
6.484709888,0.9996034512850547,150.57412015925425
6.48699648,0.9996825056633216,150.43395716404797
6.48928256,0.999781418011639,150.29251296375435
6.491569152,0.9998942333747255,150.1495765103715
6.493855232,1.0000135131909944,150.00493442575902
6.496141824,1.000131881233199,149.85861863920374
6.498427904,1.00024164978394,149.7106463665775
6.500714496,1.00033602367991,149.56121264521056
6.503001088,1.0004087547531468,149.41057939943994
6.505287168,1.0004557312173445,149.25909475597965
6.50757376,1.0004734327770481,149.10717429354125
6.50985984,1.0004608574346698,148.95524905897227
6.512146432,1.0004189700455564,148.80370075992988
6.514432512,1.000350301419618,148.65298092095264
6.516719104,1.0002591622857966,148.5034600941801
6.519005184,1.0001512920545605,148.35544422519607
6.521291776,1.0000336255065114,148.2090302331879
6.523578368,0.9999136453423414,148.0643837193456
6.525864448,0.9997988689069716,147.92146335763732
6.52815104,0.9996966839425003,147.78014230904958
6.53043712,0.9996135629731122,147.6402232553108
6.532723712,0.999554608083458,147.50132731011138
6.535009792,0.9995239389224652,147.36310872254222
6.537296384,0.9995231678438111,147.2251494753731
6.539582976,0.9995525833282471,147.08700505386204
6.541869056,0.9996102881655055,146.94824872983327
6.544155648,0.9996925146822737,146.80849840161028
6.546441728,0.9997941796769352,146.66742838696598
6.54872832,0.9999088268894687,146.52481584181018
6.5510144,1.000029001372088,146.3804932241014
6.553300992,1.0001473920578756,146.23448199590433
6.555587072,1.0002560747710372,146.08680861417074
6.557873664,1.0003484688815485,145.93772813834073
6.560160256,1.0004185840202657,145.7874500883937
6.562446336,1.000461970150083,145.6363866325151
6.564732928,1.0004760199191125,145.48494383483214
6.567019008,1.0004595277358015,145.3335056965295
6.5693056,1.0004137860445481,145.18257863276781
6.57159168,1.0003415052458784,145.03248060374383
6.573878272,1.0002473974052801,144.88366034476516
6.576164864,1.0001374230354285,144.73631414710053
6.578450944,1.000018298451541,144.59064914445796
6.580737536,0.9998980080675991,144.44676629127167
6.583023616,0.9997837944345996,144.30460678296632
6.585310208,0.9996831706605145,144.16402547032754
6.587596288,0.9996024185259279,144.02481207061143
6.58988288,0.9995467006777567,143.88660128750251
6.59216896,0.9995195928249236,143.74900350006118
6.594455552,0.9995229593686864,143.61161948944306
6.596742144,0.9995562703409765,143.47398901266678
6.599028224,0.9996176694311013,143.3356853954686
6.601314816,0.9997032169846909,143.19633797844045
6.603600896,0.9998074755434921,143.055613658628
6.605887488,0.9999239240965146,142.91333680635884
6.608173568,1.00004489612697,142.76931552292217
6.61046016,1.000162998113244,142.6236002597141
6.612746752,1.000270565495803,142.47625123240394
6.615032832,1.0003609192297795,142.32750162236613
6.617319424,1.000428056501337,142.17761654429944
6.619605504,1.000468060702481,142.02700024555588
6.621892096,1.0004780483248137,141.87599566266695
6.624178176,1.0004576209694072,141.72508948240488
6.626464768,1.0004079449518888,141.57474750902583
6.628750848,1.0003321636274154,141.42532106905597
6.63103744,1.0002350687397947,141.2771503983146
6.633324032,1.0001229290777127,141.13054028472874
6.635610112,1.0000026272822018,140.9856546867117
6.637896704,0.999882004177161,140.8425491964981
6.640182784,0.9997685666685123,140.7011450987198
6.642469376,0.9996697235502809,140.56130059055693
6.644755456,0.9995915241622904,140.42280779679507
6.647042048,0.9995390724398067,140.28524645286026
6.649328128,0.9995157727771201,140.14828326632122
6.65161472,0.999523018206963,140.0114515794874
6.653901312,0.9995604686618074,139.8743185900391
6.656187392,0.9996256208414305,139.73645476166547
6.658473984,0.9997143615740547,139.5974953011454
6.660760064,0.9998211106647853,139.45716016398748
6.663046656,0.9999391226107172,139.31517408592487
6.665332736,1.0000608916761868,139.17148430908983
6.667619328,1.0001786568739992,139.0260566530721
6.66990592,1.000284972810807,138.87903990658668
6.672192,1.0003731534449452,138.7306358125198
6.674478592,1.0004372903757754,138.5811284449336
6.676764672,1.0004736285901157,138.43088720926795
6.679051264,1.0004797870611812,138.28041208927772
6.681337344,1.000455276625768,138.13006960012098
6.683623936,1.0004016169742576,137.980282637603
6.685910016,1.0003223916888278,137.83151260840665
6.688196608,1.0002223973414301,137.6840555139605
6.6904832,1.0001080945668492,137.53819405614803
6.69276928,0.9999867157273946,137.39406804525794
6.695055872,0.999865852763471,137.25170238961584
6.697341952,0.9997533830698998,137.11104846769845
6.699628544,0.9996563817880219,136.9719718318354
6.701914624,0.9995808386862355,136.83416503200684
6.704201216,0.9995317129751462,136.69726514667596
6.706487808,0.9995122201654749,136.56092670362924
6.708773888,0.9995236765798182,136.42466608306262
6.71106048,0.9995650454352495,136.2880276894692
6.71334656,0.9996340319998467,136.150595680347
6.715633152,0.9997259583356124,136.01205953573313
6.717919232,0.9998351727610607,135.87204447212625
6.720205824,0.9999550000582069,135.73038856665488
6.722491904,1.000077119730104,135.58698037056064
6.724778496,1.0001945655493176,135.44188903311326
6.727065088,1.0002993491648857,135.29516535278816
6.729351168,1.0003850871455648,135.14707709959853
6.73163776,1.0004462343501617,134.99796278703468
6.73392384,1.0004787848838577,134.84818653444825
6.736210432,1.0004808500603277,134.6981925668564
6.738496512,1.0004523239833978,134.54834747455624
6.740783104,1.0003947246473275,134.3992143688024
6.743069696,1.0003119310802717,134.2510865158654
6.745355776,1.000209220774336,134.10434555700235
6.747642368,1.0000929464681536,133.95922804321677
6.749928448,0.999970434016549,133.81585253210758
6.75221504,0.9998496509688385,133.6742728063842
6.75450112,0.9997381605146373,133.53439928769552
6.756787712,0.9996431359182808,133.39603235132674
6.759073792,0.9995703825040249,133.25892058102323
6.761360384,0.9995249652794141,133.12271256755375
6.763646976,0.9995093668035737,132.98696713704842
6.765933056,0.9995248739974881,132.85125130763302
6.768219648,0.9995703330168384,132.71510772210755
6.770505728,0.9996429944582451,132.57811558272613
6.77279232,0.9997381031454963,132.43992002841108
6.7750784,0.9998498358062973,132.30025507760527
6.777364992,0.9999708539075227,132.15895125105035
6.779651584,1.0000936652140018,132.01585385117514
6.781937664,1.0002103389878276,131.87102977174823
6.784224256,1.0003136509324766,131.7246281536465
6.786510336,1.0003968063133206,131.5768847010222
6.788796928,1.0004546495503674,131.42815532007066
6.791083008,1.000483465136688,131.27884411542476
6.7933696,1.000481511039923,131.12930021754704
6.79565568,1.0004489385750994,130.9800319493262
6.797942272,1.0003873347661987,130.83150819140687
6.800228864,1.0003010998872208,130.68405173815052
6.802514944,1.0001955127402373,130.5380142478503
6.804801536,1.0000773558172957,130.39362964726226
6.807087616,0.9999539524566201,130.2510273747705
6.809374208,0.9998333851945769,130.110187508469
6.811660288,0.9997229869032264,129.97109092576113
6.81394688,0.9996300335759488,129.83349422921393
6.81623296,0.9995604498123537,129.6971043415876
6.818519552,0.9995185247047338,129.561524948259
6.820806144,0.9995070254792476,129.42637485415682
6.823092224,0.9995267534603378,129.29117523743056
6.825378816,0.9995762636849562,129.15551666752506
6.827664896,0.9996526110925135,129.0189432170016
6.829951488,0.9997508714677064,128.88114530083305
6.832237568,0.9998649178380292,128.7418029718254
6.83452416,0.9999873090821186,128.6007519848447
6.836810752,1.0001104874305753,128.45796158969483
6.839096832,1.0002263597838903,128.3134343790123
6.841383424,1.0003278404570344,128.1673573990751
6.843669504,1.0004085162520473,128.01998145973994
6.845956096,1.0004629600413153,127.8716068876141
6.848242176,1.00048796692026,127.72271018422623
6.850528768,1.0004816839519703,127.57369371711738
6.852814848,1.000444707621345,127.42500712763766
6.85510144,1.0003793376388523,127.27708270367468
6.857388032,1.0002896983826135,127.13030602713002
6.859674112,1.0001814996823224,126.98499830496482
6.861960704,1.0000613619176653,126.84135330358161
6.864246784,0.9999372955479019,126.69949534648468
6.866533376,0.9998168103933447,126.55947614861195
6.868819456,0.9997078220278606,126.42113052550808
6.871106048,0.9996172124096941,126.28424912509968
6.87339264,0.9995506925388155,126.14853717624365
6.87567872,0.9995125257494752,126.01364275975182
6.877965312,0.9995050785379034,125.87906106466404
6.880251392,0.9995289454136392,125.74441557389004
6.882537984,0.9995826954211995,125.60920993957048
6.884824064,0.9996627403895009,125.47305549276761
6.887110656,0.9997641093372661,125.33557466466081
6.889396736,0.9998802685493822,125.19658699895263
6.891683328,1.0000039105465597,125.05583674224127
6.89396992,1.0001271926130053,124.91332067680551
6.896256,1.0002423750301705,124.76908116663138
6.898542592,1.000342072036855,124.62331188569007
6.900828672,1.0004196570679804,124.47626191256872
6.903115264,1.0004707338729344,124.32830628239796
6.905401344,1.0004915894235178,124.17986222080157
6.907687936,1.0004811603109507,124.0313256478346
6.909974528,1.0004400035361176,123.88321171461855
6.912260608,1.0003706463973554,123.73589958444457
6.9145472,1.0002776288713924,123.58981390965538
6.91683328,1.000166683764548,123.44521976230504
6.919119872,1.0000450608702354,123.30231069073378
6.921405952,0.9999201489070605,123.1612497029674
6.923692544,0.9998002007832496,123.02197549616997
