freq,mag,phase
6.0,1.000399971070998,-168.88035543568975
6.002287104,1.000467827252744,-169.04029011337306
6.004574208,1.0005062939162013,-169.200944981201
6.006861312,1.0005129247025022,-169.36189371849414
6.009147904,1.0004875514216245,-169.5226369362504
6.011435008,1.0004315110223556,-169.6827232732608
6.013722112,1.000348564150234,-169.8418067431502
6.016009216,1.000243710208089,-169.99942880048806
6.01829632,1.0001237108807937,-170.1553753302219
6.020583424,0.9999960844889783,-170.3094649046519
6.022870016,0.9998688851525388,-170.4616473990706
6.02515712,0.9997501789405565,-170.61202882554875
6.027444224,0.9996476220428033,-170.76069249695072
6.029731328,0.9995673372098919,-170.90803520193523
6.032018432,0.9995147646802974,-171.05433024361002
6.034305536,0.9994932035609515,-171.20003418736053
6.036592128,0.9995038716083592,-171.3455993343363
6.038879232,0.9995460984744131,-171.4914698927754
6.041166336,0.999617536633708,-171.63811784079405
6.04345344,0.9997132895699592,-171.7859625692126
6.045740544,0.9998275591057224,-171.93523786245692
6.048027648,0.99995307035312,-172.0862375802843
6.05031424,1.0000818357556733,-172.2390271400417
6.052601344,1.0002057715827841,-172.39357003484898
6.054888448,1.000316917942762,-172.5497790154086
6.057175552,1.0004084951222982,-172.70738718900415
6.059462656,1.0004744545786144,-172.8661597910904
6.06174976,1.0005108028673497,-173.0255297234012
6.064036352,1.0005150969608596,-173.18520103862613
6.066323456,1.0004871550917074,-173.34462433227438
6.06861056,1.0004285669517647,-173.50336087072006
6.070897664,1.0003432122793257,-173.66104421691966
6.073184768,1.0002362517607315,-173.81722428049693
6.075471872,1.000114709097972,-173.97172350887
6.077758464,0.9999860906988797,-174.12433998508655
6.080045568,0.9998584770228063,-174.27506652521672
6.082332672,0.9997400513619833,-174.42393701239268
6.084619776,0.9996383365187809,-174.57113167135725
6.08690688,0.9995596069934136,-174.71702850549647
6.089193984,0.9995090350822212,-174.86183351452797
6.091481088,0.9994897159493665,-175.00615643036733
6.09376768,0.9995030074443313,-175.15035716066976
6.096054784,0.9995479896648939,-175.29488491461433
6.098341888,0.9996218406005352,-175.44023893753817
6.100628992,0.999719896227153,-175.58680081718634
6.102916096,0.9998359983443496,-175.73487083637835
6.1052032,0.9999628115721042,-175.8846410003777
6.107489792,1.0000922690324743,-176.03620308032475
6.109776896,1.0002161873802073,-176.18956592148635
6.112064,1.0003267800300046,-176.34460637491088
6.114351104,1.0004169818907043,-176.50101465941773
6.116638208,1.0004812485222705,-176.65846047590986
6.118925312,1.000515206551394,-176.81663749917752
6.121211904,1.0005169938718088,-176.97497908777424
6.123499008,1.000486302562742,-177.13306351046595
6.125786112,1.0004251791209513,-177.29040828118042
6.128073216,1.000337408717801,-177.4466280545872
6.13036032,1.0002284542711823,-177.60138683811877
6.132647424,1.0001052774154913,-177.75441631058882
6.134934016,0.999975638545471,-177.9055177194187
6.13722112,0.9998477696573972,-178.05474101898577
6.139508224,0.9997296890189674,-178.2021079189684
6.141795328,0.9996289875738799,-178.3477877474149
6.144082432,0.9995518175584619,-178.49216442087868
6.146369536,0.999503347128514,-178.63557266022607
6.148656128,0.9994865064538662,-178.778432801596
6.150943232,0.9995024860288886,-178.9212422878929
6.153230336,0.9995501356762142,-179.06444273310296
6.15551744,0.99962659288688,-179.20848595845328
6.157804544,0.9997270016318771,-179.3537650725299
6.160091648,0.9998449226416047,-179.50058441745924
6.162378752,0.9999729737424017,-179.64913012446226
6.164665344,1.0001030415624708,-179.79948465739656
6.166952448,1.0002268540270487,-179.95163366694055
6.169239552,1.0003367900901607,179.89459420807495
6.171526656,1.0004256726514436,179.73940683057913
6.17381376,1.0004879364898818,179.58315964777137
6.176100864,1.0005195948684447,179.42633754804325
6.178387456,1.0005187390242003,179.26930892014525
6.18067456,1.0004852592627953,179.11257662187765
6.182961664,1.000421577828107,178.95662329436084
6.185248768,1.0003311398600663,178.80181643380143
6.187535872,1.0002201027334117,178.64857501353956
6.189822976,1.000095327720145,178.49704785898604
6.192109568,0.9999646359965352,178.34744369444803
6.194396672,0.999836528515354,178.1997593090705
6.196683776,0.9997190110971939,178.05393260451237
6.19897088,0.9996192359842152,177.90977043624488
6.201257984,0.9995438651141125,177.76689428220737
6.203545088,0.9994975574917118,177.62498860840884
6.20583168,0.9994833257420059,177.4835490152548
6.208118784,0.9995020960234804,177.34217936639476
6.210405888,0.999552462252125,177.20029132954588
6.212692992,0.999631545588273,177.05758893604047
6.214980096,0.9997342098205295,176.91362930355263
6.2172672,0.9998540706532983,176.76804236978623
6.219553792,0.9999834224414746,176.6207606355892
6.221840896,1.0001141071423973,176.4715920440646
6.224128,1.0002378678251602,176.32067496177825
6.226415104,1.0003469312175675,176.16811864675688
6.228702208,1.000434426817471,176.01415466215553
6.230989312,1.0004946061838536,175.85922382034838
6.233275904,1.0005238427328205,175.7036771037115
6.235563008,1.0005201373669443,175.54797970629687
6.237850112,1.0004838578421322,175.39263465288667
6.240137216,1.0004172508221663,175.23810290600898
6.24242432,1.000324387493763,175.08476868320673
6.244711424,1.0002112821058995,174.93299286181883
6.246998528,1.000084978504239,174.78301622654368
6.24928512,0.9999534363714937,174.63493792429568
6.251572224,0.9998250405193306,174.4888138496531
6.253859328,0.9997079176863239,174.34457302663225
6.256146432,0.9996094369788517,174.20190938635878
6.258433536,0.999535976452051,174.06056957884925
6.26072064,0.9994920031437349,173.9201310682816
6.263007232,0.9994804241750165,173.78015010847253
6.265294336,0.9995019743119994,173.64016925556854
6.26758144,0.9995554358856248,173.49966708953067
6.269868544,0.9996371945162322,173.35828264978667
6.272155648,0.9997421877008493,173.2155719079556
6.274442752,0.999863918085293,173.07129277506974
6.276729344,0.9999944537056104,172.92521751580531
6.279016448,1.0001256972909078,172.7773172161586
6.281303552,1.000249239756978,172.62759364867063
6.283590656,1.0003573577291411,172.4762427170893
6.28587776,1.0004430893922807,172.32355191559404
6.288164864,1.0005012924760717,172.16987659913252
6.290451456,1.000527832391581,172.01564621011758
6.29273856,1.000521384417927,171.86128696444857
6.295025664,1.0004821911773774,171.70733367580476
6.297312768,1.0004126322900462,171.55424814298897
6.299599872,1.0003172368827749,171.40240018249688
6.301886976,1.0002019722159081,171.25211813247012
6.304173568,1.0000740968017137,171.10368160935366
6.306460672,0.999941724402826,170.95720158217804
6.308747776,0.9998131405809292,170.8126201372077
6.31103488,0.9996967280812556,170.66989709681448
6.313321984,0.9995995086254841,170.5288037968565
6.315609088,0.9995279353874592,170.38897427217657
6.317896192,0.9994864475658573,170.2500332603293
6.320182784,0.9994776585751277,170.1114935040726
6.322469888,0.9995023038076963,169.97293597207388
6.324756992,0.9995586434899663,169.83384647555948
6.327044096,0.9996431790032966,169.69375763676655
6.3293312,0.9997506290295151,169.552346568386
6.331618304,0.9998740898236783,169.40930094684273
6.333904896,1.0000059119231794,169.26447418795027
6.336192,1.0001376147723708,169.1177728647656
6.338479104,1.0002609385000345,168.9692895301094
6.340766208,1.0003681264521727,168.81917317983272
6.343053312,1.0004522318498124,168.6677289028895
6.345340416,1.0005078213540375,168.51532946870566
6.347627008,1.000531867629341,168.3624341986926
6.349914112,1.0005223574893436,168.20944900287182
6.352201216,1.0004800657673074,168.05691002890669
6.35448832,1.0004075895146243,167.90523100181923
6.356775424,1.0003096441727852,167.75487574602042
6.359062528,1.000192142046847,167.60612032425527
6.36134912,1.0000628634550344,167.45919128386052
6.363636224,0.9999295375290205,167.31424551865675
6.365923328,0.999800947084827,167.17128091934708
6.368210432,0.9996850678592362,167.0301521564448
6.370497536,0.9995894111558964,166.89059859254667
6.37278464,0.9995198838538875,166.75228863909024
6.375071232,0.9994810607337048,166.6148449313236
6.377358336,0.9994751656644212,166.47776688300522
6.37964544,0.9995028339407679,166.34061700625804
6.381932544,0.9995622346908464,166.20286352670982
6.384219648,0.9996497169862816,166.06413149316802
6.386506752,0.999759566972281,165.9239968831022
6.388793344,0.9998848710152217,165.7822098503417
6.391080448,1.0000179169090002,165.63858202987157
6.393367552,1.000149947176128,165.49310578066843
6.395654656,1.0002728541188732,165.3458564998841
6.39794176,1.0003789674840806,165.19696790716537
6.400228864,1.000461112030727,165.0467887800177
6.402515968,1.0005144838116768,164.89567078932595
6.40480256,1.0005355734057562,164.744040235812
6.407089664,1.0005229638843538,164.5924350323812
6.409376768,1.0004776160208044,164.44130238902753
6.411663872,1.0004021416570754,164.29107739926695
6.413950976,1.0003015127891852,164.14222962427158
6.41623808,1.000181872847994,163.99501820251876
6.418524672,1.0000510519802193,163.84963367335632
6.420811776,0.9999170202647634,163.70627431108846
6.42309888,0.999788402728468,163.56487702467382
6.425385984,0.9996733558817413,163.4252969665935
6.427673088,0.9995792997385653,163.28726642414736
6.429960192,0.9995120929080652,163.1505079115061
6.432246784,0.999475856201458,163.0145441588191
6.434533888,0.9994730074149563,162.87894174627556
6.436820992,0.9995039255235341,162.7431629141123
6.439108096,0.999566448736888,162.6067858572083
6.4413952,0.9996566050855492,162.4693662555265
6.443682304,0.9997690051769226,162.33047903257065
6.445968896,0.9998961288999693,162.18994465204105
6.448256,1.000030240178479,162.04754619639252
6.450543104,1.0001627355369256,161.9032987437525
6.452830208,1.000285248856269,161.75722579617212
6.455117312,1.0003898120423065,161.60958004766906
6.457404416,1.0004700997159819,161.46064333699607
6.459691008,1.0005209346209643,161.31079948267256
6.461978112,1.0005389931173323,161.16049713611628
6.464265216,1.0005232847646244,161.0102736948053
6.46655232,1.0004745216191282,160.8605247217196
6.468839424,1.000396134090704,160.71174751785946
6.471126528,1.0002928104820046,160.5643766821701
6.473413632,1.0001709862223769,160.41869872259835
6.475700224,1.0000385812580475,160.2748906844071
6.477987328,0.9999039587722206,160.13308976822623
6.480274432,0.9997754474175774,159.99325061466078
6.482561536,0.9996614777484849,159.85524893050888
6.48484864,0.9995689895816846,159.71882542031062
6.487135744,0.9995039791959731,159.58358293134455
6.489422336,0.9994706165058072,159.44909573014627
6.49170944,0.9994711069044709,159.31491069785824
6.493996544,0.9995053248211592,159.18052521969193
6.496283648,0.9995711046469197,159.04548704356242
6.498570752,0.9996642143256623,158.90936700627816
6.500857856,0.9997789504455207,158.77176369035183
6.503144448,0.9999080181664951,158.6324318429707
6.505431552,1.0000432287760879,158.49126819885052
6.507718656,1.000175918057135,158.34819039642878
6.51000576,1.0002977168678162,158.2033380608856
6.512292864,1.0004011287000152,158.05690133560873
6.514579968,1.0004792783737702,157.90919136573513
6.51686656,1.0005272810900256,157.76061624650643
6.519153664,1.0005423161643316,157.61163314784096
6.521440768,1.0005231627946627,157.4627410936358
6.523727872,1.000471245766068,157.31442621989535
6.526014976,1.0003895863136771,157.16713114170432
6.52830208,1.000283571286375,157.02124130974502
6.530588672,1.000159633498554,156.8771005704951
6.532875776,1.000025794844795,156.73483728135628
6.53516288,0.9998905361662119,156.59462442525734
6.537449984,0.9997622538597691,156.4563739495681
6.539737088,0.9996492358023733,156.3199339553141
6.542024192,0.9995586424714732,156.18501938238595
6.544310784,0.9994961769656594,156.05129921704352
6.546597888,0.9994658250334615,155.9182875463431
6.548884992,0.9994695847787595,155.78555574195175
6.551172096,0.9995070347109491,155.6525440894864
6.5534592,0.9995761391408049,155.51884157492972
6.555746304,0.9996722676318472,155.38397577269095
6.558033408,0.9997894340771873,155.24760154989093
6.56032,0.9999202920631864,155.1095137848467
6.562607104,1.0000565157088608,154.9695234082726
6.564894208,1.0001893380920794,154.82766354792366
6.567181312,1.0003105260995044,154.68396923345068
6.569468416,1.0004122589620446,154.53871443032145
6.57175552,1.0004882222035378,154.39223543137211
6.574042112,1.0005335012078227,154.24494268052015
6.576329216,1.0005453617128788,154.09725110367123
6.57861632,1.0005227765356435,153.94972253513166
6.580903424,1.0004673083291404,153.80279816165154
6.583190528,1.000382493674436,153.65694424851617
6.585477632,1.0002737168115285,153.51256824069236
6.587764224,1.0001477199379243,153.36992544384267
6.590051328,1.0000125107503555,153.2292405247305
6.592338432,0.9998766061428814,153.09062859814995
6.594625536,0.9997486297158803,152.95391794214427
6.59691264,0.9996367793084971,152.8190374588159
6.599199744,0.9995482557188824,152.68568274764635
6.601486336,0.9994882319953463,152.55345642097188
6.60377344,0.9994611162178136,152.42189244137285
6.606060544,0.9994681924589773,152.2905675902397
6.608347648,0.9995093208150012,152.15892135115595
6.610634752,0.9995816447398078,152.0265360345514
6.612921856,0.9996808730151964,151.8929292149329
6.615208448,0.999800576165923,151.75780994271895
6.617495552,0.9999332488547321,151.6208957942361
6.619782656,1.000070281093687,151.48209382766422
6.62206976,1.0002032292628553,151.34134795475015
6.624356864,1.000323505852337,151.19884751500985
6.626643968,1.000423756442673,151.05480108371603
6.628931072,1.0004973667290782,150.9095154853987
6.631217664,1.0005395628337612,150.7634909581991
6.633504768,1.0005481515589767,150.6170992192819
6.635791872,1.0005220164232496,150.470906546175
6.638078976,1.0004630493950455,150.32539349455834
6.64036608,1.000375053603908,150.1809796304368
6.642653184,1.0002633413475182,150.0380664382277
6.644939776,1.0001352810532942,149.89695776064283
6.64722688,0.9999985654812025,149.7578302296776
6.649513984,0.999862284052334,149.62076638689317
6.651801088,0.9997348270273836,149.48563832519403
6.654088192,0.9996242161563526,149.35227351917285
6.656375296,0.9995376426700573,149.22044629716538
6.658661888,0.9994805750980208,149.0897108030736
6.660948992,0.9994566131058348,148.959616610313
6.663236096,0.9994673237714128,148.82970988989058
6.6655232,0.9995120304415628,148.69940087550907
6.667810304,0.9995878143755554,148.56828601539388
6.670097408,0.9996901083548461,148.4359442055729
6.672384,0.9998121883964158,148.301989871674
6.674671104,0.9999465682453815,148.1662660172365
6.676958208,1.0000846159328625,148.02860999599488
6.679245312,1.0002175234782564,147.88900830810107
6.681532416,1.0003370103217082,147.74765102327757
6.68381952,1.0004352240214769,147.60475201869727
6.686106112,1.0005063898357516,147.4606987813788
6.688393216,1.0005455470865356,147.31589126547863
6.69068032,1.000550515912484,147.17081945193482
6.692967424,1.0005207601050456,147.02595080665375
6.695254528,1.0004582317267738,146.88180787154263
6.697541632,1.0003669277153382,146.73882747392142
6.699828224,1.0002525512602742,146.59741827466402
6.702115328,1.000122233040095,146.45783232221288
6.704402432,0.9999844345912065,146.32023886545798
6.706689536,0.9998475798007801,146.18469651045493
6.70897664,0.9997206590604801,146.0511341646909
6.711263744,0.999611471533213,145.91934383325673
6.713550848,0.9995271551613506,145.78904053059526
6.71583744,0.9994730706218116,145.65972642255034
6.718124544,0.9994525308528309,145.53109599278184
6.720411648,0.9994669122823195,145.40249279858207
6.722698752,0.9995152500316108,145.2735173319788
6.724985856,0.9995946080628021,145.14368014994764
6.72727296,0.9996999661558394,145.0125247183759
6.729559552,0.9998246235325837,144.87978872206227
6.731846656,0.9999605955797798,144.7452196512664
6.73413376,1.000099330306022,144.6086574823027
6.736420864,1.000232126830743,144.47019877883326
6.738707968,1.0003503599248074,144.3299807830382
6.740995072,1.000446901259635,144.1882193920844
6.743281664,1.0005153018232602,144.04533712856696
6.745568768,1.000551151886072,143.90176038915106
6.747855872,1.000552450222212,143.75793238197448
6.750142976,1.0005190564036688,143.6144320146112
6.75243008,1.0004528543610467,143.471656554664
6.754717184,1.0003581550719622,143.33009829996305
6.757003776,1.00024100663234,143.19016418474197
6.75929088,1.0001085612321303,143.0520847677081
6.761577984,0.9999693918449398,142.91604673805344
6.763865088,0.999832460024249,142.7820239506216
6.766152192,0.9997062812386778,142.6500010619043
6.768439296,0.9995985496651625,142.51973708640537
6.770725888,0.9995168532066185,142.3909106711255
6.773012992,0.9994655972827892,142.26308648524474
6.775300096,0.9994486401944046,142.13582103091736
6.7775872,0.9994668189205985,142.00857758223532
6.779874304,0.9995189062422295,141.8808882585675
6.782161408,0.9996018703520286,141.75229989519636
6.784448512,0.9997103978014333,141.62236885190347
6.786735104,0.9998374281956052,141.4907581843925
6.789022208,0.9999751584902559,141.35726144498565
6.791309312,1.0001145887143859,141.22182166603727
6.793596416,1.0002470126179681,141.08448214596248
6.79588352,1.000364325505265,140.94535774824166
6.798170624,1.0004585659999323,140.80472019558994
6.800457216,1.0005240407612497,140.66299786910653
6.80274432,1.0005566530721326,140.52060146495413
6.805031424,1.0005541801291078,140.37806678676927
6.807318528,1.000516860330236,140.23583246513056
6.809605632,1.0004469646575496,140.0944695572387
6.811892736,1.0003489075541476,139.9543554149535
6.814179328,1.0002288939415556,139.81586612967087
6.816466432,1.0000945773219954,139.6792849388615
6.818753536,0.9999542315088464,139.54473915171727
6.82104064,0.9998170431693817,139.41226702439957
6.823327744,0.9996916136841582,139.28175681784668
6.825614848,0.9995857712980787,139.1530076113014
6.82790144,0.999506463883095,139.02562740009014
6.830188544,0.9994586175250257,138.8992501187213
6.832475648,0.9994452001786828,138.77333798592497
6.834762752,0.999467307138862,138.64745616411216
6.837049856,0.9995234667023317,138.52103686797977
6.83933696,0.9996099210962884,138.39366504554928
6.841623552,0.9997213904957147,138.26489775343984
6.843910656,0.9998509639904739,138.13436277027955
6.84619776,0.9999901264207635,138.00198464425438
6.848484864,1.0001301995657985,137.86762361245695
6.850771968,1.0002623077766357,137.73132203008865
6.853059072,1.00037816682294,137.59328245711137
6.855345664,1.0004702733888469,137.45377305968285
6.857632768,1.0005328231376227,137.3131959445298
6.859919872,1.0005618189273815,137.171979342118
6.862206976,1.0005555416263556,137.0306697886969
6.86449408,1.0005143367159364,136.88975556761196
6.866781184,1.0004404484047598,136.74972905043177
6.869068288,1.0003389401482754,136.61098771548538
6.87135488,1.0002162213507548,136.4739808736044
6.873641984,1.0000798167092622,136.33887281339995
6.875929088,0.9999384491218511,136.20583315611083
6.878216192,0.9998012404492442,136.07491275882606
6.880503296,0.9996766846506043,135.94590458925327
6.8827904,0.9995727183577429,135.81859184082282
6.885076992,0.9994962060882691,135.69269947979467
6.887364096,0.9994516511769789,135.56769125068993
6.8896512,0.9994420976980546,135.44315682394435
6.891938304,0.9994682808323431,135.3185623942058
6.894225408,0.9995282784041304,135.19337751876392
6.896512512,0.9996185238452934,135.06714601158015
6.898799104,0.9997331606728528,134.93949701854362
6.901086208,0.9998649576491293,134.81009057973176
6.903373312,1.000005836268479,134.67877863551013
6.905660416,1.000146345737941,134.5454736010484
6.90794752,1.0002779198965386,134.41018720067387
6.910234624,1.0003923143882507,134.273194577184
6.912521216,1.0004819977935289,134.13477631921177
6.91480832,1.00054138621742,133.99530704323615
6.917095424,1.0005667389667978,133.8552518225152
6.919382528,1.0005564355937318,133.7151607214257
6.921669632,1.00051101986718,133.57552570500934
