freq,mag,phase
6.0,1.0004022895102331,154.72596423846392
6.002288128,1.0006133496977874,154.56664976386182
6.004576768,1.0007873750949636,154.4045472596803
6.006864896,1.0009116004420333,154.24033935998438
6.009153536,1.0009782197514672,154.07477072502434
6.011441664,1.0009829214028365,153.90871256036698
6.013729792,1.0009255378667952,153.74307880428813
6.016018432,1.0008096566588853,153.57872799369525
6.01830656,1.0006424632973914,153.41644858709873
6.0205952,1.0004345511263586,153.25694084164633
6.022883328,1.0001990982260476,153.10066664154274
6.025171456,0.9999510912469534,152.94793779128835
6.027460096,0.9997059338143801,152.7988074598848
6.029748224,0.9994794674710751,152.65318578107437
6.032036864,0.9992857968311245,152.51063106160603
6.034324992,0.9991373517365573,152.37059238253744
6.03661312,0.9990436302058884,152.232363784457
6.03890176,0.9990104543698571,152.09511481159942
6.041189888,0.9990401409598848,151.95788694270138
6.043478016,0.9991305333503131,151.81985003908795
6.045766656,0.9992760769448396,151.68011048069835
6.048054784,0.9994678006263679,151.53797825561645
6.050343424,0.9996930822961454,151.39282807443828
6.052631552,0.9999379854703965,151.24429888381567
6.05491968,1.0001868193520802,151.09217670993993
6.05720832,1.0004240372163147,150.93660832849864
6.059496448,1.0006343224859462,150.77778913674877
6.061785088,1.0008046933473125,150.61627588594962
6.064073216,1.0009241904424355,150.45267103599895
6.066361344,1.0009852145926883,150.28779827325533
6.068649984,1.0009840141826412,150.12250708556843
6.070938112,1.000920582362629,149.95772657655033
6.073226752,1.0007989774901846,149.7943068108613
6.07551488,1.000626691223253,149.63307984228055
6.077803008,1.000414674101437,149.47463952298378
6.080091648,1.0001763680646407,149.31953739614286
6.082379776,0.9999269332185449,149.16796707279022
6.084668416,0.9996818928191116,149.02004181156838
6.086956544,0.9994571042819154,148.87556091537343
6.089244672,0.9992665269579819,148.7341408522011
6.091533312,0.9991223725658378,148.5952092643871
6.09382144,0.9990338764395688,148.45799096439652
6.09611008,0.9990065601250696,148.32164311083704
6.098398208,0.9990423195918466,148.18527181674597
6.100686336,0.9991388171782306,148.04801279249085
6.102974976,0.9992898079624508,147.90892786550612
6.105263104,0.9994861298851478,147.76740134732614
6.107551232,0.9997149020494654,147.62278339841805
6.109839872,0.9999619226263801,147.47472556036962
6.112128,1.0002113250106643,147.32312818646938
6.11441664,1.0004474802762757,147.16804008290777
6.116704768,1.000655439307007,147.009728612912
6.118992896,1.0008219119748547,146.84873859386835
6.121281536,1.0009365520377262,146.6857686626482
6.123569664,1.0009918908344226,146.5215827966458
6.125858304,1.0009845073461174,146.3570706318567
6.128146432,1.0009149147611787,146.19315382752612
6.13043456,1.0007873620484449,146.03069617936683
6.1327232,1.0006101027383332,145.87047985510435
6.135011328,1.0003940611514182,145.7131352023656
6.137299968,1.000152973419671,145.55914667685946
6.139588096,0.9999022385261941,145.40879107321075
6.141876224,0.9996575134208545,145.2620427640485
6.144164864,0.9994344272400119,145.11873370795956
6.146452992,0.9992472117882525,144.9784588930688
6.148741632,0.9991075531966036,144.8405890855139
6.15102976,0.9990245386722442,144.70436534275152
6.153317888,0.999003262007954,144.56898209387145
6.155606528,0.9990452130439008,144.43343654136368
6.157894656,0.9991478084538614,144.2968719617662
6.160183296,0.999304462575327,144.15847407808513
6.162471424,0.9995052177245695,144.01748239979503
6.164759552,0.9997374634844282,143.8733916929931
6.167048192,0.9999864054829313,143.72585711764702
6.16933632,1.0002363233196925,143.57471263033196
6.17162496,1.000471241475662,143.4200464586414
6.173913088,1.000676576275853,143.2622687357821
6.176201216,1.0008391048115661,143.10184088795043
6.178489856,1.0009486060562838,142.93945078491674
6.180777984,1.0009980802823575,142.77595445262605
6.183066112,1.0009844063253892,142.61222515815902
6.185354752,1.0009086400961456,142.4491791874658
6.18764288,1.0007752823065368,142.28766597454765
6.18993152,1.0005928416793617,142.1284869681018
6.192219648,1.000372828638199,141.97225797226068
6.194507776,1.0001291464436886,141.81942077502524
6.196796416,0.9998771016090637,141.6702150417419
6.199084544,0.9996328575825922,141.5246558514147
6.201373184,0.9994117926196868,141.38251275309494
6.203661312,0.9992279001745598,141.24334409868234
6.20594944,0.9990929720743117,141.1065348054993
6.20823808,0.9990155938230062,140.971329974168
6.210526208,0.9990004937519684,140.8368100225473
6.212814848,0.9990488882887062,140.7020931331784
6.215102976,0.9991575878661983,140.56626062055233
6.217391104,0.9993197112845819,140.4284986783325
6.219679744,0.9995251402263402,140.28807418888508
6.221967872,0.9997607335932507,140.14450351167326
6.224256512,1.0000114778867069,139.99739355602142
6.22654464,1.0002615558046715,139.8467156658934
6.228832768,1.000495292283615,139.69251824272504
6.231121408,1.0006976445098414,139.53520226999254
6.233409536,1.0008559839161233,139.3753071222507
6.235698176,1.0009602764924754,139.21351851971843
6.237986304,1.0010037887594228,139.05069420168894
6.240274432,1.0009837673165816,138.88776738949483
6.242563072,1.000901646679907,138.72558052361381
6.2448512,1.0007623776527457,138.5650271157045
6.24713984,1.000574826832473,138.40687967408047
6.249427968,1.0003508775165322,138.25174531537814
6.251716096,1.0001045175477445,138.10003710758008
6.254004736,0.9998515257438363,137.95203916393135
6.256292864,0.9996079717333902,137.80764319127013
6.258580992,0.9993889193127767,137.66666824849736
6.260869632,0.9992088487353152,137.528621319075
6.26315776,0.9990787269611178,137.39287277455094
6.2654464,0.9990070468128385,137.25859584589847
6.267734528,0.9989982821445107,137.12499338851623
6.270022656,0.999053163069968,136.99106765082703
6.272311296,0.9991681359298844,136.8559337676587
6.274599424,0.999335779202934,136.71876578602743
6.276888064,0.999545818993317,136.57890627206916
6.279176192,0.9997845588605124,136.4357876887751
6.28146432,1.000037181153195,136.28913680484615
6.28375296,1.0002873969626485,136.1388719835684
6.286041088,1.0005195648808185,135.98514017941142
6.288329728,1.000718967074855,135.8282921906385
6.290617856,1.0008728565550102,135.66890131637842
6.292905984,1.0009715324419497,135.50774227685443
6.295194624,1.0010089383492669,135.34559565113648
6.297482752,1.0009824551643702,135.18341772115437
6.299771392,1.000893907738054,135.0221049731168
6.30205952,1.000748569298598,134.86248851488932
6.304347648,1.0005560177520396,134.70540513839788
6.306636288,1.0003279968633412,134.55134761412742
6.308924416,1.000079368075083,134.40080943564425
6.311213056,0.9998254937633052,134.253956437899
6.313501184,0.9995825380873894,134.11073763183117
6.315789312,0.9993660403359181,133.97088584778942
6.318077952,0.9991897649661046,133.83395865377102
6.32036608,0.9990646821550722,133.69922887301792
6.322654208,0.9989990317119298,133.56595086006047
6.324942848,0.9989968438392294,133.43318968298445
6.327230976,0.9990582407094938,133.30003923868298
6.329519616,0.99917949569857,133.16557917606954
6.331807744,0.9993527571468658,133.02899072393458
6.334095872,0.9995672019632533,132.88963636180782
6.336384512,0.9998092105765132,132.74700007116653
6.33867264,1.0000633803465528,132.60076963453162
6.34096128,1.0003136468287932,132.45091249702418
6.343249408,1.0005440022532075,132.29759671427743
6.345537536,1.0007402064240534,132.1412048928816
6.347826176,1.0008894125853756,131.98236056023742
6.350114304,1.0009825887476171,131.82176045919618
6.352402944,1.0010135843194068,131.66028342322647
6.354691072,1.0009804719801485,131.49887710384107
6.3569792,1.0008852143307712,131.33842788288652
6.35926784,1.0007340220232508,131.1797973559059
6.361555968,1.0005363716302718,131.02370370403983
6.363844608,1.0003045645210564,130.87077081756567
6.366132736,1.000053549084536,130.72136481311873
6.368420864,0.9997989419578805,130.5756687197785
6.370709504,0.9995570894800977,130.43360960617366
6.372997632,0.9993431342800948,130.29491913740205
6.375286272,0.9991707808916251,130.1590603353612
6.3775744,0.9990510300771985,130.02536989693803
6.379862528,0.9989914442783051,129.89302567475642
6.382151168,0.9989959159288495,129.76110145538644
6.384439296,0.9990641218486123,129.6287027453716
6.386727936,0.999191616687692,129.4948800609224
6.389016064,0.9993705526598089,129.3588807827116
6.391304192,0.9995894324988195,129.22000248178648
6.393592832,0.9998344419529753,129.07778771822922
6.39588096,1.0000899741742764,128.93196462798488
6.398169088,1.0003400925931214,128.78250283431586
6.400457728,1.000568551549654,128.62957393433558
6.402745856,1.0007613015432901,128.47365219863866
6.405034496,1.000905672557384,128.3152968661616
6.407322624,1.0009929993337716,128.15528547127388
6.409610752,1.0010174811719192,127.99448798015516
6.411899392,1.0009776562131345,127.83382441468598
6.41418752,1.000875804800909,127.67422574808425
6.41647616,1.0007186111094426,127.51655247306024
6.418764288,1.0005157986829034,127.3615002311131
6.421052416,1.0002803952079,127.20965272833438
6.423341056,1.0000270077987976,127.06140177237519
6.425629184,0.9997718594143498,126.91686728336595
6.427917824,0.999531157567891,126.77597876767761
6.430205952,0.9993200571893764,126.63839700389056
6.43249408,0.9991519539835767,126.50360864388323
6.43478272,0.9990376835953861,126.37091732417436
6.437070848,0.9989844875316627,126.23947397309934
6.439359488,0.9989956352528798,126.10837622714243
6.441647616,0.9990706166633613,125.97669242744227
6.443935744,0.9992045499712987,125.84350554844067
6.446224384,0.9993890953575698,125.70802460742308
6.448512512,0.999612323327018,125.56962062021844
6.450801152,0.9998603213292215,125.42782014704828
6.45308928,1.0001172173653217,125.28234312791295
6.455377408,1.0003668808951152,125.13326016140066
6.457666048,1.0005933033726062,124.98073124226076
6.459954176,1.000782257925282,124.82523332243777
6.462242816,1.0009217871324851,124.6673560281412
6.464530944,1.0010031126843668,124.50793594034933
6.466819072,1.001020896319372,124.34779028418374
6.469107712,1.0009741422580614,124.18788720634876
6.47139584,1.000865758487943,124.02915129072129
6.473683968,1.0007024159341773,123.87238686294835
6.475972608,1.000494681478256,123.71836369745829
6.478260736,1.0002554355973285,123.56763916170381
6.480549376,1.0000000486533185,123.4205019165036
6.482837504,0.9997445281545305,123.27711059858163
6.485125632,0.9995051590506844,123.13736541739604
6.487414272,0.9992970733943235,123.00090169053792
6.4897024,0.9991333726820171,122.86717569493862
6.49199104,0.9990248171095619,122.73545117792774
6.494279168,0.9989780724858025,122.6049038787179
6.496567296,0.9989960764104967,122.47460625402483
6.498855936,0.9990779446436855,122.34359839405676
6.501144064,0.9992183682082244,122.21102931059971
6.503432704,0.9994084329380856,122.07606377209157
6.505720832,0.9996360659653111,121.93806954061272
6.50800896,0.9998868367164837,121.79665349631506
6.5102976,1.000144946998145,121.65153449009095
6.512585728,1.0003938959833765,121.50280185876848
6.514874368,1.000618039308286,121.35062872380244
6.517162496,1.0008031583598673,121.19553872526869
6.519450624,1.0009374196372012,121.03813545064932
6.521739264,1.0010125924378699,120.8792763200252
6.524027392,1.0010236359761606,120.71978179596658
6.526316032,1.0009698045665931,120.56063898968176
6.52860416,1.0008546382608763,120.40275939273526
6.530892288,1.0006852668649902,120.24693962870246
6.533180928,1.000472567265241,120.09393147533584
6.535469056,1.0002298092286237,119.9442675105416
6.537757184,0.9999724831403157,119.79826024072531
6.540045824,0.9997167132547097,119.65600355971853
6.542333952,0.9994789669478913,119.51739327273151
6.544622592,0.9992740397719715,119.38201448147636
6.54691072,0.9991151531478478,119.24934615657453
6.549198848,0.9990123677491767,119.11856644319879
6.551487488,0.9989722649145849,118.98889263172573
6.553775616,0.9989973632628316,118.85937090604209
6.556064256,0.9990862223747811,118.72900255645816
6.558352384,0.9992331093418962,118.59700574754523
6.560640512,0.9994286380399097,118.46251198904886
6.562929152,0.9996605314158002,118.32492342359352
6.56521728,0.999914066961601,118.18386230900924
6.56750592,1.0001732198410693,118.03907833068955
6.569794048,1.0004213761426493,117.89065823572602
6.572082176,1.0006429873379414,117.73883150112994
6.574370816,1.0008240163001418,117.58414852821078
6.576658944,1.0009528644161425,117.42720717730099
6.578947584,1.0010215964440257,117.2688521029216
6.581235712,1.0010254926898456,117.11003766196232
6.58352384,1.000964676066304,116.95164117462592
6.58581248,1.000842751529312,116.79457605175742
6.588100608,1.0006674112387137,116.63972032258167
6.590389248,1.0004497730921464,116.48772020502926
6.592677376,1.000203510736384,116.33914666463366
6.594965504,0.9999444122380061,116.19424947819299
6.597254144,0.9996885501645263,116.05313115381287
6.599542272,0.9994525174033366,115.91560590837501
6.601830912,0.9992510896650703,115.78130727598042
6.60411904,0.9990971292147585,115.64963107369437
6.606407168,0.9990003772041397,115.51981346295082
6.608695808,0.9989672137599207,115.39096835635083
6.610983936,0.9989995322866596,115.26218652910683
6.613272064,0.9990953564449552,115.13247141877802
6.615560704,0.9992486721911965,115.00098920668225
6.617848832,0.9994497701255114,114.86694174727629
6.620137472,0.9996857821926637,114.72974561845872
6.6224256,0.9999419277119029,114.58897713880722
6.624713728,1.000201848847116,114.44450722079908
6.627002368,1.0004489835677697,114.29639101737331
6.629290496,1.0006678917167091,114.14487481810845
6.631579136,1.0008445422727967,113.99054824005405
6.633867264,1.000967823530369,113.83407869694905
6.636155392,1.0010299119666122,113.6762820070838
6.638444032,1.0010267945425142,113.51807958974787
6.64073216,1.0009587169586631,113.36041033367874
6.6430208,1.0008299638580431,113.20417122560274
6.645308928,1.0006484584396234,113.05027010386607
6.647597056,1.0004260275994497,112.89928721748089
6.649885696,1.000176482111953,112.75175191878104
6.652173824,0.9999156214238439,112.6079555082352
6.654462464,0.999659975222798,112.46795725923815
6.656750592,0.9994259762830672,112.33155120365593
6.65903872,0.9992282610318776,112.19830806701447
6.66132736,0.9990793601472846,112.06759635079283
6.663615488,0.998988987752435,111.93871212674746
6.665904128,0.9989626454522825,111.81067571947672
6.668192256,0.9990023355233467,111.6825839593418
6.670480384,0.999105237303777,111.55348372890623
6.672769024,0.9992650769576746,111.42249305115241
6.675057152,0.9994716240044733,111.28883955539348
6.677345792,0.9997119311955579,111.15199670193559
6.67963392,0.9999703156673185,111.01152359855499
6.681922048,1.000230892488403,110.86733032170534
6.684210688,1.0004769110224492,110.71948146633885
6.686498816,1.0006928195355855,110.56829173903732
6.688786944,1.000864916324186,110.41431818417361
6.691075584,1.000982384578234,110.25826521683337
6.693363712,1.0010376384766317,110.1009878019846
6.695652352,1.001027301813195,109.94339509021634
6.69794048,1.000951927414611,109.78645250742721
6.700228608,1.0008162552034685,109.6310767348989
6.702517248,1.0006289154581058,109.47807888797708
6.704805376,1.0004015553614485,109.32810275550594
6.707094016,1.0001488546290438,109.18162215199723
6.709382144,0.9998864538732433,109.03891591721617
6.711670272,0.9996312136012552,108.9000294426922
6.713958912,0.9993993623412951,108.76467637971534
6.71624704,0.9992054861713323,108.63248172371591
6.71853568,0.9990620305977209,108.50276296725906
6.720823808,0.9989780153320295,108.37474121162114
6.723111936,0.9989590246498039,108.24746933159109
6.725400576,0.9990060464202984,108.12006114070958
6.727688704,0.9991162645173108,107.99152124993005
6.729977344,0.9992825300642444,107.86099041129266
6.732265472,0.9994944742556943,107.72772218303894
6.7345536,0.9997385769718266,107.59118676023537
6.73684224,0.9999994390714283,107.45100002787905
6.739130368,1.0002604064974614,107.30702981262347
6.741419008,1.000505025126356,107.1594191877278
6.743707136,1.0007177161102987,107.00851384472742
6.745995264,1.0008850531001938,106.85486576088732
6.748283904,1.0009963822435568,106.69924423399362
6.750572032,1.0010446410434595,106.54245939321443
6.75286016,1.0010269843490465,106.38550217196901
6.7551488,1.0009441915598165,106.22928194537072
6.757436928,1.000801639806261,106.07472082803099
6.759725568,1.00060823273311,105.92262981541391
6.762013696,1.000376240376472,105.77362262392735
6.764301824,1.000120375769786,105.62820991197727
6.766590464,0.9998566671990562,105.48658691434774
6.768878592,0.9996020804480475,105.34877166587404
6.771167232,0.9993725729069566,105.21451181631534
6.77345536,0.9991829040534932,105.08330984887705
6.775743488,0.999044966088193,104.95454347075425
6.778032128,0.9989677153622057,104.82736410189936
6.780320256,0.9989559676508692,104.70086756132531
6.782608896,0.999010491566074,104.57408352802402
6.784897024,0.9991280035748499,104.44606557882584
6.787185152,0.9993008140984678,104.31596217042045
6.789473792,0.9995180694807829,104.18306195272339
6.79176192,0.9997660472470934,104.04678002478674
6.79405056,1.0000289998652687,103.90682720456725
6.796338688,1.0002902819942028,103.76306898075322
6.798626816,1.0005331725549693,103.61568253350434
6.800915456,1.0007424437392396,103.46503493527648
6.803203584,1.0009048089222228,103.31171458160291
6.805492224,1.0010099452029015,103.15648192680642
6.807780352,1.0010511246212497,103.00019719867622
6.81006848,1.0010259044592944,102.84383520855272
6.81235712,1.0009356462267902,102.6883124198092
6.814645248,1.0007860896489142,102.53457171347188
6.816933888,1.000586706237838,102.38338654149206
6.819222016,1.0003501398943924,102.23536534411576
6.821510144,1.0000913413338692,102.090987603992
6.823798784,0.9998266694694791,101.95041826602032
6.826086912,0.9995727963091885,101.8136718968733
6.82837504,0.999346004129678,101.68045854520035
6.83066368,0.9991606515999688,101.55023003734789
6.832951808,0.9990285507347882,101.42238467497913
6.835240448,0.9989581500785946,101.29602910865577
6.837528576,0.9989538279733864,101.1702323184062
6.839816704,0.9990160827935329,101.04407803472947
6.842105344,0.9991407090614806,100.9165631382709
6.844393472,0.9993200774579586,100.78684675659437
6.846682112,0.9995426253044679,100.6542491307905
6.84897024,0.9997944340394488,100.51820143725611
6.851258368,1.0000592295963973,100.37843892295498
6.853547008,1.0003205420523682,100.2348765363133
6.855835136,1.0005616168164613,100.0876890440682
6.858123776,1.0007672743298965,99.9372845737774
6.860411904,1.0009242776710965,99.78424550264907
6.862700032,1.0010230245826308,99.62940616724305
6.864988672,1.0010568810380656,99.47360809896632
6.8672768,1.0010239307396283,99.31783063867144
6.86956544,1.0009261597940349,99.16302534411776
6.871853568,1.0007695902903282,99.01007795421488
6.874141696,1.000564316588045,98.85977384789346
6.876430336,1.000323305029503,98.71272490967472
6.878718464,1.0000617149352733,98.56937079428265
6.881007104,0.9997960976145448,98.42986284091128
6.883295232,0.9995432968559992,98.29415069622338
6.88558336,0.9993193244490745,98.16194807647611
6.887872,0.9991386402002078,98.03271342722977
6.890160128,0.9990125162612832,97.90572385450305
6.892448768,0.9989491675562974,97.78016530641064
6.894736896,0.9989525451980852,97.65507213237828
6.897025024,0.9990223996649185,97.52947115764023
6.899313664,0.9991544775038906,97.40241264946062
6.901601792,0.999340309625435,97.2730628508571
6.90388992,0.9995680993043905,97.14073113729245
6.90617856,0.9998234008029163,97.00491481140378
6.908466688,1.0000900426338923,96.86529493682848
6.910755328,1.0003511280843693,96.72188766242685
6.913043456,1.0005901191000945,96.57487179781896
6.915331584,1.000791697717005,96.4246799098697
6.917620224,1.0009433516804727,96.27191995247313
6.919908352,1.0010353053357313,96.11742915538483
6.922196992,1.0010617888041213,95.96211778407994
6.92448512,1.0010209798786744,95.80691850712222
