freq,mag,phase
6.0,0.9990865159372024,-179.68502389060734
6.002286592,0.9991203407654232,-179.8210391513517
6.004572672,0.9992091366035555,-179.95795359267433
6.006859264,0.9993486269247581,179.90351423845908
6.009145344,0.9995297092361205,179.76269587402373
6.011431936,0.9997411245472752,179.61902272694084
6.013718016,0.9999693584188808,179.47216116563874
6.016004608,1.0002000791191272,179.3220255802367
6.018290688,1.0004183497437429,179.1686622882758
6.02057728,1.000610724478882,179.01230913010892
6.022863872,1.0007648100814936,178.8534896615097
6.025149952,1.000870833019757,178.69278675568074
6.027436544,1.0009220343466867,178.530984715042
6.029722624,1.0009155488363906,178.36887482673322
6.032009216,1.0008511834792893,178.20730405837526
6.034295296,1.0007334835401889,178.04709037830904
6.036581888,1.0005695277489324,177.88894583172228
6.03886848,1.0003698740896745,177.7334483132896
6.04115456,1.0001470512879393,177.58103676923164
6.043441152,0.9999151498033253,177.43197322437604
6.045727232,0.9996889672893748,177.2862761943414
6.048013824,0.9994827368630226,177.14373804915343
6.050299904,0.9993096474780705,177.0039800821161
6.052586496,0.9991806089328156,176.8664680556803
6.054872576,0.9991038842171277,176.73048982059098
6.057159168,0.999084438067081,176.59523851299326
6.05944576,0.9991234086421773,176.4598735259573
6.06173184,0.9992183093929787,176.32355715914073
6.064018432,0.9993633434164068,176.1854912243656
6.066304512,0.9995490298409588,176.0451216488049
6.068591104,0.9997637727737165,175.90179822442923
6.070877184,0.9999939454867449,175.7552814482457
6.073163776,1.0002249529093692,175.60546192923385
6.075450368,1.0004421822792382,175.4523857682378
6.077736448,1.0006317861049623,175.2963908714921
6.08002304,1.0007818683878662,175.13794433006282
6.08230912,1.0008827843698624,174.97773698712382
6.084595712,1.0009282238314265,174.81649284213253
6.086881792,1.000915293311728,174.65498753079245
6.089168384,1.0008447428287357,174.4941569906216
6.091454464,1.0007211564453131,174.3347610736443
6.093741056,1.0005520734504048,174.17746866661471
6.096027648,1.0003483912591629,174.02294917099556
6.098313728,1.0001229271196712,173.87155807410574
6.10060032,0.9998899558287414,173.72352562785508
6.1028864,0.999664339810226,173.5788364248107
6.105172992,0.9994601515953816,173.43734559391848
6.107459072,0.9992905333841313,173.29859628596176
6.109745664,0.9991661326662139,173.16196559444455
6.112032256,0.9990950971533754,173.02687675630915
6.114318336,0.9990818180999617,172.8923752962342
6.116604928,0.9991271624972605,172.7576796621962
6.118891008,0.9992281588540116,172.6219299115389
6.1211776,0.9993786843875425,172.4844172460954
6.12346368,0.9995689411569271,172.34443428238927
6.125750272,0.9997869611135194,172.2014752730547
6.128036352,1.0000189738696406,172.0553141735798
6.130322944,1.0002502513516582,171.9058082683618
6.132609536,1.0004660606118125,171.7530368727361
6.134895616,1.0006528069253904,171.59742109464423
6.137182208,1.0007985786620734,171.4393929943381
6.139468288,1.0008942114663397,171.27964951277804
6.14175488,1.0009336558121626,171.11895044471004
6.14404096,1.0009144426576924,170.95812049287926
6.146327552,1.000837442880608,170.79802464263204
6.148614144,1.0007079757130468,170.6394349534067
6.150900224,1.0005339445018384,170.48308125469484
6.153186816,1.0003261819917069,170.3295423644592
6.155472896,1.0000983474380916,170.17917578368468
6.157759488,0.9998644221642243,170.0321846222585
6.160045568,0.9996393388983236,169.88860248384407
6.16233216,0.9994373312009095,169.74813793017657
6.16461824,0.9992714862323626,169.61035367498886
6.166904832,0.9991519796381005,169.4746949300061
6.169191424,0.9990867384185781,169.34042113514795
6.171477504,0.999079733157121,169.2066724622028
6.173764096,0.9991314041385934,169.07267214586503
6.176050176,0.9992387769195248,168.9375074816791
6.178336768,0.9993947033869284,168.8004796013792
6.180622848,0.999589555218459,168.660935115824
6.18290944,0.9998108694368603,168.5183457371283
6.18519552,1.000044428633744,168.37250723197033
6.187482112,1.000275765532683,168.22332250712003
6.189768704,1.0004900120390503,168.0709178933433
6.192054784,1.0006736696739913,167.91564352224748
6.194341376,1.0008150544604393,167.75803813661258
6.196627456,1.0009053134035288,167.59882270136285
6.198914048,1.0009385070709227,167.43866492945966
6.201200128,1.0009127492078063,167.27853060292054
6.20348672,1.0008295504779297,167.1192054325075
6.205773312,1.0006939968452107,166.96147694901467
6.208059392,1.0005149660280395,166.8060556221264
6.210345984,1.0003035867506482,166.6534971126971
6.212632064,1.0000731333005837,166.50416584084152
6.214918656,0.9998382911676074,166.3582762307598
6.217204736,0.9996140978516638,166.21573351242506
6.219491328,0.9994146007412168,166.07630319828695
6.221777408,0.9992525469193257,165.9395327090987
6.224064,0.9991381619572148,165.80481364666684
6.226350592,0.9990789267670006,165.67140887427783
6.228636672,0.9990783962688412,165.53845858304058
6.230923264,0.9991367036557024,165.40510266273967
6.233209344,0.9992501733194028,165.27054989178453
6.235495936,0.9994117066875798,165.13400312683547
6.237782016,0.9996108668147066,164.99487775969882
6.240068608,0.9998352508319344,164.85268314087253
6.2423552,1.0000705820852098,164.70715356710787
6.24464128,1.0003017845269258,164.5582958778248
6.246927872,1.000514165831808,164.40623428505754
6.249213952,1.0006945756851846,164.25134623744484
6.251500544,1.0008313659204482,164.09415874384507
6.253786624,1.0009159437429689,163.9354270796464
6.256073216,1.0009427411415974,163.77588723207057
6.258359296,1.0009103700578563,163.61644526425908
6.260645888,1.0008207620926104,163.45785937577767
6.26293248,1.0006795192202618,163.30101563927263
6.26521856,1.0004953243976789,163.14656678114002
6.267505152,1.0002802118183929,162.99507040843963
6.269791232,1.0000474680052875,162.84678407002949
6.272077824,0.999812027887198,162.70197366891077
6.274363904,0.9995888713033615,162.56050035629565
6.276650496,0.999392020695884,162.42215288798806
6.278937088,0.9992340672029637,162.28639711602287
6.281223168,0.9991249158228916,162.15258713743322
6.28350976,0.9990716834004966,162.02004020800877
6.28579584,0.9990778168839828,161.88783860391072
6.288082432,0.9991428107539615,161.75517946747937
6.290368512,0.9992625857612685,161.6211623694969
6.292655104,0.9994295872840913,161.4851510000195
6.294941184,0.9996331358327174,161.3464035910912
6.297227776,0.999860512460746,161.20456055998505
6.299514368,1.0000971040606599,161.0594157469428
6.301800448,1.0003279291498313,160.91085500043087
6.30408704,1.0005384519655165,160.75914309668585
6.30637312,1.0007153057878506,160.60462662038375
6.308659712,1.000847397827108,160.4479094901919
6.310945792,1.000926002284924,160.28968739187818
6.313232384,1.0009464448844279,160.13075979346968
6.315518464,1.000907417784337,159.9720071256756
6.317805056,1.0008111056804143,159.81424258243518
6.320091648,1.000663933633375,159.6582891366773
6.322377728,1.0004748871421667,159.50479242065018
6.32466432,1.0002559672366698,159.3543446778834
6.3269504,1.000021186540038,159.20715055698378
6.329236992,0.9997853569223975,159.06341438361082
6.331523072,0.999563317479776,158.92303754832693
6.333809664,0.9993693786475631,158.7857284872154
6.336096256,0.9992156877494704,158.65098436874254
6.338382336,0.9991120013403738,158.51817499476184
6.340668928,0.9990650395285732,158.3864707898296
6.342955008,0.9990779506784737,158.25502477327913
6.3452416,0.9991496597503762,158.12299976079598
6.34752768,0.999275673502949,157.98958839921812
6.349814272,0.9994480759747304,157.85402045258184
6.352100352,0.9996559997550793,157.7157195165243
6.354386944,0.9998861513870193,157.57425862794608
6.356673536,1.000124008386543,157.42942058256213
6.358959616,1.0003544136177627,157.28117095083275
6.361246208,1.000562712379602,157.12981312834853
6.363532288,1.000735857654053,156.97568858286627
6.36581888,1.0008628288458377,156.81941476195772
6.36810496,1.00093545229944,156.66173377127515
6.370391552,1.0009494384126665,156.50343356167483
6.372678144,1.000903428378851,156.34540609291642
6.374964224,1.000800631026408,156.188485216795
6.377250816,1.0006473738305577,156.03340417268114
6.379536896,1.0004535600792865,155.88092716484385
6.381823488,1.0002310601301534,155.73149995633136
6.384109568,0.9999943338001032,155.58538886026773
6.38639616,0.9997582771255824,155.44275225356733
6.38868224,0.9995376055680444,155.3035405955392
6.390968832,0.9993466455316855,155.16726666450032
6.393255424,0.9991974691906409,155.03353667769454
6.395541504,0.9990996318146155,154.90165902699823
6.397828096,0.9990591454503431,154.77079835803846
6.400114176,0.9990787805468232,154.64010770238235
6.402400768,0.9991572671257661,154.50876738478956
6.404686848,0.9992896937764666,154.375902936169
6.40697344,0.9994675056101381,154.2407894278869
6.409260032,0.9996796086426689,154.10290334063572
6.411546112,0.9999125895612831,153.9617814221036
6.413832704,1.0001513894542666,153.81727194625626
6.416118784,1.0003811048346747,153.66936279153657
6.418405376,1.0005871194941915,153.51831517941307
6.420691456,1.0007562802932428,153.36459760784612
6.422978048,1.0008779571059794,153.20879063569137
6.425264128,1.0009444984867706,153.05163928205627
6.42755072,1.0009515705641168,152.89399774962183
6.429837312,1.0008986917601554,152.736687904408
6.432123392,1.0007892394703626,152.58060663444087
6.434409984,1.0006301647032565,152.42647881544656
6.436696064,1.000431366138268,152.27498477193504
6.438982656,1.0002054258819415,152.1265957849396
6.441268736,0.9999669582685424,151.98160071671217
6.443555328,0.9997306461138975,151.84009761589786
6.44584192,0.9995117753594688,151.701948056154
6.448128,0.9993240788935164,151.56678795829797
6.450414592,0.9991796918627024,151.43408539210887
6.452700672,0.9990875804685027,151.30310058327285
6.454987264,0.9990538034812849,151.17310154662582
6.457273344,0.9990803176752663,151.0431469315121
6.459559936,0.9991656833003996,150.9124511715055
6.461846016,0.999304401482088,150.78012546667236
6.464132608,0.9994877843041303,150.64551448198472
6.4664192,0.9997039562895248,150.5080092081477
6.46870528,0.9999393860856799,150.36722833264994
6.470991872,1.000179137553742,150.2230143977437
6.473277952,1.0004079967286932,150.07545893470524
6.475564544,1.000611300654913,149.92477304737253
6.477850624,1.0007763416735371,149.7714377834621
6.480137216,1.0008926452189637,149.616103988074
6.482423296,1.0009527641112745,149.4594856272343
6.484709888,1.0009529430161614,149.30247689131633
6.48699648,1.0008931257300384,149.14591094855948
6.48928256,1.000777008734634,148.99067225356148
6.491569152,1.0006119426468985,148.83747758145572
6.493855232,1.0004083698168584,148.68700181380615
6.496141824,1.0001792255534088,148.53968270796418
6.498427904,0.9999389391084953,148.39585346547096
6.500714496,0.9997028495155433,148.25543641436965
6.503001088,0.9994857530251073,148.11841480837103
6.505287168,0.9993016207634489,147.98430238236517
6.50757376,0.9991621193050937,147.8525939219903
6.50985984,0.9990761151938948,147.72257173644775
6.512146432,0.9990490341996497,147.5933843382148
6.514432512,0.9990828044286187,147.4641915783976
6.516719104,0.9991750787483611,147.33411810798026
6.519005184,0.9993200971125791,147.20235173723728
6.521291776,0.9995088625224324,147.0681565279743
6.523578368,0.9997290803320574,146.93104414198132
6.525864448,0.9999668704890966,146.79059228189766
6.52815104,1.0002073301781815,146.6467100285533
6.53043712,1.0004349824366343,146.49946759699162
6.532723712,1.0006355084172545,146.34912163948422
6.535009792,1.0007963282267833,146.1961723360766
6.537296384,1.0009068091686708,146.04130473558422
6.539582976,1.0009603819028852,145.88526809273367
6.541869056,1.0009536075597287,145.72890149046714
6.544155648,1.0008864908448805,145.57310861867333
6.546441728,1.0007636654569445,145.4187012101331
6.54872832,1.0005928148955292,145.26650556373298
6.5510144,1.0003845503553808,145.1170232217182
6.553300992,1.0001522128097673,144.9707887542128
6.555587072,0.9999105318654481,144.82804177378011
6.557873664,0.999674695747954,144.68880804894653
6.560160256,0.9994597538312732,144.55286854155688
6.562446336,0.9992793982314384,144.41983676391928
6.564732928,0.9991449989509323,144.289137309641
6.567019008,0.9990653322674794,144.1600166740155
6.5693056,0.9990452213687003,144.03168645574436
6.57159168,0.9990860514065897,143.90321133917485
6.573878272,0.9991853447016772,143.77375103741562
6.576164864,0.9993368263054049,143.6424768352222
6.578450944,0.9995308617977543,143.50873669231115
6.580737536,0.9997549691456,143.37198245601815
6.583023616,0.9999951875069009,143.23186110467628
6.585310208,1.0002360623023907,143.08829097224722
6.587596288,1.0004622766631572,142.9413147463994
6.58988288,1.0006596970771546,142.7913169972407
6.59216896,1.000815795588677,142.63876724930017
6.594455552,1.0009205726302715,142.4843744123725
6.596742144,1.0009673519252194,142.32890235743878
6.599028224,1.0009532655818678,142.17320809328027
6.601314816,1.0008791061387068,142.018187760208
6.603600896,1.0007494473911915,141.86466007977597
6.605887488,1.0005727442079786,141.71340808284492
6.608173568,1.000359916854188,141.5649779398125
6.61046016,1.0001246193739737,141.41985179376476
6.612746752,0.9998815132405281,141.27824667135928
6.615032832,0.9996462647406452,141.14010273060262
6.617319424,0.9994337318471865,141.00528635016636
6.619605504,0.9992572274062124,140.87331162062927
6.621892096,0.9991281922740796,140.74362030144613
6.624178176,0.9990550111260618,140.6154268679664
6.626464768,0.9990420471817196,140.48789940557793
6.628750848,0.9990901891252133,140.36012535340976
6.63103744,0.9991966850131788,140.2312611969433
6.633324032,0.9993543914753158,140.10049066289574
6.635610112,0.9995536997993463,139.96717745166288
6.637896704,0.9997815848892557,139.83075646757018
6.640182784,1.000023897081638,139.69095061107592
6.642469376,1.0002649826543457,139.54765932296004
6.644755456,1.000489741302063,139.40103711200067
6.647042048,1.00068383969923,139.25134437599078
6.649328128,1.0008350636180636,139.0992054674244
6.65161472,1.0009338101827494,138.9452859065135
6.653901312,1.0009736497632653,138.79039142186193
6.656187392,1.0009522488955567,138.635346353906
6.658473984,1.0008707396439085,138.4811252113415
6.660760064,1.0007344569628285,138.3284521830988
6.663046656,1.0005518892944862,138.17818289547358
6.665332736,1.000334487125185,138.0308073038721
6.667619328,1.0000962524675954,137.88674795222806
6.66990592,0.9998521666181606,137.74627398526232
6.672192,0.9996175898892512,137.60928282645898
6.674478592,0.9994075343579192,137.47557236561155
6.676764672,0.9992353431971899,137.3446763802517
6.679051264,0.9991120918619696,137.21596348979637
6.681337344,0.9990454031227454,137.0886501315036
6.683623936,0.9990397573966453,136.96192126711884
6.685910016,0.9990954697906677,136.8348266544012
6.688196608,0.9992088977072535,136.70654679312128
6.6904832,0.9993731611172533,136.5762711498262
6.69276928,0.9995773699907361,136.44335213380828
6.695055872,0.9998090286517483,136.30727016943354
6.697341952,1.0000531729395172,136.167756431613
6.699628544,1.0002942896657965,136.02475217755435
6.701914624,1.0005172871020849,135.87842115476437
6.704201216,1.000707849247361,135.72907644305175
6.706487808,1.0008540680261848,135.5773267143964
6.708773888,1.0009464687329392,135.4238629135928
6.71106048,1.000979214420569,135.26953950024327
6.71334656,1.000950226712896,135.11522318271642
6.715633152,1.0008615192705834,134.96171918027844
6.717919232,1.0007183577183678,134.8099870899016
6.720205824,1.000529950957739,134.66067114419607
6.722491904,1.000308268694832,134.5143560549819
6.724778496,1.000067245441138,134.3714235596265
6.727065088,0.9998221122173964,134.2320600308428
6.729351168,0.9995886071634876,134.0962269454645
6.73163776,0.9993813978950264,133.96360315787044
6.73392384,0.9992136957706301,133.83375936357137
6.736210432,0.9990962361093831,133.70601034397848
6.738496512,0.9990364476573514,133.57958842975717
6.740783104,0.9990383011281886,133.45363165341908
6.743069696,0.9991014631264427,133.32721920575398
6.745355776,0.9992221603074036,133.19950616843678
6.747642368,0.9993925365987848,133.06971808853305
6.749928448,0.9996021160826359,132.93715401125877
6.75221504,0.9998371052401132,132.80139349150198
6.75450112,1.0000830838684183,132.6621721271572
6.756787712,1.0003240083733926,132.51943125777228
6.759073792,1.0005448471506353,132.37334238046498
6.761360384,1.000731707664234,132.22434383876575
6.763646976,1.0008725302819046,132.07300074063116
6.765933056,1.000958342708122,131.92002701867114
6.768219648,1.0009839269193588,131.76625632625732
6.770505728,1.0009473965544529,131.612614980128
6.77279232,1.0008510550812004,131.45993484044655
6.7750784,1.0007011992051067,131.30907715284718
6.777364992,1.0005072314169532,131.16075364224272
6.779651584,1.0002811734632926,131.015509903434
6.781937664,1.0000375627715306,130.87367565590688
6.784224256,0.9997918470797896,130.7354703137048
6.786510336,0.9995594612873027,130.60073469519185
6.788796928,0.9993553321970684,130.46922316381722
6.791083008,0.9991924607743714,130.34042144005903
6.7933696,0.9990809914873273,130.2136371599155
6.79565568,0.9990283121387719,130.0880928984389
6.797942272,0.9990377455867029,129.96290339939978
6.800228864,0.9991085997321555,129.83713428024552
6.802514944,0.9992364323518967,129.70995671752746
6.804801536,0.9994131748267917,129.58058552839694
6.807087616,0.9996275031982486,129.44840535223295
6.809374208,0.9998659790617376,129.3129531643735
6.811660288,1.0001133941279976,129.17396955576214
6.81394688,1.0003540903580188,129.03148746239202
6.81623296,1.0005726332716471,128.88570923501985
6.818519552,1.0007553457677734,128.73702570105516
6.820806144,1.0008904657353341,128.58604253256934
6.823092224,1.0009696567686401,128.43356261368388
6.825378816,1.0009877387175976,128.28038568449122
6.827664896,1.0009435075901272,128.1274043562375
6.829951488,1.0008397734271672,127.97554008941641
6.832237568,1.0006830231331472,127.82558879870992
6.83452416,1.000483388892407,127.67825271207722
6.836810752,1.0002531457481696,127.53406839824348
6.839096832,1.0000072250994172,127.3933702593909
6.841383424,0.9997609948105464,127.25626197054395
6.843669504,0.9995301965585766,127.12268094780376
6.845956096,0.9993293779873076,126.99225315658127
6.848242176,0.9991713091950299,126.86446450909311
6.850528768,0.9990662687534616,126.73863123339024
6.852814848,0.9990207794857924,126.6139703491337
6.85510144,0.9990379590565154,126.48948554488021
6.857388032,0.9991165943866835,126.36434584812703
6.859674112,0.9992516502250529,126.23768273102215
6.861960704,0.9994345677175774,126.10873256330464
6.864246784,0.9996538305039221,125.97688626056588
6.866533376,0.9998955563143583,125.84169530018593
6.868819456,1.0001441671924358,125.70298385467754
6.871106048,1.0003841492587549,125.56075150690573
6.87339264,1.0006002209732783,125.41521857249832
6.87567872,1.000778568635997,125.26685284303537
6.877965312,1.000907969184899,125.11627661519506
6.880251392,1.0009801402015623,124.96425284156126
6.882537984,1.0009905875528646,124.81166477638514
6.884824064,1.0009385492614533,124.65937927787799
6.887110656,1.000827302385292,124.50834179877094
6.889396736,1.000663939169474,124.3592905452743
6.891683328,1.0004585863520097,124.21293234924613
6.89396992,1.0002244211254279,124.06982950563835
6.896256,0.9999762426241074,123.93024008921253
6.898542592,0.9997298358603625,123.79427287266495
6.900828672,0.9995007333725042,123.66180860337849
6.903115264,0.9993034874421035,123.53245056484955
6.905401344,0.9991507478370449,123.40571160573299
6.907687936,0.9990522603236373,123.28080551656448
6.909974528,0.9990142943414744,123.1569339611314
6.912260608,0.9990392670467897,123.03317627662432
6.9145472,0.9991255945975831,122.90864860634727
6.91683328,0.999267918926875,122.78249737212097
6.919119872,0.9994570754579739,122.65393896336951
6.921405952,0.9996810325817916,122.5223808063599
6.923692544,0.9999257809170883,122.38747063337544
