freq,mag,phase
6.0,1.0005878198256466,104.54238740103361
6.002285056,1.0006886088415323,104.38435981100784
6.004570112,1.0007460560744172,104.22521785089043
6.006855168,1.0007566642299215,104.06560538786819
6.009140224,1.0007196445005597,103.90620884735527
6.01142528,1.0006374233128006,103.74770856184705
6.013710336,1.0005151224810134,103.59071604082004
6.015995392,1.0003605176903276,103.43579119215273
6.018280448,1.0001833147922043,103.28326502949619
6.020565504,0.999994690988788,103.13345997285093
6.02285056,0.9998066575409223,102.98639427220971
6.025135616,0.9996310966975381,102.84202945444072
6.027420672,0.9994791606348029,102.70008252217565
6.029705728,0.9993605653182963,102.56014408313915
6.031990784,0.9992828958189799,102.42164859167711
6.03427584,0.9992509015947115,102.28398431082961
6.036560896,0.9992669317625144,102.14645913304679
6.038845952,0.9993298179734574,102.00845363228667
6.041131008,0.9994356468760381,101.8691850524652
6.043416064,0.9995776845399829,101.72817900742723
6.04570112,0.9997469769318654,101.58492571054498
6.047986176,0.9999326982375232,101.43914625764619
6.050271232,1.000123254483332,101.29061576719025
6.052556288,1.0003065046171553,101.13942430214311
6.054841344,1.000470759449764,100.98571877326411
6.0571264,1.0006055973140842,100.82989713068284
6.059411456,1.000702653361776,100.67240706934177
6.061696512,1.0007555625986162,100.51384697122342
6.063981568,1.0007609432274989,100.35490832670295
6.066266624,1.0007184456907374,100.19624761409646
6.06855168,1.0006308889704687,100.0385501529533
6.070836736,1.0005035447201682,99.88245862499095
6.073121792,1.0003447192391892,99.72846227679949
6.075406848,1.0001641612803418,99.57696091373907
6.077691904,0.999973474347718,99.42819119836896
6.07997696,0.9997847186221522,99.28218923191933
6.082262016,0.9996098044044337,99.13888033516957
6.084547072,0.9994599651015259,98.99794428443113
6.086832128,0.9993446030310864,98.85899205074753
6.089117184,0.9992711286008934,98.72145436606962
6.09140224,0.9992442121577719,98.58467177104549
6.093687296,0.9992655351045955,98.44795303525886
6.095972352,0.9993339690615912,98.31061769095028
6.098257408,0.9994449967298522,98.17198015080758
6.100542464,0.9995918743150414,98.03154955147265
6.10282752,0.999764819936915,97.88875839880095
6.105112576,0.9999532397652658,97.7434085336742
6.107397632,1.0001452369517296,97.59531228735598
6.1096832,1.0003283223557415,97.44452430732571
6.111968256,1.000491172201266,97.29123778119212
6.114253312,1.000623277020333,97.13583234106068
6.116538368,1.0007163776329902,96.978837794039
6.118823424,1.0007646046502496,96.82082032456984
6.12110848,1.00076466295646,96.66248071934353
6.123393536,1.0007166779650165,96.50449639132049
6.125678592,1.0006235428274624,96.34758702439069
6.127963648,1.000491329801938,96.19232739149922
6.130248704,1.000328145696707,96.03922409662502
6.13253376,1.00014445138675,95.8886840763228
6.134818816,0.9999517352560883,95.74089357655977
6.137103872,0.9997623714567372,95.59591482367073
6.139388928,0.999588361915491,95.45363235999534
6.141673984,0.9994406777545003,95.31369124335176
6.14395904,0.9993287031438377,95.17568048681217
6.146244096,0.9992596703461449,95.03899147482886
6.148529152,0.9992379298232582,94.90302220343514
6.150814208,0.999264860558187,94.7670335854662
6.153099264,0.9993388073983246,94.63033756912453
6.15538432,0.9994551872529488,94.49229267314603
6.157669376,0.9996066347428051,94.3523276154007
6.159954432,0.9997833699414435,94.2100024533995
6.162239488,0.9999743641242403,94.06500354242759
6.164524544,1.0001674659800526,93.91726918588431
6.1668096,1.0003504609949232,93.76681511205877
6.169094656,1.0005116033649464,93.61385386706709
6.171379712,1.0006408205419948,93.45884957787332
6.173664768,1.0007300145092672,93.30228764338828
6.175949824,1.0007731987330455,93.14476577271233
6.17823488,1.0007678717175108,92.98696384114116
6.180519936,1.0007142176763124,92.8296446695433
6.182804992,1.0006155771919814,92.67345322838207
6.185090048,1.0004783624860683,92.5190034125893
6.187375104,1.000310906739604,92.3667597267214
6.18966016,1.000124091320508,92.21711557214198
6.191945216,0.9999296224819555,92.07027877660816
6.194230272,0.9997398331384992,91.92626413663969
6.196515328,0.9995667920490389,91.78492868485088
6.198800384,0.9994214035065266,91.6458910705248
6.20108544,0.9993130830681374,91.50875568227734
6.203370496,0.9992486103293602,91.37293189381465
6.205655552,0.999232188735531,91.2376889551323
6.207940608,0.9992648335731334,91.10238108282572
6.210225664,0.9993444194972803,90.96626254403463
6.21251072,0.999466239610037,90.8287251992255
6.214795776,0.9996221773427609,90.68916998218924
6.217080832,0.9998026459434929,90.54719012646783
6.219365888,0.9999960699512638,90.40254417345263
6.221650944,1.0001902736660517,90.25505494191522
6.223936,1.000372774925485,90.10489299994067
6.226221056,1.0005322592355934,89.95225498743396
6.228506112,1.0006584409687085,89.79754487002019
6.230791168,1.0007432071032647,89.64134289423399
6.233076224,1.0007814276347555,89.48427102976626
6.23536128,1.0007704613779087,89.32701691383083
6.237646336,1.0007109830753331,89.17029723122832
6.239931392,1.000606766921763,89.01476477799481
6.242216448,1.0004644468081798,88.86106376228938
6.244501504,1.0002929926050192,88.70966149218833
6.24678656,1.0001030860276179,88.56088000683464
6.249071616,0.9999068948327559,88.41494659906213
6.251356672,0.9997168196531602,88.27181558644564
6.253641728,0.9995450026828183,88.13140508492371
6.255926784,0.999402165344588,87.99326682315626
6.25821184,0.9992976736323613,87.85696629488271
6.260496896,0.9992379510990713,87.72186843038868
6.262781952,0.999226982342707,87.58731580119468
6.265067008,0.9992653771790987,87.45260705167266
6.267352064,0.9993508416800228,87.3170134806658
6.26963712,0.9994779129857453,87.17988565656253
6.271922176,0.999638613216498,87.04070491170707
6.274207232,0.9998226593419879,86.89902283802601
6.276492288,1.00001837418451,86.75461255843263
6.278777344,1.0002135284695104,86.60735867450119
6.2810624,1.0003954983904761,86.45741973153643
6.283347456,1.0005529448003587,86.30500610213511
6.285632512,1.0006757828093902,86.15059758170837
6.287917568,1.0007562239519177,85.99472144844302
6.290202624,1.0007891606699415,85.83801626659736
6.29248768,1.0007724677812544,85.68125529510233
6.294772736,1.000707192298998,85.52505453053583
6.297057792,1.000597354956141,85.3701693474602
6.299342848,1.0004499894330163,85.21716270320874
6.301627904,1.0002742942298717,85.06652604583384
6.30391296,1.0000815812533261,84.91857299311631
6.306198016,0.9998837662070862,84.77351390769645
6.308483072,0.9996935950682706,84.6312606036194
6.310768128,0.9995230250737838,84.49168045814018
6.313053184,0.9993831347587537,84.35437516110989
6.31533824,0.9992824938070644,84.2188193494973
6.317623296,0.9992277934421177,84.084454296611
6.319908352,0.9992223266519498,83.95053869651076
6.322193408,0.9992666296351329,83.81633385934842
6.324478976,0.9993579784055628,83.68120728846702
6.326764032,0.999490510582484,83.54446743469452
6.329049088,0.9996557046936395,83.40554799093194
6.331334144,0.9998432749079931,83.26408486175373
6.3336192,1.0000411605367374,83.11987180734249
6.335904256,1.000237075189466,82.97279336128989
6.338189312,1.000418405823855,82.82299781908998
6.340474368,1.000573610596153,82.6707819688546
6.342759424,1.0006929113952225,82.51656173821334
6.34504448,1.000768846265591,82.36095790537183
6.347329536,1.0007962848575704,82.2046438751975
6.349614592,1.0007737916373538,82.04827609394322
6.351899648,1.0007026052769012,81.89261821406052
6.354184704,1.0005871351023485,81.73831427693901
6.35646976,1.000434690409586,81.58596135726538
6.358754816,1.0002550230878409,81.43606211643946
6.361039872,1.0000593755227942,81.2888962138781
6.363324928,0.9998601352553442,81.14460130087453
6.365609984,0.9996700265700394,81.00319430714838
6.36789504,0.9995010811047887,80.86438843211918
6.370180096,0.9993640414786378,80.72786637947594
6.372465152,0.9992675900591032,80.59302504239082
6.374750208,0.9992179791678077,80.45928433899995
6.377035264,0.9992182647910233,80.32593439982357
6.37932032,0.9992686580614359,80.19224616148145
6.381605376,0.999365847464982,80.05747507477341
6.383890432,0.9995036415023579,79.92102430392057
6.386175488,0.9996734476221082,79.78235869214252
6.388460544,0.9998644185609821,79.64106807036589
6.3907456,1.0000645060537643,79.49694456952959
6.393030656,1.0002609511769844,79.34998526135384
6.395315712,1.0004413684044682,79.20028873295709
6.397600768,1.000594225304829,79.04817523091667
6.399885824,1.000709853619464,78.89415972503951
6.40217088,1.0007810665286088,78.73877895317334
6.404455936,1.0008029795652464,78.5827107098994
6.406740992,1.000774511876251,78.4267373029864
6.409026048,1.000697196270373,78.27154949035837
6.411311104,1.0005761411309897,78.1177916014904
6.41359616,1.0004187052558708,77.96606394191764
6.415881216,1.0002350041754806,77.81684254331527
6.418166272,1.0000365232581194,77.67042139546578
6.420451328,0.9998360648646071,77.52689087365967
6.422736384,0.9996462415405134,77.3862232687612
6.42502144,0.9994790635028677,77.24816664243635
6.427306496,0.9993451133625086,77.11235517037447
6.429591552,0.9992530350763517,76.97819734262055
6.431876608,0.9992086707552766,76.84503699324436
6.434161664,0.9992148700264519,76.7121707831265
6.43644672,0.999271349809355,76.57888221287392
6.438731776,0.9993744780661514,76.44444824639274
6.441016832,0.9995176826471186,76.30821510823205
6.443301888,0.9996920284455588,76.1697023409757
6.445586944,0.9998863308008716,76.02852480055498
6.447872,1.0000883134348157,75.88450105058617
6.450157056,1.0002852582514294,75.73756527237121
6.452442112,1.0004645389101852,75.58790244155723
6.454727168,1.0006147971441166,75.43586568552453
6.457012224,1.000726661916374,75.28193187816336
6.45929728,1.0007927941887365,75.12673952056288
6.461582336,1.0008091511632806,74.9709435246258
6.463867392,1.0007745408173478,74.81528462159807
6.466152448,1.000691298035446,74.66051092486053
6.468437504,1.000564381285108,74.50724809761184
6.47072256,1.0004020857106242,74.35611535397665
6.473007616,1.0002143933418677,74.20752390840045
6.475292672,1.0000134259033242,74.06177160589704
6.477577728,0.9998117415475635,73.91895689723586
6.479862784,0.9996223277584072,73.77902577874158
6.48214784,0.9994570428536347,73.64167001170814
6.484432896,0.9993264256281243,73.50650525786402
6.486717952,0.9992388492878824,73.37291255532726
6.489003008,0.9992000001403258,73.24027505495991
6.491288064,0.9992121761403112,73.10787313690335
6.49357312,0.9992748068332743,72.9749055210469
6.495858176,0.9993838919365339,72.84074571643491
6.498143232,0.999532549238606,72.70466042490996
6.500428288,0.9997113667044458,72.56626127691176
6.502713344,0.999908814651416,72.42511023665276
6.5049984,1.000112724480686,72.28108354432324
6.507283456,1.000309823578034,72.13414086813276
6.509568512,1.000487836929827,71.9844694077561
6.511853568,1.00063539216966,71.8324366042075
6.514138624,1.000743133418527,71.67857468976423
6.51642368,1.0008042077566235,71.5234914891288
6.518708736,1.000814713445759,71.36789955952894
6.520993792,1.0007740290064289,71.21254823305668
6.523278848,1.0006845306031424,71.05810395138137
6.525563904,1.0005519158995333,70.90533232785445
6.52784896,1.0003845922286623,70.7547113759516
6.530134016,1.0001931721591797,70.6067223372076
6.532419072,0.9999897205807194,70.46160576707747
6.534704128,0.9997870890978737,70.31947792181714
6.536989184,0.9995981634850613,70.18017306817516
6.53927424,0.9994349939767435,70.04345981619385
6.541559808,0.9993079675087737,69.90889337525512
6.543844864,0.9992251034569611,69.77585117597332
6.54612992,0.9991918829184915,69.64367089199855
6.548414976,0.9992101484862123,69.51162341014644
6.550700032,0.999279054204203,69.37896198495937
6.552985088,0.9993940765007265,69.24496499135688
6.555270144,0.9995480157768721,69.10900324541497
6.5575552,0.9997311947872125,68.97064911320331
6.559840256,0.9999318198934728,68.82945454975335
6.562125312,1.0001373107565914,68.68535650097517
6.564410368,1.0003345696194588,68.53833503405572
6.566695424,1.0005111220720773,68.38859834670151
6.56898048,1.0006557489691008,68.23653037055189
6.571265536,1.0007592287528448,68.08268007102906
6.573550592,1.000815020575705,67.92768766959671
6.575835648,1.0008196225675507,67.77223317703864
6.578120704,1.0007726249319955,67.61711072586695
6.58040576,1.0006769521673353,67.46301612255792
6.582690816,1.0005386492797572,67.31065321968931
6.584975872,1.0003664903241563,67.16050857256471
6.587260928,1.000171335609759,67.01309614036309
6.589545984,0.9999654840104261,66.86855858819334
6.59183104,0.9997620771144587,66.72702649575989
6.594116096,0.9995738965621119,66.58834847665642
6.596401152,0.9994130777792348,66.45222142171329
6.598686208,0.9992897426074027,66.31819367628793
6.600971264,0.9992117718471928,66.18562895241578
6.60325632,0.9991841751436922,66.05385803571939
6.605541376,0.9992087703742486,65.92213505992906
6.607826432,0.9992839607044494,65.7896576961018
6.610111488,0.9994050596676505,65.65579090932516
6.612396544,0.9995643255904197,65.5198753243988
6.6146816,0.9997517638803958,65.38146219836952
6.616966656,0.9999554144380464,65.24018112436086
6.619251712,1.000162415160451,65.0959702732272
6.621536768,1.0003595414867092,64.9487992381005
6.623821824,1.0005344140345762,64.79892931134657
6.62610688,1.0006759095815771,64.64676790785562
6.628391936,1.0007749923301283,64.49287594260957
6.630676992,1.0008253643503058,64.33791074391837
6.632962048,1.0008238547127326,64.18257920487011
6.635247104,1.000770460605433,64.02764968490699
6.63753216,1.000668569648797,63.87383422463123
6.639817216,1.000524580267313,63.721852706782606
6.642102272,1.0003475590319342,63.572168312781855
6.644387328,1.0001487829366682,63.425224571471986
6.646672384,0.9999406780448243,63.28124202682276
6.64895744,0.9997366404755104,63.14027503821024
6.651242496,0.9995494142661258,63.00216537005006
6.653527552,0.9993911434448406,62.86657785332518
6.655812608,0.9992716955170083,62.733025863229514
6.658097664,0.9991988468607664,62.60088193558276
6.66038272,0.9991771211045678,62.46942569158407
6.662667776,0.9992080116229893,62.3379445674992
6.664952832,0.9992895948094073,62.20562006812375
6.667237888,0.9994167823605805,62.07180747466907
6.669522944,0.999581333599603,61.93587651632933
6.671808,0.9997729262111207,61.797362368549535
6.674093056,0.9999794945689467,61.655946293341344
6.676378112,1.0001878792541656,61.51152558651909
6.678663168,1.000384651716544,61.364163576727776
6.680948224,1.000557793382438,61.21409419863502
6.68323328,1.0006958413776823,61.06181381861301
6.685518336,1.0007903453446338,60.90782188321209
6.687803392,1.000835197128344,60.75281702052723
6.690088448,1.0008275031349412,60.597542735652205
6.692373504,1.0007676011023625,60.44278732100603
6.69465856,1.0006594397492075,60.289230603336705
6.696943616,1.000509804729715,60.137526984825186
6.699228672,1.0003279849431004,59.988253120210764
6.701513728,1.0001256491888069,59.841774640793375
6.703798784,0.9999154658727526,59.6983202830815
6.70608384,0.9997109934745169,59.55785452864597
6.708368896,0.9995249952426968,59.420246725061396
6.710653952,0.9993693781057079,59.28514408873981
6.712939008,0.9992539911762467,59.15200364427166
6.715224064,0.9991863545920421,59.02021958947658
6.71750912,0.9991705997866619,58.88904486694814
6.719794176,0.9992079738084587,58.75774170522258
6.722079232,0.9992959881516373,58.625502344597116
6.724364288,0.9994290585467377,58.49168932515669
6.726649344,0.9995988889094709,58.35565159736435
6.7289344,0.999794702855678,58.21696785531551
6.731219456,1.0000039860325418,58.075339807210966
6.733504512,1.0002134650323893,57.930678906454055
6.735789568,1.0004099948622582,57.7830460439383
6.738074624,1.0005809302203235,57.632754709614765
6.74035968,1.0007155253111502,57.480246047493765
6.742644736,1.0008052592048657,57.326127562317794
6.744929792,1.0008442758980751,57.171062710069215
6.747214848,1.0008303028637366,57.015816078163446
6.749499904,1.0007639121320584,56.861144318611686
6.75178496,1.0006495284597332,56.707779465615495
6.754070016,1.000494161002656,56.55638809238258
6.756355072,1.0003077169102528,56.40747403153927
6.75864064,1.0001019016830013,56.261410702742346
6.760925696,0.9998899090336113,56.11837956303594
6.763210752,0.9996850580378448,55.97839862298028
6.765495808,0.9995004281438113,55.841240287654195
6.767780864,0.9993476990918827,55.706544556408275
6.77006592,0.9992366018968488,55.573799278665014
6.772350976,0.9991744105474459,55.44230502946611
6.774636032,0.9991648690655205,55.31133740766965
6.776921088,0.9992086628931276,55.18013034924927
6.779206144,0.9993031444561465,55.04792152302071
6.7814912,0.9994423077873401,54.91401205157277
6.783776256,0.9996173398991588,54.77783735982042
6.786061312,0.9998171281090127,54.6389281889597
6.788346368,1.0000289858752363,54.497002041028594
6.790631424,1.0002395345106012,54.352028739123455
6.79291648,1.0004354063584462,54.20410484634317
6.795201536,1.0006041065336715,54.05352810187751
6.797486592,1.0007349725307477,53.90077633547325
6.799771648,1.0008197725453085,53.746446787670536
6.802056704,1.0008529713980785,53.59125787095537
6.80434176,1.0008325029930463,53.43598370396511
6.806626816,1.0007595612547708,53.28138081680657
6.808911872,1.000638855061535,53.1281890744397
6.811196928,1.0004778930687184,52.97701380388885
6.813481984,1.0002868207768645,52.828405146398154
6.81576704,1.0000778377593915,52.6827135764594
6.818052096,0.9998640182499674,52.54009304015124
6.820337152,0.9996591133120661,52.40052478373289
6.822622208,0.9994759560293797,52.26377072559809
6.824907264,0.9993263083011461,52.12943700077544
6.82719232,0.9992197033869387,51.996993407362346
6.829477376,0.9991629986204985,51.86572878952922
6.831762432,0.9991596372407435,51.73491034221022
6.834047488,0.99921016157081,51.60376124417958
6.836332544,0.9993111442885448,51.4715147736928
6.8386176,0.9994563331176682,51.337455782395985
6.840902656,0.9996364703657197,51.2010512920375
6.843187712,0.9998401990608845,51.06183816209955
6.845472768,1.0000545236763692,50.91958853451883
6.847757824,1.0002659141683103,50.77426501741368
6.85004288,1.000460966246372,50.625959934596516
6.852327936,1.0006271754699043,50.47502138195961
6.854612992,1.000754261264867,50.321968441364575
6.856898048,1.0008338413425881,50.16739479494346
6.859183104,1.0008611145616124,50.01206100915466
6.86146816,1.00083406019137,49.856700288958855
6.863753216,1.000754543836716,49.70211030905108
6.866038272,1.0006274501930512,49.549029849156106
6.868323328,1.000460906493831,49.39807519227653
6.870608384,1.00026534019662,49.249708112599585
6.87289344,1.0000531587838923,49.10435512388367
6.875178496,0.9998378441023844,48.962068549890745
6.877463552,0.9996329104369501,48.822864982145234
6.879748608,0.9994515256375146,48.68645510905705
6.882033664,0.9993051846806227,48.5524414810553
6.88431872,0.9992031443814956,48.420241602742976
6.886603776,0.9991520653601123,48.28915781082197
6.888888832,0.9991551929890234,48.158424342521386
6.891173888,0.9992123166259052,48.02723945053173
6.893458944,0.9993198435854261,47.894886728244224
6.895744,0.9994709511866957,47.760631099361504
6.898029056,0.9996561407298411,47.623925826541935
6.900314112,0.9998636453965296,47.48438284095584
6.902599168,1.0000803426700735,47.34173235261858
6.904884224,1.000292370630895,47.195957712452135
6.90716928,1.000486430737789,47.047240669819885
6.909454336,1.0006500910603602,46.89590982200108
6.911739392,1.000772992766463,46.74247973476624
6.914024448,1.0008474264035085,46.58763442943637
6.916309504,1.0008684321075578,46.432077250061916
6.91859456,1.000834872646745,46.27660193800157
6.920879616,1.0007487035749836,46.12200030678891
6.923164672,1.0006153261764068,45.968970631464366
6.925449728,1.000443243144951,45.81816194313046
6.927734784,1.000243289070313,45.67004667584514
6.93001984,1.0000280457142354,45.52493944813926
6.932304896,0.9998112877343607,45.38296918893961
6.934589952,0.9996065910319228,45.244055612796835
6.936875008,0.999427084617559,45.10795439431671
