freq,mag,phase
6.0,1.0013731592078938,159.8569672371565
6.002285056,1.001578818194802,159.68145068573702
6.004570112,1.0016855370952418,159.50366623919493
6.006855168,1.001685970836239,159.32515554094036
6.009140224,1.0015800948754803,159.14741483926596
6.01142528,1.0013745768494786,158.971960375768
6.013710336,1.0010822444798873,158.8001410862018
6.015995392,1.0007216931240535,158.63308893052587
6.018280448,1.0003155235216317,158.4716180424208
6.020565504,0.9998893291183074,158.31618327209918
6.02285056,0.9994699232975702,158.16696463786772
6.025135616,0.9990840068657639,158.02360878619453
6.027420672,0.9987560987751823,157.88551675580374
6.029705728,0.9985067292178177,157.75162182872597
6.031990784,0.9983519423414328,157.6207363755057
6.03427584,0.9983016030711536,157.49134741587224
6.036560896,0.9983588179058247,157.3619763516676
6.038845952,0.9985201827512866,157.23105239753852
6.041131008,0.9987752052904023,157.0971143646838
6.043416064,0.9991080137895786,156.9589418290859
6.04570112,0.9994973094319441,156.81555315945047
6.047986176,0.9999186391722413,156.6662821959006
6.050271232,1.0003451789725828,156.51090315734504
6.052556288,1.0007500452838156,156.3494986189073
6.054841344,1.0011077147204492,156.18261802221838
6.0571264,1.0013957629041144,156.01112063040605
6.059411456,1.001595683974877,155.83607709531387
6.061696512,1.00169511132099,155.65894608106555
6.063981568,1.001687866979658,155.48116499848751
6.066266624,1.0015740918362284,155.30429557075948
6.06855168,1.0013610347727326,155.1297917669892
6.070836736,1.001062141642447,154.95903488882172
6.073121792,1.0006960260948967,154.7931245195563
6.075406848,1.0002861251414645,154.63286334098964
6.077691904,0.9998578146677255,154.4787125957312
6.07997696,0.9994385057531453,154.33075194038295
6.082262016,0.9990546621191722,154.18863503498974
6.084547072,0.9987305123359893,154.0517647215132
6.086832128,0.9984865541175373,153.91905046561828
6.089117184,0.9983387159957935,153.78920648906632
6.09140224,0.9982959483668458,153.6608000232138
6.093687296,0.9983612839821732,153.53226605401576
6.095972352,0.9985304070316783,153.4020487489729
6.098257408,0.9987927822003607,153.26872836354482
6.100542464,0.9991315522152732,153.13108074712093
6.10282752,0.9995255463387736,152.9881077018275
6.105112576,0.9999497156821779,152.83924272134504
6.107397632,1.000377112556259,152.68423625308844
6.1096832,1.0007809784479091,152.52321044568072
6.111968256,1.001135562511852,152.35672652770745
6.114253312,1.0014186526946673,152.1856495004515
6.116538368,1.0016123777247632,152.01117718402668
6.118823424,1.001704479945987,151.83464614559986
6.12110848,1.0016891803321644,151.6576199347675
6.123393536,1.001567367940281,151.48159777144258
6.125678592,1.0013466972732155,151.3080635147305
6.127963648,1.001041020065264,151.1383695985048
6.130248704,1.000669501052496,150.97363546394186
6.13253376,1.0002555978068854,150.81460526622203
6.134818816,0.9998256401210491,150.66172220074586
6.137103872,0.9994064451619616,150.5150527340136
6.139388928,0.9990248299918089,150.3742322757526
6.141673984,0.9987046788163682,150.23855265256333
6.14395904,0.9984666576604113,150.10698635802203
6.146244096,0.9983256923447467,149.97820685618822
6.148529152,0.9982908388820146,149.85075915257408
6.150814208,0.9983642639591231,149.72306397504568
6.153099264,0.9985414571945007,149.59357200668862
6.15538432,0.9988111069113509,149.46087400799325
6.157669376,0.9991561923259631,149.32369723694035
6.159954432,0.9995547796164018,149.18116416904286
6.162239488,0.9999816897948358,149.03266838800246
6.164524544,1.0004098541650484,148.8779948417653
6.1668096,1.0008124447163322,148.71733716362723
6.169094656,1.001163758860017,148.55126192749768
6.171379712,1.0014417640747868,148.3806046190353
6.173664768,1.0016288669897067,148.20665832775788
6.175949824,1.0017134465676134,148.03076672951082
6.17823488,1.0016898465640092,147.85447593116808
6.180519936,1.0015597711075528,147.67930750513312
6.182804992,1.0013313320964456,147.5067640451927
6.185090048,1.0010188804742433,147.33817554830898
6.187375104,1.0006419736065189,147.1745757481359
6.18966016,1.0002244313555069,147.01681000632973
6.191945216,0.9997925432463987,146.8652194283287
6.194230272,0.999373816423745,146.7198295637982
6.196515328,0.9989944650628013,146.58026341042094
6.198800384,0.9986787215311211,146.44583597547162
6.20108544,0.9984467260356263,146.3154232621507
6.203370496,0.9983130060750253,146.18770613277098
6.205655552,0.9982862668274921,146.06122390919208
6.207940608,0.9983680425900233,145.9343352102935
6.210225664,0.9985534717078111,145.80555404186816
6.21251072,0.9988304852010446,145.67342517620716
6.214795776,0.9991817251334241,145.53675325805193
6.217080832,0.9995849748651453,145.3946384433744
6.219365888,1.000014599822951,145.24646879244492
6.221650944,1.0004433318202994,145.09213506926667
6.223936,1.0008443927132278,144.9318206648593
6.226221056,1.0011920958777758,144.7661105709183
6.228506112,1.001464809963709,144.59593117310794
6.230791168,1.0016450509737,144.42250185172753
6.233076224,1.0017217868565842,144.247235584253
6.23536128,1.0016898940823828,144.07169618804025
6.237646336,1.0015514125670815,143.89741042571006
6.239931392,1.0013150284725247,143.72585380644026
6.242216448,1.0009956167458842,143.55833992495812
6.244501504,1.0006132918503148,143.39596656237134
6.24678656,1.0001921503990747,143.23943069258402
6.249071616,0.9997587256342251,143.0891338706251
6.251356672,0.9993404054124907,142.94505875432236
6.253641728,0.9989637514599846,142.80678850036355
6.255926784,0.9986526888289737,142.67356730793833
6.25821184,0.9984268507125122,142.54429056741725
6.260496896,0.9983006644699919,142.41763546058434
6.262781952,0.998282153795951,142.29205971511448
6.265067008,0.9983726044678956,142.1659988707577
6.267352064,0.9985663521429291,142.03790168036494
6.26963712,0.9988508986765392,141.9063408400698
6.271922176,0.9992083968216778,141.7701379406483
6.274207232,0.9996161324579068,141.62842681949923
6.276492288,1.0000483419649169,141.48060767104755
6.278777344,1.0004775970557116,141.32657920160904
6.2810624,1.000876786215799,141.16658579555298
6.283347456,1.0012209045876075,141.00124534842323
6.285632512,1.0014879665949885,140.8314776974723
6.287917568,1.001661336527036,140.65858449783445
6.290202624,1.0017298166124116,140.48397173676778
6.29248768,1.0016893851175364,140.30915576604508
6.294772736,1.0015423752994332,140.1357558460303
6.297057792,1.001298020604399,139.96520820092223
6.299342848,1.000971539756892,139.79880212308206
6.301627904,1.0005837901416994,139.63761241341552
6.30391296,1.0001591049884688,139.48235380350624
6.306198016,0.9997240651225235,139.33333464620048
6.308483072,0.999306542978436,139.19055286550446
6.310768128,0.9989326380815727,139.05358369990495
6.313053184,0.9986265164630009,138.921581955303
6.31533824,0.9984070533600015,138.79345210432152
6.317623296,0.9982886447861834,138.66781968540388
6.319908352,0.9982787530557566,138.5431807472168
6.322193408,0.9983780478686267,138.41789589245454
6.324478976,0.9985800990403443,138.29044554812825
6.326764032,0.9988723231440804,138.15946253495952
6.329049088,0.999235912505837,138.02371689882875
6.331334144,0.9996482028349589,137.88232256108475
6.3336192,1.0000828123734435,137.73486819799862
6.335904256,1.0005123134318188,137.581122388345
6.338189312,1.0009096364199745,137.42144018976055
6.340474368,1.0012496962176196,137.25645488303198
6.342759424,1.0015110329907466,137.0871322175618
6.34504448,1.0016769588500498,136.91474116509033
6.347329536,1.0017372602858163,136.74074885675853
6.349614592,1.0016879213396839,136.5667359768176
6.351899648,1.001532132599093,136.3941829283068
6.354184704,1.001279707341215,136.22464252848795
6.35646976,1.0009464036132154,136.05936908224288
6.358754816,1.0005531840064759,135.89936307504075
6.361039872,1.0001249023754761,135.7453638197637
6.363324928,0.9996886595709528,135.5976492001488
6.365609984,0.9992719579455513,135.4561783821272
6.36789504,0.9989012032692949,135.32047177866949
6.370180096,0.9986000268446925,135.18969051550147
6.372465152,0.9983875364751539,135.06269850432014
6.374750208,0.9982770964002226,134.93810734520753
6.377035264,0.9982760229044751,134.8143408992182
6.37932032,0.9983841593682974,134.6898500900074
6.381605376,0.998594805425241,134.56305704071997
6.383890432,0.9988946899047817,134.4325845257276
6.386175488,0.9992646177448057,134.29725770698053
6.388460544,0.9996812568571531,134.15626579332496
6.3907456,1.0001182387680005,134.00907438620544
6.393030656,1.000547812204296,133.85561157649403
6.395315712,1.0009430263128585,133.69623820902575
6.397600768,1.0012788353209052,133.5315765081059
6.399885824,1.001533921591303,133.3626747087012
6.40217088,1.0016924550169084,133.1908051447372
6.404455936,1.0017441642658687,133.01743812932517
6.406740992,1.0016859090513643,132.84413321235806
6.409026048,1.0015212210947144,132.67250021959373
6.411311104,1.0012605772301875,132.50394682178563
6.41359616,1.000920241860538,132.33978621541186
6.415881216,1.0005216646252446,132.18100871254362
6.418166272,1.000090102261953,132.0282832236197
6.420451328,0.999652546067844,131.88188167733566
6.422736384,0.9992369956357989,131.7417018826076
6.42502144,0.9988696117619354,131.6072824225417
6.427306496,0.9985737806921917,131.47771329570136
6.429591552,0.9983681508151628,131.35183591313978
6.431876608,0.9982661297286688,131.22826678774024
6.434161664,0.9982739755185019,131.1053921224957
6.43644672,0.9983912595032977,130.9816380647908
6.438731776,0.9986106010427954,130.85547196478504
6.441016832,0.9989181943913024,130.72548167595315
6.443301888,0.9992942443483008,130.5905753026034
6.445586944,0.9997152875150606,130.44988333347317
6.447872,1.0001545671635272,130.30297244667608
6.450157056,1.0005840766116496,130.1497736206331
6.452442112,1.0009768716840586,129.99067301033818
6.454727168,1.0013082060204481,129.82633511237754
6.457012224,1.0015568641792385,129.6578218963135
6.45929728,1.0017076207172328,129.48647345205865
6.461582336,1.0017504880316825,129.3137109784434
6.463867392,1.0016829876315188,129.14119903158118
6.466152448,1.0015093633829006,128.9704397090025
6.468437504,1.0012403815223367,128.80288771458706
6.47072256,1.0008930107054406,128.63987243490578
6.473007616,1.0004890829993192,128.48227865615848
6.475292672,1.0000541546066963,128.330815644489
6.477577728,0.9996157254768402,128.18571895088445
6.479862784,0.9992015000387012,128.04686289990133
6.48214784,0.9988376990109962,127.91371154259744
6.484432896,0.998547402048191,127.78533207005732
6.486717952,0.9983492900489862,127.6605839777814
6.489003008,0.9982555761548806,127.53801000381745
6.491288064,0.9982727452367477,127.41597470694761
6.49357312,0.9983992726220359,127.29297400499405
6.495858176,0.998627462118079,127.16738774108056
6.498143232,0.9989427591415643,127.03789392976562
6.500428288,0.9993251714410621,126.90333759750881
6.502713344,0.9997504733548059,126.76291764014326
6.5049984,1.000191665049063,126.61627083696627
6.507283456,1.0006208459356918,126.46332077863873
6.509568512,1.0010111592687132,126.30444858755672
6.511853568,1.0013376339819664,126.14042164264443
6.514138624,1.0015797766744141,125.97232758700008
6.51642368,1.001722288615073,125.80145549039239
6.518708736,1.0017561498013206,125.62934575389988
6.520993792,1.001679289656237,125.45755705058664
6.523278848,1.0014964470308845,125.28767523091516
6.525563904,1.0012190010050075,125.12116502124904
6.52784896,1.000864713216739,124.95923899636178
6.530134016,1.0004555928347667,124.80291373812979
6.532419072,1.0000173748237773,124.6526995757538
6.534704128,0.9995781811753587,124.50893702282619
6.536989184,0.9991654211932539,124.37136920354997
6.53927424,0.9988054425632699,124.2394506783425
6.541559808,0.99852113043811,124.11229552996491
6.543844864,0.998330455419278,123.98863726493224
6.54612992,0.9982456828650393,123.86701059559397
6.548414976,0.9982721107458068,123.74583515973252
6.550700032,0.9984082321485662,123.62351807313944
6.552985088,0.9986453558221136,123.49851111273613
6.555270144,0.9989683526744327,123.3694595724726
6.5575552,0.9993569839955043,123.23522960050695
6.559840256,0.9997863827765011,123.09510554158547
6.562125312,1.000229571294666,122.9486562041902
6.564410368,1.0006583135240092,122.79592513760579
6.566695424,1.0010456791356663,122.63729247594861
6.56898048,1.0013670534242778,122.4735469279683
6.571265536,1.0016022613207352,122.3058332075942
6.573550592,1.0017364059095035,122.135439951463
6.575835648,1.0017610528263272,121.96393740676245
6.578120704,1.0016746049212886,121.79293538693975
6.58040576,1.0014825305083215,121.62391828173675
6.582690816,1.001196589021665,121.45842506673652
6.584975872,1.0008350939152542,121.29762749622112
6.587260928,1.0004207902962738,121.14248036591644
6.589545984,0.999979758385726,120.99357313239986
6.59183104,0.9995397456300431,120.85108754778486
6.594116096,0.9991288922978726,120.71483117363258
6.596401152,0.9987730676812572,120.58417720184279
6.598686208,0.9984948865218151,120.45819983098342
6.600971264,0.9983121017782337,120.3356036851091
6.60325632,0.9982362122686674,120.21493131950515
6.605541376,0.998272395081606,120.09457900133464
6.607826432,0.9984181629433542,119.97294619417323
6.610111488,0.9986642247941683,119.84846344446646
6.612396544,0.9989951463257164,119.71981408112644
6.6146816,0.9993899154653652,119.58591506677895
6.616966656,0.9998233819291931,119.44600640131463
6.619251712,1.000268287826164,119.29976169186057
6.621536768,1.0006962725876367,119.14721407926265
6.623821824,1.0010804036612517,118.9888045364945
6.62610688,1.00139658604857,118.82533291611847
6.628391936,1.001624578307551,118.65797616755023
6.630676992,1.001750162564578,118.48806689952758
6.632962048,1.0017653057063454,118.3171795615066
6.635247104,1.0016689786160098,118.14688557487618
6.63753216,1.0014674484911448,117.97879275326214
6.639817216,1.001173078459461,117.8143136681419
6.642102272,1.000804621986362,117.65464552115377
6.644387328,1.0003851302405562,117.50071480697154
6.646672384,0.999941151045606,117.35305209077525
6.64895744,0.999500840304042,117.21189166258273
6.651242496,0.9990919425188733,117.07691306470961
6.653527552,0.9987404835159954,116.94749998748135
6.655812608,0.9984687119227402,116.82268730571757
6.658097664,0.9982939939505663,116.70113931882523
6.66038272,0.9982275374026446,116.58139145528966
6.662667776,0.9982735389649471,116.4618321386641
6.664952832,0.9984289450205244,116.34082400045067
6.667237888,0.998684226837325,116.2168834710843
6.669522944,0.9990230552608191,116.08858761994753
6.671808,0.9994238263450698,115.95499165012158
6.674093056,0.9998613030943302,115.8152635319532
6.676378112,1.0003076770633683,115.66920191338859
6.678663168,1.0007348284791648,115.51679721270521
6.680948224,1.0011156061149544,115.35858019625041
6.68323328,1.0014260446549033,115.19537772780231
6.685518336,1.0016465792232454,115.02835254694932
6.687803392,1.0017632406826562,114.85892324307868
6.690088448,1.0017686737174938,114.68862067868442
6.692373504,1.00166254463267,114.51908534199538
6.69465856,1.00145120923368,114.35187156017562
6.696943616,1.0011484156765211,114.18839074523407
6.699228672,1.0007728476968818,114.0298479678887
6.701513728,1.000348347547088,113.87713938351513
6.703798784,0.9999017129424449,113.73077671453507
6.70608384,0.999461110431494,113.59087924668293
6.708368896,0.9990545412944115,113.45719778268189
6.710653952,0.9987076667973773,113.32901129044616
6.712939008,0.9984427664025828,113.20531096982936
6.715224064,0.9982765055787495,113.08481373143721
6.71750912,0.9982194729623727,112.96595239622906
6.719794176,0.9982754626220228,112.84716613674298
6.722079232,0.9984410082099524,112.72675519564446
6.724364288,0.9987053670515591,112.60328132015918
6.726649344,0.9990520568569747,112.4753623094169
6.7289344,0.9994589125025636,112.3419817210566
6.731219456,0.9999001300504643,112.20246270008874
6.733504512,1.0003478398822032,112.05651235573508
6.735789568,1.0007737571523856,111.90424420203337
6.738074624,1.001150791885657,111.74619868859253
6.74035968,1.0014554468912567,111.58323182489788
6.742644736,1.001668221666958,111.41653304910321
6.744929792,1.0017757553897673,111.2475819148576
6.747214848,1.0017712541297574,111.07787043271105
6.749499904,1.0016549562969153,110.90906765035774
6.75178496,1.0014340595092004,110.74273458767826
6.754070016,1.0011225814349414,110.58026623041037
6.756355072,1.0007399777959851,110.4228431178289
6.75864064,1.0003106038312595,110.2713411341212
6.760925696,0.9998613810421854,110.12624306795752
6.763210752,0.9994207837999717,109.98763247264866
6.765495808,0.9990167253163784,109.85521419069651
6.767780864,0.9986748618625375,109.72824074192114
6.77006592,0.998416951758321,109.6056801333084
6.772350976,0.9982593481703086,109.48617683257773
6.774636032,0.9982122643838311,109.36822029369537
6.776921088,0.9982784968554007,109.25012670361546
6.779206144,0.9984541150172336,109.13031275709199
6.7814912,0.9987278124293301,109.00727144578765
6.783776256,0.9990822160922597,108.8796513812737
6.786061312,0.9994949798113248,108.74649334278453
6.788346368,0.9999399984988451,108.6071219801365
6.790631424,1.0003888614473095,108.46125853914731
6.79291648,1.000813322871417,108.30911026448806
6.795201536,1.0011865710275647,108.15118198131762
6.797486592,1.0014849617548185,107.98845119095456
6.799771648,1.001689564661115,107.82206607300807
6.802056704,1.0017876965878068,107.65354565431623
6.80434176,1.001773020306437,107.48442644530287
6.806626816,1.0016463537808333,107.31637442475261
6.808911872,1.0014157250689515,107.15089704185141
6.811196928,1.0010956516126528,106.9894284105608
6.813481984,1.0007060244517951,106.83314157211015
6.81576704,1.0002718712481942,106.68284396261454
6.818052096,0.9998203372719342,106.53901340528526
6.820337152,0.9993798886469034,106.40168597139467
6.822622208,0.9989786810162992,106.27050449791129
6.824907264,0.9986421144233042,106.14470789687218
6.82719232,0.9983915709886519,106.02327040510937
6.829477376,0.9982429138812513,105.90476336100932
6.831762432,0.9982057223121581,105.7876498591225
6.834047488,0.9982824930542742,105.67025619637275
6.836332544,0.9984682431740746,105.55098916005103
6.8386176,0.9987512300602734,105.42833052022155
6.840902656,0.9991135404340424,105.30099667293871
6.843187712,0.9995322076119122,105.16800730482665
6.845472768,0.9999806238559054,105.02871521272364
6.847757824,1.0004304015391616,104.88294925130435
6.85004288,1.0008532150947151,104.73085577754334
6.852327936,1.0012221554901575,104.57306171256617
6.854612992,1.0015140920052574,104.41051437590075
6.856898048,1.0017103820333597,104.24445669008468
6.859183104,1.0017988824873367,104.07636368853831
6.86146816,1.0017737407100173,103.90781823612046
6.863753216,1.001636688746357,103.74048449846802
6.866038272,1.0013961637577904,103.57588344915145
6.868323328,1.0010673795263285,103.41543554266245
6.870608384,1.0006710762946123,103.26025748149043
6.87289344,1.0002321140019426,103.11117387446633
6.875178496,0.9997782954274439,102.96858754645332
6.877463552,0.9993384424214091,102.83252241428065
6.879748608,0.998940389728061,102.70257146660643
6.882033664,0.9986092657218478,102.57797967851431
6.88431872,0.9983662989839964,102.45761695997241
6.886603776,0.9982268971780692,102.34006453858301
6.888888832,0.9982001339361027,102.22374034719364
6.891173888,0.9982874778055042,102.10700784033793
6.893458944,0.998483625681032,101.98826462162005
6.895744,0.9987759040363614,101.86595951862053
6.898029056,0.9991460934526278,101.73885645487273
6.900314112,0.9995705004963041,101.60601202852061
6.902599168,1.0000222460082255,101.46679337158982
6.904884224,1.0004728007076646,101.32106724699076
6.90716928,1.0008935796399498,101.16903676550672
6.909454336,1.0012579985520016,101.0113314096425
6.911739392,1.0015430614252017,100.84895214221527
6.914024448,1.0017308236296716,100.68316073268612
6.916309504,1.0018093124152352,100.515494071498
6.91859456,1.0017735595915824,100.34753153841055
6.920879616,1.001625916675019,100.18091220082728
6.923164672,1.0013754370072685,100.01718621708952
