freq,mag,phase
6.0,0.9999038917474455,-80.75419160903837
6.002568192,0.9998833185218868,-80.89126306978176
6.005136384,0.9998717636011412,-81.0281945792244
6.007704576,0.9998681722919606,-81.16503187579994
6.010272768,0.9998725345680364,-81.30190724466155
6.01284096,0.9998847264510352,-81.43886717189717
6.015409152,0.9999039289859712,-81.57616026472796
6.017977344,0.9999289650140213,-81.71371900004009
6.020545536,0.9999584068926775,-81.85171691320033
6.023113728,0.9999901529711501,-81.99022261715686
6.025682432,1.0000223158261508,-82.12917217441199
6.028250624,1.0000526849087983,-82.26858386028292
6.030818816,1.0000796555890008,-82.40845079512631
6.033387008,1.0001011849611186,-82.54872155922088
6.0359552,1.0001161409454424,-82.68923045562974
6.038523392,1.0001237875079132,-82.82992005865442
6.041091584,1.0001231554855483,-82.97075330400337
6.043659776,1.000114398973658,-83.11147105885374
6.046227968,1.0000983182518508,-83.25206077548839
6.04879616,1.0000755899212936,-83.39239133089411
6.051364352,1.0000480221916026,-83.53235416126586
6.053932544,1.0000172691784857,-83.6719405903035
6.056500736,0.9999848650917634,-83.81110848508163
6.059068928,0.999953212348769,-83.94979525183184
6.06163712,0.9999244941315567,-84.08805244626632
6.064205312,0.9999000813989569,-84.22598830278555
6.066773504,0.9998817463163504,-84.36359234337743
6.069341696,0.9998707501401327,-84.50101372038819
6.071909888,0.9998674360806301,-84.63839196332268
6.07447808,0.9998725894896221,-84.77575413509442
6.077046784,0.9998852816260613,-84.91330883588984
6.079614976,0.9999049502576671,-85.05108553533827
6.082183168,0.9999306602054193,-85.18920857987536
6.08475136,0.999960262733033,-85.32778803752038
6.087319552,0.9999922595108995,-85.46678129021734
6.089887744,1.0000244895482786,-85.60632349717879
6.092455936,1.0000548752519869,-85.74632055812869
6.095024128,1.0000817603328933,-85.88671218514813
6.09759232,1.0001030932176391,-86.02751025725664
6.100160512,1.0001175604904524,-86.16860916469204
6.102728704,1.0001246228802967,-86.30983685553116
6.105296896,1.0001233757583277,-86.45116603259738
6.107865088,1.0001140932637471,-86.59240762408258
6.11043328,1.0000974450298108,-86.73348175576986
6.113001472,1.0000742771726292,-86.87435877430664
6.115569664,1.00004631369371,-87.0148250190903
6.118137856,1.0000150885403625,-87.15491135822188
6.120706048,0.9999825431597317,-87.29452172645198
6.12327424,0.999950984949005,-87.43368043488786
6.125842944,0.9999221520036932,-87.57245995234747
6.128411136,0.9998979860884654,-87.71082860398144
6.130979328,0.9998800792949276,-87.84891524295156
6.13354752,0.9998695735134389,-87.98683963365127
6.136115712,0.999866910613748,-88.1247291723097
6.138683904,0.9998723789773764,-88.26259121293441
6.141252096,0.9998858044404276,-88.40065099089762
6.143820288,0.9999061188766394,-88.53895073759044
6.14638848,0.9999321859141912,-88.67757309568894
6.148956672,0.9999622631357218,-88.81666827042974
6.151524864,0.9999943249576179,-88.95623424251583
6.154093056,1.0000266418722725,-89.0962773381525
6.156661248,1.0000571288711457,-89.23680139181855
6.15922944,1.0000836550233652,-89.37774384755954
6.161797632,1.0001047279581057,-89.51908760905881
6.164365824,1.000118750533685,-89.66064821509161
6.166934016,1.0001252748596579,-89.80242305175167
6.169502208,1.0001236169427323,-89.94423215392119
6.1720704,1.000113778689198,-90.0859735607674
6.174638592,1.0000965798165247,-90.22756385847195
6.177207296,1.0000728173339206,-90.368848112947
6.179775488,1.000044476617115,-90.5098200014889
6.18234368,1.0000129826897957,-90.6503580991439
6.184911872,0.9999802944788796,-90.79041604926303
6.187480064,0.9999486915040671,-90.93005371445383
6.190048256,0.9999200277576263,-91.06927292295043
6.192616448,0.9998961655046965,-91.20809569647592
6.19518464,0.9998786076604996,-91.34667482873495
6.197752832,0.9998684061897442,-91.48503059685747
6.200321024,0.9998663445881549,-91.62335590730123
6.202889216,0.999872522704998,-91.76173065774049
6.205457408,0.9998863283774273,-91.90021726963987
6.2080256,0.9999071935233296,-92.03902805472026
6.210593792,0.9999337021680667,-92.17821188389149
6.213161984,0.9999641884140209,-92.31779016925009
6.215730176,0.9999965075832098,-92.45785758246883
6.218298368,1.0000289019409752,-92.59837506464878
6.22086656,1.0000592806550828,-92.73941358102824
6.223434752,1.0000857399485656,-92.88090438604688
6.226003456,1.0001064548806426,-93.02268382822957
6.228571648,1.000120178412002,-93.16478448493213
6.23113984,1.0001260652692254,-93.30704061166867
6.233708032,1.0001236937720024,-93.44931983194179
6.236276224,1.0001133470799846,-93.59155497370269
6.238844416,1.0000956394965768,-93.73356042824457
6.241412608,1.0000716015042355,-93.87532752579638
6.2439808,1.0000426408932996,-94.01671752052746
6.246548992,1.00001068771398,-94.15764463049221
6.249117184,0.9999779385891996,-94.2981453182707
6.251685376,0.9999463096837824,-94.43821967385205
6.254253568,0.9999178176570171,-94.57785296173002
6.25682176,0.9998942711301219,-94.71713566425335
6.259389952,0.9998769592290455,-94.85611915680398
6.261958144,0.9998673356877386,-94.99495617666376
6.264526336,0.9998658577986048,-95.13371904397299
6.267094528,0.9998724839554478,-95.27253397881425
6.26966272,0.9998869399347411,-95.41151830405423
6.272230912,0.9999083932732854,-95.55073093636992
6.274799104,0.9999352543363809,-95.69037549222351
6.277367808,0.9999660939457311,-95.83045788837256
6.279936,0.9999986996808591,-95.97098182142115
6.282504192,1.0000311925602454,-96.11203391655523
6.285072384,1.000061370346941,-96.25352491977893
6.287640576,1.0000875726860683,-96.39546765546308
6.290208768,1.0001080451762345,-96.5377377751239
6.29277696,1.0001213411049754,-96.68028496547623
6.295345152,1.000126736060094,-96.8230074667608
6.297913344,1.00012382773893,-96.96576631522822
6.300481536,1.0001128198142022,-97.108381290828
6.303049728,1.0000945701873583,-97.25084561885154
6.30561792,1.000070066826924,-97.39299781028404
6.308186112,1.000040812100819,-97.53478061146296
6.310754304,1.0000086201837926,-97.67617044654048
6.313322496,0.9999757641946986,-97.81705976042619
6.315890688,0.9999440932191561,-97.95751880763181
6.31845888,0.9999157049990227,-98.09756656971858
6.321027072,0.9998923509934505,-98.2372254718656
6.323595264,0.9998756843272875,-98.37664124337162
6.326163968,0.9998662952349759,-98.51586528471151
6.32873216,0.9998652995328094,-98.65502967145143
6.331300352,0.9998725784966068,-98.79429168836165
6.333868544,0.9998877048232434,-98.93368636644729
6.336436736,0.9999095551603593,-99.0733868262807
6.339004928,0.999937001679969,-99.21346936830811
6.34157312,0.9999680103551846,-99.35396421338417
6.344141312,1.0000009254822624,-99.49494762780051
6.346709504,1.000033536283791,-99.63644778344585
6.349277696,1.0000637502124912,-99.77837085059882
6.351845888,1.0000896830219428,-99.9207571735899
6.35441408,1.0001097908613965,-100.06350174374113
6.356982272,1.0001227388839264,-100.20647644379778
6.359550464,1.000127567857435,-100.34962181328923
6.362118656,1.0001240301714407,-100.49278361016454
6.364686848,1.0001126557032374,-100.63583122426904
6.36725504,1.0000936639569573,-100.77867510545717
6.369823232,1.0000686618463375,-100.9212456951393
6.372391424,1.0000390123008236,-101.06340462723388
6.374959616,1.000006667330994,-101.2051197820045
6.37752832,0.999973556721912,-101.34643995333
6.380096512,0.999941867576095,-101.48726007209181
6.382664704,0.9999136481455417,-101.62764348392739
6.385232896,0.9998906136579846,-101.76774196227599
6.387801088,0.9998741786588197,-101.907468546483
6.39036928,0.9998653767541464,-102.04709532216702
6.392937472,0.9998648859715938,-102.18665766800694
6.395505664,0.9998727537664601,-102.32629557518308
6.398073856,0.9998882769851859,-102.46609060238569
6.400642048,0.9999107204680703,-102.6062224024727
6.40321024,0.9999385679592734,-102.74666531858172
6.405778432,0.9999700111636933,-102.88762867664488
6.408346624,1.000003071756206,-103.02902932966325
6.410914816,1.0000357650672849,-103.17090704759629
6.413483008,1.0000659526109594,-103.31327859947126
6.4160512,1.0000916075653241,-103.4560999370976
6.418619392,1.0001113615764343,-103.59923904804492
6.421187584,1.0001238796034557,-103.74262107731842
6.423755776,1.0001282382049341,-103.88612813328515
6.42632448,1.0001242663607621,-104.02969339873869
6.428892672,1.0001122228787336,-104.17309937184707
6.431460864,1.0000927197474139,-104.31635438583055
6.434029056,1.0000672848380672,-104.4592730416406
6.436597248,1.0000372485688003,-104.60178177525202
6.43916544,1.0000045617583557,-104.74387702144332
6.441733632,0.9999713209239257,-104.88551916529273
6.444301824,0.9999396354695168,-105.02668475871964
6.446870016,0.9999114966985962,-105.16741638455258
6.449438208,0.9998886849742838,-105.30782620596042
6.4520064,0.9998727100951418,-105.44793962008168
6.454574592,0.9998645241368594,-105.58790718507858
6.457142784,0.999864487829892,-105.72780372610855
6.459710976,0.9998728910692113,-105.86778689954158
6.462279168,0.999889125034735,-106.00797788658397
6.46484736,0.9999119998979427,-106.14842818096471
6.467415552,0.9999401886094357,-106.28935606128476
6.469983744,0.9999720628251897,-106.43062485289181
6.472551936,1.0000052815441773,-106.57243304212598
6.47512064,1.0000380509969764,-106.71472200887807
6.477688832,1.0000681180849191,-106.85746696132456
6.480257024,1.000093570128822,-107.00069730379074
6.482825216,1.000113114178334,-107.14417540972629
6.485393408,1.0001250671013058,-107.28793351212916
6.4879616,1.0001289526350288,-107.43183647964848
6.490529792,1.000124353838666,-107.57571931185969
6.493097984,1.0001117228355,-107.71953344779885
6.495666176,1.0000918384089248,-107.86308932592297
6.498234368,1.000065776862561,-108.00633258387991
6.50080256,1.000035464578715,-108.14918308395042
6.503370752,1.0000024649121213,-108.2915643663987
6.505938944,0.999969128927898,-108.43353674767084
6.508507136,0.9999374048461254,-108.57497079046156
6.511075328,0.9999095173205109,-108.71603124048842
6.51364352,0.9998869778114525,-108.856757153682
6.516211712,0.9998713688852132,-108.9971764370039
6.518779904,0.9998636691977624,-109.13746560174552
6.521348096,0.9998641751012108,-109.27770453240457
6.523916288,0.9998731468948265,-109.41802646622376
6.526484992,0.9998898658038223,-109.55855588787912
6.529053184,0.9999131649465265,-109.69937289271553
6.531621376,0.9999418952622295,-109.84058900593188
6.534189568,0.9999738985785839,-109.98225423591738
6.53675776,1.0000074883969248,-110.12440282333974
6.539325952,1.0000402352022604,-110.26706216256378
6.541894144,1.0000702627579479,-110.41016920201159
6.544462336,1.0000956560609227,-110.55370636035583
6.547030528,1.0001146891044843,-110.69758002300293
6.54959872,1.0001263356529673,-110.84167102353352
6.552166912,1.0001296611842982,-110.98589673901104
6.554735104,1.000124548987581,-111.1301090787759
6.557303296,1.000111398115616,-111.27423038178804
6.559871488,1.0000909253304198,-111.41809092946154
6.56243968,1.000064372544376,-111.56164752604694
6.565007872,1.000033629277997,-111.70477513006138
6.567576064,1.0000004541237075,-111.8474696642223
6.570144256,0.9999670008523484,-111.98968187215192
6.572712448,0.9999353304755555,-112.13140376784766
6.575281152,0.999907490012182,-112.27276857574512
6.577849344,0.9998852755763513,-112.41374488957909
6.580417536,0.9998699448569677,-112.5544849530025
6.582985728,0.9998626853573231,-112.69502970115329
6.58555392,0.9998639199503311,-112.83556959243862
6.588122112,0.9998733183679754,-112.97617110834223
6.590690304,0.9998906105538233,-113.11699442131815
6.593258496,0.9999145476577059,-113.25815213587013
6.595826688,0.9999436871978987,-113.39966049825448
6.59839488,0.9999759806859216,-113.54166166981791
6.600963072,1.0000097688789853,-113.68414250160309
6.603531264,1.0000425840534921,-113.82712987650102
6.606099456,1.0000725563169133,-113.97056038964979
6.608667648,1.0000976862037314,-114.11442342131721
6.61123584,1.0001163927133279,-114.25860504556385
6.613804032,1.0001275034457555,-114.40302989024873
6.616372224,1.0001303101995707,-114.54751881867284
6.618940416,1.0001247309043286,-114.69204867383107
6.621508608,1.000110925758418,-114.83643177473708
6.6240768,1.0000899388250775,-114.98056887129556
6.626645504,1.0000630688398129,-115.12437728621666
6.629213696,1.0000318093797813,-115.26778300432788
6.631781888,0.9999983408401156,-115.41069207134423
6.63435008,0.9999647801520212,-115.55316196122756
6.636918272,0.9999331154012849,-115.69516937382035
6.639486464,0.9999054228174564,-115.83675561539575
6.642054656,0.9998834356083185,-115.97798199136642
6.644622848,0.9998685604139153,-116.11893922852802
6.64719104,0.9998618170201946,-116.25974769051857
6.649759232,0.9998635259388544,-116.40053621355416
6.652327424,0.9998735234454936,-116.54145176618587
6.654895616,0.999891320645763,-116.68252535229175
6.657463808,0.9999157951679506,-116.8239655928163
6.660032,0.9999452910119526,-116.96578949064633
6.662600192,0.9999780174668202,-117.10806699257479
6.665168384,1.0000119579292392,-117.2508127097929
6.667736576,1.0000449043217448,-117.39411741652411
6.670304768,1.0000746727113936,-117.53783029648437
6.67287296,1.0000996041458556,-117.68197229082507
6.675441664,1.0001179019901862,-117.82644024727048
6.678009856,1.0001286807851617,-117.9711231451191
6.680578048,1.0001309510121728,-118.11590147049213
6.68314624,1.0001247833207483,-118.26068502083292
6.685714432,1.000110441525311,-118.40530524891372
6.688282624,1.000088880772661,-118.54968369377546
6.690850816,1.00006147962526,-118.69373733301295
6.693419008,1.0000298939653216,-118.8373419181218
6.6959872,0.9999962206988292,-118.98051172785496
6.698555392,0.9999625220204141,-119.12314371939016
6.701123584,0.9999308809673746,-119.26537513260304
6.703691776,0.9999033709700037,-119.40716471692251
6.706259968,0.9998817175365929,-119.54860871174219
6.70882816,0.9998672714719816,-119.6897837206086
6.711396352,0.9998609479042884,-119.83083743392066
6.713964544,0.9998631506507089,-119.97184999867639
6.716532736,0.9998737149111118,-120.11297992146133
6.719100928,0.9998921023051234,-120.25432604602419
6.72166912,0.9999170425699483,-120.39597507403448
6.724237312,0.9999469970980431,-120.53803391500955
6.726806016,0.9999799995080503,-120.6805738975583
6.729374208,1.0000141903516733,-120.82361652559224
6.7319424,1.0000470906846568,-120.9671580239269
6.734510592,1.0000768308739971,-121.11111515311323
6.737078784,1.0001015029627889,-121.25548251135334
6.739646976,1.0001195489045684,-121.40020355166568
6.742215168,1.000129784824246,-121.54514103591006
6.74478336,1.000131619823403,-121.69017673716769
6.747351552,1.0001248783424725,-121.83518128048071
6.749919744,1.0001099493155412,-121.9800083981286
6.752487936,1.000087855239578,-122.12458462175456
6.755056128,1.0000600960917843,-122.26881003933728
6.75762432,1.0000279887235866,-122.4126262636952
6.760192512,0.9999941149087525,-122.55596798640994
6.762760704,0.9999603390335424,-122.69880652992576
6.765328896,0.9999286954364562,-122.8412032223653
6.767897088,0.999901357391085,-122.98316052771986
6.77046528,0.9998800042391446,-123.12476749162813
6.773033472,0.9998659119024884,-123.26615655758974
6.775602176,0.9998601072941742,-123.40735516862749
6.778170368,0.9998628373233548,-123.54857575087404
6.78073856,0.9998740385662764,-123.68989606537828
6.783306752,0.9998929528289882,-123.83144989132138
6.785874944,0.9999183285101952,-123.97332136151466
6.788443136,0.9999486996701786,-124.11561245431513
6.791011328,0.9999820951413139,-124.25836374758762
6.79357952,1.0000162999399018,-124.40160196765795
6.796147712,1.0000493132791761,-124.54539661818414
6.798715904,1.0000789964182726,-124.68959591126314
6.801284096,1.000103454739103,-124.83420911892574
6.803852288,1.0001210594568233,-124.97911935581116
6.80642048,1.0001309444130804,-125.12426264672634
6.808988672,1.0001321584226546,-125.26945723506562
6.811556864,1.00012488353149,-125.41466299435616
6.814125056,1.0001094317757173,-125.55967455948331
6.816693248,1.0000868679841477,-125.70441366249614
6.81926144,1.000058500627641,-125.84881600260445
6.821829632,1.0000261748676402,-125.9927725752428
6.824397824,0.9999919993541647,-126.13624179227318
6.826966528,0.9999580023428748,-126.27925592217548
6.82953472,0.9999264897322194,-126.42177513764267
6.832102912,0.9998993326109925,-126.56387427562586
6.834671104,0.9998781293822384,-126.70562227922333
6.837239296,0.9998645856324373,-126.84713432339312
6.839807488,0.9998592584454747,-126.98851519576894
6.84237568,0.9998626050928301,-127.12988306215216
6.844943872,0.9998743517085731,-127.27134997819655
6.847512064,0.9998937345619935,-127.41311927627407
6.850080256,0.9999197356458662,-127.55514897080445
6.852648448,0.9999503933708905,-127.69760747020382
6.85521664,0.9999841220212874,-127.8405450757128
6.857784832,1.0000186081283515,-127.98401996313825
6.860353024,1.0000516204377947,-128.1279364756995
6.862921216,1.0000811296377343,-128.2723208912837
6.865489408,1.0001053495240337,-128.41712447731967
6.8680576,1.0001226088416268,-128.56221532441288
6.870625792,1.000131958687615,-128.70753768907872
6.873193984,1.0001326837587992,-128.8529067704319
6.875762688,1.0001248389602757,-128.99825471967335
6.87833088,1.0001088237382638,-129.14340895558414
6.880899072,1.000085727959902,-129.28826872899955
6.883467264,1.000056885388934,-129.43277776596128
6.886035456,1.0000242389358684,-129.5768629555876
6.888603648,0.9999897630057922,-129.72050119822524
6.89117184,0.9999557618689021,-129.86356326818924
6.893740032,0.9999242597582737,-130.0061985072935
6.896308224,0.9998972831891276,-130.14839986528838
6.898876416,0.9998764849889873,-130.29027126892296
6.901444608,0.9998633042488266,-130.43190011107737
6.9040128,0.9998584517467699,-130.5733914748164
6.906580992,0.9998623088989229,-130.71488972077825
6.909149184,0.9998745499779194,-130.8565165749642
6.911717376,0.9998945909527077,-130.99838071046648
6.914285568,0.9999210599097488,-131.14055895125682
6.91685376,0.9999521506860419,-131.2831514226466
6.919421952,0.9999861826805696,-131.42627658919002
6.921990144,1.0000208070067018,-131.5698652259345
6.924558336,1.0000538043276643,-131.7139612075903
6.92712704,1.000083272987909,-131.85850669025197
6.929695232,1.000107186026362,-132.0034325292932
6.932263424,1.000124190373502,-132.14865824389312
6.934831616,1.0001330349356972,-132.29411657397907
6.937399808,1.0001332205174598,-132.4396269586696
6.939968,1.0001247802436344,-132.58504434262156
6.942536192,1.0001082206211822,-132.73035527155528
6.945104384,1.0000845791494042,-132.87530790880578
6.947672576,1.000055315815659,-133.01992372973487
6.950240768,1.0000223256897816,-133.16405501182675
6.95280896,0.9999876210373204,-133.307765741897
6.955377152,0.9999534576572927,-133.45089442071662
6.957945344,0.9999220027497628,-133.59361634140575
6.960513536,0.9998951858695146,-133.73592646342166
6.963081728,0.9998747128203181,-133.8778546254424
6.96564992,0.9998619331756922,-134.01951147093408
6.968218112,0.9998576036671966,-134.16109332394322
6.970786304,0.9998620756774433,-134.30268224971377
6.973354496,0.9998749490505068,-134.44440315905015
6.9759232,0.999895512592212,-134.5863472274638
6.978491392,0.9999223924589714,-134.72865896831811
6.981059584,0.999953949077642,-134.87138460471476
6.983627776,0.9999882564356753,-135.0146123476597
6.986195968,1.0000230192598072,-135.15831324072178
6.98876416,1.000056111448548,-135.30251756745608
6.991332352,1.0000854463802693,-135.4471964714441
6.993900544,1.0001090845165606,-135.592230486821
6.996468736,1.0001257185083159,-135.737595008377
6.999036928,1.0001340766228044,-135.88310197822832
7.00160512,1.0001337432469164,-136.02871291840162
7.004173312,1.0001247064252499,-136.17424180493367
7.006741504,1.0001075829641055,-136.3195766175586
7.009309696,1.0000834361648174,-136.46461152306344
7.011877888,1.000053704883658,-136.60927081200026
7.01444608,1.000020353043384,-136.7534600539973
7.017014272,0.9999854567756516,-136.89716072278466
7.019582464,0.9999512348523012,-137.04038418851158
7.022150656,0.9999198451349185,-137.18310925214985
