freq,mag,phase
6.0,0.9998600395643343,-156.49671473585772
6.002565632,0.9998244052664902,-156.65644184079247
6.005131264,0.9997996742803991,-156.815733893966
6.007697408,0.9997874315404988,-156.9747662452263
6.01026304,0.9997887005993463,-157.13374147486812
6.012828672,0.9998032391767508,-157.29281908842927
6.015394304,0.9998301997277687,-157.4521842592977
6.017960448,0.9998679413148847,-157.6120215448079
6.02052608,0.9999139993903118,-157.77249267316515
6.023091712,0.9999655618401764,-157.93366917114088
6.025657344,1.0000193679218163,-158.0955805619773
6.028222976,1.000072053914722,-158.25832032648339
6.03078912,1.000120304175344,-158.42175713681442
6.033354752,1.0001610221449526,-158.5858664428474
6.035920384,1.0001916697584405,-158.75048630164707
6.038486016,1.0002103310217185,-158.91546366763535
6.04105216,1.0002158758860122,-159.08063913056048
6.043617792,1.0002077119142752,-159.24576786359532
6.046183424,1.0001866012282548,-159.4107213800869
6.048749056,1.000153739675771,-159.57528028883448
6.0513152,1.0001111577574915,-159.73930482784678
6.053880832,1.000061575022085,-159.90267068969428
6.056446464,1.0000081395400602,-160.06527021739026
6.059012096,0.9999540922784899,-160.2271066750502
6.061577728,0.9999029719698409,-160.38819449701862
6.064143872,0.9998578410698293,-160.5485723301503
6.066709504,0.9998217053629745,-160.708380497909
6.069275136,0.9997966630129729,-160.86772435554153
6.071840768,0.9997845433513894,-161.02680877886883
6.074406912,0.9997859830776474,-161.18582243772923
6.076972544,0.9998009761421712,-161.34497288465911
6.079538176,0.99982853099255,-161.50441736306925
6.082103808,0.999866868018246,-161.66433594007188
6.08466944,0.9999137041368582,-161.82488345549524
6.087235584,0.9999660435497136,-161.9861484469697
6.089801216,1.0000206120483925,-162.14819616131953
6.092366848,1.000073996104716,-162.31104278773972
6.09493248,1.0001228369527846,-162.47458415237006
6.097498624,1.0001640308172097,-162.63883955373686
6.100064256,1.0001949543802706,-162.80356898060185
6.102629888,1.0002137066508323,-162.9687048945179
6.10519552,1.000219092159619,-163.13400982471057
6.107761152,1.0002107176504458,-163.29928671210368
6.110327296,1.0001890552051242,-163.46435595118783
6.112892928,1.0001555626340024,-163.62904413179425
6.11545856,1.0001123031769958,-163.7931483847191
6.118024192,1.0000619003957374,-163.95661644197307
6.120590336,1.000007653209031,-164.1193060175026
6.123155968,0.9999528167275543,-164.28120184496876
6.1257216,0.9999010482202517,-164.44231777752466
6.128287232,0.9998554067367215,-164.60279041783232
6.130852864,0.9998187765044773,-164.76261496079306
6.133419008,0.9997936544086677,-164.9220246448526
6.13598464,0.9997815729731984,-165.08113673138845
6.138550272,0.999783154444817,-165.24020354691567
6.141115904,0.99979849322829,-165.39938721004856
6.143682048,0.9998266009447622,-165.55889238712743
6.14624768,0.9998656416775199,-165.71886115875975
6.148813312,0.9999132655249127,-165.87944829367495
6.151378944,0.9999663690059412,-166.04079269448965
6.153945088,1.0000217350774208,-166.2029251108648
6.15651072,1.0000758394509117,-166.36585118656075
6.159076352,1.0001252985078373,-166.52954569179167
6.161641984,1.0001669447881902,-166.69387287458093
6.164207616,1.000198165193018,-166.85873673214158
6.16677376,1.0002169969471353,-167.02396780996364
6.169339392,1.0002223212031949,-167.18940771363327
6.171905024,1.0002135498001652,-167.35478622332394
6.174470656,1.0001915382663136,-167.51998278609818
6.1770368,1.0001573831472457,-167.68474241031848
6.179602432,1.0001134049528764,-167.84894032105993
6.182168064,1.0000621831112657,-168.0124885141304
6.184733696,1.0000071011801597,-168.1752556182299
6.187299328,0.9999515205353602,-168.33720828272672
6.189865472,0.9998990417149342,-168.4983617130726
6.192431104,0.9998527826089916,-168.6588329132121
6.194996736,0.9998159329573459,-168.81870523086047
6.197562368,0.9997905554474736,-168.97814639527527
6.200128512,0.9997784096186672,-169.1372782701787
6.202694144,0.9997802890061932,-169.2963195182098
6.205259776,0.9997960528855631,-169.45554648732883
6.207825408,0.9998246544908796,-169.61504318649844
6.21039104,0.9998643832995614,-169.77507204840398
6.212957184,0.9999127895610165,-169.93572199007704
6.215522816,0.9999666957107182,-170.0971297493258
6.218088448,1.0000229214304968,-170.25930298292474
6.22065408,1.0000777434238408,-170.42229290988644
6.223220224,1.0001278279911263,-170.5860849779938
6.225785856,1.0001699124244385,-170.7505136161684
6.228351488,1.000201485139219,-170.91548059673906
6.23091712,1.0002203854155303,-171.08082018153243
6.233482752,1.0002255903239121,-171.24631369419313
6.236048896,1.0002165436225325,-171.41182357239353
6.238614528,1.0001940165290188,-171.57708434168717
6.24118016,1.0001592876503933,-171.74196490578225
6.243745792,1.0001145933949007,-171.90620333231467
6.246311936,1.0000625570241193,-172.06980080755326
6.248877568,1.0000066656382514,-172.23262131264224
6.2514432,0.9999503909595321,-172.3945989220302
6.254008832,0.999897113750102,-172.55580517798035
6.256574976,0.9998503048598187,-172.71627554402693
6.259140608,0.9998130129476832,-172.87615763948003
6.26170624,0.9997875279156829,-173.03554431660666
6.264271872,0.9997754014935123,-173.19471746194247
6.266837504,0.9997774368380916,-173.35376304265247
6.269403648,0.9997935585241715,-173.5129458902512
6.27196928,0.9998227975737801,-173.6724926262104
6.274534912,0.9998632590796906,-173.83250934576694
6.277100544,0.9999123489598397,-173.99320200706794
6.279666688,0.9999671147535241,-174.15463293541669
6.28223232,1.0000241264198686,-174.31687299121404
6.284797952,1.0000796374954417,-174.47990766052598
6.287363584,1.0001303302917788,-174.64375423907669
6.289929216,1.0001729449213417,-174.808247387054
6.29249536,1.000204823373431,-174.97331718134586
6.295060992,1.0002237918167438,-175.1387210576239
6.297626624,1.0002288967047497,-175.30433357019962
6.300192256,1.0002196768913356,-175.46987132221787
6.3027584,1.0001965938464432,-175.63521260828392
6.305324032,1.0001611625404452,-175.80013978576935
6.307889664,1.000115670721028,-175.96444986178548
6.310455296,1.000062841615918,-176.12809112490498
6.313020928,1.0000061463206609,-176.2909204247329
6.315587072,0.9999490426641214,-176.452943947585
6.318152704,0.9998950712916045,-176.6141446981717
6.320718336,0.99984781440719,-176.77457962653972
6.323283968,0.9998101219468175,-176.93446079720007
6.325850112,0.9997843075826803,-177.0938426694454
6.328415744,0.9997722517208415,-177.2529527103072
6.330981376,0.9997744653638674,-177.41199451754943
6.333547008,0.9997910209365735,-177.5711731855219
6.33611264,0.9998207222998227,-177.73068884114957
6.338678784,0.9998619034264201,-177.89069981530247
6.341244416,0.9999118939224763,-178.0514027407927
6.343810048,0.9999674393729231,-178.21282662368196
6.34637568,1.000025235549092,-178.37511649909865
6.348941824,1.0000816174491276,-178.53822499859857
6.351507456,1.000132989456882,-178.70206065686693
6.354073088,1.0001760605853158,-178.86663662177526
6.35663872,1.0002082599265447,-179.03176001937314
6.359204864,1.0002272726874404,-179.1972522827212
6.361770496,1.0002321865990487,-179.36289356709693
6.364336128,1.0002226928970204,-179.52851433218729
6.36690176,1.0001991695055845,-179.69387654066622
6.369467392,1.0001630149052858,-179.85882558494325
6.372033536,1.000116907271888,179.97677456023305
6.374599168,1.0000632540290337,179.81314226167297
6.3771648,1.0000056891279443,179.6503240152106
6.379730432,0.999947786770614,179.4883111946398
6.382296576,0.999893116087865,179.32713209967898
6.384862208,0.9998452187827565,179.16667067342664
6.38742784,0.9998071073589723,179.00686585080916
6.389993472,0.9997810879141956,178.84749873216055
6.392559104,0.9997689940471528,178.6884486207272
6.395125248,0.9997714443353826,178.52943360660933
6.39769088,0.9997883273611841,178.37031250441208
6.400256512,0.9998186728981444,178.21082053132918
6.402822144,0.9998605943766923,178.05081679357417
6.405388288,0.9999112752575695,177.89016532635847
6.40795392,0.9999677565266994,177.72871540544324
6.410519552,1.000026423213447,177.56643570388295
6.413085184,1.0000834110555923,177.4033149419555
6.415650816,1.0001354575411119,177.23940780972794
6.41821696,1.000179002608565,177.07482107657185
6.420782592,1.0002115206864235,176.90967901251534
6.423348224,1.0002308353380114,176.74414809873093
6.425913856,1.0002355875017324,176.5784357631869
6.42848,1.000225710710166,176.41278364139842
6.431045632,1.0002016834649012,176.2473835853355
6.433611264,1.0001649670253598,176.08237234133458
6.436176896,1.0001179418461492,175.91799061470374
6.438742528,1.0000635647261522,175.75436743329527
6.441308672,1.0000050731683134,175.59153930084094
6.443874304,0.9999463766776897,175.4295724215332
6.446439936,0.99989106583303,175.26841633280347
6.449005568,0.9998424983755191,175.1080255710837
6.451571712,0.999804025482941,174.9482508775783
6.454137344,0.9997777819789436,174.78897590512042
6.456702976,0.9997656708160171,174.62994918068188
6.459268608,0.9997683504962456,174.47101277730977
6.461834752,0.9997856941447563,174.3119620493058
6.464400384,0.9998166435148724,174.1525325144298
6.466966016,0.9998592191127085,173.99256482056566
6.469531648,0.9999107045784918,173.83192455325764
6.47209728,0.9999680117831564,173.67049582234432
6.474663424,1.0000275034167383,173.50823780575848
6.477229056,1.000085520442199,173.34509292303875
6.479794688,1.0001380560514854,173.18117366884857
6.48236032,1.000182141646025,173.0165714613841
6.484926464,1.0002149104355942,172.85140320740285
6.487492096,1.000234273753853,172.68585513003003
6.490057728,1.0002390805219017,172.52013224083112
6.49262336,1.000228838567114,172.3544475764734
6.495188992,1.000204307003207,172.18902574101227
6.497755136,1.0001669410207024,172.02400991294041
6.500320768,1.0001191354149241,171.859638469048
6.5028864,1.0000638953981655,171.69601115982033
6.505452032,1.0000046056631196,171.53323837715067
6.508018176,0.9999450033100445,171.3713142890022
6.510583808,0.9998889613028765,171.2101857458422
6.51314944,0.9998398971134778,171.04990595875694
6.515715072,0.9998009099216801,170.89016600473633
6.518280704,0.9997745993286185,170.73096169787075
6.520846848,0.9997624321527969,170.57205635907283
6.52341248,0.9997652072751507,170.4131899920131
6.525978112,0.999783032124309,170.25418938897863
6.528543744,0.9998145729628024,170.09484933377288
6.531109888,0.9998578492102496,169.93493166374273
6.53367552,0.9999102410139233,169.77435737136994
6.536241152,0.9999683787859045,169.6129821949032
6.538806784,1.000028747670225,169.45071344912236
6.541372928,1.0000873907543404,169.28765100336392
6.54393856,1.0001408330382124,169.12372460669238
6.546504192,1.0001853501660485,168.95909964656488
6.549069824,1.000218572002269,168.7939068316577
6.551635456,1.000237945945078,168.6283369728688
6.5542016,1.0002425955360303,168.46262704212828
6.556767232,1.0002321173104387,168.29695332384588
6.559332864,1.000206992341084,168.13148983348216
6.561898496,1.0001688863348202,167.9665087560602
6.56446464,1.0001203668270142,167.80215905996678
6.567030272,1.0000642677757,167.6385777363469
6.569595904,1.0000040453557109,167.47584640175148
6.572161536,0.9999436930035582,167.31397037254519
6.574727168,0.9998868231903479,167.15294562522706
6.577293312,0.9998372008415,166.99268748165025
6.579858944,0.9997977273146965,166.83310449795857
6.582424576,0.999771192387029,166.67399033643505
6.584990208,0.9997590053928742,166.51515776456634
6.587556352,0.9997621667245276,166.35640983747265
6.590121984,0.9997803420425769,166.19749837859658
6.592687616,0.9998124192108961,166.0382239713589
6.595253248,0.9998564428372284,165.87841959757688
6.59781888,0.9999095850621192,165.71789942129928
6.600385024,0.9999686967739055,165.55656930235162
6.602950656,1.000029888775916,165.39437821460288
6.605516288,1.000089346327743,165.2313124040437
6.60808192,1.0001434041293666,165.06740375823978
6.610648064,1.0001885945420008,164.90283513599732
6.613213696,1.0002220410989981,164.73765524695023
6.615779328,1.000241566433079,164.57209735173439
6.61834496,1.0002461059492638,164.40637096483837
6.620910592,1.00023527209427,164.2406769756958
6.623476736,1.000209733458103,164.0752818825403
6.626042368,1.0001710099213958,163.91033437154607
6.628608,1.000121579092276,163.7460095985038
6.631173632,1.0000645944079953,163.58249110863116
6.633739776,1.0000034432755989,163.41979285406302
6.636305408,0.9999422404275691,163.25799357247354
6.63887104,0.9998847376331026,163.09707586081493
6.641436672,0.9998343081960315,162.9369215610438
6.644002816,0.9997946025051087,162.7774370498468
6.646568448,0.9997677297282512,162.6184278634288
6.64913408,0.999755609908876,162.45973076761712
6.651699712,0.9997589357389611,162.3010728502502
6.654265344,0.9997774621303652,162.14227998382268
6.656831488,0.9998102083247773,161.98312584290406
6.65939712,0.9998549492376059,161.82341140526518
6.661962752,0.9999090858726802,161.66297520840908
6.664528384,0.9999690135266085,161.50173510660383
6.667094528,1.0000310881794645,161.33960555572165
6.66966016,1.0000913997221954,161.17658870891464
6.672225792,1.0001460936341753,161.01274840498326
6.674791424,1.0001917732495447,160.84815161304476
6.677357056,1.000225560492881,160.6830237998418
6.6799232,1.000245280337002,160.51748769741553
6.682488832,1.0002497431549087,160.3517867009983
6.685054464,1.0002385374315368,160.18612238827637
6.687620096,1.0002124221979851,160.02076489748777
6.69018624,1.0001730808986975,159.8558418358553
6.692751872,1.0001227652823206,159.69159654198648
6.695317504,1.0000649399387922,159.5281095663088
6.697883136,1.0000029402981325,159.3655197633618
6.700448768,0.9999408645708395,159.20380095407143
6.703014912,0.9998825381897892,159.0430094970086
6.705580544,0.9998315867739331,158.88298585872158
6.708146176,0.9997913433226819,158.72362055629222
6.710711808,0.9997642808399051,158.56473866254385
6.713277952,0.9997521442673413,158.40618439974278
6.715843584,0.9997556448907573,158.24767944171245
6.718409216,0.9997747158319613,158.08901877841524
6.720974848,0.9998081264936051,157.92996756853046
6.72354048,0.9998536108990265,157.7703516216495
6.726106624,0.9999086410337065,157.61004560417285
6.728672256,0.9999694867121279,157.44886935937296
6.731237888,1.0000323442970966,157.28679692713257
6.73380352,1.000093508079156,157.12385767703339
6.736369664,1.0001488833991201,156.96006915591337
6.738935296,1.0001951590942229,156.7955490572078
6.741500928,1.000229265476875,156.63043794499274
6.74406656,1.000249061200059,156.4649707428377
6.746632704,1.000253347403081,156.29927713118374
6.749198336,1.0002418000044446,156.133689876321
6.751763968,1.0002152045598092,155.96837347122968
6.7543296,1.0001750316557865,155.80350960398013
6.756895232,1.0001240475407487,155.6393193274294
6.759461376,1.0000652698146535,155.47592262624755
6.762027008,1.0000024035402786,155.31342646645334
6.76459264,0.9999394469774244,155.15185267489377
6.767158272,0.9998802701688909,154.99116020801486
6.769724416,0.9998287576900291,154.83126162838371
6.772290048,0.9997880135985091,154.67204087870658
6.77485568,0.9997607094053103,154.5133354565188
6.777421312,0.9997485149822399,154.35491061624683
6.779986944,0.9997523371342749,154.19655007812906
6.782553088,0.9997717359151314,154.0380221772339
6.78511872,0.9998056980659434,153.87915179941896
6.787684352,0.9998521028347049,153.71965662944865
6.790249984,0.9999079197201571,153.55944871099783
6.792816128,0.9999696705182144,153.3983847065933
6.79538176,1.0000336054280676,153.23644424930768
6.797947392,1.0000955030687295,153.07357533772225
6.800513024,1.0001517223463223,152.9098319119808
6.803078656,1.000198482029066,152.74537683333216
6.8056448,1.0002328956201907,152.58034214040026
6.808210432,1.0002528881059447,152.4149060647501
6.810776064,1.000257053319012,152.249285924835
6.813341696,1.0002451829607513,152.0837241728627
6.81590784,1.0002180217414034,151.91845700236075
6.818473472,1.000177171853486,151.75369669634944
6.821039104,1.000125263855713,151.58960059482814
6.823604736,1.000065624089258,151.42631557196904
6.826170368,1.0000017281844709,151.26392239103893
6.828736512,0.9999379089011926,151.10247715304928
6.831302144,0.9998779415027614,150.9418983260262
6.833867776,0.9998257474880181,150.782177503593
6.836433408,0.9997846008673201,150.62311731092674
6.838999552,0.9997570264743607,150.46456750198706
6.841565184,0.9997448903611292,150.30631758196475
6.844130816,0.999748822268145,150.14811423251996
6.846696448,0.9997687928422031,149.98978167930764
6.849262592,0.9998033997402699,149.83105183044887
6.851828224,0.9998505632096829,149.6716866923607
6.854393856,0.9999073187061498,149.51161176758268
6.856959488,0.9999700866814832,149.35067767664643
6.85952512,1.0000348214537012,149.18882714450606
6.862091264,1.0000976735007576,149.02606234788033
6.864656896,1.0001545355163328,148.8624338115262
6.867222528,1.0002018269283195,148.6980439312502
6.86978816,1.0002365395408084,148.53306145537383
6.872354304,1.0002566420818637,148.3677087585756
6.874919936,1.000260775313116,148.202159949493
6.877485568,1.0002485559289338,148.03665654738018
6.8800512,1.0002208951487492,147.87148413199128
6.882616832,1.0001793069348208,147.7068114958951
6.885182976,1.000126381602555,147.542816611686
6.887748608,1.0000657920183798,147.3796108017968
6.89031424,1.0000009977077882,147.21739426176325
6.892879872,0.9999363733928812,147.05605906279655
6.895446016,0.9998755018275417,146.89566544343202
6.898011648,0.9998226579456899,146.73608999815826
6.90057728,0.9997811176525596,146.57722652244593
6.903142912,0.9997532644232926,146.41883359590102
6.905708544,0.9997410648319066,146.26076031154125
6.908274688,0.999745330911768,146.1027620023083
6.91084032,0.99976579993865,145.94457990077825
6.913405952,0.9998009763278162,145.78602075715122
6.915971584,0.999849078922653,145.62685704323053
6.918537728,0.9999065047277758,145.46691922646744
6.92110336,0.9999702842969482,145.30612991678862
6.923668992,1.0000360625732374,145.14439967495613
6.926234624,1.0000997320225014,144.98172465373355
6.928800768,1.0001572538747838,144.81820543553678
6.9313664,1.0002052392577516,144.6538917108336
6.933932032,1.000240429587943,144.48899595781722
6.936497664,1.0002605353387803,144.3237237654272
6.939063296,1.0002645861699042,144.15824699070131
6.94162944,1.00025190574856,143.99285602694772
6.944195072,1.0002236337634285,143.827745950805
6.946760704,1.0001812395863925,143.6631875594376
6.949326336,1.0001276832538841,143.4993100888502
6.95189248,1.0000661153283095,143.3362796013568
6.954458112,1.0000002719541643,143.1741714100602
6.957023744,0.9999346159630476,143.01300126805933
6.959589376,0.9998730345757543,142.8527972662332
6.962155008,0.9998196271770949,142.69339336619757
6.964721152,0.9997774636791938,142.53469995948467
6.967286784,0.9997495720343974,142.37652751612612
6.969852416,0.9997373168024374,142.21863012825386
6.972418048,0.9997417951327895,142.06085259384923
6.974984192,0.9997626516881483,141.90286091649588
6.977549824,0.999798637482317,141.74447334993724
6.980115456,0.9998473928273973,141.58548581726538
6.982681088,0.9999059572699637,141.42573340139433
6.98524672,0.9999706397061381,141.26507116272376
6.987812864,1.0000372677909168,141.10346424314986
6.990378496,1.000101909331431,140.940956228211
6.992944128,1.000160228553818,140.77750787098907
6.99550976,1.000208616465275,140.6133228599257
6.998075904,1.0002441726583025,140.44851825941902
7.000641536,1.0002645339607403,140.28334677090422
7.003207168,1.0002682419737623,140.11796727701858
7.0057728,1.000255298100462,139.95268532786363
7.008338432,1.00022641382948,139.78766951678202
7.010904576,1.0001834847316597,139.62323348319288
7.013470208,1.0001288108184672,139.45947700173375
7.01603584,1.0000662280363328,139.2965601320685
7.018601472,0.9999995672855638,139.13463333021326
7.021167616,0.9999329109157485,138.97362822956694
7.023733248,0.9998705626623134,138.8135848416286
7.02629888,0.9998164163791705,138.65441191339093
7.028864512,0.9997738609849969,138.49592569910982
7.031430656,0.9997455643281504,138.33794709953912
