freq,mag,phase
6.0,1.0000965392713232,-112.15083255330086
6.006728192,1.0000963865723769,-112.48816021816195
6.013456896,1.0000918786028952,-112.82548168949111
6.020185088,1.0000827308792444,-113.16271418727014
6.02691328,1.0000694189831638,-113.49979458159125
6.033641472,1.0000526680401767,-113.83667818666444
6.040370176,1.000033390215179,-114.17334578676068
6.047098368,1.0000127183038625,-114.50970706846756
6.05382656,0.9999915752582019,-114.84584404079197
6.060555264,0.9999714468283264,-115.1816853661017
6.067283456,0.9999531704014196,-115.51729755645324
6.074011648,0.9999379886385336,-115.85265761672606
6.080740352,0.9999265035262218,-116.18789181833218
6.087468544,0.9999195300202381,-116.52296825846392
6.094196736,0.9999174840735287,-116.85801441326984
6.100924928,0.9999204282184642,-117.19305965848552
6.107653632,0.9999281078105282,-117.52819317131258
6.114381824,0.9999400707284755,-117.86348643045642
6.121110016,0.9999559263163583,-118.19894271642009
6.12783872,0.9999746541816221,-118.53469242010851
6.134566912,0.9999951007905657,-118.87067820701144
6.141295104,1.000016265854976,-119.2069814905678
6.148023296,1.0000369836471963,-119.54354037425213
6.154752,1.0000559930649728,-119.88041109801772
6.161480192,1.0000724276876483,-120.21751868324222
6.168208384,1.000085203037843,-120.55484525316186
6.174937088,1.000093763836536,-120.89230626438709
6.18166528,1.000097454960411,-121.22985811567509
6.188393472,1.0000962223702763,-121.56744428142557
6.195122176,1.0000900696525405,-121.9049772138361
6.201850368,1.0000793142742845,-122.24243335785025
6.20857856,1.0000645476829084,-122.57972556741137
6.215306752,1.000046682517101,-122.91678510309856
6.222035456,1.0000265929374774,-123.25360352028252
6.228763648,1.0000055131475787,-123.5901162454113
6.23549184,0.9999844107804081,-123.9263896547252
6.242220544,0.9999646269170199,-124.26239667693586
6.248948736,0.99994718753988,-124.59814940054353
6.255676928,0.9999330730479636,-124.93370212893579
6.262405632,0.9999231274819516,-125.26908909714457
6.269133824,0.9999177446676791,-125.60437079546311
6.275862016,0.9999174163731334,-125.93964206209314
6.282590208,0.9999219900016957,-126.27494950808163
6.289318912,0.999931344174517,-126.61033516423473
6.296047104,0.9999449229796454,-126.94590341825744
6.302775296,0.999961972257334,-127.28164543186904
6.309504,0.9999815398948795,-127.61769564317576
6.316232192,1.0000025677764361,-127.95402805320748
6.322960384,1.0000239029205396,-128.29061758800538
6.329688576,1.0000443339127651,-128.62753038553018
6.33641728,1.0000626831152764,-128.9647153290274
6.343145472,1.0000780190525775,-129.30211479652965
6.349873664,1.000089504312633,-129.63972891403242
6.356602368,1.0000964681535602,-129.97742167404695
6.36333056,1.0000984519257186,-130.3152240485584
6.370058752,1.0000954647238807,-130.65304613817887
6.376787456,1.0000876076311092,-130.99075986043067
6.383515648,1.0000752625842275,-131.32835196142395
6.39024384,1.0000592045697503,-131.66578821548777
6.396972032,1.0000402540249058,-132.00296580293028
6.403700736,1.000019573983118,-132.33987606891702
6.410428928,0.9999980995830037,-132.67652513479882
6.41715712,0.99997723463663,-133.0129114863407
6.423885824,0.9999579815067406,-133.3489875197355
6.430614016,0.99994143250879,-133.68484931320793
6.437342208,0.9999286528521986,-134.02052855253675
6.4440704,0.9999200892983665,-134.35604780026623
6.450799104,0.9999164015710235,-134.6914990849086
6.457527296,0.9999178226274658,-135.02692281117837
6.464255488,0.9999242296322818,-135.36242439720112
6.470984192,0.9999351536787592,-135.69806379269997
6.477712384,0.9999502239082962,-136.0338676924392
6.484440576,0.9999683318408304,-136.3698884924648
6.49116928,0.9999887373094641,-136.70619883736717
6.497897472,1.000010114320569,-137.0427649201128
6.504625664,1.0000314889999222,-137.37965300096457
6.511353856,1.0000514610364566,-137.7168424825533
6.51808256,1.0000690807949535,-138.0542649606899
6.524810752,1.0000832361060505,-138.39192882679964
6.531538944,1.0000933296743453,-138.72973806359826
6.538267648,1.0000986112911305,-139.06767786498452
6.54499584,1.000098826804624,-139.40566928512686
6.551724032,1.0000940795044484,-139.7436125109796
6.558452736,1.0000845114306847,-140.08146051983232
6.565180928,1.0000707244585767,-140.41917559818748
6.57190912,1.000053452843847,-140.75666008404366
6.578637312,1.0000335675464964,-141.0939113372968
6.585366016,1.0000122709470116,-141.43090146051972
6.592094208,0.9999907763056904,-141.76757153853364
6.5988224,0.999970124027724,-142.10398856378788
6.605551104,0.9999514641750196,-142.44016142393107
6.612279296,0.9999360575798255,-142.77608925125264
6.619007488,0.9999245080121067,-143.1118138247242
6.62573568,0.9999176075279881,-143.44742587618526
6.632464384,0.9999156877127482,-143.7829730031227
6.639192576,0.999918843532516,-144.11856338973516
6.645920768,0.9999269786455456,-144.45422407534758
6.652649472,0.9999395551826332,-144.79003081890295
6.659377664,0.9999558453719246,-145.1260304731033
6.666105856,0.9999750728591562,-145.46227651583894
6.67283456,0.9999961239397525,-145.79879300351578
6.679562752,1.0000178448554269,-146.13560363381413
6.686290944,1.0000389909463867,-146.4727176256301
6.693019136,1.0000584146050473,-146.8101127401199
6.69974784,1.0000751456570507,-147.1477265231441
6.706476032,1.0000880574847122,-147.48559846794188
6.713204224,1.0000965079041078,-147.8236050237353
6.719932928,1.0001001894633803,-148.1616655039577
6.72666112,1.0000987299228188,-148.49975471209746
6.733389312,1.0000921051226563,-148.83780060575674
6.740117504,1.0000810043846236,-149.1757129263079
6.746846208,1.0000656993260968,-149.51347093530447
6.7535744,1.0000472391149273,-149.85101654004976
6.760302592,1.000026536198627,-150.18828065756242
6.767031296,1.0000048551951084,-150.52525826703848
6.773759488,0.9999832802984912,-150.86194671379232
6.78048768,0.9999630603091364,-151.19833149735828
6.787216384,0.9999452560237142,-151.53450148022742
6.793944576,0.9999309761369349,-151.8704340453082
6.800672768,0.9999209519481234,-152.20619625890333
6.80740096,0.9999157122609271,-152.54186464666108
6.814129664,0.9999154959526044,-152.87752091951268
6.820857856,0.9999204578379618,-153.21320670526774
6.827586048,0.9999302364841911,-153.5489634781662
6.834314752,0.9999443099660635,-153.8849004840362
6.841042944,0.999961955008829,-154.22104690492415
6.847771136,0.9999820707704449,-154.55746391391395
6.854499328,1.000003738778067,-154.89417882791537
6.861228032,1.0000255141151184,-155.23116468036324
6.867956224,1.0000463744064239,-155.56844908113973
6.874684416,1.000065134907458,-155.9059911856788
6.88141312,1.0000807575705324,-156.24377276431932
6.888141312,1.0000923475856014,-156.58178269014323
6.894869504,1.0000992454091417,-156.91987409540633
6.901598208,1.0001010476288248,-157.25802535494415
6.9083264,1.000097774313822,-157.59619981979932
6.915054592,1.0000895445541604,-157.9342898406754
6.921782784,1.0000767411724403,-158.2722075677628
6.928511488,1.0000601400311595,-158.6099513152893
6.93523968,1.0000405764586144,-158.94745198980223
6.941967872,1.000019257780106,-159.28468455982568
6.948696576,0.9999972219450027,-159.6216171429127
6.955424768,0.9999757824404844,-159.95822064740517
6.96215296,0.999956134903012,-160.294612553503
6.968881664,0.9999394086520587,-160.63071089252907
6.975609856,0.9999262881853034,-160.9666155066524
6.982338048,0.9999177762034829,-161.3023675506641
6.98906624,0.9999141955830119,-161.63806192811964
6.995794944,0.9999158826014817,-161.97374232199084
7.002523136,0.9999226348602189,-162.30945074346334
7.009251328,0.9999340252613511,-162.64529670278569
7.015980032,0.9999495864776172,-162.98132449499445
7.022708224,0.9999684324743274,-163.31759117297594
7.029436416,0.9999893854085317,-163.65411946268057
7.036164608,1.000011390507072,-163.99096046458348
7.042893312,1.0000332087823607,-164.3280694654682
7.049621504,1.0000536376810674,-164.6654822707819
7.056349696,1.000071678043855,-165.00315619610075
7.0630784,1.000086053659339,-165.34103905283698
7.069806592,1.0000961890358857,-165.6791112942506
7.076534784,1.0001014068904532,-166.017262279053
7.083263488,1.0001014715220318,-166.35548401564884
7.08999168,1.0000963252811694,-166.69363536678804
7.096719872,1.0000862853875523,-167.03168003176512
7.103448064,1.00007203008785,-167.3695782483921
7.110176768,1.0000540875592565,-167.7072597123025
7.11690496,1.0000335380748326,-168.04466044532055
7.123633152,1.0000117277228695,-168.38181953400712
7.130361856,0.9999896006514652,-168.71863187677718
7.137090048,0.9999684325819336,-169.0551673989934
7.14381824,0.9999494284834418,-169.39143150992638
7.150546432,0.9999337654893664,-169.72745627712072
7.157275136,0.9999220305625034,-170.0632712862019
7.164003328,0.9999152276686807,-170.39899321786325
7.17073152,0.9999134054279301,-170.734644069194
7.177460224,0.9999168566230644,-171.07029195287416
7.184188416,0.9999252733243696,-171.4060371228916
7.190916608,0.9999383806696114,-171.74191200984637
7.197645312,0.9999553666192422,-172.0779777964847
7.204373504,0.9999751861628522,-172.41433011894833
7.211101696,0.9999968984128206,-172.75095549134832
7.217829888,1.0000192050513368,-173.08786597287187
7.224558592,1.000040835978141,-173.42506355307088
7.231286784,1.000060856944028,-173.7625330582856
7.238014976,1.0000777589763359,-174.1002761648816
7.24474368,1.000090894528547,-174.43821225520662
7.251471872,1.0000994498436195,-174.7763064069957
7.258200064,1.0001029295089605,-175.1144609420641
7.264928256,1.0001011325081077,-175.45263781002086
7.27165696,1.000094212027667,-175.79074218296742
7.278385152,1.0000825642371811,-176.12874174429516
7.285113344,1.0000667111476615,-176.46652778686703
7.291842048,1.0000475139860623,-176.80408466925496
7.29857024,1.0000263241672764,-177.1413711069241
7.305298432,1.0000039258232372,-177.47835879399685
7.312027136,0.9999817389350019,-177.8150289121489
7.318755328,0.9999611457036769,-178.15141144286196
7.32548352,0.9999430069348632,-178.48752552426973
7.332211712,0.9999284123037934,-178.82343535209546
7.338940416,0.999918258829791,-179.1591246465671
7.345668608,0.9999131702447844,-179.49475602783235
7.3523968,0.9999131883835949,-179.8303450030483
7.359125504,0.9999183629376454,179.83406027561557
7.365853696,0.999928713322277,179.49834777690367
7.372581888,0.9999433949293143,179.16246654873686
7.379310592,0.9999616466574741,178.82635591693483
7.386038784,0.9999823976049945,178.4900331397727
7.392766976,1.000004651048649,178.15336902860045
7.399495168,1.0000270548709842,177.81639778084664
7.406223872,1.0000484061352413,177.47917133593907
7.412952064,1.0000676708919352,177.14165735617533
7.419680256,1.0000835631223264,176.8039092783093
7.42640896,1.0000953716990741,176.46597763822587
7.433137152,1.000102167361376,176.12792573717806
7.439865344,1.0001038427927684,175.7898052445815
7.446593536,1.0001001912273746,175.45172232805166
7.45332224,1.0000915390793157,175.11371543231306
7.460050432,1.000078205773867,174.77585394215927
7.466778624,1.0000609595525243,174.43820736506726
7.473507328,1.0000407547722403,174.10082567823417
7.48023552,1.000018676516033,173.76374269124
7.486963712,0.9999961154453172,173.42695331560478
7.493692416,0.9999741166510221,173.09047607833023
7.500420608,0.9999539230076318,172.75426491572108
7.5071488,0.9999367393422878,172.41835130208457
7.513876992,0.9999235569347455,172.08262756695862
7.520605696,0.999914974412512,171.74704074870945
7.527333888,0.999911584910098,171.41159462442948
7.53406208,0.9999134260794144,171.0760995255813
7.540790784,0.9999205382260681,170.74058318737488
7.547518976,0.9999325198622264,170.4049323991196
7.554247168,0.9999487206068037,170.0691102074457
7.56097536,0.9999681899390674,169.73302516881026
7.567704064,0.9999898640683523,169.39668629423758
7.574432256,1.000012564397942,169.06002597092603
7.581160448,1.00003498286149,168.72308982239224
7.587889152,1.0000559180936754,168.38585252316474
7.594617344,1.000074363433473,168.0483853071035
7.601345536,1.0000889157272361,167.7106616652182
7.60807424,1.0000991308089233,167.37278518409133
7.614802432,1.0001043260419442,167.0347852639614
7.621530624,1.0001041815333955,166.69679194228274
7.628258816,1.0000986309857332,166.35883279325574
7.63498752,1.0000881733093985,166.02097170902775
7.641715712,1.0000731768465014,165.6833237559508
7.648443904,1.0000546438070899,165.34586827631196
7.655172608,1.000033457668061,165.00870517924142
7.6619008,1.000010785127295,164.67184158540735
7.668628992,0.9999880338638453,164.3352866518286
7.675357696,0.9999663686775659,163.9990618013489
7.682085888,0.9999470050723172,163.66309323392005
7.68881408,0.9999309801126639,163.32739619694567
7.695542272,0.9999191059817271,162.9918764117971
7.702270976,0.999912289970965,162.65649901400758
7.708999168,0.9999105421284601,162.32120299561586
7.71572736,0.999914385765846,161.9858413210591
7.722456064,0.9999233911082954,161.65045353818854
7.729184256,0.9999369846458838,161.3148976653179
7.735912448,0.9999545752348901,160.9791378467651
7.74264064,0.9999751264904827,160.64312996257132
7.749369344,0.9999975353865751,160.3068521262498
7.756097536,1.0000205703556482,159.9702526143985
7.762825728,1.0000428370993324,159.63336516574927
7.769554432,1.0000632743026356,159.2961688593092
7.776282624,1.0000805882940618,158.95875307801396
7.783010816,1.0000939566594913,158.62112145678717
7.78973952,1.0001025002739432,158.28334875935758
7.796467712,1.000105849969656,157.94550451839478
7.803195904,1.0001038068256116,157.60764770056187
7.809924096,1.0000964611056424,157.26985566731028
7.8166528,1.0000841197317525,156.93221572791904
7.823380992,1.000067694729197,156.5947906432553
7.830109184,1.0000479095405979,156.2575974933239
7.836837888,1.0000258883592585,155.92070228138778
7.84356608,1.0000028122558466,155.58412043057007
7.850294272,0.9999800457066309,155.24785339109707
7.857022464,0.9999587605261613,154.91189562848828
7.863751168,0.9999402112747311,154.57620954440014
7.87047936,0.9999254152914291,154.24076559824437
7.877207552,0.9999151402542132,153.90548080047046
7.883936256,0.9999099501201273,153.570338949973
7.890664448,0.9999102347359677,153.23522378510728
7.89739264,0.999915984493143,152.90006213246602
7.904121344,0.9999268076798806,152.5648262869173
7.910849536,0.9999420244062944,152.22939598989657
7.917577728,0.9999609677290806,151.89375544301984
7.92430592,0.9999825031029734,151.55783048822596
7.931034624,1.0000054356155623,151.22163997548807
7.937762816,1.000028650447859,150.8851218182042
7.944491008,1.0000506148940846,150.5483059117495
7.951219712,1.0000701968905614,150.21123358315552
7.957947904,1.0000865019930543,149.87390568998148
7.964676096,1.0000984223556115,149.53640977614134
7.971404288,1.0001052800368349,149.19878020917525
7.978132992,1.0001068071155252,148.86110903385133
7.984861184,1.0001028148660434,148.52344403196602
7.991589376,1.0000935329736729,148.1859086463612
7.99831808,1.0000795849221513,147.84852172227266
8.005046272,1.0000616203981847,147.51135693020868
8.011774464,1.0000407623159682,147.17446283933683
8.018503168,1.000017912010592,146.83788211111045
8.02523136,0.9999945268735384,146.50160268712665
8.031959552,0.9999719827533168,146.16566472558955
8.038687744,0.9999512364036,145.83002863949213
8.045416448,0.9999337386715442,145.49465847900356
8.05214464,0.9999201969530084,145.15951090026473
8.058872832,0.9999116991622027,144.82450809009674
8.065601536,0.9999083186068299,144.48961068982587
8.072329728,0.9999105795404171,144.15472163366977
8.07905792,0.9999181329872493,143.81976980795937
8.085786624,0.9999306626968504,143.48471779381512
8.092514816,0.9999475332685188,143.1494280226958
8.099243008,0.9999677314336908,142.8139361171775
8.1059712,0.9999902310002431,142.47814719055853
8.112699904,1.0000135898814422,142.14204852772718
8.119428096,1.0000367316738776,141.8056764498753
8.126156288,1.0000583095459814,141.4689799272676
8.132884992,1.0000771378599354,141.13202662139508
8.139613184,1.0000920516737817,140.79486280727147
8.146341376,1.000102352844997,140.45752075268004
8.153069568,1.0001073876235775,140.1200968782008
8.159798272,1.0001070063525155,139.78265497872871
8.166526464,1.0001010243261126,139.445253808253
8.173254656,1.0000900051757133,139.1079632013531
8.17998336,1.0000744305807079,138.77088299194997
8.186711552,1.0000550889831687,138.434044753046
8.193439744,1.0000330903955492,138.0974801249731
8.200168448,1.0000096343624674,137.76124618501305
8.20689664,0.9999861858081733,137.42533813722815
8.213624832,0.9999639229806812,137.0897659063563
8.220353024,0.9999439419401227,136.75447596514252
8.227081728,0.9999275839278862,136.41944740832855
8.23380992,0.9999155491425841,136.0846111605733
8.240538112,0.999908738513909,135.74991832696796
8.247266816,0.9999073109092599,135.41529742099766
8.253995008,0.9999114537653738,135.08065787933432
8.2607232,0.9999209245795482,134.74595034876387
8.267451392,0.9999352976130451,134.41108397732393
8.274180096,0.9999535418542977,134.07600297886654
8.280908288,0.9999749337875877,133.74067709364772
8.28763648,0.9999981405978616,133.40505232233332
8.294365184,1.0000218284844387,133.06911145164838
8.301093376,1.000044906098549,132.73286011895775
8.307821568,1.0000658674056995,132.39634244538135
8.314550272,1.0000835714588974,132.0595483884111
8.321278464,1.0000970853581135,131.72255646866813
8.328006656,1.0001057893497136,131.38543545398838
8.334734848,1.000109072580446,131.0482557975249
8.341463552,1.000106634588461,130.71105223852098
8.348191744,1.000098837542908,130.37394702974873
8.354919936,1.0000859159514592,130.03697285237178
8.36164864,1.0000686510484778,129.70023361649808
8.368376832,1.0000480203334183,129.36374347482493
8.375105024,1.0000251571940006,129.0275674903845
8.381833728,1.0000012868846146,128.69170990203807
8.38856192,0.9999777869644485,128.35620444479832
8.395290112,0.9999559122055868,128.02101789131885
8.402018304,0.9999368420089008,127.68610107679612
8.408747008,0.9999217662772769,127.35142834126513
8.4154752,0.9999114190173641,127.01695729360718
8.422203392,0.999906327267091,126.68260076177886
8.428932096,0.9999067779968116,126.34827969055723
8.435660288,0.9999129105893794,126.01391869744404
8.44238848,0.9999243414070104,125.67945697245801
8.449116672,0.9999404075042702,125.3448204299204
8.455845376,0.9999601197776384,125.00995256188689
8.462573568,0.9999825120837654,124.67479551208166
8.46930176,1.0000062576449054,124.33935475533292
8.476030464,1.0000302889735366,124.00360732494899
8.482758656,1.0000528527564645,123.66755526944317
8.489486848,1.0000731020152316,123.33120895796058
8.496215552,1.0000896965932693,122.99461604471429
8.502943744,1.0001017616261034,122.65785311900815
8.509671936,1.0001086274641617,122.32097879919395
8.516400128,1.0001098637020163,121.9840493125506
8.523128832,1.0001055421238048,121.64714978334756
8.529857024,1.000095728176202,121.31036833270912
8.536585216,1.0000811437785209,120.97375334493812
8.54331392,1.0000623328066622,120.6373793361439
8.550042112,1.0000404326430277,120.30130853787595
8.556770304,1.000016851331209,119.96553184432288
8.563498496,0.9999926712775945,119.63010582023115
8.5702272,0.9999693400441592,119.29499573832571
8.576955392,0.9999480963040049,118.96023056179791
8.583683584,0.9999300465217726,118.62573576345406
8.590411776,0.9999163772050957,118.29145814074228
8.59714048,0.999907693166305,117.95733932882251
8.603869184,0.9999044529089889,117.62333268631637
8.610596864,0.9999070656237918,117.28932505316837
8.617325568,0.9999152589007125,116.9552499537462
8.624054272,0.9999284414140622,116.62106959588928
8.630781952,0.9999461090785315,116.28668431501688
8.637510656,0.9999671234255707,115.95203917722031
8.64423936,0.9999905184975012,115.61711144281846
8.65096704,1.0000148043027488,115.2818763476148
8.657695744,1.0000386387547953,114.94632410651674
8.664423424,1.0000608894240444,114.61047709109904
8.671152128,1.0000801947014428,114.27434487852278
8.677880832,1.0000954415474446,113.93798473375523
8.684608512,1.0001059011960391,113.60147191480029
8.691337216,1.000110859171456,113.2648869107232
