freq,mag,phase
6.0,0.9998902735966079,111.99722760585335
6.002286592,0.9998310671084201,111.8417623373876
6.004572672,0.9997808867381964,111.68712044943503
6.006859264,0.9997448748758544,111.5331384122869
6.009145344,0.9997251463110367,111.37960156776617
6.011431936,0.9997230054914362,111.22622752195369
6.013718016,0.9997386193847994,111.07281405804528
6.016004608,0.9997710375844143,110.91905275309728
6.018290688,0.9998181043811638,110.76478085130415
6.02057728,0.999876989364912,110.6097364238656
6.022863872,0.9999439066716836,110.4538140712662
6.025149952,1.0000145594269192,110.29693191790066
6.027436544,1.0000845622408976,110.13903853536081
6.029722624,1.0001495406360763,109.98019960226917
6.032009216,1.0002053609334016,109.82051808519354
6.034295296,1.0002483350945408,109.66012818994335
6.036581888,1.0002758386216202,109.49926630473348
6.03886848,1.0002861426710186,109.3381661677702
6.04115456,1.0002786222528468,109.1770627221932
6.043441152,1.000253522472254,109.01620669471949
6.045727232,1.000212672853924,108.85588017263389
6.048013824,1.0001585542019338,108.69625186934859
6.050299904,1.0000945476844425,108.53751207613367
6.052586496,1.00002472478502,108.3797621499259
6.054872576,0.9999534982183859,108.22307056156822
6.057159168,0.9998853345940965,108.06742116598137
6.05944576,0.9998247095947169,107.91276823054336
6.06173184,0.9997752538428502,107.75887106528056
6.064018432,0.9997402026477221,107.60567121754852
6.066304512,0.999721764520073,107.45286591396797
6.068591104,0.9997211191917209,107.30024106227147
6.070877184,0.9997384431920603,107.14752845509668
6.073163776,0.9997724126950256,106.99444968396817
6.075450368,0.9998212376159143,106.84080418875791
6.077736448,0.9998814450835803,106.68638250773876
6.08002304,0.9999493178332567,106.53107414872728
6.08230912,1.0000208595861353,106.37478032064475
6.084595712,1.00009124907085,106.21747784686005
6.086881792,1.0001561153572935,106.0592166491095
6.089168384,1.0002113643517665,105.90011369353675
6.091454464,1.000253450373388,105.74032367610577
6.093741056,1.0002797800708567,105.58007359882492
6.096027648,1.0002885911585098,105.41959079666327
6.098313728,1.0002793596232145,105.2591114354585
6.10060032,1.000252796811076,105.0989469921238
6.1028864,1.00021028932585,104.93930277292266
6.105172992,1.000154672749482,104.78038726445328
6.107459072,1.0000893185808313,104.62236167298987
6.109745664,1.00001871036158,104.46536992188985
6.112032256,0.9999469510582094,104.30943802818291
6.114318336,0.9998785997195052,104.15453162630973
6.116604928,0.9998182590867754,104.00059932200502
6.118891008,0.9997696400447397,103.84751119004788
6.1211776,0.9997356493808912,103.69501663878216
6.12346368,0.9997185500466875,103.54292114442273
6.125750272,0.9997195987891724,103.39098694369487
6.128036352,0.9997386090567343,103.2389128748311
6.130322944,0.9997742416320672,103.08649183904753
6.132609536,0.9998245269811699,102.93348623676496
6.134895616,0.9998861169456098,102.77963732683592
6.137182208,0.9999552048677997,102.62488254475228
6.139468288,1.000027385899561,102.46917261082123
6.14175488,1.0000979924582252,102.31238377390846
6.14404096,1.0001627838037885,102.15469088572314
6.146327552,1.000217580110967,101.99612698418574
6.148614144,1.0002586592177953,101.8369156355046
6.150900224,1.0002837211321345,101.67721174565017
6.153186816,1.0002911330937008,101.51729639640781
6.155472896,1.0002802416569132,101.35746725313338
6.157759488,1.0002518201024848,101.19790639028882
6.160045568,1.000207646952099,101.03892393028524
6.16233216,1.0001505460635012,100.88070865681645
6.16461824,1.0000840696559512,100.72338909401098
6.166904832,1.0000124800084544,100.56711692954084
6.169191424,0.999940144723417,100.41189938280098
6.171477504,0.9998719161528835,100.25772753031188
6.173764096,0.9998118608238176,100.10449770052675
6.176050176,0.9997638539407843,99.95211862941191
6.178336768,0.9997310362639418,99.80033203530469
6.180622848,0.9997154744009599,99.64891062557106
6.18290944,0.9997181237955027,99.49762640584545
6.18519552,0.9997387303848665,99.34619453147096
6.187482112,0.9997761145540864,99.19434690837659
6.189768704,0.9998281454706123,99.04188878095556
6.192054784,0.9998909650901646,98.88864084531261
6.194341376,0.9999611918779026,98.73440638642256
6.196627456,1.000034095538458,98.57921537663803
6.198914048,1.0001050266671347,98.42296465205634
6.201200128,1.0001695287218575,98.26573474099914
6.20348672,1.0002237263609717,98.10769756229948
6.205773312,1.000263946970638,97.94899557943025
6.208059392,1.0002876049335676,97.78983243983357
6.210345984,1.0002933461677086,97.63051654147799
6.212632064,1.0002807877990796,97.47125463810555
6.214918656,1.0002506380544829,97.31230257393523
6.217204736,1.0002048235988945,97.15392004779609
6.219491328,1.0001461777633516,96.99636651244887
6.221777408,1.0000784263808329,96.8397227572287
6.224064,1.0000059657905862,96.68408460566371
6.226350592,0.9999332185888493,96.52957277691245
6.228636672,0.9998648481399144,96.37610721766207
6.230923264,0.9998052808625861,96.22357238556404
6.233209344,0.9997580907500871,96.07186847969773
6.235495936,0.9997265106648038,95.92073169334185
6.237782016,0.9997123506801023,95.769948564258
6.240068608,0.9997166011998188,95.61929437938635
6.2423552,0.9997390341598877,95.46843569256754
6.24464128,0.9997782911506584,95.3171894155512
6.246927872,0.9998317547603393,95.16527250683077
6.249213952,0.9998962407624153,95.01250340764938
6.251500544,0.9999673349092557,94.85877340283868
6.253786624,1.0000409438095335,94.70405449839487
6.256073216,1.0001120213633756,94.54827128674084
6.258359296,1.0001764096484707,94.39155024781238
6.260645888,1.0002298834034276,94.23398109318052
6.26293248,1.0002690236540897,94.07573596595707
6.26521856,1.0002913573496592,93.91710407542635
6.267505152,1.0002955693205102,93.75828584412955
6.269791232,1.0002812260885425,93.59955830726994
6.272077824,1.0002492622752226,93.44118819707258
6.274363904,1.0002017679944468,93.283397035715
6.276650496,1.0001416133938326,93.12645734234707
6.278937088,1.00007260809124,92.97042072512029
6.281223168,0.9999992638392476,92.81547539747315
6.28350976,0.9999260678159342,92.66160476288722
6.28579584,0.999857816675654,92.50880452876474
6.288082432,0.999798656731766,92.35691293759247
6.290368512,0.999752335049379,92.20584067798802
6.292655104,0.999722037222138,92.05533821054826
6.294941184,0.9997092708490275,91.90516627906815
6.297227776,0.9997152807101656,91.75506931726858
6.299514368,0.9997395617639203,91.6047753216289
6.301800448,0.9997804749530393,91.45402987680818
6.30408704,0.9998356627028768,91.30260021852044
6.30637312,0.9999014078525047,91.15032997457904
6.308659712,0.9999736170414877,90.99709642149581
6.310945792,1.0000478029336881,90.84277093460953
6.313232384,1.000119193179507,90.68744709780994
6.315518464,1.00018328517745,90.53114316186483
6.317805056,1.000236005441866,90.37400198331204
6.320091648,1.0002741513012496,90.21621925665944
6.322377728,1.0002951984085482,90.05802981590519
6.32466432,1.0002976479636125,89.89971985123
6.3269504,1.0002813821412966,89.7414930128987
6.329236992,1.0002476589232379,89.58366771927709
6.331523072,1.000198408467129,89.42645471662665
6.333809664,1.000136831477261,89.27006556336691
6.336096256,1.0000665825998,89.11464859672759
6.338382336,0.9999924323641426,88.96031934740726
6.340668928,0.9999188234967289,88.80705581431931
6.342955008,0.9998505508073757,88.65486453901147
6.3452416,0.9997918790931117,88.5036092055413
6.34752768,0.9997465164074797,88.35312934959666
6.349814272,0.9997174563112177,88.20321120375101
6.352100352,0.9997064436009551,88.05360328167858
6.354386944,0.9997141963408627,87.90405468119715
6.356673536,0.9997402646275668,87.75425900692684
6.358959616,0.9997829869329974,87.6040125906687
6.361246208,0.9998397613733802,87.45306474548248
6.363532288,0.9999069290711143,87.30119986175917
6.36581888,0.9999801853044149,87.14837262512123
6.36810496,1.0000549956911573,86.9944706970286
6.370391552,1.0001265819283782,86.8395313704846
6.372678144,1.000190362706013,86.68362442607189
6.374964224,1.0002423447822295,86.52686986861428
6.377250816,1.0002793915530375,86.36950800501423
6.379536896,1.000298815251655,86.21176223174056
6.381823488,1.0002995745119527,86.05388970760445
6.384109568,1.0002816073118217,85.89613593080188
6.38639616,1.0002460359205734,85.73880983562887
6.38868224,1.000195018602648,85.5821176892826
6.390968832,1.0001317971909054,85.42627622682599
6.393255424,1.0000604463189542,85.27143738708229
6.395541504,0.9999854371907964,85.11767129877472
6.397828096,0.9999114080038563,84.96501198586438
6.400114176,0.9998432050883396,84.8133993014317
6.402400768,0.999785166890312,84.66272780275065
6.404686848,0.999740755472964,84.512822348954
6.40697344,0.9997130351948476,84.36344688858662
6.409260032,0.9997034980540144,84.21436635306485
6.411546112,0.9997132483531457,84.06531993073983
6.413832704,0.9997411063884437,83.91601219424372
6.416118784,0.9997857475759638,83.76618877115304
6.418405376,0.9998440852916199,83.61566116641673
6.420691456,0.9999126414653543,83.46421266944476
6.422978048,0.9999868821614343,83.31172076731842
6.425264128,1.0000622902466243,83.15817840151551
6.42755072,1.0001339653951589,83.00358762257845
6.429837312,1.0001975247670911,82.84804057752417
6.432123392,1.0002486830598323,82.69168292202235
6.434409984,1.0002843996965214,82.53467953213264
6.436696064,1.0003024727055734,82.37733555063572
6.438982656,1.0003013934765468,82.21986619451515
6.441268736,1.000281578073444,82.06256775637598
6.443555328,1.0002440544212345,81.90568536420513
6.44584192,1.000191291548229,81.74949534725184
6.448128,1.000126560592275,81.59415436964264
6.450414592,1.0000539926743561,81.43984965298459
6.452700672,0.9999782128758123,81.28664100849404
6.454987264,0.9999039269469157,81.13451334970468
6.457273344,0.9998357499171717,80.98344499352062
6.459559936,0.9997782545002301,80.83332665873753
6.461846016,0.9997349349213192,80.6839505722086
6.464132608,0.999708623577487,80.53510256724597
6.4664192,0.9997008602210458,80.38650954372787
6.46870528,0.9997123283989093,80.23789902513823
6.470991872,0.9997421376432865,80.08901564068346
6.473277952,0.9997885604829012,79.93961536924445
6.475564544,0.9998486004622228,79.78944748229556
6.477850624,0.9999184802543405,79.63834809508803
6.480137216,0.9999938153778659,79.48621726498764
6.482423296,1.00006979943668,79.33299455825565
6.484709888,1.0001415203415704,79.17872479710125
6.48699648,1.0002046058955367,79.02348533887533
6.48928256,1.000254940329694,78.86743118769624
6.491569152,1.0002894137018867,78.7107839226374
6.493855232,1.0003058431013123,78.55378125581811
6.496141824,1.000303110376889,78.39668905739069
6.498427904,1.000281341592033,78.23978442439949
6.500714496,1.0002418644117361,78.08335101300815
6.503001088,1.000187336449452,77.92761267623563
6.505287168,1.0001210150675384,77.77275411203406
6.50757376,1.0000473200307478,77.61892042098887
6.50985984,0.9999707250694228,77.46620723099832
6.512146432,0.9998960558234062,77.31463461676064
6.514432512,0.9998282014225144,77.16407060181675
6.516719104,0.9997713370189234,77.01444823129734
6.519005184,0.9997289781998588,76.8655826525577
6.521291776,0.9997041029719559,76.71719205174098
6.523578368,0.9996981169605146,76.56904786127015
6.525864448,0.9997114015190253,76.42086978904035
6.52815104,0.9997431760252218,76.27238893622837
6.53043712,0.9997914769387952,76.12333702574313
6.532723712,0.9998532882672517,75.97350021569025
6.535009792,0.9999244936505629,75.8227124902262
6.537296384,1.0000007675904483,75.67087327433934
6.539582976,1.0000772347385551,75.5179238687544
6.541869056,1.0001490540826246,75.36391936764423
6.544155648,1.0002116353848567,75.20897576603328
6.546441728,1.0002612234977226,75.053194450402
6.54872832,1.0002943611975545,74.89685605379385
6.5510144,1.0003091426426318,74.74016136541643
6.553300992,1.0003044989809662,74.58341049716499
6.555587072,1.0002807903935398,74.42687698000287
6.557873664,1.000239494844138,74.2708357577397
6.560160256,1.000183174273988,74.11550855002567
6.562446336,1.0001154455208743,73.96111022214565
6.564732928,1.0000404676115322,73.80773081084742
6.567019008,0.9999631334856736,73.65548630853804
6.5693056,0.9998882281850119,73.50438032688363
6.57159168,0.9998205865730404,73.35430261319812
6.573878272,0.9997643939996715,73.2051431203721
6.576164864,0.9997231730613012,73.05670018817884
6.578450944,0.9996998395727209,72.90876641329407
6.580737536,0.9996956122182086,72.76103009832168
6.583023616,0.9997108147851339,72.61324013443023
6.585310208,0.9997446354944722,72.46509915569045
6.587596288,0.9997947879042389,72.31638183190229
6.58988288,0.9998581429449621,72.1668183433688
6.59216896,0.999930807453028,72.0163140671636
6.594455552,1.0000079688806944,71.86471675165215
6.596742144,1.0000849450150109,71.7120170406003
6.599028224,1.000156811626238,71.55824479385743
6.601314816,1.0002189367118959,71.40352614622473
6.603600896,1.0002675309969244,71.24799746943941
6.605887488,1.0002993762462506,71.09190359355142
6.608173568,1.0003124315128684,70.93549337785069
6.61046016,1.0003059095196594,70.77904935429353
6.612746752,1.000280207800154,70.62283688762788
6.615032832,1.0002369608594726,70.46715867979792
6.617319424,1.0001788726042775,70.31222924636606
6.619605504,1.0001095556899389,70.15820467924408
6.621892096,1.0000335404819523,70.00527407886221
6.624178176,0.9999554480168132,69.85346112131245
6.626464768,0.9998803406467687,69.70277266384369
6.628750848,0.9998129434169224,69.5531531287644
6.63103744,0.999757432362224,69.40444099130558
6.633324032,0.9997175155439307,69.25640789962723
6.635610112,0.9996956751073145,69.10884560517201
6.637896704,0.9996932995903364,68.9614875587069
6.640182784,0.9997104582675297,68.81403396759578
6.642469376,0.9997462279788932,68.66621668529267
6.644755456,0.9997982262362842,68.5177349032715
6.647042048,0.999863249013033,68.36845029372049
6.649328128,0.9999371886009792,68.21817197161867
6.65161472,1.0000154058841055,68.06678744584444
6.653901312,1.000092810156174,67.91428467476746
6.656187392,1.000164585285677,67.76069171116836
6.658473984,1.0002262234349806,67.60614249287322
6.660760064,1.0002737717140882,67.45084836155817
6.663046656,1.000304123430093,67.29497637621391
6.665332736,1.0003155759236542,67.13880402769092
6.667619328,1.000307066360925,66.98261896390268
6.66990592,1.0002794095168024,66.82671841042055
6.672192,1.0002341632469622,66.67134555880438
6.674478592,1.0001743050411045,66.51675696833269
6.676764672,1.000103480586425,66.36311733676
6.679051264,1.0000262958387125,66.21056652802015
6.681337344,0.9999475546504114,66.05917642862106
6.683623936,0.9998721145460759,65.90887957270016
6.685910016,0.9998050786014274,65.75965675872258
6.688196608,0.9997504710728371,65.61130615144444
6.6904832,0.9997118168973458,65.4636874251266
6.69276928,0.9996915170555811,65.31647032029522
6.695055872,0.9996909942451774,65.16943015397531
6.697341952,0.9997101341975905,65.02227833083018
6.699628544,0.999747945072624,64.87470311252778
6.701914624,0.99980189085607,64.72649058860117
6.704201216,0.9998686319844466,64.57741570324308
6.706487808,0.9999439368713453,64.42729215587761
6.708773888,1.0000229654211885,64.27607072211731
6.71106048,1.0001007986546842,64.12371764572134
6.71334656,1.0001725700711053,63.97030759370154
6.715633152,1.0002336142562107,63.815918174620585
6.717919232,1.000280021377808,63.660765820408386
6.720205824,1.0003089870727162,63.50506277803933
6.722491904,1.0003185568847583,63.349115690428974
6.724778496,1.000308201982101,63.19316002758629
6.727065088,1.0002783913406845,63.03750920070384
6.729351168,1.0002312220926506,62.88242292932878
6.73163776,1.000169535744692,62.7281262534547
6.73392384,1.000097226694537,62.574836360402976
6.736210432,1.0000188736926994,62.42262708030197
6.738496512,0.9999395032552686,62.27159095745938
6.740783104,0.9998639529732408,62.12168898444755
6.743069696,0.999797274510357,61.97281203117941
6.745355776,0.9997435383977021,61.82483094082793
6.747642368,0.9997061317129132,61.67752138127547
6.749928448,0.9996875342682006,61.53061787572802
6.75221504,0.9996888756203279,61.38387489468283
6.75450112,0.9997101445336791,61.23696545716241
6.756787712,0.9997500028271006,61.089635814213906
6.759073792,0.9998058127662256,60.94159450622434
6.761360384,0.9998741803993669,60.79265963600786
6.763646976,0.9999509035306653,60.642712304348606
6.765933056,1.0000308253619978,60.491605330749366
6.768219648,1.0001090442569105,60.33937268006715
6.770505728,1.0001806609340225,60.18605141435191
6.77279232,1.0002409763205258,60.03179857027695
6.7750784,1.0002863632754408,59.8767751224455
6.777364992,1.0003137859263558,59.721227648731194
6.779651584,1.0003215274157515,59.56540906608984
6.781937664,1.0003091339515227,59.409645310114044
6.784224256,1.0002773851045348,59.25423071117509
6.786510336,1.0002281778306477,59.099381025181195
6.788796928,1.000164603034245,58.945367862465744
6.791083008,1.0000907704531472,58.79237028293591
6.7933696,1.00001137061054,58.640479474873366
6.79565568,0.999931349894784,58.48975108259909
6.797942272,0.9998557324369323,58.34017064648444
6.800228864,0.9997893883628169,58.191624664404884
6.802514944,0.9997365706101884,58.043951475117254
6.804801536,0.9997004960371322,57.896941436739894
6.807087616,0.9996836662724851,57.7503271678314
6.809374208,0.9996869349280483,57.60381742636053
6.811660288,0.9997103488917721,57.45712245684609
6.81394688,0.9997522384347738,57.3099524520013
6.81623296,0.999810028428168,57.16208290084171
6.818519552,0.9998800581967938,57.013274449719674
6.820806144,0.9999580247874357,56.86342719851462
6.823092224,1.0000387979340235,56.712406855786114
6.825378816,1.0001174181722534,56.56023702998011
6.827664896,1.0001887592787164,56.406989404972414
6.829951488,1.0002485079715213,56.25280916576998
6.832237568,1.00029263737047,56.097854859468136
6.83452416,1.0003184999719574,55.942394648325596
6.836810752,1.000324402622911,55.78671343887387
6.839096832,1.0003099981465096,55.63111679740818
6.841383424,1.000276117891115,55.475855233187296
6.843669504,1.0002248834452234,55.321237037552635
6.845956096,1.0001595194643975,55.167464342470886
6.848242176,1.0000842134159327,55.014719024503854
6.850528768,1.000003723960874,54.86308895765912
6.852814848,0.9999230373700179,54.712674881926105
6.85510144,0.999847365473875,54.56337254564645
6.857388032,0.9997815101903842,54.4151093787169
6.859674112,0.9997296214750484,54.26771662600791
6.861960704,0.9996949661503063,54.12096049372724
6.864246784,0.9996798414814025,53.97456685030389
6.866533376,0.9996851840933054,53.8282460914722
6.868819456,0.999710569278152,53.681738642088895
6.871106048,0.99975457106292,53.534693597929305
6.87339264,0.9998143259464443,53.386920932054785
6.87567872,0.999886051894993,53.2382222895428
6.877965312,0.9999652172613012,53.088406010374314
6.880251392,1.0000467568010707,52.93744570601814
6.882537984,1.000125696994216,52.78529419293605
6.884824064,1.000196845330908,52.63207593281579
6.887110656,1.000255800985547,52.477896219739016
6.889396736,1.0002987601036257,52.32301847317566
6.891683328,1.0003230080230936,52.16764186689236
6.89396992,1.000327001732496,52.012052542040074
6.896256,1.0003105158936962,51.856562630788424
6.898542592,1.0002744618336985,51.70144690713605
6.900828672,1.0002211601403472,51.54699061276596
6.903115264,1.0001540581682573,51.3934122350822
6.905401344,1.000077261973972,51.24087714007649
6.907687936,0.9999957903233836,51.089513584934984
6.909974528,0.9999145973500411,50.93933669313903
6.912260608,0.9998389101796423,50.79028049295152
6.9145472,0.9997736252264822,50.64227922711798
6.91683328,0.999722757891521,50.49509051487122
6.919119872,0.9996895561887659,50.34857324435071
6.921405952,0.9996761718968245,50.20236115127711
6.923692544,0.999683573729574,50.05621193000869
6.925978624,0.9997111015367125,49.909812075884936
6.928265216,0.9997572698583486,49.76288105364177
6.930551808,0.9998188888382737,49.61518201853001
6.932837888,0.9998922957270243,49.46650046380498
6.93512448,0.9999726897114865,49.31668787191395
