freq,mag,phase
6.0,1.0004061938449762,28.464097107800207
6.004494336,1.0005059205772169,28.341315224271042
6.008988672,1.0005753742904528,28.2173424676189
6.013483008,1.0006103467748524,28.092628923808068
6.017977344,1.0006087267502106,27.967666600725547
6.02247168,1.0005705903791218,27.842972459283647
6.026966528,1.0004982438015066,27.719073136304765
6.031460864,1.0003959994965261,27.596349485508874
6.0359552,1.0002700178501591,27.475276263694216
6.040449536,1.000127918891234,27.356092248487492
6.044943872,0.9999782652594602,27.23898458451643
6.049438208,0.9998301485492955,27.123944285944834
6.053932544,0.9996924342499528,27.010933109209528
6.05842688,0.999573544259193,26.899790090202117
6.062921216,0.9994805205445376,26.790076949829867
6.067415552,0.999419191720724,26.681494320476396
6.071909888,0.9993931749851245,26.57354035077788
6.076404736,0.9994040241797024,26.465653228234537
6.080899072,0.9994512276161307,26.3573936040783
6.085393408,0.999531759914135,26.248185236302465
6.089887744,0.9996410121479237,26.137621306997815
6.09438208,0.9997721018315979,26.02536235440855
6.098876416,0.9999173665719164,25.9111481450451
6.103370752,1.0000678946989348,25.794813526146896
6.107865088,1.0002145549339343,25.676364753384572
6.112359424,1.0003486390897558,25.55586977435194
6.11685376,1.0004618046529088,25.433667387586425
6.121348096,1.0005475102893182,25.310068274170924
6.125842944,1.0006004192358444,25.185419395685063
6.13033728,1.000617302559993,25.060297002770486
6.134831616,1.0005972059726365,24.9352427217578
6.139325952,1.0005412503545563,24.810625864415922
6.143820288,1.0004528651406388,24.687086661107355
6.148314624,1.0003372573490665,24.564927457911974
6.15280896,1.000201560289053,24.444602873707026
6.157303296,1.0000538531388774,24.32624360105245
6.161797632,0.999903000636006,24.21001997158561
6.166291968,0.9997582298660748,24.095846140908584
6.170786304,0.999628214957644,23.983651212952022
6.175281152,0.9995209963739012,23.873132269508933
6.179775488,0.9994427814936291,23.763906362697213
6.184269824,0.9993985664986402,23.65558926781503
6.18876416,0.9993908230103475,23.54759655177072
6.193258496,0.9994202541970671,23.439461401303046
6.197752832,0.9994849256006603,23.330625977124544
6.202247168,0.9995809908302195,23.22067365732506
6.206741504,0.999702740691116,23.109146148016986
6.21123584,0.999842624165691,22.995788963737862
6.215730176,0.9999924114711588,22.880317383005558
6.220224512,1.0001429598443596,22.762727238667534
6.224718848,1.0002851046231818,22.643077296111713
6.229213696,1.00041037509647,22.521527150812794
6.233708032,1.000511124056744,22.398367129997762
6.238202368,1.000581322390264,22.273953289956292
6.242696704,1.0006166761611146,22.14879930353154
6.24719104,1.0006150599106505,22.02341590379228
6.251685376,1.0005766045572497,21.898306719553702
6.256179712,1.00050351077764,21.773933759354016
6.260674048,1.0004002297547774,21.650826980507297
6.265168384,1.0002729728906732,21.529358117121035
6.26966272,1.0001294179404436,21.409778369945087
6.274157056,0.9999781892605157,21.2922991053285
6.278651904,0.9998284716019862,21.17695816947761
6.28314624,0.999689366060274,21.063671432705835
6.287640576,0.9995692020010484,20.952193162131998
6.292134912,0.9994752770172736,20.842225809395913
6.296629248,0.9994132254978766,20.733341864220094
6.301123584,0.9993868294349282,20.625135314582263
6.30561792,0.9993978384325517,20.517018347226568
6.310112256,0.9994453781503113,20.408457880298837
6.314606592,0.9995268977388772,20.299014144405035
6.319100928,0.9996372155788976,20.18813399190496
6.323595264,0.9997696523276305,20.075582723504713
6.328090112,0.999916434191383,19.96100475503246
6.332584448,1.0000685304105377,19.844326162432974
6.337078784,1.0002168024770683,19.72554034494113
6.34157312,1.000352213372708,19.60464158932993
6.346067456,1.0004667381059849,19.48202830164978
6.350561792,1.0005533157381221,19.358003434673535
6.355056128,1.0006068299824684,19.232943805574116
6.359550464,1.0006239865468425,19.107377497668026
6.3640448,1.0006036558111395,18.981847848768762
6.368539136,1.0005471924772373,18.856789680181787
6.373033472,1.0004578792180885,18.732816174927244
6.37752832,1.0003411436350287,18.610270638367044
6.382022656,1.0002039176685011,18.48949666728256
6.386516992,1.0000546969342565,18.37079478372107
6.391011328,0.9999022619108409,18.254210244900325
6.395505664,0.9997559709772692,18.139729539723568
6.4,0.999624527055159,18.027204892683542
6.404494336,0.9995160262976132,17.91636931363046
6.408988672,0.9994369405850475,17.806885675211824
6.413483008,0.9993921220934994,17.69828847125691
6.417977344,0.9993843341580501,17.59005279357688
6.42247168,0.9994139666236392,17.481630877633705
6.426966528,0.9994792410758332,17.372556576991386
6.431460864,0.9995763669219692,17.262314295427824
6.4359552,0.999699290455848,17.150498147929813
6.440449536,0.9998407525433728,17.036766795979446
6.444943872,0.9999921128462561,16.92099906221551
6.449438208,1.0001443313506402,16.803025512900657
6.453932544,1.000287984270253,16.683021794624512
6.45842688,1.0004147078754104,16.56103176485181
6.462921216,1.000516599149603,16.43740207573448
6.467415552,1.000587633557472,16.312584981990792
6.471909888,1.0006234001166476,16.186956957058626
6.476404736,1.000621861558668,16.061116493147015
6.480899072,1.0005830253318466,15.935517737460327
6.485393408,1.0005091394922658,15.810756594190615
6.489887744,1.0004048168539066,15.687224243894176
6.49438208,1.0002762388219473,15.565331101255001
6.498876416,1.0001311251553378,15.445373666864885
6.503370752,0.9999782860745535,15.327514401861976
6.507865088,0.9998269707787869,15.211808627551084
6.512359424,0.9996862517217382,15.098161273028166
6.51685376,0.9995647371565173,14.986391423003733
6.521348096,0.9994695843315766,14.87616224135008
6.525842944,0.9994068678023114,14.76702783689222
6.53033728,0.9993800322089443,14.658494961690378
6.534831616,0.999391058692274,14.550087386722831
6.539325952,0.9994391907635783,14.441267867059661
6.543820288,0.9995213504840182,14.331527872783065
6.548314624,0.9996328076935468,14.220399587106895
6.55280896,0.9997668004113681,14.107523844160518
6.557303296,0.9999151614241666,13.992641479704169
6.561797632,1.0000689381940113,13.875597422886376
6.566291968,1.0002187604916861,13.756358313461552
6.570786304,1.0003558475298047,13.635139053251631
6.575281152,1.0004716790542967,13.512087221871473
6.579775488,1.0005593713845211,13.387582067628172
6.584269824,1.0006135384591364,13.262063930139577
6.58876416,1.0006309293046678,13.136059822509964
6.593258496,1.0006105141531385,13.010013652562066
6.597752832,1.000553470564905,12.884525412300839
6.602247168,1.000463305151311,12.760112859463108
6.606741504,1.0003452337076364,12.637112851978543
6.61123584,1.0002066069541011,12.51595636134572
6.615730176,1.000055755228882,12.39682493228448
6.620224512,0.9999015536878735,12.279829165102072
6.624718848,0.9997536124652311,12.165023241814751
6.629213696,0.9996206686452171,12.05219959664236
6.633708032,0.9995108275202844,11.941073406095839
6.638202368,0.9994308164907459,11.831274599797135
6.642696704,0.9993854664505952,11.722418794002202
6.64719104,0.999377366954499,11.613840003331015
6.651685376,0.9994071828011466,11.505162662657979
6.656179712,0.9994731987790001,11.395821777431985
6.660674048,0.999571326841067,11.285281614087497
6.665168384,0.9996955430767679,11.173127025717058
6.66966272,0.999838591431667,11.059131681906685
6.674157056,0.9999917136018953,10.942988505188918
6.678651904,1.000145586332556,10.824657576069262
6.68314624,1.0002909223535315,10.704194203107576
6.687640576,1.000419134641058,10.581809090892088
6.692134912,1.0005223135019536,10.45773913497473
6.696629248,1.0005942133655585,10.332464603893618
6.701123584,1.0006305956775416,10.206372288599031
6.70561792,1.0006291015871616,10.080061671355228
6.710112256,1.000589930633952,9.953989060174544
6.714606592,1.0005154230377868,9.828762208134991
6.719100928,1.0004099554082662,9.704772092380212
6.723595264,1.0002799701543221,9.582435857898354
6.728090112,1.000133230387718,9.462046859326634
6.732584448,0.9999787306210051,9.34381967231982
6.737078784,0.9998255797791862,9.227703935604385
6.74157312,0.9996831951402022,9.113738195677332
6.746067456,0.9995600999106216,9.001642159763184
6.750561792,0.9994638345946487,8.891073051945863
6.755056128,0.9994001235571758,8.781647985270645
6.759550464,0.9993729733657225,8.672841900336902
6.7640448,0.9993840145791635,8.564209435152165
6.768539136,0.9994324679519884,8.455073899540201
6.773033472,0.9995155768304861,8.34503312808228
6.77752832,0.9996282950426216,8.23363789143167
6.782022656,0.9997635997859716,8.120391691167136
6.786516992,0.9999136059719262,8.00519949932622
6.791011328,1.0000692402108091,7.887738009184943
6.795505664,1.0002209001002822,7.768143624294239
6.8,1.0003596091374884,7.646487965057088
6.804494336,1.000476826313557,7.522977611479521
6.808988672,1.0005656983092095,7.398041009652948
6.813483008,1.000620652590158,7.27203183963389
6.817977344,1.0006383587375098,7.145498693361224
6.82247168,1.000617915969945,7.019012648066348
6.826966528,1.0005603970346595,6.893040651514044
6.831460864,1.0004692355629103,6.768124068790391
6.8359552,1.0003499856113431,6.64467996440428
6.840449536,1.0002097540824835,6.523066049544886
6.844943872,1.0000570733088956,6.403540403372991
6.849438208,0.9999010779735431,6.286166552729823
6.853932544,0.9997513563906397,6.1709697036372795
6.85842688,0.9996167732011697,6.057782506095178
6.862921216,0.9995055653344567,5.946344869348758
6.867415552,0.9994243740238,5.836289872463738
6.871909888,0.9993783189831013,5.727072922836084
6.876404736,0.9993699643403238,5.6182593704979125
6.880899072,0.9994000263443991,5.50931453958374
6.885393408,0.9994666243227713,5.399646948135625
6.889887744,0.9995657404105199,5.288848317468236
6.89438208,0.9996913833794762,5.1763604056927255
6.898876416,0.9998361004721618,5.061980798074254
6.903370752,0.9999909231304355,4.945509086645854
6.907865088,1.0001465987648543,4.8267694413383575
6.912359424,1.0002938491176732,4.705917296338854
6.91685376,1.0004236643992652,4.58305198203456
6.921348096,1.0005281686797445,4.45853818207888
6.925842944,1.00060110046417,4.332776469792377
6.93033728,1.0006381150964192,4.206214140481694
6.934831616,1.0006367213881149,4.079400197132827
6.939325952,1.000597321653499,3.952825994080851
6.943820288,1.0005220367771184,3.827088329228647
6.948314624,1.0004154693947833,3.7026317439219882
6.95280896,1.000284042358404,3.579827250957774
6.957303296,1.000135646195532,3.4590204877796453
6.961797632,0.9999790872332569,3.3403355687407523
6.966291968,0.99982414225041,3.223870509122135
6.970786304,0.9996800328821883,3.1095304275280573
6.975281152,0.9995553186721645,2.9970685829343373
6.979775488,0.9994577331796927,2.886209894156906
6.984269824,0.9993931511863,2.7764832672829773
6.98876416,0.9993654741910619,2.667407995886494
6.993258496,0.9993763920604418,2.558416005212263
6.997752832,0.9994252591653932,2.4490657735422476
7.002247168,0.9995091846080764,2.338694696831009
7.006741504,0.9996230851392894,2.2269670370370425
7.01123584,0.9997600395029645,2.1133951054837077
7.015730176,0.9999118425674899,1.9978103745873366
7.020224512,1.0000692310268362,1.8800187003356645
7.024718848,1.0002227618983053,1.7599818278814148
7.029213696,1.0003633505413765,1.6378758945798555
7.033708032,1.0004821673796873,1.5139557711781244
7.038202368,1.0005721462079609,1.388495312319837
7.042696704,1.0006281222736917,1.2620065899591315
7.04719104,1.000646211132073,1.134962461545166
7.051685376,1.0006255933896997,1.0079599260338368
7.056179712,1.0005677075268231,0.8814723041471897
7.060674048,1.0004756131487453,0.7560869103505319
7.065168384,1.0003548564622546,0.6321538330086389
7.06966272,1.0002130852072086,0.5100773216818517
7.074157056,1.000058582475293,0.390083267810642
7.078651904,0.9999006668115563,0.27231081775279786
7.08314624,0.9997489917122147,0.1567624635643155
7.087640576,0.9996126156814721,0.043211903891706545
7.092134912,0.9994999173514535,-0.06856056972117151
7.096629248,0.9994175921435668,-0.1789895648094265
7.101123584,0.9993706632230754,-0.2884528600037723
7.10561792,0.99936202698079,-0.39754538287028796
7.110112256,0.9993922696498686,-0.5068218085183608
7.114606592,0.9994594744480338,-0.6167589654986353
7.119100928,0.9995596687647151,-0.7279477326663233
7.123595264,0.9996867437693543,-0.8406984490375274
7.128090112,0.9998331168557075,-0.9554294705969983
7.132584448,0.9999899279284344,-1.0722930318771668
7.137078784,1.0001476098997195,-1.1913960584054786
7.14157312,1.000296731814397,-1.3126920838100382
7.146067456,1.0004282773989308,-1.4360019729898292
7.150561792,1.0005342734266893,-1.5610108837830345
7.155056128,1.0006083755752961,-1.6873013225098605
7.159550464,1.000646039678661,-1.8143778298623865
7.1640448,1.000644898713249,-1.9417266522217782
7.168539136,1.0006052288110732,-2.068803904801416
7.173033472,1.000529248653477,-2.195065287633059
7.17752832,1.0004214060284733,-2.320031237063296
7.182022656,1.0002884478183502,-2.443280354881989
7.186516992,1.0001383038082843,-2.5646059565622856
7.191011328,0.999979810061823,-2.6836993087286043
7.195505664,0.9998229210331918,-2.8005567423224873
7.2,0.9996768455986482,-2.915266746340534
7.204494336,0.9995504226997074,-3.0280767254273346
7.208988672,0.9994513199555419,-3.139276725145606
7.213483008,0.9993857091658382,-3.2493486636813835
7.217977344,0.9993574338960934,-3.3587071681003957
7.22247168,0.9993682076452681,-3.4679563534868167
7.226966528,0.9994175579127534,-3.5776467512205574
7.231460864,0.9995023138995197,-3.6883064304777826
7.2359552,0.9996174542852011,-3.800402935509338
7.240449536,0.9997559740923797,-3.9142899714687016
7.244943872,0.9999096321672725,-4.030247900009119
7.249438208,1.0000690875148914,-4.148459605938122
7.253932544,1.000224719323753,-4.268873442418751
7.25842688,1.0003670286474788,-4.391446224756645
7.262921216,1.0004875845097314,-4.5158749982479724
7.267415552,1.0005791343988393,-4.641836918376222
7.271909888,1.0006358994185296,-4.7688257294130745
7.276404736,1.0006546119218611,-4.896389603542118
7.280899072,1.0006339744816275,-5.023927006845047
7.285393408,1.00057544640936,-5.150937594103168
7.289887744,1.000482392208532,-5.276888166968529
7.29438208,1.0003605205970092,-5.401298879168392
7.298876416,1.0002168646534335,-5.523875181517724
7.303370752,1.0000604906864954,-5.644271693776389
7.307865088,0.999900565083996,-5.762460043467408
7.312359424,0.99974681560047,-5.878452983391451
7.31685376,0.9996086151722894,-5.992388874069385
7.321348096,0.9994941067012565,-6.1045333703149955
7.325842944,0.9994104436127053,-6.215238128661739
7.33033728,0.9993627371529485,-6.325041476614607
7.334831616,0.9993536412616312,-6.4344432718083455
7.339325952,0.9993839230446278,-6.544014948619643
7.343820288,0.9994518517835107,-6.654271215315567
7.348314624,0.9995530158419403,-6.765761048757822
7.35280896,0.999681589864923,-6.878868922075879
7.357303296,0.9998297440902245,-6.993944807044332
7.361797632,0.9999885138749235,-7.1112101098958425
7.366291968,1.000148339543724,-7.230767843609449
7.370786304,1.0002995175702272,-7.3524926543954034
7.375281152,1.0004329418947275,-7.476268561169367
7.379775488,1.0005406494565994,-7.601758183081378
7.384269824,1.000615841561267,-7.728582135251057
7.38876416,1.00065425806259,-7.856218649580632
7.393258496,1.0006535263343117,-7.9840921586701015
7.397752832,1.0006135787015544,-8.11172006438457
7.402247168,1.000536859331767,-8.238499966953702
7.406741504,1.0004279289322118,-8.364031831965598
7.41123584,1.0002933266370222,-8.487793651514696
7.415730176,1.0001412713964095,-8.609559500563778
7.420224512,0.9999808553773106,-8.729098856121942
7.424718848,0.9998217642718432,-8.84640600735452
7.429213696,0.9996734864242727,-8.961551104776206
7.433708032,0.9995453120257674,-9.074718729326825
7.438202368,0.9994447055094487,-9.186245156202006
7.442696704,0.9993779016034565,-9.296608124239233
7.44719104,0.9993488347739807,-9.406300235953925
7.451685376,0.9993595720870967,-9.515853688833444
7.456179712,0.9994090898067477,-9.625895542766623
7.460674048,0.99949479453631,-9.736863983056569
7.465168384,0.9996113498046427,-9.849271010395103
7.46966272,0.9997514883178076,-9.963490321189411
7.474157056,0.9999071388399094,-10.07987515942937
7.478651904,1.0000686560039938,-10.198456284125234
7.48314624,1.0002264521549058,-10.319341319057317
7.487640576,1.0003708953535073,-10.442358558614162
7.492134912,1.0004932137586493,-10.567295453248455
7.496629248,1.0005861611052924,-10.693790217165079
7.501123584,1.0006440750668264,-10.821321329315609
7.50561792,1.000663346798787,-10.949445125628717
7.510112256,1.0006427941619798,-11.07754423504697
7.514606592,1.0005838353275978,-11.205079167118784
7.519100928,1.0004897356556788,-11.331575226782668
7.523595264,1.0003664176804832,-11.4565196355053
7.528090112,1.0002210598197185,-11.57958174881076
7.532584448,1.0000625784750894,-11.700499871530166
7.537078784,0.9999004472374654,-11.819153141725536
7.54157312,0.9997445737700272,-11.935570290487778
7.546067456,0.9996042683546104,-12.049874549217664
7.550561792,0.9994880089747986,-12.162363386325234
7.555056128,0.9994029451612558,-12.273402981745063
7.559550464,0.9993541291694086,-12.383576174106084
7.5640448,0.9993446941448004,-12.493294125681752
7.568539136,0.9993750819750252,-12.603123647058979
7.573033472,0.9994435251642826,-12.71373354190524
7.57752832,0.9995458894989221,-12.82552819086791
7.582022656,0.9996759509448783,-12.938988164816179
7.586516992,0.9998260586976953,-13.054438303340152
7.591011328,0.9999868561045087,-13.172106473731557
7.595505664,1.0001488410834156,-13.292091191059946
7.6,1.0003022683006613,-13.414299872199736
7.604494336,1.0004377614933007,-13.538559794326385
7.608988672,1.0005471356453843,-13.664584474489722
7.613483008,1.0006238704759503,-13.79194589775662
7.617977344,1.0006631018420524,-13.920092550842202
7.62247168,1.0006626481998737,-14.048575043247377
7.626966528,1.0006225513438554,-14.176768607164153
7.631460864,1.0005450270322493,-14.304130526262421
7.6359552,1.000434873446492,-14.430148704473138
7.640449536,1.0002986987522462,-14.554480233097438
7.644943872,1.0001446124808215,-14.676767498978734
7.649438208,0.9999819761660861,-14.796810621038466
7.653932544,0.9998206897716267,-14.914526186115497
7.65842688,0.999670162482772,-15.030091637789125
7.662921216,0.9995399602408092,-15.143628685500415
7.667415552,0.9994377332036225,-15.255510100961502
7.671909888,0.9993696322046727,-15.366232850478525
7.676404736,0.9993399093281234,-15.476255388257602
7.680899072,0.9993502477550468,-15.586142230479624
7.685393408,0.9994001972583615,-15.696448420607455
7.689887744,0.999486640012351,-15.807738035956328
7.69438208,0.9996044162520736,-15.920498925175686
7.698876416,0.9997464921601062,-16.035105309140356
7.703370752,0.999904180165441,-16.151829209875633
7.707865088,1.00006795231734,-16.270870416833194
7.712359424,1.0002280691346532,-16.3921916244917
7.71685376,1.00037467221291,-16.515737430837593
7.721348096,1.0004989489679625,-16.641193751774107
7.725842944,1.000593648167599,-16.768189804746996
7.73033728,1.00065262266456,-16.896319172312257
7.734831616,1.0006725596653792,-17.024974713428744
7.739325952,1.0006522877281383,-17.153688507302352
7.743820288,1.0005927729064068,-17.281814458058783
7.748314624,1.0004977726194726,-17.408857692601366
7.75280896,1.000372774298568,-17.534399312781613
7.757303296,1.000225598969922,-17.657964502977496
7.761797632,1.0000649986244943,-17.77939809866324
7.766291968,0.9999006716664772,-17.898511683335112
7.770786304,0.9997423949281653,-18.01535072548719
7.775281152,0.9995998907975888,-18.130054424157475
7.779775488,0.9994817932663203,-18.242924424294806
7.784269824,0.9993951110363292,-18.35436078759237
7.78876416,0.9993451953916913,-18.464833267310855
7.793258496,0.9993351561702218,-18.574866597960607
7.797752832,0.9993656355214195,-18.685055158040797
7.802247168,0.99943455310054,-18.795955617915073
7.806741504,0.9995380572352507,-18.908121847427488
7.81123584,0.9996698404229617,-19.021907917756472
