freq,mag,phase
6.0,1.0005471206150836,-50.22216693880077
6.002285568,1.000703846804639,-50.336102826527124
6.004571648,1.0008122709552163,-50.452001671076765
6.006857216,1.0008690128390596,-50.56911466070401
6.009142784,1.0008699366548466,-50.68663831707481
6.011428352,1.0008157839600011,-50.80386357168084
6.013714432,1.00070935249383,-50.91986909717242
6.016,1.0005576484763352,-51.03401597196644
6.018285568,1.0003702297931445,-51.14573475536749
6.020571648,1.000159202061822,-51.25458002858703
6.022857216,0.9999376895131732,-51.360280490132844
6.025142784,0.999720269909087,-51.462814083796864
6.027428352,0.9995203089799795,-51.56230662369169
6.029714432,0.9993508166670544,-51.65908821128816
6.032,0.999222432466601,-51.75373211621141
6.034285568,0.9991435276271069,-51.84690721554188
6.036571648,0.9991192361921213,-51.939317659546994
6.038857216,0.9991509593354654,-52.03176852077661
6.041142784,0.9992368284750621,-52.12513954712658
6.043428352,0.999371092163365,-52.22010335327819
6.045714432,0.9995455819712546,-52.317357235564934
6.048,0.9997489871273794,-52.41737632510031
6.050285568,0.9999681999432419,-52.52045863940037
6.052571648,1.0001895201528996,-52.62679744543015
6.054857216,1.0003986264159335,-52.736297069343635
6.057142784,1.0005821865665878,-52.848697334021296
6.059428352,1.0007288342291787,-52.9634631367985
6.061714432,1.0008289338216705,-53.080070338179326
6.064,1.0008763256305848,-53.19775143552483
6.066285568,1.0008677592112623,-53.31579031135312
6.068571648,1.0008037570505295,-53.43324209537151
6.070857216,1.0006885727906045,-53.5494819092422
6.073142784,1.0005294928582562,-53.66372565191104
6.075428352,1.000336392662261,-53.775378447630715
6.077714432,1.000121837786162,-53.88410357970315
6.08,0.9998991756864783,-53.98963868435236
6.082285568,0.9996829705869831,-54.09200719126821
6.084571648,0.9994866486863218,-54.19139385693774
6.086857216,0.9993229636673053,-54.288180941755755
6.089142784,0.9992021622620498,-54.38285150158342
6.091428352,0.9991323641733038,-54.47622001933289
6.093714432,0.9991175389712509,-54.56893373565468
6.096,0.9991589869810267,-54.66186653090616
6.098285568,0.9992541505423904,-54.7557982700486
6.100571648,0.9993964718330957,-54.851486205975434
6.102857216,0.9995775180078298,-54.94960600103312
6.105142784,0.9997853879811714,-55.050489057329834
6.107428352,1.000006675183263,-55.15456285326723
6.109714432,1.000227792671234,-55.26188448296562
6.112,1.0004341074671512,-55.372304645918454
6.114285568,1.0006127320148468,-55.485600909020945
6.116571648,1.0007525912179036,-55.601174320302896
6.118857216,1.0008443127768503,-55.718451944699275
6.121142784,1.0008821689778742,-55.836722033586284
6.123428352,1.0008637655657724,-55.95514953676045
6.125714432,1.0007904028210455,-56.07293657285403
6.128,1.0006665546962068,-56.18929132455319
6.130285568,1.0005001532629807,-56.303555480433694
6.132571648,1.0003019856604478,-56.41513305576103
6.134857216,1.000084124335893,-56.52376856367609
6.137142784,0.9998607930187664,-56.6291601026582
6.139428352,0.9996461052189648,-56.73140483421768
6.141714432,0.9994539965741233,-56.830692902750414
6.144,0.9992962794731103,-56.927442886927295
6.146285568,0.9991835207842948,-57.02224105406949
6.148571648,0.999122454061462,-57.11572096021719
6.150857216,0.9991175796154941,-57.208839597660685
6.153142784,0.9991686687458903,-57.30218753689538
6.155428352,0.9992728074645509,-57.39672896943868
6.157714432,0.9994231421882892,-57.49319537654224
6.16,0.9996102488949259,-57.59211393042688
6.162285568,0.9998221079558528,-57.69393018985953
6.164571648,1.0000454497583935,-57.79896974905275
6.166857216,1.0002656429935124,-57.907242476931856
6.169142784,1.0004690018253135,-58.018620930329135
6.171428352,1.000642315532543,-58.13275220278572
6.173714432,1.0007748992405134,-58.24915640012524
6.176,1.0008578932179368,-58.36707337661626
6.178285568,1.0008865399451436,-58.48588370086929
6.180571648,1.000858396865094,-58.60471889018155
6.182857216,1.00077556344526,-58.72273828571676
6.185142784,1.0006432825753697,-58.83919291450483
6.187428352,1.00046980460231,-58.95349765279125
6.189714432,1.0002664999135908,-59.06502918911903
6.192,1.000045859772722,-59.173509308587036
6.194285568,0.9998224097998041,-59.278775621435265
6.196571648,0.9996098523816674,-59.38081833191363
6.198857216,0.9994219942498554,-59.48002993829001
6.201142784,0.9992708843951377,-59.576772642004435
6.203428352,0.9991660464155256,-59.671623181145016
6.205714432,0.9991144552180107,-59.76537247141973
6.208,0.9991190549509564,-59.85879456956309
6.210285568,0.9991799442401151,-59.95266000169653
6.212571648,0.9992928520354089,-60.04786778226533
6.214857216,0.9994508721327471,-60.14505623072202
6.217142784,0.9996437993099522,-60.24481183179843
6.219428352,0.9998594390412064,-60.34758012183945
6.221714432,1.000083930424755,-60.45355643018252
6.224,1.0003030713254712,-60.56279222274911
6.226285568,1.0005029660372415,-60.67506479642409
6.228571648,1.0006707675995388,-60.79005561043858
6.230857216,1.0007956900107156,-60.907222840971095
6.233142784,1.0008700499127978,-61.02579388277937
6.235428352,1.0008889470544549,-61.14511710964627
6.237714432,1.0008513340827747,-61.264301757691854
6.24,1.0007592008965243,-61.382531199958656
6.242285568,1.0006187379158709,-61.499125519852676
6.244571648,1.0004387560847854,-61.61340756955831
6.246857216,1.0002305818340043,-61.724835543679525
6.249142784,1.0000076946721055,-61.833173768398375
6.251428352,0.9997842452841214,-61.93826519779166
6.253714432,0.9995740567698214,-62.04022119711637
6.256,0.9993910781193411,-62.1393266598819
6.258285568,0.9992467717020642,-62.236070948996684
6.260571648,0.9991502033423165,-62.33100275900459
6.262857216,0.9991078919326062,-62.42502162085551
6.265142784,0.9991221807554924,-62.518793382651836
6.267428352,0.9991926282580377,-62.6131810123316
6.269714432,0.999314392757462,-62.70902567122488
6.272,0.9994796863511225,-62.80700112085587
6.274285568,0.9996782352626211,-62.90760617329189
6.276571648,0.9998972037779452,-63.01126997254463
6.278857216,1.0001226933645524,-63.11821360459646
6.281142784,1.0003403818451104,-63.22839036095318
6.283428352,1.0005362762027354,-63.34157075869431
6.285714432,1.0006981192530509,-63.45742991522424
6.288,1.0008152784371138,-63.575281393884886
6.290285568,1.0008808142295507,-63.69447576027226
6.292571648,1.000889952674242,-63.8143056730468
6.294857216,1.0008424827307425,-63.933815352889276
6.297142784,1.0007412929245907,-64.05226827000601
6.299428352,1.0005928035259866,-64.16892634711401
6.301714432,1.0004066829760991,-64.28317606456439
6.304,1.000194120027031,-64.39449924086522
6.306285568,0.9999692471134318,-64.50268472650603
6.308571648,0.9997460764626964,-64.60760648725136
6.310857216,0.9995391298040692,-64.70939764743193
6.313142784,0.9993611313958312,-64.80844805647297
6.315428352,0.9992237830439167,-64.90517837668081
6.317714432,0.9991358152643387,-65.0002563935243
6.32,0.9991029168440001,-65.09447327863353
6.322285568,0.999127138790987,-65.18867397193483
6.324571648,0.9992069401539524,-65.28361465173796
6.326857216,0.9993370498382154,-65.38011110050905
6.329142784,0.999509556211919,-65.47882232402543
6.331428352,0.9997133848833046,-65.58029874228825
6.333714432,0.9999353047315171,-65.68491286477725
6.336,1.000161403265367,-65.7927946795868
6.338285568,1.000377131317864,-65.90388904929016
6.340571648,1.0005687481594248,-66.01798500383134
6.342857216,1.0007242403639298,-66.1346353651567
6.345142784,1.000833729342005,-66.25323282069779
6.347428352,1.000889823880802,-66.37305193914851
6.349714432,1.000889424753011,-66.49326329710554
6.352,1.0008323488448445,-66.61307540955936
6.354285568,1.0007222596117311,-66.73172181555911
6.356571648,1.0005658748046693,-66.84843510272582
6.358857216,1.0003735963086555,-66.96260472510565
6.361142784,1.0001572127869465,-67.0738538021808
6.363428352,0.9999307757022463,-67.18185498729262
6.365714432,0.9997083903886096,-67.28663371609558
6.368,0.9995045373956558,-67.3883106359266
6.370285568,0.9993321938533449,-67.48725673110177
6.372571648,0.9992022482000271,-67.58398380061577
6.374857216,0.9991228614481882,-67.6792374032395
6.377142784,0.9990994457628564,-67.77371629615205
6.379428352,0.9991333829472783,-67.86828915218776
6.381714432,0.9992224179616312,-67.96377969772489
6.384,0.9993610733888875,-68.06099061299967
6.386285568,0.9995402872633946,-68.16045350883215
6.388571648,0.9997489988884037,-68.26278784355728
6.390857216,0.9999734390762295,-68.36832535002414
6.393142784,1.0001997066409167,-68.47718774865704
6.395428352,1.0004130738750512,-68.58921580753938
6.397714432,1.0006001293320503,-68.70418432522824
6.4,1.000749066222876,-68.82158712063135
6.402285568,1.0008502433527666,-68.94085848076533
6.404571648,1.0008973242329526,-69.0612565134118
6.406857216,1.0008872628700924,-69.18189611983591
6.409142784,1.0008204238715348,-69.30202335182436
6.411428352,1.0007016476381414,-69.42077646919545
6.413714432,1.0005378748732268,-69.53753495644824
6.416,1.0003396199163517,-69.65163899579949
6.418285568,1.0001196841094446,-69.76273503902217
6.420571648,0.999892008029463,-69.87060604334586
6.422857216,0.9996710351288732,-69.97517572302928
6.425142784,0.999470919535867,-70.07668818671192
6.427428352,0.9993042817640297,-70.17560218008234
6.429714432,0.9991819694252552,-70.27234168870866
6.432,0.9991115846251931,-70.36774598491152
6.434285568,0.9990977398781917,-70.46250760531838
6.436571648,0.9991413268816867,-70.5575143311239
6.438857216,0.9992397074316314,-70.65353501910033
6.441142784,0.9993864091806308,-70.75143413504652
6.443428352,0.9995721430169038,-70.85173743041366
6.445714432,0.9997852163113452,-70.95494441066066
6.448,1.000011863598553,-71.06140084219123
6.450285568,1.0002377789158037,-71.171155742252
6.452571648,1.0004486317084889,-71.28409054274634
6.454857216,1.0006307324453174,-71.39996195085327
6.457142784,1.0007727365793635,-71.51814910655966
6.459428352,1.0008654596129496,-71.63808371238476
6.461714432,1.000903130436891,-71.75899915208899
6.464,1.000883406167189,-71.88000641426594
6.466285568,1.0008072044234535,-72.00035975991436
6.468571648,1.0006796030424094,-72.11926603788977
6.470857216,1.000508613951138,-72.23599917662929
6.473142784,1.0003050743704651,-72.35004465794815
6.475428352,1.0000820069801724,-72.46098367414127
6.477714432,0.9998534758737416,-72.56865921838993
6.48,0.9996342158577008,-72.67305779869106
6.482285568,0.9994379377820182,-72.77445445592656
6.484571648,0.9992776232509061,-72.87326285631877
6.486857216,0.9991628751353528,-72.97008033963847
6.489142784,0.9991017043462515,-73.0656276100843
6.491428352,0.9990974745910335,-73.1607175099649
6.493714432,0.9991508110166029,-73.25613256563815
6.496,0.99925828185685,-73.35275852060893
6.498285568,0.9994128335853851,-73.45136122594808
6.500571648,0.9996047396686661,-73.55244955154602
6.502857216,0.9998220803462015,-73.6565525477949
6.505142784,1.0000505714430634,-73.76392608663647
6.507428352,1.0002759198076918,-73.87459626472032
6.509714432,1.0004833825189943,-73.98845294883445
6.512,1.000660426184017,-74.10514713777452
6.514285568,1.0007951498921717,-74.22407432701513
6.516571648,1.000879461527572,-74.34466361437354
6.518857216,1.000907667366651,-74.46601639553327
6.521142784,1.0008780188109285,-74.58744325614256
6.523428352,1.0007924065033895,-74.70805424604305
6.525714432,1.0006563965025257,-74.82702776520019
6.528,1.0004783765364271,-74.94375365445397
6.530285568,1.0002698175176503,-75.05766524335459
6.532571648,1.0000439562726058,-75.16844533689874
6.534857216,0.9998149981262632,-75.27591415360193
6.537142784,0.9995976935822642,-75.38015506014482
6.539428352,0.999405986288937,-75.48141490627972
6.541714432,0.9992519300596088,-75.58014602780965
6.544,0.9991454125107627,-75.67702076964285
6.546285568,0.9990933044922348,-75.77277000821061
6.548571648,0.9990988593529376,-75.86815450169965
6.550857216,0.999161704902485,-75.96403921323977
6.553142784,0.9992781556103774,-76.0612834785506
6.555428352,0.9994404936954104,-76.16053846262338
6.557714432,0.999638379569484,-76.26244419904252
6.56,0.9998593605094052,-76.36742442910608
6.562285568,1.00008921223136,-76.47573101904256
6.564571648,1.0003133112856133,-76.58734526437999
6.566857216,1.000517642907715,-76.70206505396699
6.569142784,1.000688946210632,-76.81958115898205
6.571428352,1.0008163611947605,-76.93923140548178
6.573714432,1.0008917542627227,-77.06038897731557
6.576,1.0009104576786725,-77.18227511703934
6.578285568,1.000871083772464,-77.30401154096374
6.580571648,1.00077615313241,-77.42476518146866
6.582857216,1.0006318414274222,-77.54384511914056
6.585142784,1.0004472437130953,-77.66050098863926
6.587428352,1.0002339660275938,-77.77428547471108
6.589714432,1.0000055242908847,-77.88490367188069
6.592,0.9997767419493901,-77.99220215787606
6.594285568,0.9995619275328598,-78.09624082483148
6.596571648,0.9993748598317402,-78.19739100420985
6.598857216,0.9992275342184826,-78.29608973220105
6.601142784,0.9991293514144163,-78.39300137476353
6.603428352,0.999086471203306,-78.48890120680804
6.605714432,0.9991019094865781,-78.58461843657552
6.608,0.999174411071258,-78.68099640790564
6.610285568,0.9992994585146127,-78.77881418842692
6.612571648,0.9994691031982811,-78.87881733753653
6.614857216,0.9996726595753967,-78.9815505521336
6.617142784,0.999896968221537,-79.08743552418485
6.619428352,1.000127886683982,-79.19661180663608
6.621714432,1.0003507270281269,-79.30912309112547
6.624,1.0005510786317728,-79.42473523602844
6.626285568,1.0007163846386027,-79.54303384616249
6.628571648,1.0008361355301751,-79.66338959436997
6.630857216,1.0009026036997601,-79.78515241457424
6.633142784,1.0009117126714235,-79.9074454393935
6.635428352,1.0008625807634,-80.02949344267346
6.637714432,1.000758618415758,-80.15044410269763
6.64,1.0006061995418565,-80.26952164816623
6.642285568,1.0004151032913755,-80.38612669445104
6.644571648,1.0001973553350467,-80.49978819576161
6.646857216,0.9999671082328294,-80.61017139779648
6.649142784,0.9997385829254001,-80.71723671443198
6.651428352,0.9995266197245725,-80.8211057944564
6.653714432,0.9993446371563228,-80.9221320166255
6.656,0.9992043904102048,-81.02076088692965
6.658285568,0.9991146650014854,-81.11777100498887
6.660571648,0.999081261536105,-81.21389544433046
6.662857216,0.999106278921576,-81.30992994255377
6.665142784,0.999188233475442,-81.40682943628161
6.667428352,0.999322053600422,-81.50525808105789
6.669714432,0.9994989644939628,-81.60599430788095
6.672,0.9997077117647918,-81.70953077273315
6.674285568,0.9999351542265975,-81.81627959804042
6.676571648,1.0001666385543964,-81.92634579867097
6.678857216,1.0003875035022922,-82.03978005002976
6.681142784,1.0005837621480038,-82.15626687396518
6.683428352,1.0007427777301174,-82.27531935736037
6.685714432,1.0008546383006445,-82.3963703971793
6.688,1.000911962525637,-82.51866398324363
6.690285568,1.000911412701287,-82.64136473398926
6.692571648,1.0008526347223288,-82.76367295544492
6.694857216,1.0007394758204977,-82.88476262769538
6.697142784,1.0005793831756569,-83.00383348899197
6.699428352,1.0003820194513644,-83.12037100947353
6.701714432,1.0001604958407229,-83.23386657782619
6.704,0.9999284791292447,-83.34403099144599
6.706285568,0.9997007370862374,-83.45090250070912
6.708571648,0.9994919562217109,-83.5545617929988
6.710857216,0.999315416709789,-83.65544814460942
6.713142784,0.9991825198511431,-83.7541022011333
6.715428352,0.9991013642611931,-83.85119734922122
6.717714432,0.9990774786957092,-83.94751041415816
6.72,0.9991124143621739,-84.04391283155933
6.722285568,0.9992038433238217,-84.1412910153415
6.724571648,0.9993459213649014,-84.24037768325817
6.726857216,0.9995296755560303,-84.34182949441707
6.729142784,0.9997434442870975,-84.4461765735789
6.731428352,0.9999734883646687,-84.55380739954269
6.733714432,1.0002052717205543,-84.6647973095002
6.736,1.000423793915124,-84.77911958442124
6.738285568,1.0006156373862587,-84.8963964682513
6.740571648,1.000767997231657,-85.01621816546238
6.742857216,1.0008716823762995,-85.13788770479913
6.745142784,1.0009197782383619,-85.26072435769073
6.747428352,1.0009094400271499,-85.38380754386922
6.749714432,1.0008410779612342,-85.5063589022097
6.752,1.0007191354287994,-85.627535179047
6.754285568,1.0005512709298547,-85.74663362375817
6.756571648,1.0003483442247059,-85.86302979667096
6.758857216,1.000123004424496,-85.97631927773362
6.761142784,0.9998896878680197,-86.08625483721546
6.763428352,0.9996631984436717,-86.1929142353942
6.765714432,0.9994580184484484,-86.29640705395522
6.768,0.9992871582302576,-86.39716568058354
6.770285568,0.9991617746057957,-86.49578933933748
6.772571648,0.9990896426380877,-86.59298513356664
6.774857216,0.9990754079423487,-86.68950961877134
6.777142784,0.9991199839155708,-86.78630305912601
6.779428352,0.9992206439633566,-86.88417026239544
6.781714432,0.9993709902936448,-86.9838608502954
6.784,0.9995613402947472,-87.08610060881072
6.786285568,0.9997796724326229,-87.19125629034401
6.788571648,1.000012066316785,-87.2997530214586
6.790857216,1.0002435157319114,-87.41166690725423
6.793142784,1.000459587398774,-87.52682430300925
6.795428352,1.000646459588134,-87.64493522765237
6.797714432,1.0007919872764526,-87.76548365850361
6.8,1.0008873361064026,-87.8878049064097
6.802285568,1.0009259275893916,-88.01109799618834
6.804571648,1.0009058572973306,-88.13452478349497
6.806857216,1.0008279404984048,-88.2572768156633
6.809142784,1.0006974038395917,-88.37854079139184
6.811428352,1.0005221786379077,-88.49758069104688
6.813714432,1.000313714747031,-88.61382957502856
6.816,1.0000850921449391,-88.72692877295789
6.818285568,0.9998508446899371,-88.83666652155883
6.820571648,0.9996260653522724,-88.94306634885693
6.822857216,0.9994247899859829,-89.04634183854903
6.825142784,0.9992600557107206,-89.14701517624614
6.827428352,0.9991424694831003,-89.24559649663371
6.829714432,0.9990792558370665,-89.34284968181097
6.832,0.999074785836481,-89.43969133853706
6.834285568,0.9991290964547846,-89.5368466557447
6.836571648,0.9992389563168136,-89.6351964182002
6.838857216,0.9993972496417525,-89.7356002734414
6.841142784,0.9995938886742093,-89.83854693361239
6.843428352,0.9998165277961402,-89.94457890963693
6.845714432,1.0000507496340476,-90.0539488609699
6.848,1.0002817524515293,-90.1666910605445
6.850285568,1.000494738173505,-90.2827065925143
6.852571648,1.0006763047379892,-90.40165146675761
6.854857216,1.0008147463960273,-90.52287235635227
6.857142784,1.0009014940673968,-90.64576886023086
6.859428352,1.0009306963988902,-90.76950738915602
6.861714432,1.0009007841149584,-90.89324540728909
6.864,1.0008134138198872,-91.01619291533233
6.866285568,1.0006742728452949,-91.13749328839137
6.868571648,1.0004919599628574,-91.25643497919647
6.870857216,1.000278296530414,-91.37254830788517
6.873142784,1.000046734654854,-91.48540613541212
6.875428352,0.9998119776761127,-91.59492180038426
6.877714432,0.9995891724788489,-91.70105570476646
6.88,0.999392257357506,-91.8041573160929
6.882285568,0.9992338856504049,-91.90473122874756
6.884571648,0.999124240319507,-92.00331885972378
6.886857216,0.9990702809569666,-92.10071778493175
6.889142784,0.9990755673019319,-92.19775616878725
6.891428352,0.9991397313539268,-92.29530293483661
6.893714432,0.9992585138838344,-92.39422872121905
6.896,0.9994246687980984,-92.49525911071014
6.898285568,0.9996274409486215,-92.59894224201717
6.900571648,0.9998537837634014,-92.70578099119444
6.902857216,1.0000895211112732,-92.81606193813711
6.905142784,1.000319591849083,-92.92963256361942
6.907428352,1.0005293117418812,-93.0465071002389
6.909714432,1.0007053055340625,-93.16619555948228
6.912,1.0008363411671632,-93.28809396738033
6.914285568,1.0009142280180008,-93.41156807294804
6.916571648,1.0009340496605228,-93.53573363044443
6.918857216,1.0008942858063812,-93.65976858466139
6.921142784,1.000797562197674,-93.78282643247803
6.923428352,1.0006499459452185,-93.90414642516326
6.925714432,1.0004608520740335,-94.02300796046862
6.928,1.0002422859129454,-94.13892309982175
6.930285568,1.0000083345861461,-94.2515760851793
