freq,mag,phase
6.0,1.0003562402233648,-169.95383997746396
6.002287104,1.0003445121309547,-170.10943958155917
6.004574208,1.000310806638244,-170.26462592305606
6.006861312,1.0002578769458426,-170.41915360111645
6.009147904,1.0001890146326253,-170.57276104362714
6.011435008,1.0001085797210436,-170.72519493185226
6.013722112,1.0000216488044733,-170.8763790496921
6.016009216,0.9999336625056977,-171.02625035547246
6.01829632,0.9998503645722857,-171.17480486368478
6.020583424,0.9997770628716004,-171.3221764495993
6.022870016,0.9997181064191936,-171.46854961604154
6.02515712,0.9996776432147252,-171.61415102259275
6.027444224,0.9996578985809742,-171.75926721981813
6.029731328,0.9996602999920233,-171.9041619326489
6.032018432,0.9996847500530367,-172.049249330773
6.034305536,0.9997295984398742,-172.194793740997
6.036592128,0.9997921068812571,-172.34103179118628
6.038879232,0.9998682479013812,-172.48823201030234
6.041166336,0.9999532677777138,-172.63658279762075
6.04345344,1.000041704858077,-172.7860951931177
6.045740544,1.0001280554849936,-172.9368601717483
6.048027648,1.0002066747234617,-173.08876371370425
6.05031424,1.0002727076164488,-173.2416810866439
6.052601344,1.0003220289870138,-173.39538568979575
6.054888448,1.0003512750452803,-173.54961116192578
6.057175552,1.000358881656287,-173.70406683476784
6.059462656,1.0003441616865685,-173.8584134627967
6.06174976,1.0003080424737503,-174.01231158115644
6.064036352,1.000252816585515,-174.16552638579748
6.066323456,1.000182049926679,-174.3177870062753
6.06861056,1.0001001274559338,-174.46887263821995
6.070897664,1.000012264272783,-174.61868567539798
6.073184768,0.9999239732187235,-174.76715304997333
6.075471872,0.9998409852073334,-174.9143199463606
6.077758464,0.99976844508043,-175.06030578294784
6.080045568,0.9997110376383668,-175.20531168389405
6.082332672,0.9996722613596939,-175.3495552829696
6.084619776,0.9996548769799457,-175.49333914702947
6.08690688,0.9996597695826882,-175.63697685762253
6.089193984,0.9996865387669526,-175.7808019408633
6.091481088,0.999733777302773,-175.9250923751525
6.09376768,0.9997984234465149,-176.07015310057452
6.096054784,0.9998762191510713,-176.21623632050367
6.098341888,0.9999624365018298,-176.3634159083649
6.100628992,1.00005145021286,-176.5118401246951
6.102916096,1.0001377795421997,-176.66148796794238
6.1052032,1.0002157782421972,-176.81226410401771
6.107489792,1.0002807026219733,-176.96405131403841
6.109776896,1.0003281751349957,-177.11656667914087
6.112064,1.0003554339654495,-177.2696049625358
6.114351104,1.0003606174232,-177.42283103213472
6.116638208,1.0003434132206082,-177.57590825875272
6.118925312,1.0003048458876664,-177.728545012922
6.121211904,1.000247394978434,-177.88041947888243
6.123499008,1.000174668282672,-178.03131492766707
6.125786112,1.0000913108146423,-178.18100547713058
6.128073216,1.000002574412016,-178.3293958493727
6.13036032,0.9999140182842682,-178.47646103617447
6.132647424,0.9998313533606079,-178.62222980650836
6.134934016,0.9997597977308613,-178.76678750965965
6.13722112,0.9997039859531113,-178.91040816170906
6.139508224,0.9996672424163654,-179.0533228465495
6.141795328,0.9996520387327706,-179.19576064029897
6.144082432,0.9996594865606693,-179.33809631178642
6.146369536,0.9996888666223817,-179.48063638968952
6.148656128,0.9997384367316705,-179.6237231923531
6.150943232,0.9998051511358098,-179.7676053995978
6.153230336,0.999884699235675,-179.9124725123643
6.15551744,0.9999719707901092,179.94148927519407
6.157804544,1.00006164674793,179.7941740364145
6.160091648,1.0001477535181527,179.64565508597954
6.162378752,1.0002250171331974,179.4960279491809
6.164665344,1.0002885557389118,179.34542928839412
6.166952448,1.0003342824777361,179.1940542549265
6.169239552,1.0003593499213035,179.04221931631056
6.171526656,1.0003620464792424,178.8902316526439
6.17381376,1.0003422551295733,178.73844168555357
6.176100864,1.0003011359701846,178.58712730456398
6.178387456,1.000241510242934,178.4366006191141
6.18067456,1.0001669038915506,178.28708574597096
6.182961664,1.0000821099472674,178.1388162296301
6.185248768,0.9999924899668202,177.99181128641595
6.187535872,0.9999037601958166,177.84618537563153
6.189822976,0.9998215675368347,177.70187284628153
6.192109568,0.9997511236833175,177.55869225144832
6.194396672,0.9996968346569233,177.41646951726477
6.196683776,0.9996621462052171,177.27500570823963
6.19897088,0.9996494185520004,177.13388397811903
6.201257984,0.9996592843677176,176.99282937778995
6.203545088,0.99969126475413,176.85153159043801
6.20583168,0.9997433677858177,176.7096950312685
6.208118784,0.9998121590219368,176.56702480156395
6.210405888,0.9998933319115721,176.4233053566529
6.212692992,0.999981781646159,176.27842519193675
6.214980096,1.000071882794452,176.1322735819184
6.2172672,1.0001579314767302,175.984915624281
6.219553792,1.000234402827037,175.83640519734098
6.221840896,1.0002965670556097,175.68695417262458
6.224128,1.0003403921070304,175.53675801241474
6.226415104,1.0003630496937184,175.3861484745488
6.228702208,1.0003632266994338,175.2354407447202
6.230989312,1.0003407766380965,175.08492993381603
6.233275904,1.0002971657779913,174.9349546949466
6.235563008,1.000235079849155,174.78576366811146
6.237850112,1.0001586609095634,174.63767706564033
6.240137216,1.0000723338068251,174.49081552619816
6.24242432,0.9999820403759612,174.3452790039545
6.244711424,0.9998932618529095,174.20108349025506
6.246998528,0.9998115691005299,174.05819808651856
6.24928512,0.9997422718928436,173.91648136465005
6.251572224,0.9996896544475544,173.77565424964098
6.253859328,0.999657255662716,173.63550923575707
6.256146432,0.9996469999096272,173.4957358093031
6.258433536,0.9996596142769878,173.35602000508126
6.26072064,0.9996942032484512,173.2160174919639
6.263007232,0.9997486747138218,173.07540961124027
6.265294336,0.999819604256407,172.93393519900945
6.26758144,0.9999024306454016,172.79137736681665
6.269868544,0.9999919025221703,172.64768051428092
6.272155648,1.0000824312507375,172.5026499651653
6.274442752,1.0001683263811272,172.35642915099564
6.276729344,1.0002438553914643,172.20906486840758
6.279016448,1.0003044586952003,172.06078306013217
6.281303552,1.0003462781242622,171.91179902750744
6.283590656,1.0003665134911432,171.7624157757092
6.28587776,1.00036401491635,171.612973943032
6.288164864,1.0003388437280027,171.46371823927913
6.290451456,1.0002926670917913,171.31511079692848
6.29273856,1.0002283854998268,171.16730700380478
6.295025664,1.0001499072615727,171.02061349837948
6.297312768,1.0000623801860762,170.87517926998646
6.299599872,0.9999713081090843,170.73110727256304
6.301886976,0.9998824332150993,170.58837375826383
6.304173568,0.999801388782805,170.44693554684713
6.306460672,0.9997333082025912,170.30663935775854
6.308747776,0.9996826186590881,170.16721734901728
6.31103488,0.9996524761755525,170.02849829661218
6.313321984,0.9996448926905922,169.89006728369836
6.315609088,0.9996601012026705,169.75167443071223
6.317896192,0.999697493956974,169.61291050678042
6.320182784,0.9997544215667071,169.47353117260826
6.322469888,0.9998274923459894,169.33325270665296
6.324756992,0.9999119751250723,169.19189699982803
6.327044096,1.000002563162657,169.04928359445378
6.3293312,1.0000934374921089,168.9054239211581
6.331618304,1.000178899097413,168.76034393250407
6.333904896,1.0002534250268529,168.614153586872
6.336192,1.0003124333029867,168.46703166149524
6.338479104,1.000352084595831,168.31925997367384
6.340766208,1.0003699188384092,168.17109320685282
6.343053312,1.000364709050509,168.022916064023
6.345340416,1.0003367823193465,167.87502073916363
6.347627008,1.0002880151273652,167.72769518841747
6.349914112,1.0002212685726986,167.58130810585857
6.352201216,1.0001409400333665,167.4360222557547
6.35448832,1.000052146769717,167.29203031181774
6.356775424,0.9999603338261279,167.14937603570752
6.359062528,0.9998715039096007,167.0081182381098
6.36134912,0.9997912863242504,166.86812314562883
6.363636224,0.9997245634104323,166.7292689726471
6.365923328,0.9996758640884894,166.59130589422435
6.368210432,0.9996480458861374,166.45392766665773
6.370497536,0.9996430189936075,166.3168771196748
6.37278464,0.9996610505378779,166.17974765959391
6.375071232,0.9997012250943844,166.04225145506243
6.377358336,0.999760652186329,165.90411338920669
6.37964544,0.999835889821044,165.76503935356286
6.381932544,0.9999219529746975,165.6248422814597
6.384219648,1.0000135191673565,165.48337365916436
6.386506752,1.0001045839212677,165.3406778812098
6.388793344,1.0001896207915724,165.19670430463518
6.391080448,1.0002630815538895,165.05168390537014
6.393367552,1.0003204219445894,164.90570126298164
6.395654656,1.0003577927725416,164.75913052738156
6.39794176,1.0003729428619896,164.61221563761436
6.400228864,1.0003649339573593,164.46531462044206
6.402515968,1.0003342055901405,164.318705297249
6.40480256,1.0002827144356106,164.17277465509025
6.407089664,1.000213732494557,164.02777031586035
6.409376768,1.0001315548394223,163.88389033680522
6.411663872,1.000041374335084,163.74134745625923
6.413950976,0.9999490312809869,163.6001519218175
6.41623808,0.9998603248309744,163.4603612117528
6.418524672,0.9997808018823723,163.32180904556765
6.420811776,0.9997156297460658,163.1843625435394
6.42309888,0.9996689661947789,163.0478163978544
6.425385984,0.9996436761478243,162.91185471964636
6.427673088,0.9996415136268371,162.7761245273314
6.429960192,0.9996624534698949,162.640301676032
6.432246784,0.9997052597480024,162.5040875415622
6.434533888,0.9997674272490666,162.36710511286282
6.436820992,0.9998447258121475,162.2292176973708
6.439108096,0.9999323119232154,162.0901884201917
6.4413952,1.0000248507706166,161.94989360080174
6.443682304,1.000116026953395,161.8082721944035
6.445968896,1.0002005993088312,161.66546676418577
6.448256,1.000272785496644,161.52157623696598
6.450543104,1.0003282326412397,161.37679242544675
6.452830208,1.0003632420721769,161.2314007607396
6.455117312,1.0003757092598626,161.08571484260395
6.457404416,1.0003648838401202,160.9400640255302
6.459691008,1.0003311235966277,160.79478243314193
6.461978112,1.0002770114344017,160.65022330130694
6.464265216,1.0002055492676887,160.50659192341297
6.46655232,1.00012149356664,160.36417378917005
6.468839424,1.0000301951957704,160.22304376038647
6.471126528,0.9999373098280901,160.08333002602754
6.473413632,0.9998488481625994,159.94499556063158
6.475700224,0.9997702963307851,159.80789173330805
6.477987328,0.9997067942662049,159.67188134657536
6.480274432,0.9996621538069307,159.53674447866328
6.482561536,0.99963954238412,159.40212439391556
6.48484864,0.9996401361761125,159.2677256016627
6.487135744,0.9996641607828547,159.13320213046669
6.489422336,0.999709885865725,158.99821327609052
6.49170944,0.9997745250860878,158.86249722407678
6.493996544,0.9998539803823105,158.72575502118502
6.496283648,0.9999430995678046,158.58788457516695
6.498570752,1.0000363898541695,158.44871231360145
6.500857856,1.000127874462272,158.30820979343963
6.503144448,1.0002117366108798,158.1665160558355
6.505431552,1.0002825359972163,158.02375568320008
6.507718656,1.0003359563526177,157.88011534343002
6.51000576,1.000368579998393,157.7359281469584
6.512292864,1.0003782552404035,157.59148435591445
6.514579968,1.0003644071503046,157.44711534028227
6.51686656,1.0003277888657802,157.30313911361415
6.519153664,1.0002707621192592,157.159929201456
6.521440768,1.0001970874922934,157.017697818085
6.523727872,1.0001113066580984,156.87666280343396
6.526014976,1.0000187626096984,156.73700221295394
6.52830208,0.9999254249598888,156.5987330330169
6.530588672,0.9998372099764118,156.4618482541662
6.532875776,0.9997596734876789,156.32620445668275
6.53516288,0.9996979243308731,156.19165482981217
6.537449984,0.9996556434211804,156.05788927773017
6.539737088,0.9996356672347455,155.92461403423158
6.542024192,0.9996392938126265,155.79155581176556
6.544310784,0.999666273313966,155.65829570355086
6.546597888,0.9997149116132484,155.52453102490497
6.548884992,0.9997820387711955,155.38999337717038
6.551172096,0.9998635767982257,155.2544252261277
6.5534592,0.9999542276269672,155.11765008737592
6.555746304,1.0000481769507499,154.97957202769987
6.558033408,1.0001398205596594,154.84022914505326
6.56032,1.0002227431417978,154.69967417142877
6.562607104,1.000292215915659,154.5579985059834
6.564894208,1.0003434713406933,154.4155228407549
6.567181312,1.000373655044264,154.27249612155805
6.569468416,1.0003803206363064,154.12928430066862
6.57175552,1.0003633758310728,153.98620929725737
6.574042112,1.000323718677519,153.84354828686986
6.576329216,1.0002640721706813,153.70167779528893
6.57861632,1.0001880612171812,153.56083394359652
6.580903424,1.0001003232351473,153.42123372643672
6.583190528,1.0000067572461933,153.2829871644127
6.585477632,0.9999131270577437,153.14618321276183
6.587764224,0.999825380764683,153.010726268127
6.590051328,0.9997490802234698,152.87654662688522
6.592338432,0.9996891333043767,152.74339066144876
6.594625536,0.9996492655892495,152.61100165359142
6.59691264,0.9996321698070695,152.47910997798655
6.599199744,0.9996388634141583,152.34732630054057
6.601486336,0.9996688859556057,152.21531953768766
6.60377344,0.9997204549163929,152.08279782316635
6.606060544,0.9997902333394797,151.94944468176357
6.608347648,0.9998738034729129,151.81496921279827
6.610634752,0.9999657597310561,151.67934694737485
6.612921856,1.000060589513812,151.54237611828162
6.615208448,1.000151898700362,151.4040839349137
6.617495552,1.0002341655507674,151.26462272804207
6.619782656,1.0003019460618279,151.1240532081307
6.62206976,1.0003511508337295,150.98274949627492
6.624356864,1.0003783641447528,150.84090936194858
6.626643968,1.0003821258462637,150.69890208719764
6.628931072,1.0003619923249443,150.55703496517935
6.631217664,1.0003193052436408,150.41573375382015
6.633504768,1.000256913005191,150.2752114209517
6.635791872,1.0001785191836492,150.13575140936126
6.638078976,1.000089110336159,149.99754151756954
6.64036608,0.9999944784273901,149.86076477424854
6.642653184,0.9999005397286642,149.7253892352208
6.644939776,0.9998133470030024,149.59136680522334
6.64722688,0.9997383465450366,149.45863179674078
6.649513984,0.9996803511283515,149.32686903369432
6.651801088,0.9996430942295401,149.19583448213334
6.654088192,0.999628928183018,149.06524909896862
6.656375296,0.9996387502878439,148.93475927588614
6.658661888,0.9996720520951367,148.80402501039322
6.660948992,0.999726451949175,148.67267083776088
6.663236096,0.9997988569277835,148.54042524877474
6.6655232,0.9998845210386542,148.40712782433314
6.667810304,0.9999779120054042,148.272554777145
6.670097408,1.0000731654697381,148.1366753417651
6.672384,1.0001643608849806,147.99946135632283
6.674671104,1.0002454436652617,147.86107387779123
6.676958208,1.0003116171653585,147.72165632870104
6.679245312,1.0003584188454444,147.58141891992526
6.681532416,1.0003828582527678,147.44077014044694
6.68381952,1.0003835273069872,147.29995024805706
6.686106112,1.000360141847294,147.15935959117203
6.688393216,1.000314483859926,147.01933533203479
6.69068032,1.000249123830224,146.88014141010785
6.692967424,1.0001684092710867,146.74207099672265
6.695254528,1.0000772405232372,146.6053117374605
6.697541632,0.9999816715727401,146.46992703946808
6.699828224,0.9998876481010152,146.33599223705158
6.702115328,0.9998011267395842,146.2034305615925
6.704402432,0.9997275243632355,146.07205645013678
6.706689536,0.9996715749530167,145.9417171540315
6.70897664,0.9996370940453644,145.81205620513433
6.711263744,0.9996259954999308,145.6827623143378
6.713550848,0.9996390365789852,145.5535232690718
6.71583744,0.9996754439868158,145.4240021661582
6.718124544,0.9997329566639854,145.29382136198097
6.720411648,0.9998078379356239,145.1627406602396
6.722698752,0.9998955901059101,145.0305359752027
6.724985856,0.9999901450585046,144.897028927979
6.72727296,1.0000861007338677,144.76216404263604
6.729559552,1.0001768599058303,144.626009751498
6.731846656,1.0002570840309433,144.48867006005008
6.73413376,1.0003212490800557,144.3503355736752
6.736420864,1.0003656583003193,144.21126198989202
6.738707968,1.0003871292068571,144.07173434566664
6.740995072,1.0003845812751349,143.9321043838632
6.743281664,1.0003579924007522,143.79277434948062
6.745568768,1.0003090756449098,143.6540233603541
6.747855872,1.0002408734943549,143.51618571090177
6.750142976,1.00015786535033,143.37948247412814
6.75243008,1.00006511253899,143.24409564535225
6.754717184,0.9999686848625515,143.11013093822976
6.757003776,0.9998745676553723,142.977634593609
6.75929088,0.999788720792471,142.84647094075152
6.761577984,0.9997167234308,142.7164983387809
6.763865088,0.9996632458786081,142.58752416100003
6.766152192,0.999631328046295,142.45920731990398
6.768439296,0.9996234318376842,142.33121041353667
6.770725888,0.9996397309635711,142.2032142169816
6.773012992,0.9996794775457164,142.07488218594057
6.775300096,0.999740054688561,141.94585196953514
6.7775872,0.9998175938403328,141.81584439822925
6.779874304,0.9999071287774731,141.68468339582824
6.782161408,1.0000030463647531,141.55223374865275
6.784448512,1.0000993870200665,141.41844963607147
6.786735104,1.0001898088884014,141.2833209489771
6.789022208,1.0002686130932292,141.14703895596796
6.791309312,1.000330844575351,141.00977483690062
6.793596416,1.0003726268858937,140.8717704382784
6.79588352,1.0003909497551344,140.73339594066547
6.798170624,1.0003851203392433,140.59495059576665
6.800457216,1.0003550983640048,140.45685063516288
6.80274432,1.0003030493641347,140.31937654677733
6.805031424,1.0002319611089283,140.18285168804115
6.807318528,1.0001467787875804,140.0475062442639
6.809605632,1.0000524697103552,139.913500286423
6.811892736,0.9999552113202198,139.78094476473117
6.814179328,0.9998612028308481,139.64986177540592
6.816466432,0.9997762611206011,139.520123368324
6.818753536,0.9997060378114347,139.39152785830694
6.82104064,0.9996548074868965,139.26389692403717
6.823327744,0.9996259579964486,139.1368643531379
6.825614848,0.9996212692615841,139.01015458524068
6.82790144,0.9996409243636781,138.8833564469123
6.830188544,0.9996840469692635,138.75618416448057
6.832475648,0.999747551265659,138.62826056854064
6.834762752,0.9998277843697659,138.49937139898495
6.837049856,0.9999191731725925,138.36924677166294
6.83933696,1.0000162652416025,138.23781940051256
6.841623552,1.0001128280865408,138.1050288971749
6.843910656,1.000202621687742,137.97093007753284
6.84619776,1.0002800906614142,137.83564244344944
6.848484864,1.0003402656192462,137.69940153615607
6.850771968,1.000379278650825,137.5624950653216
6.853059072,1.0003944653190078,137.42524649027035
6.855345664,1.00038528294598,137.2880137898505
6.857632768,1.0003517361911614,137.15111708395818
6.859919872,1.0002963670909306,137.01490758012363
6.862206976,1.0002226856445884,136.87969020536943
6.86449408,1.000135205774635,136.74569285644984
6.866781184,1.0000393535626129,136.61310346584222
6.869068288,0.9999414520605592,136.4819232307053
6.87135488,0.9998475887448351,136.3521957220575
6.873641984,0.999763793792679,136.22382765168405
6.875929088,0.9996953133870863,136.09660402221283
6.878216192,0.9996466672779727,135.97030346882983
6.880503296,0.9996209014561224,135.84457519035476
6.8827904,0.9996195984114933,135.7190660836796
6.885076992,0.9996428069723763,135.59349722892316
6.887364096,0.9996892089220727,135.46745272757673
6.8896512,0.999755918309665,135.3406253952011
6.891938304,0.9998384996490806,135.21276021532856
6.894225408,0.9999318855474607,135.0836484205964
6.896512512,1.0000299452488857,134.95323325598912
6.898799104,1.0001266453456676,134.8214161874869
6.901086208,1.0002158684964153,134.6882789624968
6.903373312,1.0002915968366117,134.55401347064404
6.905660416,1.0003495131870228,134.41879229365372
6.90794752,1.000385568489656,134.28297401278056
6.910234624,1.0003974858334468,134.14684155969974
6.912521216,1.0003848262058161,134.01071461197193
6.91480832,1.000347936138136,133.87504633490585
6.917095424,1.0002893105118609,133.7400973972104
6.919382528,1.000212734794119,133.6061656422552
6.921669632,1.0001229727326226,133.47351890952953
