freq,mag,phase
6.0,0.9998676621203182,-50.58525593630744
6.008648704,0.9998561863163463,-50.9237608769597
6.017297408,0.9998517965049948,-51.26223986786219
6.025946112,0.9998549582564328,-51.60067980257904
6.034594816,0.99986569018019,-51.939298722770246
6.043243008,0.9998830700154806,-52.27806163747192
6.051891712,0.9999065584212827,-52.61714134478585
6.060540416,0.9999344534790833,-52.95660664415403
6.06918912,0.9999658423152195,-53.29647596963847
6.077837824,0.9999986048948152,-53.6367771954941
6.086486528,1.0000312373816485,-53.97757479912143
6.095135232,1.0000620612167053,-54.3187757754591
6.103783936,1.000089296360822,-54.66041261000417
6.11243264,1.0001116000601464,-55.002366453711375
6.121080832,1.000127640105352,-55.34464740119169
6.129729536,1.0001368286364232,-55.68710217007593
6.13837824,1.0001386179011365,-56.02968542833873
6.147026944,1.0001328819405189,-56.37219729949692
6.155675648,1.0001196461912305,-56.714622704326885
6.164324352,1.0000999697396766,-57.056879431226754
6.172973056,1.000074741902528,-57.39888299221043
6.18162176,1.0000453392400688,-57.74053835878821
6.190270464,1.000013205830153,-58.08182890772583
6.198919168,0.9999801898960141,-58.422658313704005
6.20756736,0.9999478465215862,-58.76312262040682
6.216216064,0.9999179298912617,-59.103173902815804
6.224864768,0.9998921509346969,-59.4429117377019
6.233513472,0.9998718263877241,-59.782319976303846
6.242162176,0.9998578380606257,-60.121539860381255
6.25081088,0.9998511692579091,-60.460693145103875
6.259459584,0.9998522737265159,-60.79979164259345
6.268108288,0.999860691792847,-61.13897742465863
6.276756992,0.9998763451021151,-61.478344882076534
6.285405184,0.9998981185380916,-61.81798065877053
6.294053888,0.9999252385520191,-62.15797637527912
6.302702592,0.9999557516065128,-62.498396097638484
6.311351296,0.9999886138407855,-62.83921549088407
6.32,1.000021882381745,-63.18052757851743
6.328648704,1.0000534625673252,-63.52229677938948
6.337297408,1.0000823375995829,-63.86449460460976
6.345946112,1.0001065078712386,-64.20705205414778
6.354594816,1.0001247479855904,-64.54987764751434
6.363243008,1.0001362082700536,-64.89300786825194
6.371891712,1.000140229925916,-65.23619746613836
6.380540416,1.00013678790955,-65.57941454466862
6.38918912,1.00012581144066,-65.92260593415148
6.397837824,1.0001078631886555,-66.26561579259912
6.406486528,1.0000838960041412,-66.60834722053794
6.415135232,1.0000554951565288,-66.950759256894
6.423783936,1.0000235997388336,-67.29283254972374
6.43243264,0.9999903377654867,-67.63446017550858
6.441080832,0.9999574026313659,-67.97570558534251
6.449729536,0.9999263204394425,-68.31651886121467
6.45837824,0.9998987595425813,-68.65699277437132
6.467026944,0.9998764507593915,-68.99713779858635
6.475675648,0.9998603020730831,-69.33706823762967
6.484324352,0.9998514860327514,-69.67686346690896
6.492973056,0.9998499094939238,-70.01659597268741
6.50162176,0.9998561792879879,-70.35636291520274
6.510270464,0.9998697413808636,-70.69631249358052
6.518919168,0.9998900760375267,-71.03647211628665
6.52756736,0.9999157990753677,-71.37702960737143
6.536216064,0.9999457338147079,-71.71791275565123
6.544864768,0.9999784718314318,-72.0592752462015
6.553513472,1.0000118561768236,-72.40108060939778
6.562162176,1.0000446633268185,-72.74333913947889
6.57081088,1.000074796826487,-73.08606369404768
6.579459584,1.0001008166770704,-73.42915652833358
6.588108288,1.0001213089935477,-73.77258182494742
6.596756992,1.0001349890831228,-74.1162389595805
6.605405184,1.000141513260385,-74.46011929676578
6.614053888,1.0001402979455452,-74.8040164934925
6.622702592,1.000131383642139,-75.14785072621639
6.631351296,1.0001153474250295,-75.49157883434266
6.64,1.0000930939215595,-75.83502189514212
6.648648704,1.0000654557820938,-76.17819848442294
6.657297408,1.0000341964479498,-76.52102191304411
6.665946112,1.0000009119803417,-76.86343459822955
6.674594816,0.999967367308382,-77.20540461262182
6.683243008,0.9999352395797492,-77.54696392931253
6.691891712,0.9999061460573825,-77.88816133986556
6.700540416,0.9998819373209605,-78.22901799184258
6.70918912,0.9998635406901839,-78.5696096005737
6.717837824,0.9998522025895692,-78.91003293126182
6.726486528,0.9998483565252568,-79.25040240246133
6.735135232,0.9998524328621436,-79.59075313212435
6.743783936,0.9998639539012338,-79.93122212270589
6.75243264,0.9998822768442258,-80.2719404877175
6.761080832,0.9999067700429746,-80.6129506603969
6.769729536,0.9999358079987613,-80.95433429375414
6.77837824,0.999968100834626,-81.29617535029983
6.787026944,1.0000019693891646,-81.63841969327144
6.795675648,1.0000354555478794,-81.98116871390074
6.804324352,1.000066956089639,-82.32436788434555
6.812973056,1.0000944723305205,-82.6679966926464
6.82162176,1.0001170049498749,-83.011930614769
6.830270464,1.0001330496266825,-83.3561798376829
6.838919168,1.000141980274515,-83.70061322998617
6.84756736,1.0001432425597943,-84.04509538219196
6.856216064,1.0001366255949684,-84.38960591216804
6.864864768,1.0001224566188585,-84.73400633939836
6.873513472,1.0001018062600984,-85.07817970253467
6.882162176,1.0000754197153476,-85.42207479606647
6.89081088,1.0000448942218205,-85.76560880377143
6.899459584,1.000011744293044,-86.10873497223116
6.908108288,0.9999777004758224,-86.45146061517751
6.916756992,0.999944611564098,-86.79373195210431
6.925405184,0.9999142560995078,-87.13561406082799
6.934053888,0.9998881204381846,-87.47711783893904
6.942702592,0.9998675830649958,-87.81842017190903
6.951351296,0.9998538689456561,-88.15946212561364
6.96,0.9998476212490269,-88.50035861674203
6.968648704,0.9998490818835905,-88.84131385656106
6.977297408,0.9998583990172907,-89.18229252546698
6.985946112,0.9998750177129463,-89.52348736897245
6.994594816,0.9998978129706445,-89.86497060583282
7.003243008,0.9999259294251068,-90.2068273603387
7.011891712,0.9999578189164586,-90.54906500747668
7.020540416,0.9999915944514225,-90.89175062702506
7.02918912,1.0000257485456616,-91.23493779629673
7.037837824,1.000058390889969,-91.57858464350892
7.046486528,1.0000875508724905,-91.92264807815742
7.055135232,1.0001120217131976,-92.26709898445257
7.063783936,1.0001305463758376,-92.61186450021741
7.07243264,1.000141804078277,-92.9568391847216
7.081080832,1.0001454440270081,-93.3019212825978
7.089729536,1.0001411544014323,-93.64703194445734
7.09837824,1.000129175463016,-93.99203609256878
7.107026944,1.000110366488914,-94.33690474738826
7.115675648,1.0000853312251157,-94.6814814311995
7.124324352,1.0000556534919258,-95.02566821419049
7.132973056,1.0000228521418795,-95.36949793719026
7.14162176,0.9999884262938208,-95.71291477779957
7.150270464,0.9999544633957624,-96.05590082685849
7.158919168,0.9999227854766243,-96.39845748739621
7.16756736,0.9998948366621154,-96.74063342148546
7.176216064,0.9998722270402595,-97.08251505976106
7.184864768,0.9998560440639401,-97.42412614312185
7.193513472,0.9998474624567575,-97.76559728528709
7.202162176,0.9998464973602348,-98.1070776994932
7.21081088,0.9998534840932388,-98.4485602528122
7.219459584,0.999867971799565,-98.79023870727855
7.228108288,0.9998892682985951,-99.13212790216575
7.236756992,0.9999161814318771,-99.47438094402901
7.245405184,0.9999473780593506,-99.81704456740133
7.254053888,0.9999812557085414,-100.16013306325401
7.262702592,1.0000158234833558,-100.5037097368547
7.271351296,1.0000493799008112,-100.84775610512037
7.28,1.0000801622688686,-101.19225847693917
7.288648704,1.0001065123982393,-101.5371686772585
7.297297408,1.0001271156951232,-101.8823745960277
7.305946112,1.000140919092371,-102.22783207711997
7.314594816,1.0001469802383367,-102.5734382195604
7.323243008,1.0001451444962297,-102.91911645290118
7.331891712,1.0001354945237073,-103.26472275886252
7.340540416,1.0001184561722494,-103.61018028439858
7.34918912,1.0000950601315917,-103.95538925883157
7.357837824,1.0000663841714794,-104.30026912788144
7.366486528,1.0000339349190608,-104.64477228881641
7.375135232,0.999999633594716,-104.98881045682703
7.383783936,0.999964900562827,-105.3324415133385
7.39243264,0.999932000423389,-105.67563624365258
7.401080832,0.9999023344305519,-106.01844017660383
7.409729536,0.999877681949454,-106.36089433786556
7.41837824,0.9998592794475071,-106.70309678505282
7.427026944,0.9998479751870923,-107.0451102677932
7.435675648,0.9998445749601448,-107.38706377383622
7.444324352,0.9998491987514855,-107.72897498298038
7.452973056,0.9998616196327003,-108.07108539408038
7.46162176,0.999880987662018,-108.41340400094356
7.470270464,0.999906580595677,-108.75604680098053
7.478919168,0.9999369774687682,-109.0990697274282
7.48756736,0.9999704867314159,-109.44252398760081
7.496216064,1.0000053519682757,-109.78645951248328
7.504864768,1.0000398179942998,-110.1308363892377
7.513513472,1.0000720155428409,-110.47571954673334
7.522162176,1.00010024678502,-110.82098710001293
7.53081088,1.0001230750762056,-111.16661338568119
7.539459584,1.000139132392097,-111.51253078224968
7.548108288,1.000147882351293,-111.85862257061429
7.556756992,1.0001484652341364,-112.20481608947851
7.565405184,1.0001411997915415,-112.55096672020974
7.574053888,1.000126151006979,-112.89699147635012
7.582702592,1.000104374639764,-113.24278009781132
7.591351296,1.0000770011758922,-113.58824566581082
7.6,1.0000451454420811,-113.93335320611051
7.608648704,1.000010788245343,-114.27806203037292
7.617297408,0.9999756347722613,-114.62228840008875
7.625946112,0.9999416119917747,-114.96609934225012
7.634594816,0.9999104293229094,-115.30946563248423
7.643243008,0.9998837684289401,-115.65250378067323
7.651891712,0.9998630025281872,-115.9952314651172
7.660540416,0.9998493606391583,-116.33773159664408
7.66918912,0.9998433355563676,-116.6801495877868
7.677837824,0.9998455045580712,-117.02251249238695
7.686486528,0.9998556237777833,-117.36498471087546
7.695135232,0.9998731693650402,-117.70768551073297
7.703783936,0.9998971213945644,-118.05064706703298
7.71243264,0.9999265121261685,-118.39397168603082
7.721080832,0.9999596312903439,-118.73774486780246
7.729729536,0.9999946360630799,-119.0819739162039
7.73837824,1.0000298169955943,-119.42669591391693
7.747026944,1.0000632647221397,-119.77188072133424
7.755675648,1.0000932774977507,-120.11749557695255
7.764324352,1.0001181988833723,-120.46348240145899
7.772973056,1.000136851767778,-120.80979409404706
7.78162176,1.0001479563375753,-121.15631825159069
7.790270464,1.0001512139148123,-121.50293617321331
7.798919168,1.0001462888584232,-121.84958936141689
7.80756736,1.000133536997145,-122.19609299169964
7.816216064,1.0001134837561376,-122.5424429702547
7.824864768,1.0000873982292429,-122.88848064541422
7.833513472,1.0000564453569531,-123.23417341141506
7.842162176,1.000022321605453,-123.57941694248535
7.85081088,0.999986900888332,-123.9242275622155
7.859459584,0.9999518471137578,-124.26861903160176
7.868108288,0.9999192070199276,-124.61253795405626
7.876756992,0.9998906799065185,-124.95607435391881
7.885405184,0.9998676696584919,-125.29931257369313
7.894053888,0.9998514605115909,-125.64226985497581
7.902702592,0.999842903912269,-125.98508967672414
7.911351296,0.9998424777667408,-126.32786896824295
7.92,0.9998502481702133,-126.67069773181571
7.928648704,0.9998657012976127,-127.01370966809759
7.937297408,0.999888071588739,-127.35697100750507
7.945946112,0.9999162808311142,-127.70056846265517
7.954594816,0.9999486344266483,-128.044597854889
7.963243008,0.9999836880945427,-128.3890955679129
7.971891712,1.0000193603366685,-128.73406436941298
7.980540416,1.0000540300800957,-129.0795370058241
7.98918912,1.0000857066799957,-129.42542511879455
7.997837824,1.0001126425314035,-129.7717320030512
8.006486528,1.000133576344745,-130.1183640793394
8.015135232,1.0001473399051963,-130.46525447090033
8.023783936,1.0001531690112186,-130.81226236958497
8.03243264,1.0001508701118196,-131.15932072005023
8.041080832,1.000140393233492,-131.506317422719
8.049729536,1.0001224185091768,-131.85311873949522
8.05837824,1.000097740712157,-132.19968232312888
8.067026944,1.0000678176843367,-132.54589626189787
8.075675648,1.000034076088415,-132.89168284345493
8.084324352,0.9999984608758264,-133.23703091424795
8.092973056,0.9999626657176828,-133.58190686078535
8.10162176,0.9999287232795608,-133.92634989180345
8.110270464,0.999898263154013,-134.2703815204026
8.118919168,0.9998731301298295,-134.61405240788508
8.12756736,0.9998543884623138,-134.95744196448456
8.136216064,0.9998432206695843,-135.30063770618338
8.144864768,0.9998401810697745,-135.6437742065754
8.153513472,0.999845440268412,-135.986922862719
8.162162176,0.9998586641260089,-136.33018693607917
8.17081088,0.9998792399598635,-136.67369966641687
8.179459584,0.9999060415416652,-137.01756003294852
8.188108288,0.9999376798206365,-137.36179679765257
8.196756992,0.9999724930512829,-137.70650432409653
8.205405184,1.0000086762931153,-138.05167347675388
8.214053888,1.0000442426155078,-138.39732976473283
8.222702592,1.0000773904996956,-138.7434331297411
8.231351296,1.0001064356668319,-139.0900206186825
8.24,1.000129685851925,-139.43689690258424
8.248648704,1.0001460203132875,-139.784115568453
8.257297408,1.0001544965033062,-140.13145466228903
8.265946112,1.0001547431055169,-140.47891555546306
8.274594816,1.0001466978176787,-140.82629447957243
8.283243008,1.0001308262657758,-141.17351267996244
8.291891712,1.0001078674340103,-141.5205397403659
8.300540416,1.0000790420590076,-141.86719724830274
8.30918912,1.0000460197302077,-142.2134667272849
8.317837824,1.0000102843809076,-142.55930670404004
8.326486528,0.999973884714707,-142.90466890680543
8.335135232,0.9999387542201098,-143.24956635086474
8.343783936,0.999906585239211,-143.5940455998031
8.35243264,0.9998792557008347,-143.9381028348871
8.361080832,0.9998580568796395,-144.28190100823227
8.369729536,0.9998443674759723,-144.62543444768087
8.37837824,0.9998386143688294,-144.9688743087138
8.387026944,0.9998412621992204,-145.31228589769998
8.395675648,0.9998521102880593,-145.65581014337292
8.404324352,0.999870657823221,-145.9995454839235
8.412973056,0.9998959660846397,-146.34356454058087
8.42162176,0.9999266818367071,-146.68794899585995
8.430270464,0.9999610797180924,-147.0328120914763
8.438919168,0.9999975023425681,-147.3781283195102
8.44756736,1.0000338968312452,-147.72394143002273
8.456216064,1.0000684731089513,-148.07023039456405
8.464864768,1.0000993297284366,-148.41697320638227
8.473513472,1.0001249070846085,-148.7640909785546
8.482162176,1.0001437948512073,-149.11152935606708
8.49081088,1.0001549342238485,-149.45914570654463
8.499459584,1.000157951684984,-149.80689502444517
8.508108288,1.0001523736430538,-150.1546240223191
8.516756992,1.0001387206131849,-150.5022459213479
8.525405184,1.00011763626435,-150.84963541997095
8.534053888,1.0000901795773087,-151.19673764774305
8.542702592,1.0000578323358533,-151.54343440146897
8.551351296,1.0000223207900136,-151.88968219110816
8.56,0.9999854031495551,-152.23547328795667
8.568648704,0.9999492302131249,-152.58080540390642
8.577297408,0.9999155020637284,-152.92564087394032
8.585946112,0.999886093760116,-153.2701000045734
8.594594816,0.9998625397487634,-153.61423022910938
8.60324352,0.999846153610337,-153.95807386825044
8.611892224,0.9998376672774717,-154.30177425079876
8.620540928,0.9998376477130403,-154.64540515834372
8.629189632,0.9998460667498499,-154.9891245788625
8.637838336,0.9998625191507728,-155.33301493187633
8.646486016,0.9998860916492883,-155.67714512779395
8.65513472,0.999915561065633,-156.02167949610754
8.663783424,0.9999494701375515,-156.36659378219093
8.672432128,0.9999858622846379,-156.71201735057696
8.681080832,1.0000230343415093,-157.057923974411
8.689729536,1.0000588845948892,-157.40433430144336
8.69837824,1.0000915261821524,-157.7512159692694
8.707026944,1.0001191926911266,-158.09845599094504
8.715675648,1.0001407314642083,-158.44608013422084
8.724324352,1.000154563771054,-158.79391574238218
8.732973056,1.0001602153916784,-159.14189314429305
8.74162176,1.0001573430250867,-159.4899086162644
8.750270464,1.000146082541623,-159.83782637661858
8.758919168,1.0001269854201957,-160.18556566972956
8.767567872,1.0001010685683016,-160.53300442379347
8.776216576,1.0000697551508282,-160.88006801423865
8.78486528,1.0000345157910429,-161.2267084047738
8.793513984,0.9999974109460305,-161.57288891805507
8.802161664,0.9999603504512516,-161.91856024755276
8.810810368,0.999925131162505,-162.26377625298207
8.819459072,0.9998937262192801,-162.6085713021214
8.828107776,0.9998678240808887,-162.95296277931035
8.83675648,0.9998488030858603,-163.29706184533822
8.845405184,0.9998375854248208,-163.641003050724
8.854053888,0.9998347668148384,-163.9848351395873
8.862702592,0.9998405853893974,-164.32868328873795
8.871351296,0.9998547699320973,-164.6726865017284
8.88,0.9998763835183223,-165.0169146840838
8.888648704,0.9999045916798305,-165.3614771956205
8.897297408,0.9999376575213215,-165.7064627826385
8.905946112,0.99997410058966,-166.0518980044467
8.914594816,1.0000116375464905,-166.39785911015136
8.92324352,1.0000485160345314,-166.7442744428948
8.931892224,1.0000829414916121,-167.09120000445228
8.940540928,1.0001128231348497,-167.43857224060372
8.949189632,1.0001367001364472,-167.78628552465514
8.957838336,1.0001533781660792,-168.13426720522912
8.966486016,1.0001618375338859,-168.48243923782684
8.97513472,1.0001617263689004,-168.83064428681044
8.983783424,1.000152875634194,-169.17881350602565
8.992432128,1.0001360489336548,-169.5268234073246
9.001080832,1.0001118106097646,-169.8745566316529
9.009729536,1.0000816565979302,-170.22194975412404
9.01837824,1.0000469939747318,-170.5689158637985
9.027026944,1.0000097461269501,-170.91540481518604
9.035675648,0.9999718856409252,-171.2614265254519
9.044324352,0.9999352886029828,-171.60693286403577
9.052973056,0.9999021874556576,-171.95198817073876
9.06162176,0.9998738445452895,-172.29664243383365
9.070270464,0.99985223300135,-172.64095753313708
9.078919168,0.9998381630200627,-172.98507064035113
9.087567872,0.9998327145052152,-173.3290138492051
9.096216576,0.9998357097137777,-173.6729789039035
9.10486528,0.9998474595431193,-174.01703312072593
9.113513984,0.9998671693267761,-174.36131075501757
9.122161664,0.9998937125266326,-174.70589148731838
9.130810368,0.9999258907342502,-175.0508474783756
9.139459072,0.9999619068608452,-175.39627494739992
9.148107776,0.999999814123855,-175.74218921817314
9.15675648,1.0000377681710133,-176.08862803266211
9.165405184,1.0000736885288513,-176.4355335914937
9.174053888,1.0001055900015647,-176.7829107153845
9.182702592,1.0001319923852907,-177.13066811434265
9.191351296,1.000151309243761,-177.47872443101122
9.2,1.0001626279484799,-177.8270083663553
9.208648704,1.0001653385330112,-178.17538248247962
9.217297408,1.0001591860432908,-178.52371237190707
9.225946112,1.0001445467575936,-178.87193341671735
9.234594816,1.0001222599252397,-179.21990950717526
9.24324352,1.0000934557189962,-179.56754680959835
9.251892224,1.0000595184049985,-179.91479335410796
9.260540928,1.000022342299875,179.73842539225782
9.269189632,0.9999839689057178,179.39217430149992
9.277838336,0.9999462060208043,179.04640386905865
9.286486016,0.999911221130373,178.70111115716796
9.29513472,0.9998807889351258,178.35624735882843
9.303783424,0.9998564625428534,178.01177096088276
9.312432128,0.9998395953783158,177.66752807290578
9.321080832,0.9998312208945106,177.32347235500228
9.329729536,0.9998314574150088,176.97947219924922
9.33837824,0.9998406594273431,176.63539488955945
9.347026944,0.9998581064690385,176.2911577189401
9.355675648,0.9998830180566114,175.9466091911089
9.364324352,0.999914035638683,175.6017189357897
9.372973056,0.9999494595179488,175.2563690117556
9.38162176,0.9999875592004249,174.91052953869755
9.390270464,1.000026320165976,174.56420255847664
9.398919168,1.000063652386119,174.21736147167897
9.407567872,1.000097541925659,173.8700376085234
9.416216576,1.0001262677809943,173.52228585650204
9.42486528,1.0001483405831373,173.17423685438666
9.433513984,1.0001624877915745,172.82589411120262
9.442161664,1.000168062325279,172.47745562516192
9.450810368,1.0001647674397283,172.1289869981157
9.459459072,1.0001526560340985,171.78061734519832
