freq,mag,phase
6.0,0.9999099649051328,-134.76818316619023
6.004173312,0.9999376419319903,-135.0154559178411
6.008346624,0.9999685994126813,-135.26322395925393
6.012519424,1.0000012201265331,-135.51146854795988
6.016692736,1.0000335027679972,-135.76017530305904
6.020866048,1.0000635275697909,-136.00933663382887
6.02503936,1.0000895858122607,-136.25895389820536
6.02921216,1.0001099976196424,-136.50890940769887
6.033385472,1.0001236344302704,-136.75916108316477
6.037558784,1.0001296724770956,-137.00956833358612
6.041732096,1.000127698414374,-137.26003874597055
6.045904896,1.0001178955399215,-137.51047152393704
6.050078208,1.0001007914214826,-137.76071147260305
6.05425152,1.0000773478806606,-138.0107150447052
6.058424832,1.0000491027113358,-138.26039465428545
6.062597632,1.000017768596585,-138.50965316690116
6.066770944,0.9999849585081546,-138.75851537172116
6.070944256,0.9999528434592868,-139.00693682593405
6.075117568,0.9999232527050327,-139.25497641073105
6.079290368,0.9998980708165548,-139.50265706527233
6.08346368,0.9998786746609767,-139.75002408910407
6.087636992,0.99986626591103,-139.99721931291938
6.091810304,0.9998616075091616,-140.24432040389078
6.095983104,0.9998649254635221,-140.49144859547934
6.100156416,0.9998760674458832,-140.73870542756714
6.104329728,0.9998944292118167,-140.98618334174927
6.10850304,0.9999188392570394,-141.23397424349153
6.11267584,0.9999477556134707,-141.48220539399603
6.116849152,0.9999796228156996,-141.73087706778313
6.121022464,1.0000125068006256,-141.98005217468292
6.125195776,1.0000443902491105,-142.22969166771807
6.129368576,1.0000734153905573,-142.47979625647972
6.133541888,1.0000978369275948,-142.73032626965565
6.1377152,1.0001161747360543,-142.98116604060704
6.141888512,1.0001273192773747,-143.2322444449106
6.146061312,1.0001306366907565,-143.48347017797767
6.150234624,1.0001260090574635,-143.73466964411236
6.154407936,1.0001134619173493,-143.9858338265941
6.158581248,1.0000941104791294,-144.23676735299574
6.162754048,1.0000686843094366,-144.48741146985896
6.16692736,1.0000390737502671,-144.7377293522732
6.171100672,1.0000068302795888,-144.9875899055155
6.175273984,0.9999738450569305,-145.23706262467186
6.179447296,0.9999423308710588,-145.48606942735026
6.183620096,0.999913913640265,-145.73472290425673
6.187793408,0.9998903643589083,-145.9830146667804
6.19196672,0.9998731518745935,-146.2310216632541
6.196140032,0.9998632611657412,-146.47891890988504
6.200312832,0.9998611961966059,-146.72670917622736
6.204486144,0.9998673197044841,-146.9745890292578
6.208659456,0.9998810925939406,-147.2226257334909
6.212832768,0.999901676194058,-147.47091588194098
6.217005568,0.9999278372466689,-147.7195698137473
6.22117888,0.9999581935416172,-147.9686643380869
6.225352192,0.9999907764755188,-148.21822385683734
6.229525504,1.0000237187824805,-148.46826604315058
6.233698304,1.0000549769315161,-148.71878817266628
6.237871616,1.0000827324085984,-148.96974162078448
6.242044928,1.000105324760192,-149.22106967134908
6.24621824,1.0001213928805328,-149.47272013555212
6.25039104,1.0001300441159784,-149.72456754469354
6.254564352,1.0001306559191334,-149.976497637798
6.258737664,1.0001232642041205,-150.22842351645437
6.262910976,1.0001082118101783,-150.48018279133058
6.267083776,1.000086548953184,-150.73174472283137
6.271257088,1.0000594414042236,-150.98297996661043
6.2754304,1.000028543915491,-151.23382332291754
6.279603712,0.9999957489453918,-151.4842664538397
6.283776512,0.9999628723314998,-151.73423477244094
6.287949824,0.9999319689449455,-151.98381262823568
6.292123136,0.9999049250234902,-152.23295676533044
6.296296448,0.9998832597063079,-152.48183096089343
6.300469248,0.999868330545395,-152.73046439752352
6.30464256,0.999861027120076,-152.97896104575963
6.308815872,0.9998618048935423,-153.22741623650438
6.312989184,0.9998705895146976,-153.47597373385025
6.317161984,0.9998868294656492,-153.72476070680761
6.321335296,0.9999095987704452,-153.97382107465228
6.325508608,0.9999375317708171,-154.22325350975117
6.32968192,0.9999689963158045,-154.4731461401458
6.333855232,1.000002034203471,-154.72350364975188
6.338028032,1.0000347591896188,-154.97434026035705
6.342201344,1.0000652686796463,-155.22568286962954
6.346374656,1.0000915950986173,-155.4774214358767
6.350547968,1.0001121965542703,-155.72951417355375
6.354720768,1.0001259416507333,-155.98189996276403
6.35889408,1.0001319394888593,-156.23441724918672
6.363067392,1.0001298397952603,-156.48698161651265
6.367240704,1.0001196678290198,-156.73952451811073
6.371413504,1.0001022452120967,-156.99185818676742
6.375586816,1.0000784796706454,-157.2439419201536
6.379760128,1.0000497274080573,-157.49564338441644
6.38393344,1.0000178456826194,-157.74698730233482
6.38810624,0.9999845505484988,-157.9978807112732
6.392279552,0.9999520180237621,-158.24836139421262
6.396452864,0.9999220957583178,-158.49838382597957
6.400626176,0.9998966188499817,-158.74804170973516
6.404798976,0.9998769843938387,-158.9974202732037
6.408972288,0.9998644589121416,-159.24659809365565
6.4131456,0.9998598583163975,-159.49562770281054
6.417318912,0.9998633658983246,-159.74471091053792
6.421491712,0.9998747491974569,-159.9938848725122
6.425665024,0.9998933958894597,-160.2433404072102
6.429838336,0.9999182725385465,-160.4931214984972
6.434011648,0.9999477621071656,-160.74328834729423
6.438184448,0.9999800973877983,-160.9938994529248
6.44235776,1.000013443210962,-161.24502966414715
6.446531072,1.0000458020237557,-161.4966153077009
6.450704384,1.0000751697673358,-161.74865796258675
6.454877184,1.0000998862675579,-162.00112280243084
6.459050496,1.0001183960113949,-162.25389999399135
6.463223808,1.0001296267542503,-162.50691218175047
6.46739712,1.0001329613346692,-162.76002911429143
6.47156992,1.0001281253116459,-163.01320112206824
6.475743232,1.0001153286776387,-163.26623591880806
6.479916544,1.0000954922441543,-163.51908050078544
6.484089856,1.0000697711765487,-163.7716068655115
6.488262656,1.000039623425396,-164.02374116539272
6.492435968,1.000006855080169,-164.2754583746961
6.49660928,0.9999734432381482,-164.52678405080454
6.500782592,0.9999413526685468,-164.77761575757745
6.504955904,0.9999125406764844,-165.0280686004811
6.509128704,0.9998887954423785,-165.27812547774928
6.513302016,0.9998713283752128,-165.5279353828775
6.517475328,0.9998613097526453,-165.77758226485602
6.52164864,0.9998595203213295,-166.0271596789327
6.52582144,0.999865701891664,-166.27678059975426
6.529994752,0.9998796940118639,-166.52658720372528
6.534168064,0.9999007413412409,-166.77662374667005
6.538341376,0.9999273493587753,-167.02703132313522
6.542514176,0.9999582912721744,-167.27788014222008
6.546687488,0.9999913720359066,-167.52918189802176
6.5508608,1.0000247469765589,-167.78095570378852
6.555034112,1.0000564731915969,-168.0332178208146
6.559206912,1.0000845919512613,-168.28594181456378
6.563380224,1.0001074914214418,-168.53900290111645
6.567553536,1.0001237931281304,-168.79239249571398
6.571726848,1.0001324624540973,-169.04596471673156
6.575899648,1.0001329692973908,-169.29962853488044
6.58007296,1.0001254673320812,-169.55326022465354
6.584246272,1.0001100917419568,-169.8067291959876
6.588419584,1.0000879554749673,-170.05998688177957
6.592592384,1.0000604374228217,-170.3128685327136
6.596765696,1.0000289076813496,-170.5653805934085
6.600939008,0.9999955754882391,-170.8174450231453
6.60511232,0.9999621873000706,-171.06907521649862
6.60928512,0.9999309501866342,-171.32024702326245
6.613458432,0.9999035066540992,-171.571009573646
6.617631744,0.9998814693343051,-171.82145220869015
6.621805056,0.9998663951156896,-172.07164730108366
6.625977856,0.9998590939824926,-172.32171139429343
6.630151168,0.9998599242247366,-172.57173675026567
6.63432448,0.9998689226224364,-172.82186522836585
6.638497792,0.9998855407468707,-173.07216716197536
6.642670592,0.9999087044164392,-173.32277595170075
6.646843904,0.9999371179835129,-173.5737766836558
6.651017216,0.9999691344866699,-173.82520188561568
6.655190528,1.0000027155533815,-174.07710913362638
6.65936384,1.0000359240105616,-174.32951009075538
6.66353664,1.0000668388094553,-174.58237476213085
6.667709952,1.0000935831938422,-174.83564115445893
6.671883264,1.0001144301843403,-175.08929592174542
6.676056576,1.000128300524133,-175.34320510093323
6.680229376,1.0001343548420825,-175.5972482713678
6.684402688,1.0001321738466304,-175.8513685858023
6.688576,1.0001218355687262,-176.10537689507194
6.692749312,1.0001041032615767,-176.35921971036666
6.696922112,1.000079783242586,-176.6127837308908
6.701095424,1.0000505165293208,-176.8659804060568
6.705268736,1.000018015102067,-177.11874219886843
6.709442048,0.9999842768017219,-177.371062770324
6.713614848,0.9999512371614714,-177.6229337798799
6.71778816,0.999920805536621,-177.8743807211072
6.721961472,0.999894773666376,-178.1254375656622
6.726134784,0.9998749857525212,-178.37617196603887
6.730307584,0.999862325497944,-178.62671518165962
6.734480896,0.9998577434689231,-178.87712029708925
6.738654208,0.9998613457347285,-179.12753939447828
6.74282752,0.9998729907046102,-179.37810636490335
6.74700032,0.9998919928440808,-179.6288610019638
6.751173632,0.9999172570780297,-179.87998266414297
6.755346944,0.999947200457506,179.86852104583144
6.759520256,0.9999801936595658,179.61655230129162
6.763693056,1.0000140221008333,179.36411298797245
6.767866368,1.0000469023101737,179.11115056332443
6.77203968,1.0000767773086432,178.85775798230668
6.776212992,1.0001018090681504,178.60400404237677
6.780385792,1.0001206445876707,178.34989639278095
6.784559104,1.0001319863596339,178.09554572716752
6.788732416,1.000135249161045,177.84110365447088
6.792905728,1.000130269576704,177.5866498667462
6.797078528,1.0001172873916742,177.33232302660207
6.80125184,1.0000969739870933,177.07819676134966
6.805425152,1.000070842274272,176.82437616016276
6.809598464,1.0000401245150827,176.5709755937143
6.813771264,1.0000066866985757,176.31799279252317
6.817944576,0.9999727408956379,176.06548742070893
6.822117888,0.9999401557667046,175.81344794692268
6.8262912,0.9999109231777444,175.56182034846577
6.830464512,0.9998867617238316,175.31054614904
6.834637312,0.9998691123516077,175.0595663133489
6.838810624,0.9998590403262825,174.80876978523298
6.842983936,0.9998570935448512,174.55805431235606
6.847157248,0.9998634992770116,174.30727972812696
6.851330048,0.9998779112958128,174.05634879155193
6.85550336,0.9998992321341822,173.805165073576
6.859676672,0.9999264712759672,173.5536225206212
6.863849984,0.9999578366320296,173.30166993100605
6.868022784,0.9999915085311306,173.0492466573759
6.872196096,1.0000255120098833,172.796314739135
6.876369408,1.0000577342559285,172.54292603724056
6.88054272,1.0000863195818737,172.28909096691112
6.88471552,1.0001094714357674,172.0348909052363
6.888888832,1.0001259836220517,171.78037592518197
6.893062144,1.000134821903316,171.52570775552599
6.897235456,1.0001353080598763,171.27094004630044
6.901408256,1.0001275017819369,171.016201716575
6.905581568,1.0001118742916322,170.76165362926102
6.90975488,1.0000893049037602,170.50732045610533
6.913928192,1.0000612071032025,170.25334921499132
6.918100992,1.0000293161026528,169.99980803733771
6.922274304,0.9999952669976893,169.7467148736734
6.926447616,0.9999614136418487,169.49409014629268
6.930620928,0.999929525708332,169.24192956809625
6.934793728,0.9999016585477375,168.9901468738335
6.93896704,0.999879410338446,168.73876209180855
6.943140352,0.9998639881658772,168.48759719759468
6.947313664,0.9998566826303864,168.23658478116698
6.951486464,0.9998575327050905,167.98562402032223
6.955659776,0.9998667100606122,167.73458744924997
6.959833088,0.9998837017692497,167.48332983333697
6.9640064,0.9999072861478883,167.23180333520253
6.9681792,0.9999362719544125,166.97987933147715
6.972352512,0.9999687595081601,166.72753543185223
6.976525824,1.000003079551557,166.47469416993314
6.980699136,1.0000368468379275,166.2213776002216
6.984872448,1.0000682513672512,165.9676268301754
6.989045248,1.000095393199296,165.713401534704
6.99321856,1.0001166560545012,165.45884423037867
6.997391872,1.0001306609193477,165.20404787765884
7.001565184,1.0001367607822962,164.9490600165865
7.005737984,1.00013437922399,164.69407753122928
7.009911296,1.0001237960408405,164.43917132990862
7.014084608,1.0001056700160933,164.1844439832351
7.01825792,1.0000809208787351,163.93001426741517
7.02243072,1.0000511461278487,163.6759712446697
7.026604032,1.0000180931412286,163.42237128715482
7.030777344,0.999983644399842,163.1692199552925
7.034950656,0.9999499343163043,162.91654711673968
7.039123456,0.9999191390017949,162.66434104634308
7.043296768,0.9998928052780485,162.41251448688453
7.04747008,0.9998725896425112,162.16102277505388
7.051643392,0.9998597290305187,161.90973398486727
7.055816192,0.9998550312832076,161.6585661099374
7.059989504,0.9998588203221442,161.4074497749529
7.064162816,0.9998708195788247,161.15616663402557
7.068336128,0.9998901634561318,160.90466940109357
7.072508928,0.9999159967542154,160.65285914192089
7.07668224,0.9999465929677475,160.4006285290504
7.080855552,0.9999801401159077,160.14794771908743
7.085028864,1.0000146222048782,159.8947787032324
7.089201664,1.0000480554397178,159.64112734956566
7.093374976,1.0000783736480088,159.38701943098792
7.097548288,1.000103852488534,159.13250264130872
7.1017216,1.000122934343452,158.87770008745616
7.1058944,1.0001344221473734,158.62265600163016
7.110067712,1.0001377173104415,158.3675007452705
7.114241024,1.0001325559981733,158.11235613165593
7.118414336,1.0001192022927632,157.85731819950544
7.122587136,1.0000985857286862,157.60254772598174
7.126760448,1.0000717643145265,157.34811085416806
7.13093376,1.0000404772822722,157.09405850359548
7.135107072,1.0000065918026138,156.8404413925491
7.139279872,0.9999719951989782,156.58735031718257
7.143453184,0.9999388877352813,156.3347057728221
7.147626496,0.9999090891651994,156.0824912362378
7.151799808,0.9998844130828848,155.8306768033759
7.15597312,0.9998666718002038,155.57913663029026
7.16014592,0.9998564532726983,155.32782247986285
7.164319232,0.9998545169138063,155.07654588339267
7.168492544,0.9998612279373192,154.8252786978946
7.172665856,0.9998758646709922,154.57383093056765
7.176838656,0.999897679050749,154.32214028331703
7.181011968,0.9999253963562781,154.07007531190092
7.18518528,0.999957381444301,153.81760425078778
7.189358592,0.999991702208491,153.56467536823115
7.193531392,1.000026349178599,153.31124562585057
7.197704704,1.0000591203202793,153.05732327939347
7.201878016,1.0000882005600054,152.802967983208
7.206051328,1.0001118617962284,152.5482406170185
7.210224128,1.0001285153221022,152.29324164918933
7.21439744,1.0001373774788231,152.03804506204517
7.218570752,1.0001378236462544,151.7827838724456
7.222744064,1.000129666079506,151.52756842048336
7.226916864,1.0001138656732316,151.27251293618184
7.231090176,1.0000907070283755,151.0177494389076
7.235263488,1.0000619777548154,150.7633150309362
7.2394368,1.0000295639443884,150.50934840806912
7.2436096,0.9999948124461567,150.2558402929631
7.247782912,0.9999604234760586,150.0028058404675
7.251956224,0.9999278005706532,149.75024751643443
7.256129536,0.9998994797111844,149.49815994718531
7.260302336,0.9998770218180594,149.24637391909923
7.264475648,0.9998614500074475,148.99489079506424
7.26864896,0.9998539252380391,148.7435419843654
7.272822272,0.9998550505742493,148.49226286010153
7.276995072,0.9998644623461431,148.24088611209012
7.281168384,0.9998817411812619,147.98935704403792
7.285341696,0.999905805610794,147.73750306409497
7.289515008,0.9999353658823665,147.48525029641004
7.293687808,0.9999687108364318,147.23258837925258
7.29786112,1.0000034732544918,146.97943174420737
7.302034432,1.0000379371690349,146.7257934857311
7.306207744,1.0000699708220433,146.47171432438384
7.310381056,1.0000975134516763,146.21719486982516
7.314553856,1.0001190899028687,145.96231806488692
7.318727168,1.0001333462816957,145.707171044304
7.32290048,1.000139409295321,145.45191760009547
7.327073792,1.0001369294531213,145.1966312365205
7.331246592,1.0001259815802874,144.9414198002111
7.335419904,1.0001074384754958,144.6864124611655
7.339593216,1.0000821313882118,144.4317393000466
7.343766528,1.0000518267375686,144.17745375838928
7.347939328,1.0000179883311877,143.92361613822942
7.35211264,0.9999829997015561,143.6702727551624
7.356285952,0.9999487709773094,143.41741037654614
7.360459264,0.9999172399400017,143.16502732091828
7.364632064,0.9998905544397172,142.91301739609207
7.368805376,0.9998700224291749,142.66137594252788
7.372978688,0.9998570925967343,142.40995491638776
7.377152,0.9998523191199816,142.15868268449088
7.3813248,0.9998563700432094,141.90737077873314
7.385498112,0.9998686293411696,141.65600575015253
7.389671424,0.9998884631235658,141.40436710209994
7.393844736,0.9999148380594675,141.15243579821833
7.398017536,0.9999459294690274,140.90010178242034
7.402190848,0.9999802780237692,140.6472731169879
7.40636416,1.000015492220741,140.39399254505017
7.410537472,1.000049504822175,140.14021858058558
7.414710272,1.0000802323945022,139.8859731666031
7.418883584,1.0001062043106839,139.63135554573856
7.423056896,1.0001255116586236,139.37641189111693
7.427230208,1.000137149935448,139.12124551117617
7.431403008,1.0001402666974788,138.86597243235738
7.43557632,1.0001349688131576,138.61073077991296
7.439749632,1.000121229833014,138.35561311513962
7.443922944,1.0001000885904252,138.10075452663543
7.448095744,1.0000727596551002,137.84625188586534
7.452269056,1.000040830385523,137.5921273691213
7.456442368,1.0000061647239702,137.33850807995728
7.46061568,0.9999708314641984,137.085377577939
7.46478848,0.9999371674514594,136.832740426219
7.468961792,0.9999068537561129,136.5805587356941
7.473135104,0.9998819476091708,136.32875963928694
7.477308416,0.9998637288321411,136.07727565743596
7.481481728,0.9998534897271928,135.82600681903799
7.485654528,0.9998517431355606,135.57479939133768
7.48982784,0.9998585513553304,135.32357762962226
7.494001152,0.9998736620254185,135.07220792457133
7.498174464,0.9998961046473612,134.82057561438867
7.502347264,0.999924433728483,134.56860348909558
7.506520576,0.9999570645671777,134.31618861174442
7.510693888,0.999992088236391,134.0632937256385
7.5148672,1.0000273373745077,133.8099275900864
7.51904,1.0000606980692166,133.55606539211783
7.523213312,1.000090261862713,133.30178674290673
7.527386624,1.000114304004724,133.04710199329708
7.531559936,1.0001311297289244,132.7921574781045
7.535732736,1.0001399750214064,132.5370324665274
7.539906048,1.0001403067725918,132.2818520263528
7.54407936,1.0001321141495705,132.02672539839858
7.548252672,1.0001155637265913,131.77176007447605
7.552425472,1.000092028868736,131.5170874133402
7.556598784,1.0000627000386044,131.26281548457783
7.560772096,1.000029364724131,131.00898595143204
7.564945408,0.9999940223104604,130.7556312076194
7.569118208,0.9999588682324034,130.50278909047995
7.57329152,0.9999258614580867,130.2504211045631
7.577464832,0.9998970035481113,129.9984982129149
7.581638144,0.999874038190343,129.74697505709653
7.585810944,0.9998583056337035,129.49570385684657
7.589984256,0.999850901736954,129.2445826567057
7.594157568,0.9998520649967344,128.99355626272632
7.59833088,0.9998619086080612,128.74244492572376
7.60250368,0.9998797149716919,128.49110942660025
7.606676992,0.9999045617361301,128.23952975264166
7.610850304,0.9999347132696086,127.9875526441775
7.615023616,0.9999686242215037,127.73511178186855
7.619196416,1.0000042089210688,127.48219834843842
7.623369728,1.0000393487197583,127.22879865122046
7.62754304,1.00007181110516,126.97492754348968
7.631716352,1.0000997978768322,126.72064268615144
7.635889664,1.0001216821683976,126.4660087911322
7.640062464,1.0001360336237988,126.21113474546164
7.644235776,1.0001419973243815,125.95607724569412
7.648409088,1.0001392618885967,125.70105393451792
7.6525824,1.0001281514082716,125.44611505634042
7.6567552,1.0001089492728013,125.19140407378183
7.660928512,1.0000831245996384,124.93699880808778
7.665101824,1.0000519851778522,124.68302138105263
7.669275136,1.0000175262755566,124.42951709198995
