freq,mag,phase
6.0,1.0009753386953373,-160.6097636820979
6.002287104,1.0008688645922577,-160.77193715369356
6.004574208,1.0007073480286073,-160.93219002365777
6.006861312,1.0005008232225534,-161.08971961592144
6.009147904,1.000262469240747,-161.2439346445532
6.011435008,1.0000073241031693,-161.39454246676274
6.013722112,0.9997516813298326,-161.54143819543202
6.016009216,0.9995115119051372,-161.68463775541386
6.01829632,0.9993023648329464,-161.82457500488943
6.020583424,0.9991372963360715,-161.9617103608982
6.022870016,0.9990268608083769,-162.0968128303192
6.02515712,0.9989780911720288,-162.23075177877524
6.027444224,0.9989941938686334,-162.3643765788789
6.029731328,0.9990740955328334,-162.49866833125586
6.032018432,0.9992127400047359,-162.63449810173793
6.034305536,0.9994012417120602,-162.77268955137083
6.036592128,0.9996278176935977,-162.91386988680557
6.038879232,0.9998778601118191,-163.05846333245606
6.041166336,1.0001357114312799,-163.20670371205543
6.04345344,1.0003850207312834,-163.3586196134956
6.045740544,1.0006097821408018,-163.51395806823905
6.048027648,1.0007959261329504,-163.67220056060452
6.05031424,1.0009316967077104,-163.8327435592074
6.052601344,1.001008346334911,-163.99483941204096
6.054888448,1.0010211555959392,-164.15746735353144
6.057175552,1.0009691311842701,-164.31981859462638
6.059462656,1.000855738024731,-164.48098656875763
6.06174976,1.0006880970961602,-164.6399964427994
6.064036352,1.0004766440989838,-164.79626165455392
6.066323456,1.000234954035658,-164.94920602012132
6.06861056,0.999978181399924,-165.09845311708713
6.070897664,0.9997226592185507,-165.2439778465613
6.073184768,0.9994846005675275,-165.38581403998566
6.075471872,0.9992791454759126,-165.5244203428958
6.077758464,0.9991192428089115,-165.66035901101012
6.080045568,0.999015325577309,-165.79427777492342
6.082332672,0.9989737680158208,-165.92714118794026
6.084619776,0.9989973167184072,-166.05979278655585
6.08690688,0.9990843577376739,-166.19323658016327
6.089193984,0.9992296676190154,-166.32829673888745
6.091481088,0.9994238024958102,-166.46581559508166
6.09376768,0.9996544269470599,-166.60638282320605
6.096054784,0.9999070401152442,-166.7504175597236
6.098341888,1.0001654302509309,-166.8981559717437
6.100628992,1.0004134072825472,-167.04953212548224
6.102916096,1.0006352016358517,-167.20426117302276
6.1052032,1.0008167011392102,-167.3618843519705
6.107489792,1.0009464031741897,-167.521762473977
6.109776896,1.0010161339724473,-167.68301639687652
6.112064,1.0010214921558418,-167.84481046432668
6.114351104,1.0009620930158571,-168.00613729607736
6.116638208,1.0008416568756981,-168.1661274508944
6.118925312,1.000667837553196,-168.32396819498848
6.121211904,1.0004516170010325,-168.47892146288987
6.123499008,1.0002066781441772,-168.630472126163
6.125786112,0.9999484534408382,-168.77837229699293
6.128073216,0.999693359065017,-168.92245739247633
6.13036032,0.9994575328258203,-169.06297293696258
6.132647424,0.9992561324475386,-169.20021141872817
6.134934016,0.9991017800133706,-169.33484182717658
6.13722112,0.9990044101780843,-169.46758871129276
6.139508224,0.998970226076709,-169.5993540714197
6.141795328,0.9990012607897445,-169.7310426568361
6.144082432,0.9990957710346504,-169.86361252923817
6.146369536,0.9992475626669359,-169.99788699192874
6.148656128,0.9994472483761108,-170.13475298572718
6.150943232,0.9996818834307314,-170.27468438039335
6.153230336,0.999936740587325,-170.418202016693
6.15551744,1.0001955731396,-170.5653939397189
6.157804544,1.0004420683222537,-170.7161794339919
6.160091648,1.0006605208773605,-170.87031385482558
6.162378752,1.0008369730438997,-171.0273105876844
6.164665344,1.0009605413753127,-171.1864171549332
6.166952448,1.0010232265215127,-171.34686207077598
6.169239552,1.0010209743860752,-171.50769579686292
6.171526656,1.0009540368512113,-171.66798096447792
6.17381376,1.000826514582331,-171.82682756241437
6.176100864,1.0006465948770058,-171.98339626829673
6.178387456,1.000425560876744,-172.1370135283184
6.18067456,1.0001774838436195,-172.2871914408314
6.182961664,0.9999179745881862,-172.43364115193512
6.185248768,0.9996635311099376,-172.57629041805816
6.187535872,0.9994302941104795,-172.7153794046941
6.189822976,0.9992331480210307,-172.85127151688212
6.192109568,0.9990845620616166,-172.9846139525365
6.194396672,0.9989939981300532,-173.11616179087804
6.196683776,0.9989673018492905,-173.2468217164193
6.19897088,0.9990060084532878,-173.37753610583087
6.201257984,0.9991078907347728,-173.50922391686467
6.203545088,0.9992664376419662,-173.6427715928165
6.20583168,0.9994714501537635,-173.77890994758525
6.208118784,0.99971003383036,-173.91824865162624
6.210405888,0.9999670086359452,-174.0611405805127
6.212692992,1.000226057469246,-174.2077846557517
6.214980096,1.0004707896886778,-174.35800897780763
6.2172672,1.0006856347212896,-174.51154475743286
6.219553792,1.0008569927149042,-174.66785522889538
6.221840896,1.0009740868654535,-174.82619549459628
6.224128,1.001029380029776,-174.98573131778096
6.226415104,1.0010193835269245,-175.14561816412785
6.228702208,1.0009447684063604,-175.30483279374286
6.230989312,1.000810336769373,-175.46246067944423
6.233275904,1.0006242103148624,-175.6177398354934
6.235563008,1.0003985696491067,-175.76998048859392
6.237850112,1.0001475355802558,-175.9187466207201
6.240137216,0.9998868946169834,-176.06373901086334
6.24242432,0.999633487442386,-176.20494070469127
6.244711424,0.9994030302386459,-176.34259273531018
6.246998528,0.9992104500506198,-176.4771004577046
6.24928512,0.9990678308305689,-176.60914572006337
6.251572224,0.9989844334964971,-176.73948055615008
6.253859328,0.9989653342902045,-176.86905259041663
6.256146432,0.9990119563791987,-176.9987262456963
6.258433536,0.9991213441831063,-177.12954888087523
6.26072064,0.9992863951504934,-177.2623066068355
6.263007232,0.9994968120923083,-177.3977695265811
6.265294336,0.9997392019831272,-177.53648544618147
6.26758144,0.9999980178268768,-177.67882616250543
6.269868544,1.0002570519543204,-177.82484541097494
6.272155648,1.0004997226562695,-177.9744768181043
6.274442752,1.0007107283316983,-178.1274081188598
6.276729344,1.0008766234252737,-178.2830043757287
6.279016448,1.0009870435276327,-178.44056760569822
6.281303552,1.0010347875792467,-178.59923195528012
6.283590656,1.0010169169181105,-178.75808779757796
6.28587776,1.0009346216296375,-178.9161816764649
6.288164864,1.0007929443309296,-179.07261033924115
6.290451456,1.000601024781362,-179.2265567489126
6.29273856,1.0003707902880408,-179.3774150498067
6.295025664,1.0001169055464114,-179.52469434720118
6.297312768,0.9998554728636591,-179.6682232753348
6.299599872,0.9996031644976857,-179.80795580131158
6.301886976,0.9993758185182571,-179.94412604802739
6.304173568,0.9991879600097684,179.92276759579198
6.306460672,0.9990516555851265,179.79202573012736
6.308747776,0.9989755179763206,179.66292023713845
6.31103488,0.998964384247492,179.534451522649
6.313321984,0.9990188786535185,179.40573613994724
6.315609088,0.9991358470078515,179.2758218968562
6.317896192,0.9993076171372174,179.14383937460963
6.320182784,0.9995232220270676,179.00905441343969
6.322469888,0.9997692315656879,178.87098362888213
6.324756992,1.0000298171537616,178.72925673721667
6.327044096,1.0002884468394198,178.5837836616709
6.3293312,1.0005287948465507,178.434719942143
6.331618304,1.000735699254309,178.28246388641503
6.333904896,1.000895978391575,178.12758349640296
6.336192,1.0009993902372238,177.97083207883907
6.338479104,1.001039416721287,177.813062339545
6.340766208,1.0010134576289975,177.65525242016474
6.343053312,1.0009233207204473,177.49829417122862
6.345340416,1.0007745246499977,177.34314756843273
6.347627008,1.0005765410157066,177.1905476310738
6.349914112,1.0003419217320553,177.04111335990328
6.352201216,1.0000854711225047,176.89531369546089
6.35448832,0.9998233736400095,176.75330472846167
6.356775424,0.9995723395777871,176.61507551511764
6.359062528,0.9993485098820644,176.4803340625249
6.36134912,0.9991658457237631,176.34866264741603
6.363636224,0.9990360441317759,176.2192456815682
6.365923328,0.998967379019138,176.09135137547636
6.368210432,0.9989642655446371,175.96398730778512
6.370497536,0.9990269090619187,175.83630717252706
6.37278464,0.9991513995224494,175.70724064554054
6.375071232,0.9993297793826602,175.57600735705418
6.377358336,0.9995506504093039,175.44194084519856
6.37964544,0.9997999072765206,175.30450428561653
6.381932544,1.0000621421411142,175.16333500016137
6.384219648,1.0003201981960368,175.01847509765335
6.386506752,1.0005580956671936,174.87001145803143
6.388793344,1.0007605291562391,174.71841691468117
6.391080448,1.0009147053749368,174.56425283892915
6.393367552,1.0010108399403952,174.40835503200293
6.395654656,1.0010430717631555,174.25151432344543
6.39794176,1.0010088472095826,174.0947580873585
6.400228864,1.0009109216381957,173.9390186071977
6.402515968,1.0007549506156141,173.7851244138768
6.40480256,1.0005511384769534,173.6338948952112
6.407089664,1.0003121093125564,173.48592216295054
6.409376768,1.0000532368786506,173.3416160897431
6.411663872,0.9997909011071209,173.20114278254152
6.413950976,0.9995416184540635,173.06443648042674
6.41623808,0.999321339335626,172.93118564675453
6.418524672,0.9991439537482588,172.80090500302327
6.420811776,0.9990210556573362,172.67281150733987
6.42309888,0.9989601585941398,172.54612778186723
6.425385984,0.998965232579899,172.41992395812716
6.427673088,0.9990361719854466,172.29317450332957
6.429960192,0.9991681376240892,172.16498811724094
6.432246784,0.9993531174666744,172.03454796275486
6.434533888,0.9995789707837808,171.9011513049241
6.436820992,0.9998316394499026,171.76430194700296
6.439108096,1.0000950719748112,171.6237702045421
6.4413952,1.0003523322061758,171.47949189176202
6.443682304,1.000587298878102,171.33163982078534
6.445968896,1.0007850597024783,171.18070261763867
6.448256,1.000933030356118,171.02729192480112
6.450543104,1.0010216864643464,170.87221495089395
6.452830208,1.0010457007089455,170.71635671082794
6.455117312,1.0010033666133717,170.56068714203843
6.457404416,1.0008971664289361,170.40610592227378
6.459691008,1.0007341662771785,170.2535625785177
6.461978112,1.0005244623098084,170.10375405546142
6.464265216,1.0002814130581517,169.95722926785717
6.46655232,1.000020226443785,169.81446824764683
6.468839424,0.9997577356065115,169.67552197067752
6.471126528,0.9995105379572332,169.54033740094113
6.473413632,0.999294207945798,169.40859578071118
6.475700224,0.9991226745435172,169.2797133742387
6.477987328,0.9990067501147472,169.15298589232853
6.480274432,0.9989537609337121,169.0275037510006
6.482561536,0.9989673817245064,168.9023864891804
6.48484864,0.999046509377812,168.77657742660523
6.487135744,0.9991860926167231,168.6492914543629
6.489422336,0.9993775327743771,168.51961095763554
6.49170944,0.9996083847038355,168.38686458087318
6.493996544,0.9998642391187786,168.25064736501642
6.496283648,1.0001286108763865,168.11068629652655
6.498570752,1.000384841199589,167.9669917010982
6.500857856,1.0006166120376168,167.81976808910315
6.503144448,1.0008093957761228,167.66950129629177
6.505431552,1.0009507370645363,167.51685266453552
6.507718656,1.0010317160018998,167.3626492015621
6.51000576,1.001047309432424,167.20778417751166
6.512292864,1.000996426924389,167.0531916193693
6.514579968,1.000882299726996,166.89985708486356
6.51686656,1.0007121369788927,166.748649759089
6.519153664,1.0004967456899365,166.60023342684184
6.521440768,1.0002495909646676,166.4552468511939
6.523727872,0.9999866053926204,166.31399255095286
6.526014976,0.9997242661854797,166.17661795175238
6.52830208,0.9994793250055706,166.0430014656855
6.530588672,0.9992672129053913,165.91270770772854
6.532875776,0.9991015366521102,165.78525264750093
6.53516288,0.9989931199506711,165.65986302775363
6.537449984,0.998948317828314,165.53560058306732
6.539737088,0.9989705154930781,165.41155108126694
6.542024192,0.9990579610513277,165.28671623406575
6.544310784,0.9992054063077616,165.16027355259746
6.546597888,0.9994032151721252,165.03132252368889
6.548884992,0.9996389701588219,164.89925342745582
6.551172096,0.9998975503176308,164.76366574822845
6.5534592,1.0001627593688545,164.62425033563227
6.555746304,1.0004175829467465,164.48112712759468
6.558033408,1.0006459536081287,164.33455243250225
6.56032,1.0008332439480454,164.18498774224187
6.562607104,1.0009677545905755,164.033065138336
6.564894208,1.0010407673148447,163.87974187676673
6.567181312,1.0010478552683642,163.7258960775581
6.569468416,1.000988419288401,163.57241145051313
6.57175552,1.000866182128233,163.42032461094618
6.574042112,1.0006890391338894,163.27046006012108
6.576329216,1.0004678774465612,163.1235138490972
6.57861632,1.0002169923545394,162.98004286429654
6.580903424,0.999952133030235,162.84033879857492
6.583190528,0.9996902910666643,162.70453622700356
6.585477632,0.9994478501609094,162.57245514303057
6.587764224,0.9992405207534915,162.44367965615263
6.590051328,0.9990812013486109,162.31765684147507
6.592338432,0.9989802110958831,162.19351175783882
6.594625536,0.9989441042055189,162.07048803765005
6.59691264,0.9989748400116812,161.94751378808147
6.599199744,0.9990708198554075,161.8236639072074
6.601486336,0.9992258457617499,161.69799696734108
6.60377344,0.9994300325554167,161.569786206855
6.606060544,0.9996704082157885,161.43837627184826
6.608347648,0.999931768896573,161.3033437960662
6.610634752,1.0001975306742161,161.1645036841099
6.612921856,1.0004506136208282,161.02197253623282
6.615208448,1.0006751060830956,160.8760065660604
6.617495552,1.0008568906938984,160.7271107536069
6.619782656,1.0009841847051062,160.57601378022892
6.62206976,1.001049007683191,160.4235667150414
6.624356864,1.0010473086852567,160.27072050543572
6.626643968,1.0009791197817446,160.11842081198185
6.628931072,1.0008488122854322,159.9675717311032
6.631217664,1.00066447406578,159.819099026399
6.633504768,1.0004379004173727,159.67361097235903
6.635791872,1.000183411894976,159.53165274172954
6.638078976,0.9999171201521694,159.39355119308524
6.64036608,0.9996559813834371,159.25930603624408
6.642653184,0.9994165894508207,159.12877174039255
6.644939776,0.9992140733619055,159.00151078382876
6.64722688,0.9990613473352976,158.87686391482254
6.649513984,0.9989682584004776,158.75405142602963
6.651801088,0.9989407212738671,158.63218820552842
6.654088192,0.9989804675028561,158.51026463412637
6.656375296,0.9990850232754338,158.3873366411777
6.658661888,0.9992476988354362,158.2625236707167
6.660948992,0.9994582007490019,158.1349820497324
6.663236096,0.9997030320025261,158.00422899938428
6.6655232,0.9999667690175505,157.8697694104666
6.667810304,1.0002326532478012,157.73149895205657
6.670097408,1.000483884726255,157.5895203049565
6.672384,1.0007041776700194,157.44417500778235
6.674671104,1.0008798865082347,157.2959566041212
6.676958208,1.0009997630063765,157.1456627604278
6.679245312,1.0010562039181743,156.9941399925837
6.681532416,1.0010456101841925,156.84228856497495
6.68381952,1.0009686747783098,156.69112930483936
6.686106112,1.0008301529177281,156.54159425538998
6.688393216,1.0006387164288921,156.39447578795603
6.69068032,1.0004068434741424,156.25049132137576
6.692967424,1.0001489920816935,156.11009535701868
6.695254528,0.9998814921605956,155.97356943737066
6.697541632,0.999621341882203,155.84088961113696
6.699828224,0.9993851881998034,155.7119133921316
6.702115328,0.9991879420224371,155.58614318221385
6.704402432,0.9990423062294793,155.46289068151228
6.706689536,0.998957320241502,155.34137903345984
6.70897664,0.9989385511658496,155.2207021370767
6.711263744,0.998987416564684,155.09978739190905
6.713550848,0.9991004955370341,154.97776500822724
6.71583744,0.9992708723535232,154.8537326957836
6.718124544,0.9994875534301971,154.72690601619962
6.720411648,0.9997367516630242,154.59671364739395
6.722698752,1.0000026898189538,154.46283705039352
6.724985856,1.000268433389713,154.32511137131596
6.72727296,1.0005170696760355,154.18374122454148
6.729559552,1.0007330690123815,154.03895075381453
6.731846656,1.0009023853427848,153.8914754011159
6.73413376,1.0010146125155002,153.741966576535
6.736420864,1.0010623728710764,153.5913195941767
6.738707968,1.0010426425526666,153.44055571891926
6.740995072,1.0009567050207118,153.29056213589715
6.743281664,1.0008100299166551,153.1423094289655
6.745568768,1.0006119022468938,152.99662469823312
6.747855872,1.0003746880719846,152.8541162887176
6.750142976,1.0001135767686522,152.7152626228559
6.75243008,0.9998452005119431,152.58031780200318
6.754717184,0.9995865184282221,152.44924796175349
6.757003776,0.9993538372458991,152.32180727774852
6.75929088,0.9991622415619144,152.19749313776586
6.761577984,0.9990237328563533,152.07564152405683
6.763865088,0.9989473214477127,151.95539592837494
6.766152192,0.9989376723283865,151.83583957516146
6.768439296,0.9989956219878104,151.71598955002816
6.770725888,0.9991173651782591,151.59483946904498
6.773012992,0.9992952851539607,151.47156380452623
6.775300096,0.9995178592775106,151.34540860449047
6.7775872,0.9997712241684475,151.2158087407261
6.779874304,1.0000390355808833,151.08248199953823
6.782161408,1.0003045224138947,150.9452866379556
6.784448512,1.0005505211804258,150.8044588076326
6.786735104,1.0007616776567372,150.6603088765599
6.789022208,1.0009243827100776,150.51351080425584
6.791309312,1.0010285376357442,150.36477857291072
6.793596416,1.0010673365656566,150.2151020480079
6.79588352,1.0010383521853143,150.06536857476343
6.798170624,1.0009433890965276,149.91656045411182
6.800457216,1.0007886057668907,149.76959570656285
6.80274432,1.0005835986101896,149.62530837065717
6.805031424,1.0003413382969901,149.48432541253868
6.807318528,1.0000774145192524,149.34707323997185
6.809605632,0.9998083631753556,149.2137042514146
6.811892736,0.9995512069909298,149.08422607581525
6.814179328,0.999322621097679,148.9583316088693
6.816466432,0.9991369735387773,148.83548360657625
6.818753536,0.9990060055634463,148.71503215857192
6.82104064,0.9989382389535267,148.59602738787288
6.823327744,0.9989378602751877,148.4775817252339
6.825614848,0.999005145891776,148.35872271508168
6.82790144,0.9991355940505663,148.2384081799773
6.830188544,0.9993211030894598,148.1158632585769
6.832475648,0.9995495098417299,147.99034581010864
6.834762752,0.9998068940834143,147.86133175054076
6.837049856,1.000076247194399,147.7285029266571
6.83933696,1.00034090688796,147.5918705279433
6.841623552,1.000583982866131,147.4515532594896
6.843910656,1.0007898287941281,147.3080219897166
6.84619776,1.000945608135219,147.16188452499125
6.848484864,1.0010413436927301,147.01398006820375
6.850771968,1.0010709742620987,146.86522749514478
6.853059072,1.0010325861985003,146.71654442844158
6.855345664,1.000928651582436,146.56895405500944
6.857632768,1.000765568169935,146.42335538508223
6.859919872,1.000553857307797,146.28048779312135
6.862206976,1.0003069613650226,146.14100963199587
6.86449408,1.0000403281612003,146.0052990552418
6.866781184,0.9997708686904173,145.87354252074508
6.869068288,0.999515962300424,145.74561588077603
6.87135488,0.9992916467280218,145.62125865633485
6.873641984,0.9991121754869962,145.49988815244097
6.875929088,0.9989891434672199,145.3807893704963
6.878216192,0.9989305272939856,145.26302028328166
6.880503296,0.9989395515734845,145.14567979558183
6.8827904,0.9990161628180967,145.027748039995
6.885076992,0.9991553801626386,144.90828093516356
6.887364096,0.9993483017733165,144.786461443247
6.8896512,0.9995824983599009,144.66153455224227
6.891938304,0.9998433854123537,144.53307096900937
6.894225408,1.000114217406952,144.400761394128
6.896512512,1.0003777960523066,144.26458657055292
6.898799104,1.0006174449525176,144.12480397364956
6.901086208,1.0008176668381348,143.98186744093988
6.903373312,1.000966233838837,143.83644499515498
6.905660416,1.0010533950285387,143.68935175820226
6.90794752,1.0010735049102772,143.54153760046182
6.910234624,1.0010256328336167,143.39394380398647
6.912521216,1.0009126236402468,143.24755646109435
6.91480832,1.0007413652127162,143.10324683457375
6.917095424,1.0005230529929126,142.9618532731279
6.919382528,1.0002715021188338,142.82390058975457
