freq,mag,phase
6.0,0.9999982707844072,23.988452123876293
6.041451008,0.9999973504946614,22.904173492252355
6.082901504,0.9999966294643371,21.819779151155025
6.124352512,0.9999960079125504,20.735244683187947
6.165803008,0.9999955633840504,19.650568163630602
6.207254016,0.9999952398351248,18.56577820737326
6.248704512,0.9999950703887672,17.48086934313678
6.29015552,0.999995160754673,16.39581288656468
6.331606016,0.9999953885966456,15.31061590007139
6.373057024,0.9999956475406786,14.225304992857852
6.41450752,0.9999961752783797,13.139834925401876
6.455958528,0.9999968478477316,12.054196883667261
6.497409536,0.999997653973702,10.968484457348039
6.538860032,0.9999986638080917,9.882601689100875
6.58031104,0.9999997439807562,8.796578752559547
6.621761536,1.0000010006795823,7.7103879934502695
6.663212544,1.00000219930729,6.62405659940176
6.70466304,1.0000035748894847,5.537595403274565
6.746114048,1.0000049999945944,4.450942567243216
6.787564544,1.00000641923175,3.3641508816343695
6.829015552,1.0000079079433017,2.2772312516647863
6.87046656,1.0000093710648899,1.1901205909962917
6.911917056,1.0000107910566567,0.10287502764103207
6.953368064,1.0000121972318077,-0.9844902769448044
6.99481856,1.0000134010124757,-2.0720413618307587
7.036269568,1.0000146351749446,-3.1597687107789194
7.077720064,1.0000157884561705,-4.247599364083002
7.119171072,1.0000166754952933,-5.335628280006816
7.160621568,1.0000175332209604,-6.423771713691384
7.202072576,1.0000182182951556,-7.512120449507746
7.243523072,1.000018656019248,-8.600590402165732
7.28497408,1.0000189649775115,-9.689224263979442
7.326425088,1.0000191230042,-10.777989845237236
7.367875584,1.0000190048848399,-11.866957817268506
7.409326592,1.0000187167295247,-12.956022924780022
7.450777088,1.0000182392526538,-14.04526826511693
7.492228096,1.0000176388476696,-15.13462987962402
7.533678592,1.0000167788762144,-16.22414450763517
7.5751296,1.0000158924268916,-17.3138526604694
7.616580096,1.0000147121133511,-18.40368911423582
7.658031104,1.000013494980313,-19.49363892161307
7.699482112,1.0000120577768505,-20.583749349641113
7.740932608,1.0000104714312048,-21.674041415163945
7.782383616,1.0000089886710108,-22.764451813696574
7.823834112,1.000007311793993,-23.854983228639746
7.86528512,1.0000055968667445,-24.945679317931788
7.906735616,1.0000039980202156,-26.036553065713456
7.948186624,1.0000022499534735,-27.12754580248646
7.98963712,1.0000006742836374,-28.218671224478957
8.031088128,0.9999990842533409,-29.30996464876205
8.072538624,0.9999975698535971,-30.401416978728275
8.113989632,0.9999961907028673,-31.49302342174171
8.15544064,0.9999950619308471,-32.5847461409942
8.196891136,0.9999939843866115,-33.6766592101595
8.238342144,0.999992998947783,-34.768710818327506
8.27979264,0.9999923598497094,-35.860900000097736
8.321243648,0.9999917605572011,-36.95327789657371
8.362694144,0.9999914441165958,-38.04580937104628
8.404145152,0.9999913340169923,-39.138513953603955
8.445595648,0.9999914761445832,-40.23134293016604
8.487046656,0.9999917870807734,-41.32437658513007
8.528497664,0.9999923418273745,-42.417570841321236
8.56994816,0.9999931737430747,-43.510925765260936
8.611398656,0.999994142727664,-44.604439486023814
8.652850176,0.9999953230649352,-45.69816427495354
8.694300672,0.999996581711237,-46.79204180036862
8.735751168,0.9999981448311233,-47.88608600232702
8.777201664,0.9999997001726365,-48.98034360788753
8.818653184,1.00000149596856,-50.07475103273922
8.86010368,1.0000033238316317,-51.16936490902081
8.901554176,1.0000052118274056,-52.26412680515818
8.943004672,1.0000071291169221,-53.3591045967963
8.984456192,1.0000090167390792,-54.45425411718679
9.025906688,1.0000110114213263,-55.549572337474174
9.067357184,1.0000127860879953,-56.64509714183037
9.108808704,1.0000146128120244,-57.74080024011659
9.1502592,1.0000163558814834,-58.83666868639894
9.191709696,1.0000178268776307,-59.93274931281559
9.233160192,1.0000192586494652,-61.02898305708609
9.274611712,1.0000204810302749,-62.12541885643856
9.316062208,1.0000214460412833,-63.22204746838465
9.357512704,1.0000223290637558,-64.31884806217505
9.398964224,1.0000228565285416,-65.4158110386012
9.44041472,1.0000231264537798,-66.51299743789308
9.481865216,1.0000231434825142,-67.6103216419794
9.523315712,1.00002307044256,-68.70782707684688
9.564767232,1.000022543864475,-69.80549842718214
9.606217728,1.000021883926003,-70.90337183401176
9.647668224,1.0000208784124336,-72.00139538586552
9.68911872,1.000019654648188,-73.0995925891443
9.73057024,1.0000182673626514,-74.1979555670107
9.772020736,1.0000166180325254,-75.29647853758672
9.813471232,1.0000148129820157,-76.39516163647971
9.854922752,1.0000128783287625,-77.49402249566909
9.896373248,1.0000107325306273,-78.59304360375697
9.937823744,1.0000086205455,-79.69222744697333
9.97927424,1.0000062876389184,-80.79157785888455
10.02072576,1.0000040173612375,-81.89109813558858
10.062176256,1.000001634101085,-82.99077577531123
10.103626752,0.9999993456071046,-84.0906020424082
10.145077248,0.9999972028225605,-85.19061501495561
10.186528768,0.9999950241739725,-86.29077302318626
10.227979264,0.9999930412853093,-87.3911016112015
10.26942976,0.9999911630238437,-88.49158809501485
10.31088128,0.999989499621558,-89.59225378234355
10.352331776,0.9999880493438454,-90.69309680790666
10.393782272,0.9999868913111638,-91.79407973886548
10.435232768,0.9999859495213832,-92.89526779332627
10.476684288,0.9999852155624193,-93.99662573540355
10.518134784,0.9999848128123732,-95.09812905436125
10.55958528,0.9999847670319116,-96.19982250982503
10.601035776,0.9999849480064525,-97.30171534386048
10.642487296,0.9999855219548052,-98.4037938226384
10.683937792,0.9999862947433685,-99.50603581972531
10.725388288,0.9999874313633699,-100.60846989041855
10.766839808,0.9999887079366463,-101.71111139468279
10.808290304,0.9999904755564072,-102.8139202471394
10.8497408,0.9999923248963889,-103.91692263143752
10.891191296,0.9999944027384476,-105.02014240460547
10.932642816,0.9999967111121546,-106.12354638739167
10.974093312,0.9999992430273447,-107.2271340086537
11.015543808,1.0000017636614458,-108.33093324351655
11.056995328,1.0000044583595844,-109.43494519622823
11.098445824,1.0000071987139636,-110.5391437479331
11.13989632,1.0000099045097768,-111.6435266956567
11.181346816,1.0000126689654638,-112.74814462793847
11.222798336,1.0000152159811515,-113.8529589103174
11.264248832,1.0000177839472064,-114.95793870587065
11.305699328,1.0000201899338823,-116.06314899476436
11.347149824,1.0000223443666822,-117.16856752420759
11.388601344,1.00002432245308,-118.27417270998838
11.43005184,1.000026013880594,-119.37996947165851
11.471502336,1.0000274785671164,-120.48595969224178
11.512953856,1.000028655538704,-121.59214718168862
11.554404352,1.000029468321213,-122.69852835151234
11.595854848,1.000029910946671,-123.80508836848321
11.637305344,1.0000300124788288,-124.911847048233
11.678756864,1.000029811953852,-126.01876476754832
11.72020736,1.0000291260164036,-127.125885165673
11.761657856,1.0000281943471567,-128.23317407301244
11.803108352,1.000026857138942,-129.34064679616242
11.844559872,1.000025154641511,-130.44827303095306
11.886010368,1.0000231823085721,-131.5560794932019
11.927460864,1.0000208979053928,-132.66408094606595
11.968912384,1.0000183348074179,-133.77222082059734
12.01036288,1.0000156017603348,-134.88052773960945
12.051813376,1.0000126128255058,-135.98900155040806
12.093263872,1.0000095101457795,-137.09762547506543
12.134715392,1.0000061771723179,-138.20641454781583
12.176165888,1.0000029081505444,-139.31537054985924
12.217616384,0.9999995674937103,-140.4244719627199
12.25906688,0.9999962720962494,-141.5337395524216
12.3005184,0.9999930066865056,-142.643167535365
12.341968896,0.9999898580745634,-143.75274867459743
12.383419392,0.9999869670315589,-144.8625009501689
12.424870912,0.9999842807849261,-145.97239402073959
12.466321408,0.9999817627459733,-147.08246275578065
12.507771904,0.9999795835128537,-148.19268914847174
12.5492224,0.9999777810841664,-149.30307212761596
12.59067392,0.9999762534299925,-150.4136386505372
12.632124416,0.9999752259257952,-151.52436410616036
12.673574912,0.9999745822079638,-152.63525709314106
12.715025408,0.9999743180662042,-153.74633036826083
12.756476928,0.9999745822989391,-154.85758782671363
12.797927424,0.9999752437552941,-155.96901849697298
12.83937792,0.9999763428599395,-157.0806299003358
12.88082944,0.9999778895091191,-158.1924158087142
12.922279936,0.9999798792767235,-159.30440826920636
12.963730432,0.999982213463135,-160.41657846619302
13.005180928,0.9999849715505514,-161.52894527954425
13.046632448,0.9999880306347594,-162.64152101317222
13.088082944,0.9999914345561242,-163.75427432407164
13.12953344,0.99999502474335,-164.86723080350444
13.17098496,0.9999988217384385,-165.98039425444827
13.212435456,1.0000028425377097,-167.093766531575
13.253885952,1.0000069706661894,-168.20733195464186
13.295336448,1.0000110837869602,-169.32110219288944
13.336787968,1.0000153090490662,-170.43506526806834
13.378238464,1.0000193961982158,-171.54924727634713
13.41968896,1.0000233466192698,-172.66362372241872
13.461139456,1.0000270346297164,-173.7782081816505
13.502590976,1.0000306319450256,-174.89297527784524
13.544041472,1.0000336590261893,-176.00794486526394
13.585491968,1.0000364971457087,-177.12311490616446
13.626943488,1.0000389003029782,-178.23848779814958
13.668393984,1.0000409686547143,-179.3540202107293
13.70984448,1.0000423155256442,179.5302304153073
13.751294976,1.0000433289049253,178.41431609615898
13.792746496,1.0000438720636557,177.29822980523798
13.834196992,1.000043686906962,176.1819518177526
13.875647488,1.0000430345823537,175.0655143172
13.917097984,1.0000417563238433,173.94891251652834
13.958549504,1.000039936084948,172.83215825500707
14.0,1.000037547851192,171.71524276473215
