freq,mag,phase
6.0,1.0002568970147299,-16.604053434387147
6.01282048,1.0000832634947117,-17.062612044913607
6.02564096,0.9999069754182967,-17.519273599968216
6.03846144,0.9997350274748796,-17.97393402012731
6.05128192,0.9995754659706021,-18.426796616398512
6.0641024,0.9994359361897315,-18.87801628275681
6.07692288,0.9993227510627913,-19.32788353694346
6.08974336,0.9992414782841916,-19.77680490906097
6.102564352,0.9991959567078486,-20.22514883057022
6.115384832,0.999188335076932,-20.673423679774874
6.128205312,0.9992190738442994,-21.12204927104016
6.141025792,0.9992868832852373,-21.571564844775715
6.153846272,0.9993886082090182,-22.02231326068044
6.166666752,0.9995195970889074,-22.47479228529255
6.179487232,0.9996735128547429,-22.92931095277497
6.192307712,0.9998432831229196,-23.386076886203575
6.205128192,1.0000212737556964,-23.845255624025622
6.217948672,1.0001987429849737,-24.30692371865066
6.230769152,1.0003677484142772,-24.770949991942604
6.243589632,1.0005199755298857,-25.237270697425977
6.256410112,1.0006485182551093,-25.70556220851032
6.269230592,1.0007474155251654,-26.175608775903232
6.282051072,1.000811550427496,-26.646846856204817
6.294871552,1.0008383060720512,-27.118951108424998
6.307692544,1.0008261796340614,-27.59138537207461
6.320513024,1.0007756645043204,-28.063714135054532
6.333333504,1.0006889858396943,-28.535483394191555
6.346153984,1.0005702792280222,-29.006186602390375
6.358974464,1.000424831297528,-29.47552625081823
6.371794944,1.0002596702003461,-29.943173842277826
6.384615424,1.000082130378365,-30.408991476895967
6.397435904,0.9999007611244378,-30.872831760481226
6.410256384,0.9997238227650068,-31.3346234611711
6.423076864,0.9995599174425505,-31.794587185361845
6.435897344,0.9994165299599203,-32.252891201969405
6.448717824,0.999300496178726,-32.70980639916518
6.461538304,0.9992174143145173,-33.165724695647995
6.474358784,0.9991710217544101,-33.6211439883354
6.487179264,0.9991637679537524,-34.07639742824966
6.499999744,0.9991959443479154,-34.53211793814981
6.512820736,0.9992661733364915,-34.98873546255573
6.525641216,0.9993713964872517,-35.44662689435698
6.538461696,0.9995064587163773,-35.90631727505181
6.551282176,0.9996653840857435,-36.36807460643158
6.564102656,0.9998405113135506,-36.832236120632025
6.576923136,1.000023792695908,-37.298844402425594
6.589743616,1.0002065287104018,-37.76797961270967
6.602564096,1.0003806794814738,-38.23965087452101
6.615384576,1.0005374272332577,-38.71360911190943
6.628205056,1.000669719822389,-39.18969275364143
6.641025536,1.000771279672614,-39.66747855997592
6.653846016,1.0008373263720378,-40.14654346440394
6.666666496,1.0008647186893729,-40.62650726903149
6.679486976,1.0008519962650284,-41.106837306522166
6.692307456,1.0007996921211726,-41.587041236504945
6.705128448,1.0007103247541738,-42.06665432352393
6.717948928,1.000587752320953,-42.545222849873824
6.730769408,1.0004377441170251,-43.022349853738085
6.743589888,1.0002672235227854,-43.49778560024381
6.756410368,1.0000841375916651,-43.97125778563302
6.769230848,0.9998969773958228,-44.44275374250054
6.782051328,0.9997146430321225,-44.912176277606775
6.794871808,0.9995454165132052,-45.37967659368261
6.807692288,0.9993975225952949,-45.84548652800793
6.820512768,0.9992776170126888,-46.309884758079015
6.833333248,0.9991917256670525,-46.773230513767295
6.846153728,0.9991437338974348,-47.23601228304659
6.858974208,0.9991359550302982,-47.69871129162005
6.871794688,0.9991691342820527,-48.16185610305048
6.884615168,0.99924150438236,-48.625903995655975
6.897435648,0.999349749403203,-49.09134701759716
6.91025664,0.9994891134437865,-49.558562658298385
6.92307712,0.9996529137753623,-50.02799421650644
6.9358976,0.9998337625638959,-50.499821482056525
6.94871808,1.0000230485688193,-50.974224846128195
6.96153856,1.0002120194188038,-51.451272154688446
6.97435904,1.000391717579666,-51.930890196967184
6.98717952,1.0005539064309967,-52.412928510318096
7.0,1.0006908669111585,-52.897100517058995
7.01282048,1.0007962718686882,-53.383049745808016
7.02564096,1.0008649136980103,-53.87040929566705
7.03846144,1.0008937268856832,-54.358639882501194
7.05128192,1.0008811195908958,-54.84725731709099
7.0641024,1.000827783162528,-55.33578835829264
7.07692288,1.0007358514299636,-55.82367803641123
7.08974336,1.0006095681532667,-56.31053072509454
7.102564352,1.0004549832553893,-56.79591725750927
7.115384832,1.0002789377633128,-57.279528334720794
7.128205312,1.0000898798412736,-57.761158077270856
7.141025792,0.999896443667681,-58.24070300778233
7.153846272,0.9997074715465858,-58.71814761465565
7.166666752,0.9995323208221135,-59.19358801878957
7.179487232,0.9993788518187976,-59.66726749063939
7.192307712,0.9992541787836554,-60.1394890102714
7.205128192,0.9991644990537206,-60.61065339617308
7.217948672,0.9991139619184816,-61.08117469383645
7.230769152,0.9991049421596165,-61.55165849562165
7.243589632,0.999138274140847,-62.02253170427137
7.256410112,0.9992121330788061,-62.49434816819207
7.269230592,0.9993234487760855,-62.96760150898888
7.282051072,0.9994668504186844,-63.44272222404843
7.294871552,0.9996359062774673,-63.9200263177195
7.307692544,0.9998227384642328,-64.3998728705084
7.320513024,1.0000185472728385,-64.8823982009871
7.333333504,1.0002142184212897,-65.36761050223681
7.346153984,1.0004007066407967,-65.8555045377508
7.358974464,1.0005692230850172,-66.34591596797807
7.371794944,1.000712145911875,-66.83852981609188
7.384615424,1.0008221897748022,-67.33304572044742
7.397435904,1.0008947220691158,-67.82897851278283
7.410256384,1.000925730761366,-68.32587664787495
7.423076864,1.000914175568487,-68.82318341469151
7.435897344,1.0008602046506758,-69.32040932772813
7.448717824,1.000766296027782,-69.81700789470449
7.461538304,1.0006367280761208,-70.31250787552638
7.474358784,1.0004773529257973,-70.80652424304101
7.487179264,1.0002955646764766,-71.29872850692654
7.500000256,1.0000998723542276,-71.7889165927911
7.512820736,0.9998994200348553,-72.27685201133586
7.525641216,0.9997032743926764,-72.76268112484377
7.538461696,0.9995208781581185,-73.24640481173444
7.551282176,0.9993606696572122,-73.7283120027565
7.564102656,0.9992302034634748,-74.20866297990206
7.576923136,0.9991355394304713,-74.68791986518606
7.589743616,0.9990814326593687,-75.16650172222616
7.602564096,0.9990702883759176,-75.64498820056353
7.615384576,0.9991029255486654,-76.12383333158286
7.628205056,0.9991778210400454,-76.60367755388553
7.641025536,0.9992917125063496,-77.08497726286339
7.653846016,0.9994391205290482,-77.56816250880976
7.666666496,0.999613447122401,-78.05365356227769
7.679486976,0.999806529728867,-78.54172992253989
7.692307456,1.0000095713435941,-79.03255144436038
7.705128448,1.0002128928211307,-79.5262083018154
7.717948928,1.0004072158867918,-80.02264182950431
7.730769408,1.0005833765864274,-80.5216597631155
7.743589888,1.0007330727180581,-81.02301920042177
7.756410368,1.0008492821419988,-81.5263379443922
7.769230848,1.0009265438829544,-82.03119954717585
7.782051328,1.0009613054840005,-82.53700827135789
7.794871808,1.0009515199882393,-83.04333006793097
7.807692288,1.0008977609757468,-83.54953610628955
7.820512768,1.0008023227693945,-84.05517320032932
7.833333248,1.0006695258883083,-84.55967686704254
7.846153728,1.0005055604184756,-85.06265261952106
7.858974208,1.000317804469264,-85.5637678869699
7.871794688,1.000115062364995,-86.06274479948418
7.884615168,0.9999065938673565,-86.5594751053768
7.897435648,0.9997022618081515,-87.0539405008528
7.91025664,0.9995115825303156,-87.54622571316466
7.92307712,0.9993434713459671,-88.03658820879868
7.9358976,0.9992057100147582,-88.52535346122858
7.94871808,0.9991049498890214,-89.01289468356285
7.96153856,0.9990458450761736,-89.49971752979893
7.97435904,0.9990315124042474,-89.98636779024169
7.98717952,0.9990626121079768,-90.4734476843869
8.0,0.9991376956978234,-90.96143532904614
8.01282048,0.9992536886752976,-91.45090700716649
8.02564096,0.9994051170310639,-91.94231736875872
8.03846144,0.999584990292869,-92.43611071432902
8.05128192,0.9997848672641542,-92.93254072034591
8.0641024,0.9999957314962145,-93.43179491728375
8.07692288,1.0002076387732126,-93.93404699942874
8.08974336,1.0004108411368244,-94.43915365706793
8.102564352,1.0005957709201991,-94.94696912795251
8.115384832,1.0007537432350397,-95.45719852008982
8.128205312,1.0008774022339235,-95.96954503358266
8.141025792,1.0009609898923058,-96.48345479803257
8.153846272,1.0010002881068198,-96.99846390459882
8.166666752,1.0009935713477083,-97.51400599667954
8.179487232,1.0009408546999585,-98.02950152951006
8.192307712,1.0008444792574087,-98.54435085471216
8.205128192,1.0007089770158666,-99.05810136186257
8.217948672,1.0005402666719014,-99.57029220755514
8.230769152,1.0003462213950585,-100.0805554495578
8.243589632,1.000135870365389,-100.58860190927943
8.256410112,0.99991875907276,-101.09429481253997
8.269230592,0.9997050801973955,-101.59763282525392
8.282051072,0.9995047719108558,-102.09868948537219
8.294871552,0.9993272251542975,-102.59766336427657
8.307692544,0.999180755095679,-103.09493555134104
8.320513024,0.9990723534092035,-103.59092161187897
8.333333504,0.9990071117554057,-104.0860768487857
8.346153984,0.9989881352057259,-104.58102400948322
8.358974464,0.999016648336877,-105.07629050716659
8.371794944,0.9990913882315767,-105.57250821353504
8.384615424,0.9992088365390481,-106.07017803761862
8.397435904,0.999363838895456,-106.56984997360227
8.410256384,0.9995492372260519,-107.07194691012513
8.423076864,0.9997564816421245,-107.57676272252306
8.435897344,0.9999758807759809,-108.08452808607959
8.448717824,1.0001975077855523,-108.59536302403266
8.461538304,1.0004107903753043,-109.10915258802088
8.474358784,1.0006059383687678,-109.6258296090791
8.487179264,1.0007738128217627,-110.14505085382221
8.499999744,1.0009065403535014,-110.66647843687605
8.512820736,1.0009978416596,-111.1895804614305
8.525641216,1.0010433916275085,-111.71385890250902
8.538461696,1.0010408241704327,-112.23874283757993
8.551282176,1.0009902716141912,-112.76360332079376
8.564102656,1.0008937750482623,-113.28789864941457
8.576923136,1.0007558270637316,-113.81101860743871
8.589743616,1.0005825059837226,-114.33257185327481
8.602564608,1.0003819369212907,-114.85212363185174
8.615385088,1.0001632581463331,-115.36935535909647
8.628205568,0.9999364788785663,-115.88414262393044
8.641026048,0.9997122474721551,-116.3964307711796
8.653846528,0.9995010018410482,-116.90629644052679
8.666667008,0.999312453161063,-117.41399787695676
8.679487488,0.9991556782666264,-117.91981059445445
8.692307968,0.9990378669304755,-118.42423206298282
8.705128448,0.9989648058159033,-118.92772898663682
8.717948928,0.9989398367599661,-119.43091549378217
8.730769408,0.9989645306005794,-119.93434773974963
8.743589888,0.9990377134309952,-120.43870075933266
8.756410368,0.9991561963266515,-120.944490602654
8.769230848,0.9993145845621766,-121.45232868522163
8.782051328,0.9995056032711301,-121.96260849086684
8.794871808,0.999720614215569,-122.4757128215444
8.807692288,0.9999495421441776,-122.99184908797423
8.820512768,1.0001818185237215,-123.51116006656747
8.833333248,1.0004066421815259,-124.03360636608737
8.846153728,1.0006136560048833,-124.55904277601002
8.858974208,1.000793143211278,-125.08716411562325
8.871794688,1.0009366731422886,-125.6176311068869
8.884615168,1.0010374637679544,-126.14991909524542
8.897435648,1.0010908297781473,-126.68349168946315
8.910256128,1.0010939757532415,-127.21771276472695
8.923076608,1.0010466866615584,-127.75198742451279
8.935897088,1.0009509732546886,-128.2856933505249
8.948717568,1.0008111102178199,-128.81827633261105
8.961538048,1.0006333035714623,-129.34920002504634
8.974358528,1.0004258739102634,-129.87805249601612
8.987179008,1.000198190437059,-130.4045033372603
8.999999488,0.9999608730202872,-130.92840291720435
9.012820992,0.9997246677425331,-131.44963428567002
9.025641472,0.9995007303252343,-131.96830248802965
9.038461952,0.9992995336146749,-132.48463876156083
9.051282432,0.9991303422554132,-132.99893374638523
9.064102912,0.9990013433400647,-133.51164990585343
9.076923392,0.9989185033596566,-134.0233435950115
9.089743872,0.9988859147759053,-134.53455994195724
9.102564352,0.9989053296243318,-135.04599503433582
9.115384832,0.9989758990179012,-135.558241135302
9.128205312,0.9990945703082647,-136.07195752534278
9.141025792,0.9992559980478924,-136.5876662222756
9.153846272,0.9994528271471631,-137.1059050582258
9.166666752,0.9996759929522188,-137.6270124508661
9.179487232,0.9999152545334086,-138.15128286884243
9.192307712,1.0001595752667913,-138.6788552556843
9.205128192,1.0003975350770469,-139.20971124024084
9.217948672,1.0006181918019783,-139.74369394978473
9.230769152,1.0008112943747438,-140.28055880475455
9.243589632,1.000967669585003,-140.8198794581628
9.256410112,1.001080065865776,-141.36116967297266
9.269230592,1.001143044213454,-141.90387569699544
9.282051072,1.001153620268377,-142.44734605255866
9.294871552,1.001110954729845,-142.99095987124616
9.307692032,1.0010169908243807,-143.53399774738415
9.320512512,1.000875789333974,-144.07592931301122
9.333332992,1.0006937584461855,-144.61614161478107
9.346153472,1.0004792048241768,-145.1542327151368
9.358973952,1.0002417737005582,-145.68982007682436
9.371794432,0.9999926036102921,-146.22268544391048
9.384614912,0.9997429634047232,-146.7527469378547
9.397435392,0.9995046997022079,-147.2800425310148
9.410256896,0.9992886003504549,-147.80482347585988
9.423077376,0.9991049992529717,-148.32738787240686
9.435897856,0.998962588591152,-148.8481793809021
9.448718336,0.9988679422336132,-149.36773579920492
9.461538816,0.9988257469563788,-149.8867275896072
9.474359296,0.9988381793114995,-150.40580152475272
9.487179776,0.9989048442956949,-150.9256133426241
9.500000256,0.9990228615806236,-151.44681948048913
9.512820736,0.9991868615523676,-151.97007001987132
9.525641216,0.9993895033638766,-152.49582497160858
9.538461696,0.9996214606054452,-153.0245405206143
9.551282176,0.9998720916991592,-153.55654333108984
9.564102656,1.0001297742431725,-154.09198266202472
9.576923136,1.0003827206721199,-154.63085261647268
9.589743616,1.0006191692273714,-155.1730584772244
9.602564096,1.000828043019059,-155.71829788906578
9.615384576,1.0009996147346614,-156.26619459522647
9.628205056,1.0011258842226378,-156.81624279140314
9.641025536,1.0012007106186995,-157.36780271630832
9.653846016,1.001220534828581,-157.9202839848044
9.666666496,1.0011842641274418,-158.47296374153578
9.679486976,1.0010932248576472,-159.02516862591816
9.692307456,1.0009514975440883,-159.5762314446838
9.705127936,1.000765371949112,-160.1255600718726
9.717948416,1.0005433455194854,-160.67268339619784
9.730768896,1.0002954983366241,-161.21715650375634
9.743589376,1.0000331250064558,-161.75877857244544
9.756409856,0.9997683989218018,-162.29740749259028
9.769230336,0.9995136589975014,-162.83307811258697
9.782050816,0.9992805378115858,-163.3659846148469
9.794871296,0.9990801105871919,-163.89645638770932
9.8076928,0.9989216425573516,-164.42493634036762
9.82051328,0.9988128635067102,-164.95200124573103
9.83333376,0.9987588322908969,-165.47830167707198
9.84615424,0.9987624267703934,-166.004527825841
9.85897472,0.9988236372469386,-166.53138767424485
9.8717952,0.9989398575179876,-167.05957718176538
9.88461568,0.9991059070378838,-167.58977988936925
9.89743616,0.9993144127561842,-168.1225513174703
9.91025664,0.9995556534298587,-168.658357941544
9.92307712,0.999818688054453,-169.19755124339324
9.9358976,1.000091480713209,-169.7403012804078
9.94871808,1.0003613137272391,-170.28671360548944
9.96153856,1.0006158689561453,-170.83661858849715
9.97435904,1.0008431311284887,-171.3897667010538
9.98717952,1.0010325510556926,-171.94581141207286
10.0,1.0011752017991773,-172.50416870376958
10.01282048,1.0012645213172107,-173.06426701399624
10.02564096,1.001295842594247,-173.62537950897297
10.03846144,1.00126772776928,-174.18683144691104
10.05128192,1.001181036994694,-174.7478474717142
10.0641024,1.0010396035253464,-175.3077624297387
10.07692288,1.0008497467583615,-175.8659056110459
10.08974336,1.0006199834676186,-176.4217495632035
10.10256384,1.0003606887705885,-176.97483097559424
10.11538432,1.00008389822906,-177.52485836432595
10.1282048,0.9998020319349855,-178.0717113479006
10.14102528,0.9995284469542812,-178.61534900433
10.15384576,0.9992754999052721,-179.15599688893664
10.16666624,0.9990554555220705,-179.69391663765228
10.17948672,0.9988780945397505,179.77040459348976
10.1923072,0.9987523097550283,179.23636256626327
10.205128704,0.9986838386024148,178.7033413105796
10.217949184,0.9986763782233536,178.17054976809746
10.230769664,0.9987304155302796,177.63726982607935
10.243590144,0.9988435719869699,177.10273265802954
10.256410624,0.9990111128589451,176.56623753739996
10.269231104,0.9992254179184803,176.0271437381707
10.282051584,0.9994765930827288,175.484948108991
10.294872064,0.999753414027953,174.93925194726063
10.307692544,1.0000430427573666,174.38979937560993
10.320513024,1.000332196916648,173.83651659522252
10.333333504,1.0006073792513954,173.27949376287026
10.346153984,1.0008559855112267,172.71895746642198
10.358974464,1.0010664229219135,172.15534347853335
10.371794944,1.0012286684444598,171.58914701124408
10.384615424,1.0013350840413662,171.02102256461797
10.397435904,1.0013806101804856,170.45167301836477
10.410256384,1.0013627954572843,169.8818890625272
10.423076864,1.0012820506178266,169.3124182359767
10.435897344,1.0011420428195912,168.74404541815684
10.448717824,1.0009488230896442,168.17743376004955
10.461538304,1.0007109173436697,167.6132492813616
10.474358784,1.000439279782695,167.05193856093965
10.487179264,1.0001462289272105,166.49384758924026
10.499999744,0.9998451723571217,165.93922730054814
10.512820224,0.9995499760953919,165.38803048600994
10.525640704,0.9992742630470555,164.8401691999297
10.538461184,0.9990310344212504,164.29529716735263
10.551281664,0.9988317444335584,163.7529849061198
10.564102144,0.9986856053796224,163.21261316471893
10.576922624,0.9985997906834266,162.67348531046906
10.589743104,0.9985786874714012,162.13484411155164
10.602564608,0.9986233290749572,161.59586292698913
10.615385088,0.9987322243036098,161.05572935118454
10.628205568,0.9989002904419191,160.5137073174173
10.641026048,0.9991203989844375,159.96906408998822
10.653846528,0.9993824316935155,159.42123741609836
10.666667008,0.9996743670568252,158.8697675468316
10.679487488,0.9999830800133201,158.31437561782764
10.692307968,1.0002941465048876,157.7549013706345
10.705128448,1.000593295558933,157.19143790569854
10.717948928,1.0008667100016515,156.62419164593382
10.730769408,1.0011016444903895,156.05354824483916
10.743589888,1.0012870161837688,155.48006139896157
10.756410368,1.001414204787414,154.90441194507898
10.769230848,1.0014767475405664,154.3273103735064
10.782051328,1.0014717586105544,153.74958133254086
10.794871808,1.0013989602914106,153.17206050716553
10.807692288,1.0012615130901696,152.5955844480219
10.820512768,1.0010652060104195,152.02090003545
10.833333248,1.0008189084596784,151.4487060690809
10.846153728,1.0005335658638663,150.87954728052273
10.858974208,1.0002222596515267,150.3138296888954
10.871794688,0.9998993069866253,149.75178622774192
10.884615168,0.9995793514324253,149.19355659241126
10.897435648,0.9992772645402406,148.63893677176034
10.910256128,0.9990071290602296,148.08768803726488
10.923076608,0.9987816027444417,147.5393148300815
10.935897088,0.9986115362454181,146.9932454789941
10.948717568,0.9985047993329496,146.44871777297152
10.961538048,0.9984668740326581,145.90491101458124
10.974358528,0.998499732515604,145.36100074643292
10.987179008,0.9986024114236473,144.81606728360313
11.000000512,0.9987704870489607,144.26929419037393
11.012820992,0.9989963786949377,143.719910973754
11.025641472,0.9992701127096484,143.16724813203183
11.038461952,0.999579024578302,142.6108020653184
11.051282432,0.9999093428537362,142.05019962975533
11.064102912,1.0002456011349434,141.48527710444242
11.076923392,1.0005725420211529,140.91601305706914
11.089743872,1.0008747338441253,140.34266237836135
11.102564352,1.0011385204029033,139.76561577729802
