freq,mag,phase
6.0,0.9995343530396202,32.69408024662232
6.007299072,0.9995649876224125,32.51979045790588
6.014598656,0.9996198335034031,32.344913234038366
6.021897728,0.9996962079959764,32.16913614013514
6.029197312,0.9997897027213822,31.9921931615631
6.036496384,0.9998951374697904,31.813881067373348
6.043795456,1.0000065441240509,31.634110763337528
6.05109504,1.0001177506707613,31.45278080476784
6.058394112,1.0002225540413534,31.269950979043507
6.065693184,1.0003150635339944,31.085852575019576
6.072992768,1.0003900973425988,30.900558939335642
6.08029184,1.0004434614685176,30.714383151178456
6.087591424,1.0004720939380252,30.527657671007905
6.094890496,1.0004744645849584,30.340694161073777
6.102189568,1.0004503627099228,30.15387911058213
6.109489152,1.000401146238433,29.96752439951951
6.116788224,1.000329572896118,29.782042282474272
6.124087808,1.0002396915683713,29.597613736355363
6.13138688,1.000136407883609,29.414535068270187
6.138685952,1.0000254674554867,29.232891535771014
6.145985536,0.9999131739389272,29.052740759804298
6.153284608,0.9998058107176515,28.87415118278042
6.160584192,0.9997093260873696,28.696884644153812
6.167883264,0.9996292469111717,28.52085023565928
6.175182336,0.9995698714787733,28.345770497223373
6.18248192,0.9995347306990794,28.171340101853108
6.189780992,0.9995256531758311,27.997174570268417
6.197080064,0.9995433197313242,27.82298391804593
6.204379648,0.9995866523785208,27.64833087817353
6.21167872,0.999653238729847,27.472960691527575
6.218978304,0.999739371190935,27.29653400379943
6.226277376,0.9998402740077952,27.11880591426814
6.233576448,0.9999502278631685,26.939649326031063
6.240876032,1.0000631847762662,26.75894540400258
6.248175104,1.0001727132935918,26.57679085304947
6.255474688,1.0002727044360848,26.393117282832165
6.26277376,1.0003576420516818,26.20819694181334
6.270072832,1.0004226866021733,26.022275202456505
6.277372416,1.0004642498737095,25.83559147415974
6.284671488,1.0004798496859388,25.648568067137276
6.29197056,1.000468805303103,25.461409035829746
6.299270144,1.000431585107308,25.274662996727102
6.306569216,1.000370312932901,25.088533437500953
6.3138688,1.0002883459079506,24.903407950456963
6.321167872,1.0001903135146262,24.719462451201565
6.328466944,1.0000816612439498,24.53695923320967
6.335766528,0.9999684862166345,24.35592338930571
6.3430656,0.9998571285883002,24.17646620361317
6.350365184,0.9997537514061983,23.998406591132365
6.357664256,0.9996641955585404,23.821715197424233
6.364963328,0.999593479466236,23.64607060614871
6.372262912,0.9995456692709878,23.47127711264617
6.379561984,0.9995232749028575,23.29691154691106
6.386861568,0.9995277194936756,23.122733585310264
6.39416064,0.9995586509882202,22.94824771311306
6.401459712,0.999614512752897,22.773202880290334
6.408759296,0.9996919952848082,22.597240332927186
6.416058368,0.9997869075888905,22.42007177304482
6.42335744,0.9998939481507144,22.24155727131462
6.430657024,1.000006992434899,22.06150492210154
6.437956096,1.0001197773041277,21.87991222006664
6.44525568,1.0002260863359402,21.696796769316215
6.452554752,1.0003199163727985,21.512370292895252
6.459853824,1.000395945073913,21.326711796236374
6.467153408,1.0004499552559731,21.140204300763283
6.47445248,1.0004788399221989,20.95309148094429
6.481752064,1.0004811012815231,20.76580831689761
6.489051136,1.0004566114658227,20.57861473952923
6.496350208,1.0004065640590467,20.391954211520133
6.503649792,1.0003338819912497,20.20610164972217
6.510948864,1.000242494810253,20.021402860501556
6.518247936,1.0001376421669734,19.83801479607003
6.52554752,1.0000250520143894,19.65611136383133
6.532846592,0.9999111866814576,19.475719381818635
6.540146176,0.9998022565168194,19.296860955730875
6.547445248,0.999704366885192,19.11938938382964
6.55474432,0.9996231318652783,18.943179812846076
6.562043904,0.9995630246084634,18.767913945669235
6.569342976,0.9995274861834905,18.593292343813296
6.57664256,0.9995184116686953,18.418956814778202
6.583941632,0.9995363857876935,18.244592869964873
6.591240704,0.9995804233348702,18.069785924118822
6.598540288,0.9996481618150297,17.894216189882496
6.60583936,0.9997357464017996,17.71759637291963
6.613138432,0.9998381449307993,17.53966091212889
6.620438016,0.999949784685583,17.360248211597902
6.627737088,1.000064515128012,17.179275165817312
6.635036672,1.0001756291407722,16.996767876074426
6.642335744,1.0002770657115565,16.812787906188106
6.649634816,1.0003632391015034,16.62756910818234
6.6569344,1.0004292119415819,16.441259680881068
6.664233472,1.000471214709277,16.254239846150345
6.671533056,1.0004870658237892,16.06680051167194
6.678832128,1.0004756847310228,15.87932887392954
6.6861312,1.0004378758858337,15.692184813973869
6.693430784,1.0003755148360918,15.505724710177104
6.700729856,1.0002922436490755,15.320227953142954
6.70802944,1.0001926402701462,15.136005598359475
6.715328512,1.0000823516547659,14.953179989859466
6.722627584,0.9999673349513606,14.771897466975322
6.729927168,0.9998542497782866,14.592158542898208
6.73722624,0.9997493547227727,14.413892545745979
6.744525312,0.9996584666018842,14.236971226825206
6.751824896,0.9995867554176269,14.061171808902841
6.759123968,0.9995381974343659,13.886200279510819
6.766423552,0.9995156594894044,13.711648075848123
6.773722624,0.9995202454179705,13.537280849526002
6.781021696,0.9995518387792807,13.36263211741785
6.78832128,0.9996085269768813,13.1874003707887
6.795620352,0.9996874031984525,13.011217168530703
6.802919936,0.9997838003771782,12.833864137570473
6.810219008,0.9998925164549202,12.655048512514238
6.81751808,1.0000073127589633,12.474725809028676
6.824817664,1.0001219272589486,12.292853617135243
6.832116736,1.000229911483506,12.109445850503576
6.839415808,1.0003251213457598,11.924627368018205
6.846715392,1.0004021957359728,11.738674232875494
6.854014464,1.0004569942599901,11.551774399468982
6.861314048,1.0004863301173224,11.36429250767381
6.86861312,1.00048863593183,11.176591324461345
6.875912192,1.0004635066772214,10.989041942914678
6.883211776,1.000412600501351,10.8020412024472
6.890510848,1.0003387211353922,10.615828158698502
6.897810432,1.0002459026481283,10.43074255635745
6.905109504,1.00013925171144,10.247069531310688
6.912408576,1.0000248741395537,10.06485508965589
6.91970816,0.9999091270190479,9.884175880132274
6.927007232,0.9997984796062122,9.705115516197317
6.934306816,0.9996991239785394,9.527446177354996
6.941605888,0.9996165795802128,9.350986699712026
6.94890496,0.9995556056617092,9.175532537599446
6.956204544,0.9995195639285448,9.000709547819168
6.963503616,0.9995104111087604,8.826242921994478
6.970802688,0.9995288472828557,8.65170390859765
6.978102272,0.9995736171125179,8.476687834263183
6.985401344,0.9996425632056882,8.300920981648241
6.992700928,0.9997316289560896,8.124042506688745
7.0,0.9998357588640785,7.945838942937205
7.007299072,0.9999492377756797,7.766174743311736
7.014598656,1.000065729187545,7.584913600920903
7.021897728,1.0001787416703685,7.40209680695986
7.029197312,1.0002818199393546,7.217834458889488
7.036496384,1.000369254972113,7.032226252903972
7.043795456,1.000436226476406,6.845543801181775
7.05109504,1.000478975766663,6.658105309504736
7.058394112,1.0004949376476533,6.470259774159337
7.065693184,1.0004833257098658,6.282417069833188
7.072992768,1.0004447781218428,6.094869436017781
7.08029184,1.0003813116580387,5.908047373635812
7.087591424,1.0002965702607893,5.7222059162715215
7.094890496,1.000195360140708,5.537616853941138
7.102189568,1.0000831904383942,5.35447411295944
7.109489152,0.9999662780572693,5.172920591400969
7.116788224,0.9998513040489573,4.992918012074181
7.124087808,0.9997446283273618,4.8144110237158255
7.13138688,0.9996523232287465,4.637262405200526
7.138685952,0.9995794971939126,4.4612665243300675
7.145985536,0.999530170617003,4.286085207592033
7.153284608,0.999507300251255,4.1113812485261505
7.160584192,0.9995120558695858,3.9368126520133915
7.167883264,0.9995441904270964,3.7619882192256786
7.175182336,0.9996020285468896,3.586552909190277
7.18248192,0.9996821270860042,3.410156103389782
7.189780992,0.9997802028046182,3.2325437210196872
7.197080064,0.9998908714821897,3.0534967759980387
7.204379648,1.0000076962923266,2.8728957613854984
7.21167872,1.0001241589262744,2.690699764261075
7.218978304,1.0002339274720704,2.506935251431576
7.226277376,1.000330662238953,2.321786404060475
7.233576448,1.0004091081128246,2.135418940455986
7.240876032,1.0004647660838473,1.9481245597267272
7.248175104,1.0004945174723556,1.7602208894328042
7.255474688,1.000496652723765,1.5721311171219
7.26277376,1.000471233138548,1.3841859962201022
7.270072832,1.0004194422833648,1.1967371038475993
7.277372416,1.0003440603153437,1.0101678875483637
7.284671488,1.0002496550704945,0.8247393246919563
7.29197056,1.0001412073561662,0.6406941455032406
7.299270144,1.0000248808059318,0.4581737787603742
7.306569216,0.9999070997735721,0.2772433254019994
7.3138688,0.9997945710426521,0.09787570737677269
7.321167872,0.9996935345190391,-0.08003282896605098
7.328466944,0.9996095488518233,-0.2567003822279604
7.335766528,0.9995476263366505,-0.4323460720276422
7.3430656,0.999511009434346,-0.607343443610393
7.350365184,0.9995017564919183,-0.7820066907352166
7.357664256,0.9995205955916443,-0.9567588422665657
7.364963328,0.9995662921475778,-1.1319434276375941
7.372262912,0.9996363283582336,-1.3079376850584523
7.379561984,0.999726980031441,-1.4850384693978833
7.386861568,0.9998330096912768,-1.6634872649646326
7.39416064,0.9999485202926365,-1.8434244059901692
7.401459712,1.0000670518184274,-2.024993991093948
7.408759296,1.0001819334969793,-2.208157066013655
7.416058368,1.0002869216055037,-2.3928190716066284
7.42335744,1.000375863295019,-2.5788026321451447
7.430657024,1.0004439397145048,-2.7658649953252357
7.437956096,1.0004873106070795,-2.95372216288892
7.44525568,1.0005036205514037,-3.1419670383238665
7.452554752,1.0004917066034908,-3.3302861280124803
7.459853824,1.000452367991354,-3.51820515095493
7.467153408,1.0003878208201873,-3.705490623298342
7.47445248,1.0003015579963261,-3.8917206817537724
7.481752064,1.0001984405881779,-4.076639371017339
7.489051136,1.0000841514297487,-4.260111709176552
7.496350208,0.9999652963233405,-4.441995338076171
7.503649792,0.9998482319356743,-4.622284388432332
7.510948864,0.9997397598746561,-4.801026583116593
7.518247936,0.9996457639925211,-4.9784005768863
7.52554752,0.9995716697525321,-5.154643969441087
7.532846592,0.9995215107675332,-5.330022398316588
7.540146176,0.9994982855595211,-5.504896217440418
7.547445248,0.9995030702928045,-5.679678940869004
7.55474432,0.9995359626307588,-5.854688709381243
7.562043904,0.9995948667889744,-6.03034912211241
7.569342976,0.9996765344370397,-6.20696612072369
7.57664256,0.9997765334068884,-6.384820978288893
7.583941632,0.9998889849147291,-6.564133104349628
7.591240704,1.0000079667797783,-6.745022158935528
7.598540288,1.0001266034297323,-6.927573299832121
7.60583936,1.000238326682773,-7.111676855489702
7.613138432,1.0003368338049277,-7.297249310045849
7.620438016,1.0004166897259286,-7.484021197336649
7.627737088,1.0004733708353388,-7.6717315496176886
7.635036672,1.0005036179500915,-7.860048421133853
7.642335744,1.0005057540277469,-8.048607553167452
7.649634816,1.0004797065806468,-8.236976004911767
7.6569344,1.0004269220667987,-8.42483480160514
7.664233472,1.0003502253301022,-8.611843369605348
7.671533056,1.0002539799584675,-8.79765480716931
7.678832128,1.0001435746848142,-8.982056441897859
7.6861312,1.0000250516848923,-9.16490873994672
7.693430784,0.9999050864675648,-9.346151245458554
7.700729856,0.9997904131372561,-9.525804417958883
7.70802944,0.9996875560724551,-9.703973447186234
7.715328512,0.9996021332089225,-9.880830627791958
7.722627584,0.9995389724616333,-10.056726304583439
7.729927168,0.999501709389381,-10.231912195642218
7.73722624,0.99949239495856,-10.406787709879458
7.744525312,0.9995114041899985,-10.581712382572311
7.751824896,0.9995581859272141,-10.75710854865012
7.759123968,0.999629583859595,-10.93331904704709
7.766423552,0.9997218588043562,-11.1106561338749
7.773722624,0.9998298631874789,-11.289359118213538
7.781021696,0.9999476683359726,-11.46960647876209
7.78832128,1.0000683683256335,-11.651500504283236
7.795620352,1.00018548079886,-11.835040809560654
7.802919936,1.0002923960347396,-12.020049337765494
7.810219008,1.0003830364567514,-12.20647184981999
7.81751808,1.0004524402078971,-12.393979945889747
7.824817664,1.0004965734493516,-12.582287168636979
7.832116736,1.000513093665773,-12.770967664457173
7.839415808,1.0005010243395627,-12.959703425176206
7.846715392,1.0004609166535066,-13.148104953747671
7.854014464,1.0003950365056826,-13.335804218690965
7.861314048,1.0003070375030465,-13.522461025202468
7.86861312,1.0002019990345052,-13.707797252979223
7.875912192,1.0000856167537295,-13.891616935117288
7.883211776,0.99996438678233,-14.07385627200766
7.890510848,0.9998450913908317,-14.254430733699067
7.897810432,0.9997344306914446,-14.433455423235019
7.905109504,0.9996387371646923,-14.611075681948996
7.912408576,0.9995631247207375,-14.787535295393715
7.91970816,0.999512182282836,-14.963095817735242
7.927007232,0.9994885520256416,-15.138192795230971
7.934306816,0.999493468409795,-15.31315250323949
7.941605888,0.9995269310184574,-15.488388462067741
7.94890496,0.9995868558444577,-15.66426209794063
7.956204544,0.9996701502341064,-15.841104119275803
7.963503616,0.9997720756965306,-16.01925062917981
7.970802688,0.9998869374963635,-16.198825092052836
7.978102272,1.000008140559018,-16.38004003555825
7.985401344,1.0001291303207138,-16.562931143426145
7.992700928,1.0002431162073893,-16.747432683153434
8.0,1.0003434800047526,-16.933389894114455
8.007299072,1.0004249152318028,-17.120590185728176
8.014598656,1.0004825518245268,-17.308787997270425
8.021897728,1.000513388299517,-17.497569174756926
8.029197312,1.0005156930556802,-17.686565186989082
8.036496384,1.0004891593481018,-17.87544376584847
8.043795456,1.0004352435632122,-18.06375587770125
8.05109504,1.0003570528389982,-18.251170844007778
8.058394112,1.0002588803301957,-18.43742126316143
8.065693184,1.000146182075192,-18.622219815664018
8.072992768,1.0000253571920092,-18.805433738762897
8.08029184,0.9999030902033904,-18.986998606880796
8.087591424,0.9997861066188127,-19.16695782398029
8.094890496,0.9996810736735178,-19.34536941110529
8.102189568,0.9995940909844074,-19.52251960640913
8.109489152,0.9995297010657748,-19.698593079081032
8.116788224,0.9994916204114086,-19.873985585709725
8.124087808,0.9994820317634435,-20.049055169964234
8.13138688,0.9995016356187257,-20.224202259234822
8.138685952,0.9995492006163014,-20.39980963091691
8.145985536,0.9996220268004117,-20.576266824796903
8.153284608,0.9997162409365062,-20.75385177975548
8.160584192,0.999826453817231,-20.93282838942664
8.167883264,0.9999465989587132,-21.113392668990972
8.175182336,1.0000698336020228,-21.295623987072545
8.18248192,1.0001893121204517,-21.479510000236367
8.189780992,1.0002983590149557,-21.66494781373708
8.197080064,1.000390786628563,-21.85182066662515
8.204379648,1.00046164739725,-22.0397590359485
8.21167872,1.0005066909617166,-22.228534042107658
8.218978304,1.0005235662338678,-22.4177079790526
8.226277376,1.0005110985319563,-22.606958808914495
8.233576448,1.000470244529324,-22.795834542423027
8.240876032,1.0004029903598162,-22.983991987053084
8.248175104,1.0003134449522855,-23.171086086077327
8.255474688,1.000206173558699,-23.35684813140042
8.26277376,1.0000872878799167,-23.541071739100115
8.270072832,0.999963646582948,-23.723632084968123
8.277372416,0.9998418011022856,-23.904548222738317
8.284671488,0.9997289454719558,-24.083857354533745
8.29197056,0.9996312012742442,-24.261728150329557
8.299270144,0.9995540334190504,-24.43841067879535
8.306569216,0.9995019172878686,-24.614250141562977
8.3138688,0.9994776845738015,-24.789538272555394
8.321167872,0.9994828405192434,-24.964709422057247
8.328466944,0.9995169651844803,-25.140119105767578
8.335766528,0.9995782097840976,-25.31622814855091
8.3430656,0.9996631487759641,-25.493328594959188
8.350365184,0.9997672741793252,-25.671719805169534
8.357664256,0.999884473850241,-25.851608234468916
8.364963328,1.0000082355735067,-26.03317532502418
8.372262912,1.0001317768727378,-26.216423798617136
8.379561984,1.0002480805117988,-26.40133390393685
8.386861568,1.0003506862125506,-26.58773397347959
8.39416064,1.0004337337036817,-26.775416086174648
8.401459712,1.0004927528326661,-26.964045171074652
8.408759296,1.0005242733796813,-27.15335026830575
8.416058368,1.0005265665969887,-27.34286187674466
8.42335744,1.0004994655217485,-27.532221761237803
8.430657024,1.00044449009555,-27.72103004343682
8.437956096,1.0003645291248655,-27.908941604207556
8.44525568,1.00026433352347,-28.095628832620193
8.452554752,1.0001493556457373,-28.28084293691902
8.459853824,1.0000258619522084,-28.464451355050006
8.467153408,0.999900918616316,-28.646360796622893
8.47445248,0.9997815828916917,-28.82662244699637
8.481752064,0.9996742850862419,-29.005335909059077
8.489051136,0.9995853445950713,-29.182694464625666
8.496350208,0.9995195714222891,-29.359021402273314
8.503649792,0.9994805895921626,-29.53464815225332
8.510948864,0.9994708165193259,-29.709933752610453
8.518247936,0.9994907621011175,-29.885304949623873
8.52554752,0.9995393445004709,-30.06112356066801
8.532846592,0.9996137566931019,-30.23779848007083
8.540146176,0.9997100440226168,-30.415653271923123
8.547445248,0.9998225466649272,-30.594915600361777
8.55474432,0.9999453623116623,-30.775795279587506
8.562043904,1.0000712583752658,-30.958394392471185
8.569342976,1.0001932864980188,-31.142679708976342
8.57664256,1.0003046842538121,-31.32858864248153
8.583941632,1.0003992407533862,-31.51588789583647
8.591241216,1.0004716225194785,-31.704344361780972
8.598540288,1.000517730505478,-31.893582873222602
8.60583936,1.000534941075281,-32.083316554032415
8.613138432,1.0005223930923408,-32.27308146839812
8.620437504,1.0004806703534321,-32.46245890599735
8.6277376,1.0004119496914774,-32.65111754190545
8.635036672,1.0003203946813954,-32.83866819137969
8.642335744,1.000210723631035,-33.02488154574377
8.649634816,1.000089354500247,-33.20952815052219
8.656933888,0.9999629078685028,-33.39249481732463
8.664233984,0.9998385076531467,-33.57372113605398
8.671533056,0.9997229567225475,-33.753354589203894
8.678832128,0.999623040537628,-33.93150274631755
8.6861312,0.9995442186335508,-34.10842817474983
8.693430272,0.9994908521326615,-34.28448043732702
8.700730368,0.9994660560590185,-34.46000433789615
8.70802944,0.9994712108429192,-34.635372720764025
8.715328512,0.9995060653200104,-34.81102573412634
8.722627584,0.9995686672928832,-34.98733389684621
8.729926656,0.9996555757262617,-35.16470726519731
8.737226752,0.9997618924636904,-35.34337392916909
8.744525824,0.9998816354479283,-35.52357400632012
8.751824896,1.0000082100348213,-35.705486754482166
8.759123968,1.000134509628254,-35.88915898883074
8.76642304,1.0002534828736913,-36.07447210759812
8.773723136,1.0003583236288,-36.26133974485331
8.781022208,1.0004435179049909,-36.44950664391093
8.78832128,1.0005037945809085,-36.63868797036982
8.795620352,1.0005361907236054,-36.82847153457004
8.802919424,1.0005385214541054,-37.01854240139001
8.810218496,1.0005108708635242,-37.20842550812214
8.817518592,1.0004546868294861,-37.39777873847649
8.824817664,1.0003731420436794,-37.58617481276125
8.832116736,1.0002706063311342,-37.77334649846234
8.839415808,1.0001529144512127,-37.959024044044774
8.84671488,1.0000266702012066,-38.14304332248807
8.854014976,0.9998988243774704,-38.32531787573734
8.861314048,0.9997766204153519,-38.505899008789314
8.86861312,0.9996669810467459,-38.68491811515769
8.875912192,0.9995758315334914,-38.86257552225968
8.883211264,0.9995084711096845,-39.03913388569194
8.89051136,0.9994686536113389,-39.21494493779453
8.897810432,0.9994585484195778,-39.39046263901106
8.905109504,0.9994789209276406,-39.566024486578506
8.912408576,0.9995284937798729,-39.74209938073318
8.919707648,0.999604621764549,-39.91901364862871
8.927007744,0.9997030331819132,-40.09712815649529
8.934306816,0.9998183003851757,-40.276696494673445
