freq,mag,phase
6.0,1.000069733560361,-69.31911783214319
6.008800768,1.0001149068356525,-69.72031160945623
6.017601536,1.0001537502243796,-70.12222717714904
6.026402816,1.0001845343761098,-70.52473517762793
6.035203584,1.0002054509907812,-70.92772172335923
6.044004352,1.0002153034333516,-71.3310368189315
6.05280512,1.0002137317853619,-71.7345588894294
6.0616064,1.0002006691019236,-72.13811449648846
6.070407168,1.0001769628896542,-72.54155208626022
6.079207936,1.0001434511213796,-72.94477535473304
6.088008704,1.000102273864566,-73.34762962492181
6.096809472,1.0000554805428172,-73.75005612546772
6.105610752,1.000005413643968,-74.15196424413848
6.11441152,0.9999546536694747,-74.55336674438028
6.123212288,0.9999059000124548,-74.95424735062218
6.132013056,0.9998613919981734,-75.35467036507924
6.140814336,0.9998238386057042,-75.75465254712827
6.149615104,0.9997948445886944,-76.15436464853076
6.158415872,0.9997763280041967,-76.5538900977377
6.16721664,0.9997689778101956,-76.95336595973248
6.176017408,0.9997734132704441,-77.35296313554932
6.184818688,0.9997888891505855,-77.75284745864354
6.193619456,0.9998152635329348,-78.15314335386229
6.202420224,0.9998507590818798,-78.55395668905145
6.211220992,0.9998936870605806,-78.95540360962408
6.22002176,0.999942033451968,-79.35764585845824
6.22882304,0.9999929051174209,-79.76061477049595
6.237623808,1.0000438031207142,-80.16440507020816
6.246424576,1.0000923565792872,-80.56900398800813
6.255225344,1.000135851885795,-80.97437128123265
6.264026624,1.0001718226677394,-81.38034680748483
6.272827392,1.0001986806559382,-81.78687150613241
6.28162816,1.0002150071695803,-82.19385453872928
6.290428928,1.0002198444425692,-82.60108830445387
6.299229696,1.0002130278418015,-83.0084506857591
6.308030976,1.0001947241211322,-83.41580108452027
6.316831744,1.0001662133879792,-83.8229721382147
6.325632512,1.0001285373639894,-84.22984500620873
6.33443328,1.0000839313601293,-84.63633500091542
6.34323456,1.000034545677481,-85.04229951341317
6.352035328,0.9999830146672546,-85.4477922700759
6.360836096,0.9999320476742197,-85.8527266637461
6.369636864,0.9998842100481371,-86.25714980030189
6.378437632,0.9998419612112727,-86.66111175109849
6.387238912,0.99980746198935,-87.06475115824585
6.39603968,0.9997826653301161,-87.46809572203189
6.404840448,0.9997687365531511,-87.87130130081925
6.413641216,0.9997664844003616,-88.2745523310862
6.422442496,0.9997759832213771,-88.6780095461746
6.431243264,0.9997968098497575,-89.08176713997337
6.440044032,0.9998278550633,-89.48603668398096
6.4488448,0.9998674642281143,-89.89088686104904
6.457645568,0.9999136627857855,-90.29641961150915
6.466446848,0.9999641148359106,-90.70276274292691
6.475247616,1.000016189095033,-91.10986785536709
6.484048384,1.000067235595668,-91.51783220390352
6.492849152,1.0001144259709362,-91.92657634156778
6.50164992,1.0001554660257415,-92.3359963710794
6.5104512,1.0001882114144287,-92.74609432899486
6.519251968,1.0002109886824946,-93.15662392659615
6.528052736,1.0002224053581914,-93.56755298094434
6.536853504,1.0002221599543435,-93.97868540452173
6.545654784,1.0002101825262883,-94.38989792124582
6.554455552,1.0001869437401654,-94.80099299678267
6.56325632,1.000153603237361,-95.21189527750475
6.572057088,1.0001120170203643,-95.62240061608492
6.580857856,1.0000643445063973,-96.03245977342833
6.589659136,1.0000129655701355,-96.44202507924294
6.598459904,0.9999605308539155,-96.85101566156258
6.607260672,0.9999098132213836,-97.25950201745343
6.61606144,0.9998632694856628,-97.66747853349965
6.62486272,0.9998236705725572,-98.07501564417998
6.633663488,0.9997926789931084,-98.48224975824982
6.642464256,0.9997721425450947,-98.88926931878781
6.651265024,0.9997631632984055,-99.29622160092683
6.660065792,0.9997659778064985,-99.70324129232611
6.668867072,0.9997807400369669,-100.11057001977643
6.67766784,0.9998064395638767,-100.51827693480142
6.686468608,0.9998421738151223,-100.92649036301822
6.695269376,0.9998855331860534,-101.33537737637987
6.704070656,0.9999346545455696,-101.74500152902647
6.712871424,0.9999869163105514,-102.15544633611677
6.721672192,1.0000396760752464,-102.56668951729567
6.73047296,1.000090175621475,-102.97873316763967
6.739273728,1.0001357073518613,-103.39158173490242
6.748075008,1.0001739410682267,-103.80511779202298
6.756875776,1.0002030968057007,-104.21919981363416
6.765676544,1.0002213252683612,-104.63374498676396
6.774477312,1.0002279337076019,-105.0486145929913
6.78327808,1.0002224673827265,-105.46359542971688
6.79207936,1.0002053055623192,-105.87855380854033
6.800880128,1.0001769958005349,-106.29340297924266
6.809680896,1.0001393651918693,-106.70792901593843
6.818481664,1.000094100742834,-107.12202612675938
6.827282944,1.000043704126095,-107.53566468620186
6.836083712,0.9999906864495096,-107.94873843088843
6.84488448,0.999937846673845,-108.36127234904356
6.853685248,0.9998878765871175,-108.77325642879971
6.862486016,0.99984332582472,-109.18474745167136
6.871287296,0.9998065351848652,-109.59585159885332
6.880088064,0.999779429131143,-110.0066772077821
6.888888832,0.9997634116995208,-110.41729968296713
6.8976896,0.9997594404136294,-110.82800727367372
6.90649088,0.9997675493479977,-111.23879702179572
6.915291648,0.9997874266156234,-111.64995861207301
6.924092416,0.9998180583459175,-112.06155312084223
6.932893184,0.9998578299789307,-112.47374337951771
6.941693952,0.9999046943911893,-112.88664253642911
6.950495232,0.9999564298673075,-113.30031906152801
6.959296,1.0000101187027277,-113.71482637448749
6.968096768,1.0000630663074352,-114.13015617140036
6.976897536,1.0001125356515639,-114.54630023436337
6.985698816,1.0001560295157959,-114.96318836010852
6.994499584,1.0001912412326008,-115.38071079635014
7.003300352,1.00021632850837,-115.7988005217681
7.01210112,1.0002299716791554,-116.21725051357596
7.020901888,1.0002314880256427,-116.63594166153726
7.029703168,1.000220703653742,-117.05468562959746
7.038503936,1.0001983899726974,-117.47337293662096
7.047304704,1.0001654107202338,-117.89181472661318
7.056105472,1.0001236310953743,-118.30991651802672
7.06490624,1.0000751645741033,-118.72753410792436
7.07370752,1.0000224318131885,-119.14467150548326
7.082508288,0.9999681971524899,-119.56121123648518
7.091309056,0.9999153704512765,-119.97716804121258
7.100109824,0.9998665565567484,-120.39259567977942
7.108911104,0.9998243015845394,-120.80758206007806
7.117711872,0.9997909010178814,-121.22218296422984
7.12651264,0.9997679210713061,-121.63654917967357
7.135313408,0.9997566688275776,-122.05080454370912
7.144114176,0.9997577461503837,-122.46513509900872
7.152915456,0.9997711671309192,-122.87967790543797
7.161716224,0.9997961150118894,-123.29464068662249
7.170516992,0.9998313992541995,-123.71011127289904
7.17931776,0.9998752160615757,-124.12619689434341
7.18811904,0.999925259192302,-124.54308793851834
7.196919808,0.9999789266852771,-124.96073196935686
7.205720576,1.0000335751628537,-125.37924510681624
7.214521344,1.0000862808844375,-125.79858106073236
7.223322112,1.0001344248488466,-126.21871876988965
7.232123392,1.0001753819707675,-126.63953943566894
7.24092416,1.0002070278475272,-127.06101152361796
7.249724928,1.00022787608322,-127.48293212335375
7.258525696,1.0002366449691378,-127.90519094817586
7.267326976,1.0002330577664296,-128.32761430407515
7.276127744,1.0002170216479433,-128.7500600157537
7.284928512,1.0001896574700782,-129.1723257457628
7.29372928,1.000152107486504,-129.59428074383192
7.302530048,1.0001065734319077,-130.0158536626699
7.311331328,1.000055049107953,-130.4369055829591
7.320132096,1.0000004860292924,-130.85737826267277
7.328932864,0.9999455735633774,-131.2772970008336
7.337733632,0.9998931623022499,-131.6966151563169
7.3465344,0.999845957250361,-132.1154162061861
7.35533568,0.9998063706938279,-132.53377326238433
7.364136448,0.999776620758898,-132.951786201315
7.372937216,0.9997579986978665,-133.3696509610279
7.381737984,0.9997517322946018,-133.7874329705153
7.390539264,0.999758121011537,-134.20533973370905
7.399340032,0.9997766460415914,-134.62355852311222
7.4081408,0.9998066320101213,-135.0422436634738
7.416941568,0.9998462514985855,-135.46148117328178
7.425742336,0.9998937806954518,-135.88142056587537
7.434543616,0.9999466097765294,-136.30212381650503
7.443344384,1.000002092195288,-136.72368658633036
7.452145152,1.0000572208402203,-137.14609892838027
7.46094592,1.0001092124934579,-137.56932666678154
7.4697472,1.000155441465759,-137.9933497832514
7.478547968,1.0001935292629593,-138.4180384472311
7.487348736,1.0002214523114914,-138.8432704015925
7.496149504,1.0002377132960563,-139.26892941688692
7.504950272,1.0002414921586242,-139.6948307264646
7.513751552,1.0002325598813002,-140.1208288004659
7.52255232,1.000211454766859,-140.54680541259648
7.531353088,1.0001790866136067,-140.97253443663254
7.540153856,1.0001373496744381,-141.39785637293778
7.548955136,1.000088151638677,-141.82273900349637
7.557755904,1.0000341224296754,-142.24708042735335
7.566556672,0.9999780434434495,-142.67080903856805
7.57535744,0.9999227965710189,-143.09393985540137
7.584158208,0.9998712488722526,-143.51652449348165
7.592959488,0.999826138304907,-143.93856935159087
7.601760256,0.9997896395055141,-144.36019153520112
7.610561024,0.9997638288238531,-144.7815230423696
7.619361792,0.9997498910578801,-145.20274140991603
7.628163072,0.9997486519671804,-145.62396303050912
7.63696384,0.9997602321705998,-146.04536802638813
7.645764608,0.999784037193144,-146.46716293352964
7.654565376,0.9998188311896312,-146.88943350524968
7.663366144,0.9998626901526863,-147.31230155584586
7.672167424,0.9999136163198483,-147.73595592799788
7.680968192,0.9999687799760192,-148.16043525652796
7.68976896,1.0000254704179814,-148.58573463872193
7.698569728,1.0000807179016828,-149.011904994983
7.707370496,1.000131710197915,-149.43891584633815
7.716171776,1.000175744475923,-149.86660000843503
7.724972544,1.0002105396055783,-150.29498499048225
7.733773312,1.0002343441538801,-150.7238608296199
7.74257408,1.0002458277642983,-151.15303586563354
7.75137536,1.0002445328392684,-151.58247553504378
7.760176128,1.0002303842684108,-152.0119130808353
7.768976896,1.000204113212018,-152.44119136950118
7.777777664,1.0001670971535401,-152.8702119817363
7.786578432,1.0001211655432962,-153.2987702925908
7.795379712,1.0000687925910516,-153.7267941182808
7.80418048,1.0000125830103643,-154.15427240699458
7.812981248,0.9999554188185138,-154.58109899465154
7.821782016,0.9999003073239504,-155.00732579873616
7.830583296,0.9998501260882366,-155.43294468150876
7.839384064,0.9998073074077152,-155.85810707697235
7.848184832,0.9997743410455077,-156.28286074338322
7.8569856,0.9997527432449245,-156.70737322811246
7.865786368,0.99974368327909,-157.1318155794769
7.874587648,0.9997476649890794,-157.55630934716748
7.883388416,0.9997645422576141,-157.9810581253281
7.892189184,0.9997933779437492,-158.40624719709362
7.900989952,0.9998327874257424,-158.83199275774777
7.909791232,0.999880710877436,-159.25842849748625
7.918592,0.9999346268419411,-159.68561671082148
7.927392768,0.9999918543098216,-160.11365469409014
7.936193536,1.0000493897331486,-160.54257179136832
7.944994304,1.0001043490249024,-160.97234344236622
7.953795584,1.000153836550466,-161.40288557741874
7.962596352,1.0001951675315164,-161.83416203777045
7.97139712,1.0002264193700685,-162.26602336049018
7.980197888,1.000245768828576,-162.69833594365193
7.988998656,1.0002524157152217,-163.13090307724917
7.997799936,1.0002458615312302,-163.5636184922855
8.006600704,1.0002263974419432,-163.99628080569275
8.015401472,1.0001950858920565,-164.42869700994103
8.02420224,1.0001535232872523,-164.86075825626276
8.03300352,1.0001037753327684,-165.2923573293815
8.041804288,1.0000484379128094,-165.72337432836775
8.050605056,0.9999903991056431,-166.1537434260504
8.059405824,0.9999324818690268,-166.58348805475012
8.068206592,0.9998779953254668,-167.01258381558935
8.077007872,0.9998294977945504,-167.44112664141602
8.08580864,0.9997895875530237,-167.86919380666112
8.094609408,0.9997602455884748,-168.29692169374394
8.103410176,0.9997431171752801,-168.72442022473484
8.112211456,0.9997391609119994,-169.15192822689446
8.121012224,0.9997483077475631,-169.57956991681755
8.129812992,0.9997705557068562,-170.0075086370064
8.13861376,0.9998043200115688,-170.43594096878144
8.147414528,0.9998481854905702,-170.864935373172
8.156215808,0.9998997517743319,-171.2947197376119
8.165016576,0.9999564428263934,-171.7253105842655
8.173817344,1.0000153578436437,-172.1567428497337
8.182618112,1.0000732704448194,-172.58907569062052
8.191419392,1.0001274811736152,-173.02222580432834
8.20022016,1.0001749900666121,-173.4561519177211
8.209020928,1.0002134146662298,-173.89076299926026
8.217821696,1.0002407888822782,-174.32590911680668
8.226622464,1.0002555454992499,-174.7614033322678
8.235423744,1.0002569856318262,-175.19713148042817
8.244224512,1.0002451179656637,-175.63289214517013
8.25302528,1.0002202902425095,-176.06855381176896
8.261826048,1.0001841005746082,-176.50391483285324
8.270626816,1.0001380990349475,-176.93882692493727
8.279428096,1.0000848455889828,-177.3731862908683
8.288228864,1.0000269152858952,-177.80694810224423
8.297029632,0.9999673546799694,-178.2400182426031
8.3058304,0.9999093410617479,-178.67242875607658
8.31463168,0.9998557023372413,-179.10422367226755
8.323432448,0.999809401896284,-179.53547181292186
8.332233216,0.9997724837660363,-179.96624421996856
8.341033984,0.9997472816039237,179.60327052623686
8.349834752,0.9997349067058225,179.1729263109573
8.358636032,0.9997360715583374,178.7425767740838
8.3674368,0.9997507068278695,178.31200910092534
8.376237568,0.9997780332529738,177.8810841265911
8.385038336,0.9998167812079805,177.44962061451673
8.393839616,0.9998647849469129,177.0174768072909
8.402640384,0.9999198251989506,176.58457412123767
8.411441152,0.9999790402815829,176.1508024974015
8.42024192,1.000039111566795,175.71621229947925
8.429042688,1.0000971798080747,175.2807175524538
8.437843968,1.0001501901910108,174.8443790060826
8.446644736,1.0001953786948805,174.40730629239113
8.455445504,1.0002304248626543,173.9696219282164
8.464246272,1.0002535742799092,173.53142540648346
8.473047552,1.0002635466253096,173.0929580029939
8.48184832,1.0002597117037473,172.6543227313332
8.490649088,1.0002424555543883,172.21572372540106
8.499449856,1.0002125613422777,171.77735272877135
8.508250624,1.0001713996073007,171.3393217591209
8.517051904,1.0001212970826656,170.90181092811576
8.525852672,1.0000646630816412,170.46489989003877
8.53465344,1.0000045959993071,170.02866889010608
8.543454208,0.9999439069457869,169.59308931752585
8.552254976,0.9998860435992154,169.15822281474607
8.561056256,0.9998337204143588,168.7239882296251
8.569857024,0.9997898355745795,168.29028663039168
8.578657792,0.9997565850049412,167.85699754759278
8.58745856,0.9997356237649583,167.4239713795158
8.59625984,0.9997282504395649,166.99107853995753
8.605060096,0.9997346582305993,166.55803257045483
8.613861376,0.9997548066563477,166.12477947808213
8.622662656,0.9997873364063639,165.6910568603516
8.631462912,0.9998308890442683,165.25677800260655
8.640264192,0.999882972818154,164.82177698106977
8.649064448,0.9999412180394768,164.38596551834604
8.657865728,1.00000230397473,163.94923988460147
8.666667008,1.0000633576675104,163.5116910682428
8.675467264,1.0001210968992567,163.07323778806628
8.684268544,1.0001724685261835,162.6339642378941
8.6930688,1.0002150895929407,162.19401050199792
8.70187008,1.00024644000775,161.75350023252315
8.71067136,1.000265021824305,161.3125374857264
8.719471616,1.0002698730600936,160.87133288283906
8.728272896,1.0002607705619024,160.43008908136684
8.737074176,1.0002379499810037,159.98892758685346
8.745874432,1.0002029266641406,159.54808485291514
8.754675712,1.0001571667569245,159.10767219366224
8.763475968,1.000103058635702,158.6678367939882
8.772277248,1.0000434347959706,158.2286265371848
8.781078528,0.9999814311881899,157.79015585349316
8.789878784,0.9999202217309752,157.3523975414029
8.798680064,0.9998627605955609,156.9153524444891
8.80748032,0.9998121990272364,156.4788977052501
8.8162816,0.9997711585387048,156.04297584741
8.82508288,0.9997417880182208,155.6074404532246
8.833883136,0.9997255028730694,155.17210303923463
8.842684416,0.9997231964418938,154.73682131197774
8.851484672,0.9997351472712698,154.30141090265835
8.860285952,0.999760567063907,153.8656380725744
8.869087232,0.9997984066776436,153.429388414681
8.877887488,0.9998464965806502,152.99252066286047
8.886688768,0.9999024739791343,152.55485277067496
8.895490048,0.9999634629002245,152.1163595681438
8.904290304,1.0000263087611267,151.6769841030622
8.913091584,1.0000878429841518,151.23668950128442
8.92189184,1.0001447773056604,150.7955381151747
8.93069312,1.0001943355811251,150.35362757051632
8.9394944,1.0002338180214865,149.9110506801375
8.948294656,1.0002611875761034,149.4679530858405
8.957095936,1.0002750426370703,149.02448734014786
8.965896192,1.000274657587442,148.5808820660158
8.974697472,1.0002599232271334,148.13728251608995
8.983498752,1.0002317833145784,147.69387093845464
8.992299008,1.000191607821757,147.25084685947638
9.001100288,1.0001411977543402,146.80831450677272
9.009900544,1.0000834145774684,146.36640792596017
9.018701824,1.000021044653604,145.9252295013424
9.027503104,0.9999574397475759,145.4847622662853
9.03630336,0.9998958982727401,145.04510147736227
9.04510464,0.9998394029418077,144.60608643246792
9.053904896,0.999791036107127,144.1676889953232
9.062706176,0.9997531760881526,143.7298098649368
9.071507456,0.9997279861449431,143.2922489222545
9.080307712,0.999716551499978,142.85486569465374
9.089108992,0.9997197462804478,142.41747026569536
9.097910272,0.9997371512085603,141.97987682670635
9.106710528,0.9997679811037351,141.54187763256098
9.115511808,0.9998109630196808,141.1033279748495
9.124312064,0.9998634392731213,140.66409159271709
9.133113344,0.9999230711082503,140.22404798747925
9.141914624,0.999986640455342,139.78312052383458
9.15071488,1.0000508594429744,139.34130220747446
9.15951616,1.0001125272330202,138.8985795951611
9.168316416,1.000168395673365,138.45500357349997
9.177117696,1.000215522524238,138.01070974768456
9.185918976,1.0002516327515623,137.56575610510077
9.194719232,1.0002746197817598,137.120384256661
9.203520512,1.0002833494827825,136.67469461444247
9.212320768,1.0002774880464071,136.22895091915188
9.221122048,1.0002572320811023,135.7832731686103
9.229923328,1.0002235578935919,135.33788762484346
9.238723584,1.000178154057268,134.89298861718464
9.247524864,1.0001235050053752,134.44862683266578
9.256326144,1.0000621089377664,134.00497355611392
9.2651264,0.9999974866834744,133.56204934987855
9.27392768,0.9999325487771732,133.11995991489513
9.282727936,0.9998710696645976,132.67858165498166
9.291529216,0.9998158508588988,132.23792562872148
9.300330496,0.9997700492306005,131.79785198864593
9.309130752,0.9997358197063269,131.35824452595057
9.317932032,0.9997151089431828,130.9189366156129
9.326732288,0.9997089061941169,130.47975803392447
9.335533568,0.999717580916816,130.04050776738913
9.344334848,0.9997407061495615,129.6009442314084
9.353135104,0.9997772000649927,129.16098077508275
9.361936384,0.9998250858703546,128.7203576068628
9.37073664,0.9998819905611025,128.27903152616145
9.37953792,0.9999448614332679,127.83683062341846
9.3883392,1.000010705205175,127.3937379623313
9.397139456,1.000075977345236,126.94973378526446
9.405940736,1.00013734504308,126.50479589334513
9.414740992,1.000191714687572,126.05907629790323
9.423542272,1.0002359808435763,125.61265080934852
9.432343552,1.0002682828512766,125.16562911065826
9.441143808,1.000286660443241,124.71822237809693
9.449945088,1.00029020581521,124.27064581651904
9.458746368,1.0002785932545004,123.82304453383169
9.467546624,1.0002526291041691,123.37559460061006
9.476347904,1.0002134474554807,122.92853067314478
9.48514816,1.000163023506245,122.48199313580903
9.49394944,1.0001041064631966,122.03609529100454
9.50275072,1.0000394972744808,121.59094730626042
9.511550976,0.9999727147753825,121.14661351342652
9.520352256,0.9999070707779741,120.70307513561157
