freq,mag,phase
6.0,1.0004655120537247,150.4358035563206
6.002287104,1.000622860988822,150.27109738034315
6.004574208,1.0007423119075245,150.1043797344049
6.006861312,1.000814848458775,149.93628793839747
6.009147904,1.0008356433386467,149.76754332162346
6.011435008,1.0008035853350816,149.59890439119988
6.013722112,1.00072049292341,149.4311382257125
6.016009216,1.0005917153718222,149.26486520950502
6.01829632,1.0004253085462707,149.10081109660237
6.020583424,1.0002317398580542,148.939365644065
6.022870016,1.0000233207485087,148.78085701826362
6.02515712,0.9998132425781893,148.62540260973938
6.027444224,0.9996146933085088,148.47294437688083
6.029731328,0.9994403340001166,148.32321622898272
6.032018432,0.9993011478536581,148.17578896909905
6.034305536,0.9992059700327038,148.0301151205309
6.036592128,0.9991608691968153,147.88546379258872
6.038879232,0.9991686853638295,147.7410987345076
6.041166336,0.9992290802900449,147.59627812979411
6.04345344,0.9993380730202697,147.4502436848675
6.045740544,0.9994888667187868,147.30230940531928
6.048027648,0.9996718412680475,147.15201030729855
6.05031424,0.9998754444405595,146.99892322476887
6.052601344,1.0000868365566942,146.84280776564333
6.054888448,1.0002925379604892,146.68370015411918
6.057175552,1.0004797574420292,146.52176024958268
6.059462656,1.0006364601143816,146.35734922891777
6.06174976,1.0007527372303018,146.19098169185307
6.064036352,1.0008214100437487,146.02330285242422
6.066323456,1.0008380010478748,145.8550294188024
6.06861056,1.0008014856642156,145.68688736451222
6.070897664,1.0007140407576658,145.5196841642985
6.073184768,1.0005814363827514,145.354091753013
6.075471872,1.0004117395279801,145.19072972909257
6.077758464,1.0002157454262703,145.029996457401
6.080045568,1.000005886562774,144.87224181863445
6.082332672,0.9997956105272862,144.71758335073335
6.084619776,0.9995977885918339,144.56589787931512
6.08690688,0.9994252905421054,144.41692574474254
6.089193984,0.9992888900792304,144.27022901656184
6.091481088,0.9991973213663954,144.12521148656472
6.09376768,0.99915644840181,143.98119099053764
6.096054784,0.999168695030102,143.83738559660452
6.098341888,0.9992334578307136,143.69304246770193
6.100628992,0.999346691668875,143.54741021515855
6.102916096,0.999500984340769,143.39989726609187
6.1052032,0.9996868414520947,143.2499168917599
6.107489792,0.999892400890952,143.097078249421
6.109776896,1.0001044585096843,142.94127315372612
6.112064,1.0003100261310238,142.78242775288624
6.114351104,1.0004957209195806,142.6207723029961
6.116638208,1.0006500825015021,142.45667864731573
6.118925312,1.0007630429931724,142.29066990727375
6.121211904,1.0008277457461854,142.12337901053527
6.123499008,1.0008399644982777,141.95555290163742
6.125786112,1.0007989973049878,141.78794914777544
6.128073216,1.0007072521474594,141.62132506793486
6.13036032,1.0005707216269104,141.45640126991583
6.132647424,1.0003977223426623,141.2937102674572
6.134934016,1.0001993732879073,141.13375844668923
6.13722112,0.9999883209720861,140.97678829058174
6.139508224,0.9997776069663836,140.82289048979996
6.141795328,0.9995808027254723,140.6719861837383
6.144082432,0.9994102417037793,140.5237591405085
6.146369536,0.9992768959769782,140.377779048463
6.148656128,0.9991890250826309,140.23343466568323
6.150943232,0.9991522715076602,140.09002368846322
6.153230336,0.9991690813264839,139.94677583786634
6.15551744,0.9992383270817716,139.8029303779954
6.157804544,0.9993557084198107,139.6577489854772
6.160091648,0.9995136409811437,139.5105578417596
6.162378752,0.9997023426772801,139.36090284079842
6.164665344,0.9999095706198667,139.20837909778862
6.166952448,1.000122472425704,139.0528342608207
6.169239552,1.0003276659602107,138.89427007862554
6.171526656,1.000511884934673,138.73288481426584
6.17381376,1.0006636085687115,138.5691030481763
6.176100864,1.0007732570780907,138.4034162966182
6.178387456,1.0008339961898933,138.236536548182
6.18067456,1.000841589165619,138.06916938921233
6.182961664,1.0007961020450473,137.9021323945611
6.185248768,1.0007000213841808,137.7361105973261
6.187535872,1.0005595527829776,137.57181750048048
6.189822976,1.000383375437278,137.4098589190962
6.192109568,1.0001827285822904,137.25063103620442
6.194396672,0.999970299482703,137.0944092067599
6.196683776,0.9997595328910367,136.94133803031022
6.19897088,0.9995636928926003,136.7911962913809
6.201257984,0.9993953268915978,136.64375728105733
6.203545088,0.9992649039394129,136.49848295408694
6.20583168,0.9991808366282006,136.3548218795677
6.208118784,0.9991483970287927,136.21201085342574
6.210405888,0.999169879241706,136.06930716840293
6.212692992,0.9992436092088999,135.92593213254622
6.214980096,0.9993651610217998,135.7811836396838
6.2172672,0.9995267809238191,135.63436470371062
6.219553792,0.9997180990360757,135.4850175466473
6.221840896,0.999927244064315,135.33277606835165
6.224128,1.000140873209852,135.17747784181435
6.226415104,1.0003453901088655,135.0191623543199
6.228702208,1.0005280338648423,134.85806792216863
6.230989312,1.000677128153282,134.69457640651783
6.233275904,1.0007832561489187,134.52926984587864
6.235563008,1.000839736946189,134.36280223998514
6.237850112,1.0008430629266027,134.1959192722388
6.240137216,1.0007928525923242,134.0293913147263
6.24242432,1.0006922372712403,133.86397591083832
6.244711424,1.0005478984925122,133.70033908041617
6.246998528,1.0003684695311605,133.53910923295135
6.24928512,1.0001656458891843,133.3806221809546
6.251572224,0.9999520305088275,133.22522609369548
6.253859328,0.9997411411494153,133.07291217664533
6.256146432,0.9995464631773652,132.92354698631968
6.258433536,0.9993803865100335,132.776864617064
6.26072064,0.9992530281783021,132.63232473170044
6.263007232,0.9991729886839901,132.4893010418979
6.265294336,0.9991449947069961,132.34709328054606
6.26758144,0.9991711597197601,132.2049474879242
6.269868544,0.9992493468669157,132.06205689303482
6.272155648,0.9993751235848274,131.91769350305194
6.274442752,0.9995402876277023,131.77123100521166
6.276729344,0.9997345011180159,131.62217667813923
6.279016448,0.9999453459607204,131.4702110216668
6.281303552,1.0001594195506716,131.31519233534874
6.283590656,1.0003633316481904,131.15713517469126
6.28587776,1.0005443055024843,130.99630911524093
6.288164864,1.0006905184177788,130.83311936792106
6.290451456,1.0007931337502953,130.66814042806465
6.29273856,1.0008452400400185,130.5020872618096
6.295025664,1.0008439360135788,130.33569145371172
6.297312768,1.0007890782904316,130.16968922008678
6.299599872,1.0006841302294565,130.0048768503312
6.301886976,1.0005357041185585,129.84193978995492
6.304173568,1.0003532207122041,129.68139771275827
6.306460672,1.0001480325016308,129.52367687267486
6.308747776,0.9999333905526637,129.3690480000205
6.31103488,0.9997227129425379,129.2175514910648
6.313321984,0.9995291433645422,129.06896722733234
6.315609088,0.9993652924730257,128.9230304988097
6.317896192,0.9992413676474284,128.77921531199925
6.320182784,0.9991653204952433,128.6368375085277
6.322469888,0.9991418815640899,128.49525584948768
6.324756992,0.9991726846478909,128.35361537004576
6.327044096,0.9992556517649213,128.21118420508748
6.3293312,0.9993856075467586,128.0672096676303
6.331618304,0.9995544564967285,127.9211122737477
6.333904896,0.9997512564825413,127.77235775398069
6.336192,0.9999637127044082,127.62065587807514
6.338479104,1.0001783342578943,127.46586794027122
6.340766208,1.0003815037337536,127.3080600985753
6.343053312,1.0005605345134265,127.1474845816918
6.345340416,1.0007039701956721,126.98462901995778
6.347627008,1.0008027531745447,126.820015147209
6.349914112,1.000850703254824,126.65434147311372
6.352201216,1.000844573269589,126.48841353966243
6.35448832,1.0007849903470665,126.32297462351482
6.356775424,1.000675601528782,126.15876270772713
6.359062528,1.000523314090845,125.99647398608232
6.36134912,1.0003375795458243,125.83666122666143
6.363636224,1.0001304259519197,125.67972348257548
6.365923328,0.9999145940819493,125.52587248431722
6.368210432,0.9997038752723763,125.37515021676856
6.370497536,0.9995118834519131,125.22736757767979
6.37278464,0.9993504345386278,125.08217516508763
6.375071232,0.9992299077947201,124.9390526006391
6.377358336,0.9991579400703537,124.79735237275209
6.37964544,0.9991391371358902,124.65635605311519
6.381932544,0.9991746633936969,124.51523102405162
6.384219648,0.9992623820423405,124.3732681783059
6.386506752,0.9993966295683472,124.22966862118967
6.388793344,0.9995689098533485,124.08390319230143
6.391080448,0.9997683625575701,123.93543064648175
6.393367552,0.9999823727806473,123.78398085781104
6.395654656,1.0001974728741512,123.62941376409177
6.39794176,1.000399782677427,123.47186407403781
6.400228864,1.0005768796108372,123.31157340986967
6.402515968,1.0007172758872107,123.14897880434697
6.40480256,1.0008122302470472,122.98473338343626
6.407089664,1.0008556125247696,122.81950027600307
6.409376768,1.000844855975276,122.65400903297228
6.411663872,1.000780500034715,122.48912754376353
6.413950976,1.0006664820087694,122.3255180871009
6.41623808,1.000510298113278,122.16390671837462
6.418524672,1.0003214879993845,122.00482627020654
6.420811776,1.0001120395111198,121.84863750051642
6.42309888,0.9998953378520679,121.69556547355226
6.425385984,0.9996849802285444,121.54561885487969
6.427673088,0.9994943497005916,121.39861016043291
6.429960192,0.9993356183307063,121.25417524713282
6.432246784,0.9992185263257111,121.11175167607087
6.434533888,0.9991508419223541,120.97070981882692
6.436820992,0.99913670972597,120.83028506499929
6.439108096,0.9991772430093491,120.68966360323297
6.4413952,0.9992694644641504,120.54811210159241
6.443682304,0.9994080258321222,120.40492862185783
6.445968896,0.9995838437410279,120.25944311985214
6.448256,0.9997859701411748,120.11124078077088
6.450543104,1.0000014428169082,119.96005501234153
6.452830208,1.0002167314522972,119.80572090047235
6.455117312,1.00041830737103,119.64839257342904
6.457404416,1.000593135161921,119.4883573845351
6.459691008,1.0007304565552433,119.32608890055157
6.461978112,1.0008213785965776,119.16216233015027
6.464265216,1.0008602152817214,118.99730618809092
6.46655232,1.000844668291576,118.8323221983507
6.468839424,1.0007753717943024,118.66797185593371
6.471126528,1.0006568779204446,118.50498199814652
6.473413632,1.0004966985854717,118.34403178627232
6.475700224,1.0003047366021767,118.18567836979315
6.477987328,1.000093402318794,118.03024404826955
6.480274432,0.9998757501271489,117.87797466596153
6.482561536,0.9996658850374003,117.72881002614766
6.48484864,0.9994767931456437,117.58255129360538
6.487135744,0.9993206250839902,117.43885790168075
6.489422336,0.9992073109629925,117.29711918912737
6.49170944,0.9991439340540291,117.1567357907084
6.493996544,0.9991346234301438,117.01685791178564
6.496283648,0.9991798940128672,116.87674908176224
6.498570752,0.9992770811966862,116.73563868731979
6.500857856,0.9994198706143723,116.59280262297823
6.503144448,0.9995992608885638,116.44764963103803
6.505431552,0.999803847353308,116.29968577228313
6.507718656,1.000020845022348,116.14871139188894
6.51000576,1.0002363375106236,115.99462263410425
6.512292864,1.000436793460581,115.83750582460053
6.514579968,1.0006093972139842,115.67772144193118
6.51686656,1.0007434778249291,115.51571947846452
6.519153664,1.0008303567650518,115.35212935999681
6.521440768,1.0008645270563852,115.18769457455767
6.523727872,1.0008439343274342,115.02317681440798
6.526014976,1.0007697957791128,114.85936201189304
6.52830208,1.0006468254329972,114.6969860516265
6.530588672,1.0004825972625113,114.53671376036182
6.532875776,1.000287637148651,114.37907585512878
6.53516288,1.0000742507829659,114.22440875089474
6.537449984,0.9998560188468997,114.07290157306522
6.539737088,0.9996465036570215,113.92454263338514
6.542024192,0.9994592336032193,113.7790513013751
6.544310784,0.9993058770953268,113.63609065573114
6.546597888,0.9991962081689518,113.49502843697216
6.548884992,0.9991373601995513,113.35524214690784
6.551172096,0.9991328890645279,113.21595800843421
6.5534592,0.9991832826995602,113.07631320664427
6.555746304,0.9992851928543667,112.93560704901256
6.558033408,0.9994322456336329,112.79312253552678
6.56032,0.9996151865497569,112.64823218373081
6.562607104,0.9998222265888237,112.50053521721067
6.564894208,1.0000405565159793,112.3497945100783
6.567181312,1.0002561066614712,112.19588846941846
6.569468416,1.0004553494413633,112.03899543843113
6.57175552,1.0006256876361317,111.87943934692159
6.574042112,1.0007563341024353,111.71770214131807
6.576329216,1.0008389393809736,111.55448506209952
6.57861632,1.00086836609481,111.39042079336949
6.580903424,1.0008427855277442,111.22636192861718
6.583190528,1.0007636960294874,111.06310091388463
6.585477632,1.0006361715445007,110.90133162594027
6.587764224,1.000468021154705,110.74173346732546
6.590051328,1.0002701372834015,110.5848023370279
6.592338432,1.000054931377022,110.43089826596415
6.594625536,0.9998358436110872,110.2801645474253
6.59691264,0.9996270518142357,110.13257337105836
6.599199744,0.9994414947953288,109.98786782384714
6.601486336,0.9992910734044744,109.84560450649828
6.60377344,0.9991854651949642,109.70523018310097
6.606060544,0.9991311057438748,109.5660450562651
6.608347648,0.999131626872303,109.42730830678863
6.610634752,0.9991869693934777,109.28813127248058
6.612921856,0.999293827610466,109.14781439076876
6.615208448,0.9994451164941643,109.00565796592917
6.617495552,0.9996316067439859,108.86104326446825
6.619782656,0.9998410943414808,108.71358021373072
6.62206976,1.0000605358708057,108.56301595819019
6.624356864,1.0002761602383559,108.4092904100881
6.626643968,1.000474192645764,108.25261398589177
6.628931072,1.000641902479116,108.09326655078839
6.631217664,1.000769083803585,107.93183012170506
6.633504768,1.0008474592679386,107.76890807466752
6.635791872,1.000871948023043,107.60525578008706
6.638078976,1.000841315333292,107.44168167311815
6.64036608,1.0007571842212695,107.27895206716985
6.642653184,1.0006249583791447,107.1178010860902
6.644939776,1.000453056271533,106.95885842897077
6.64722688,1.0002521355430065,106.80264086531182
6.649513984,1.0000350203999335,106.64948616649872
6.651801088,0.9998154421363785,106.49953022468208
6.654088192,0.9996073335330153,106.35269314013607
6.656375296,0.9994237928961378,106.2087217188646
6.658661888,0.999276441908231,106.06718888582199
6.660948992,0.9991747243288576,105.92748122430305
6.663236096,0.999125152589169,105.78888828127168
6.6655232,0.9991307565406595,105.65064886700698
6.667810304,0.9991912810790466,105.51194951003377
6.670097408,0.9993028848998224,105.37202497217739
6.672384,0.9994584539006117,105.23014572612888
6.674671104,0.9996482167818546,105.08581323229164
6.676958208,0.9998602620680819,104.93854768724255
6.679245312,1.000080817322749,104.78816101716225
6.681532416,1.000296305613698,104.63461191564329
6.68381952,1.0004928499785335,104.47812150018467
6.686106112,1.000658003253689,104.31902290407231
6.688393216,1.000781586948124,104.15781986402857
6.69068032,1.000855485592186,103.9952363391066
6.692967424,1.000875001699607,103.83197607019548
6.695254528,1.0008392367434802,103.668858281759
6.697541632,1.0007500742917412,103.50664443389758
6.699828224,1.000613310021673,103.34610297007713
6.702115328,1.0004375502962723,103.18783306567725
6.704402432,1.0002337000286743,103.032340898799
6.706689536,1.0000149148695474,102.87991531682349
6.70897664,0.9997949069392096,102.73072790313468
6.711263744,0.9995875480603162,102.58464492984503
6.713550848,0.9994061193747598,102.4414103194783
6.71583744,0.9992620974181928,102.30057540890836
6.718124544,0.999164479866669,102.1615183649313
6.720411648,0.9991197452336602,102.02350442084754
6.722698752,0.9991304159254978,101.88576826484568
6.724985856,0.9991961934889942,101.74750427498911
6.72727296,0.9993126354496717,101.60793473217079
6.729559552,0.9994724896659116,101.46635880870456
6.731846656,0.9996657839589361,101.32223228485098
6.73413376,0.9998799207029135,101.17518403714882
6.736420864,1.0001016507254918,101.02496170115569
6.738707968,1.000316770799826,100.87158321093426
6.740995072,1.0005117769944074,100.71526722317016
6.743281664,1.0006741810479816,100.55637794434124
6.745568768,1.0007939243198825,100.3954250351152
6.747855872,1.0008632533222004,100.23315382370536
6.750142976,1.0008778592810843,100.0702517423934
6.75243008,1.0008368158657144,99.90758518882998
6.754717184,1.0007425776596506,99.74591496013146
6.757003776,1.0006011100551122,99.58595469489752
6.75929088,1.000421502402823,99.42836053342877
6.761577984,1.0002148941207853,99.27356230925811
6.763865088,0.9999943720158592,99.12190125065518
6.766152192,0.9997740128514027,98.97344979831895
6.768439296,0.9995676404487644,98.82813047489766
6.770725888,0.9993884625308112,98.68563389670601
6.773012992,0.9992476549215935,98.54547963550668
6.775300096,0.999154406457028,98.40704201708023
6.7775872,0.9991145331872637,98.26960881563262
6.779874304,0.9991305995527124,98.13237306724436
6.782161408,0.9992014764333789,97.99451341643335
6.784448512,0.9993228193338398,97.85526411415316
6.786735104,0.999486987868214,97.71395931944762
6.789022208,0.9996835653843231,97.5700552045682
6.791309312,0.9998999149739807,97.42317084743787
6.793596416,1.00012256108755,97.27310080016619
6.79588352,1.000337378714847,97.11989051704936
6.798170624,1.0005305776032771,96.96373284725067
6.800457216,1.0006903106845875,96.80500848496065
6.80274432,1.0008060051685923,96.64433631793453
6.805031424,1.0008707008856537,96.4823332967384
6.807318528,1.0008801565798484,96.3198394670261
6.809605632,1.0008337589530563,96.15760654290293
6.811892736,1.000734350438907,95.99645733099408
6.814179328,1.000588316193737,95.83711172888263
6.816466432,1.0004049086727012,95.68016384476485
6.818753536,1.0001955476219433,95.526074650362
6.82104064,0.9999735031481793,95.37514062499012
6.823327744,0.9997528911808681,95.22743888069452
6.825614848,0.9995476557038666,95.0828703301479
6.82790144,0.9993708217161739,94.94107366210542
6.830188544,0.9992336109722396,94.80159926399439
6.832475648,0.9991446188336592,94.6637800306467
6.834762752,0.9991098317663876,94.52688431820167
6.837049856,0.9991310756082922,94.39010796245137
6.83933696,0.999207310324219,94.25263744742098
6.841623552,0.9993335999828543,94.11373011266225
6.843910656,0.999502048728441,93.9726561443331
6.84619776,0.9997018066041956,93.82895640905527
6.848484864,0.999920431495244,93.68221275059132
6.850771968,1.0001439078801393,93.53229104428868
6.853059072,1.000358172444759,93.37920054761601
6.855345664,1.000549704546042,93.22318161653386
6.857632768,1.0007062398461184,93.06463607094994
6.859919872,1.000817975273976,92.90418889627371
6.862206976,1.0008778368283207,92.74251026482276
6.86449408,1.0008820879607518,92.5803522028471
6.866781184,1.0008302747098416,92.41858910553044
6.869068288,1.0007257879107598,92.25795575747715
6.87135488,1.0005751583978029,92.09919818964822
6.873641984,1.0003878863019213,91.94288728257516
6.875929088,1.00017576148875,91.78951098736653
6.878216192,0.9999522615409391,91.6392958554934
6.880503296,0.9997315384181553,91.49232969331766
6.8827904,0.9995275830184503,91.34847785688038
6.885076992,0.9993531981558833,91.207373306269
6.887364096,0.999219622577876,91.06857623377181
6.8896512,0.9991351703159086,90.93135363473102
6.891938304,0.9991053623148112,90.7949796481448
6.894225408,0.9991321330820723,90.65866092407452
6.896512512,0.999213728651491,90.52155911715494
6.898799104,0.9993450318895141,90.38293285522067
6.901086208,0.9995175434615066,90.24211753701647
6.903373312,0.9997206821351442,90.09857640024855
6.905660416,0.9999412828558396,89.95198904629497
6.90794752,1.000165464386489,89.80216145495847
6.910234624,1.0003791207489579,89.6491924045157
6.912521216,1.0005686555520996,89.49329078606695
6.91480832,1.000721994419352,89.3349328238599
6.917095424,1.000829572703653,89.17469299873409
6.919382528,1.0008846481781297,89.01330048437556
6.921669632,1.0008835424857208,88.85151318638091
6.923956736,1.0008262084057011,88.69016911905646
6.926243328,1.0007165076649527,88.53005747613366
6.928530432,1.00056129177865,88.37187999125273
