freq,mag,phase
6.0,1.0004587241539937,-85.20326195224354
6.002286592,1.000668313839511,-85.34206973903903
6.004572672,1.000835635123433,-85.4835966327143
6.006859264,1.0009497888351122,-85.6272461283352
6.009145344,1.0010038982925762,-85.77210566841109
6.011431936,1.0009941837580256,-85.91729062520554
6.013718016,1.0009212969685748,-86.06187790790905
6.016004608,1.0007899182870525,-86.20508786738455
6.018290688,1.0006083034507092,-86.34596796250878
6.02057728,1.0003879500357296,-86.48394933917398
6.022863872,1.0001429917851468,-86.61859047133402
6.025149952,0.9998887014517002,-86.7496124675595
6.027436544,0.9996415479838988,-86.87700337153322
6.029722624,0.9994170783818452,-87.00091359554709
6.032009216,0.9992295237868717,-87.12186924511752
6.034295296,0.9990911805912289,-87.24045327492945
6.036581888,0.9990108252265727,-87.35750494021475
6.03886848,0.9989932260080113,-87.47380266761809
6.04115456,0.9990398244439421,-87.59033884059184
6.043441152,0.9991476876471425,-87.7079956365097
6.045727232,0.9993097172414698,-87.82765534964739
6.048013824,0.999515905183713,-87.9500129668611
6.050299904,0.9997530893636981,-88.07563953246323
6.052586496,1.000006016232398,-88.20486186445751
6.054872576,1.0002587095807862,-88.33768350406774
6.057159168,1.000495054632137,-88.47418698754579
6.05944576,1.0007000366792382,-88.61389873553206
6.06173184,1.0008606901363537,-88.75626838487507
6.064018432,1.0009666402855044,-88.90058545848656
6.066304512,1.001011483804436,-89.04601032340399
6.068591104,1.000992017719839,-89.19166272342223
6.070877184,1.000909432788934,-89.33655677978908
6.073163776,1.0007692455369643,-89.4798818420658
6.075450368,1.000580168744434,-89.62081606093074
6.077736448,1.0003538574240647,-89.758777050489
6.08002304,1.0001053290639779,-89.89323875800358
6.08230912,0.9998499443430995,-90.02409920197523
6.084595712,0.9996039559148421,-90.15131362799995
6.086881792,0.9993830514437788,-90.27513853100469
6.089168384,0.9992015624313325,-90.39602350558663
6.091454464,0.9990707194777166,-90.51468067513457
6.093741056,0.9989991857793131,-90.63184529291391
6.096027648,0.9989913013220404,-90.74841814133495
6.098313728,0.9990475684632633,-90.86539758335715
6.10060032,0.9991645908626952,-90.98361938786432
6.1028864,0.9993351883790191,-91.10400327797225
6.105172992,0.9995477838114687,-91.2271364879992
6.107459072,0.9997897003173085,-91.35360357048818
6.109745664,1.0000447305188083,-91.48374366300897
6.112032256,1.0002972327666568,-91.61758536105172
6.114318336,1.0005310515673274,-91.75495155822307
6.116604928,1.0007310685491817,-91.89553857372043
6.118891008,1.0008846977298076,-92.0386842535831
6.1211776,1.000982478571276,-92.18366581773614
6.12346368,1.001017711339452,-92.32963095962394
6.125750272,1.0009884703430243,-92.47561900243508
6.128036352,1.000896516027065,-92.6207959056229
6.130322944,1.0007473828213498,-92.76423796616808
6.132609536,1.0005509227391176,-92.9051558773744
6.134895616,1.0003193582575005,-93.04300691932085
6.137182208,1.0000673335861394,-93.177363221869
6.139468288,0.9998111340802307,-93.30799556924988
6.14175488,0.9995666280921183,-93.43503240366333
6.14404096,0.9993498590452182,-93.55867098583073
6.146327552,0.9991743601692648,-93.67948902725817
6.148614144,0.9990513077278328,-93.79816005568033
6.150900224,0.998988827354191,-93.91546347550303
6.153186816,0.9989905887734974,-94.03229707015245
6.155472896,0.9990567324703854,-94.14968804064293
6.157759488,0.9991830494307234,-94.26851359893473
6.160045568,0.9993614232396566,-94.38949422173137
6.16233216,0.999580548993602,-94.51347523811452
6.16461824,0.999826438371306,-94.64079326394675
6.166904832,1.000083555796427,-94.77179417719589
6.169191424,1.0003356096994915,-94.90656089348846
6.171477504,1.000566198522254,-95.04482433609103
6.173764096,1.0007611165577588,-95.18622110818224
6.176050176,1.000907759562037,-95.33005303911132
6.178336768,1.0009967960372306,-95.47565210270295
6.180622848,1.0010225565500026,-95.6221159937797
6.18290944,1.0009835517513053,-95.7684946386528
6.18519552,1.0008820886559073,-95.91384616345027
6.187482112,1.0007244610264292,-96.05733444719847
6.189768704,1.000520699605303,-96.19823784847732
6.192054784,1.0002839772311265,-96.33590230927618
6.194341376,1.0000289981069004,-96.47006652465569
6.196627456,0.9997723168837505,-96.60047203174815
6.198914048,0.9995298998781253,-96.72727943489386
6.201200128,0.99931735471011,-96.8507676726348
6.20348672,0.9991479803594268,-96.97148083384704
6.205773312,0.9990331317589904,-97.090127905824
6.208059392,0.9989798205275262,-97.20754692845561
6.210345984,0.9989913010681635,-97.32469194434738
6.212632064,0.9990671808702606,-97.442490100108
6.214918656,0.9992025325419872,-97.56179911729149
6.217204736,0.999388745452642,-97.68346885574151
6.219491328,0.9996138650821942,-97.80820700427788
6.221777408,0.9998639264152668,-97.93634632439465
6.224064,1.0001225915209309,-98.06823879539574
6.226350592,1.0003736044806313,-98.20384252701791
6.228636672,1.0006010583380314,-98.34297603462335
6.230923264,1.0007903992045857,-98.48511494146474
6.233209344,1.0009296305683202,-98.62969375457509
6.235495936,1.0010099715775556,-98.77586173149984
6.237782016,1.0010262252763023,-98.92272775091307
6.240068608,1.0009772153146084,-99.06936689829718
6.2423552,1.0008662376501045,-99.21485149727764
6.24464128,1.000700308469969,-99.35836328312766
6.246927872,1.000489761112502,-99.49916678700554
6.249213952,1.000248030733637,-99.63666892294826
6.251500544,0.9999905141089946,-99.77058897570996
6.253786624,0.9997334468077754,-99.90074543395225
6.256073216,0.9994932620150083,-100.02725282922016
6.258359296,0.9992853702880264,-100.15055911839
6.260645888,0.9991227730717328,-100.27114258719915
6.26293248,0.9990161318974944,-100.38974314002459
6.26521856,0.9989721156888063,-100.50730797743763
6.267505152,0.9989936334994379,-100.62468370050684
6.269791232,0.9990790928601405,-100.74283986464887
6.272077824,0.9992234562665557,-100.8627082895741
6.274363904,0.9994170956707497,-100.98506248717517
6.276650496,0.9996481979530882,-101.11050259333965
6.278937088,0.9999017518844773,-101.2394882232077
6.281223168,1.0001617202379272,-101.37218687585603
6.28350976,1.0004115346906495,-101.50864765089764
6.28579584,1.0006351677220993,-101.64854900144744
6.288082432,1.000818741515684,-101.7914458031421
6.290368512,1.0009503406239257,-101.93662718090611
6.292655104,1.0010216401974201,-102.08329082457159
6.294941184,1.00102823772891,-102.230554013202
6.297227776,1.0009695094766553,-102.377434299776
6.299514368,1.0008492303796133,-102.52304323573019
6.301800448,1.000675037135151,-102.66648660744634
6.30408704,1.000457730129294,-102.80716176149734
6.30637312,1.000211537301513,-102.94440784428282
6.308659712,0.9999516601996427,-103.07801645503417
6.310945792,0.9996947403006957,-103.20788838384107
6.313232384,0.9994572584217533,-103.33414413186104
6.315518464,0.9992542934769223,-103.45721365494437
6.317805056,0.9990987119473752,-103.57767594084774
6.320091648,0.9990003065323009,-103.69625457561769
6.322377728,0.9989657850398121,-103.81388342044878
6.32466432,0.9989970330200016,-103.93151142861046
6.3269504,0.9990922570710691,-104.0500286562209
6.329236992,0.999245395513029,-104.17040145620295
6.331523072,0.9994466036055984,-104.29336445485606
6.333809664,0.9996831579261972,-104.41953686669105
6.336096256,0.9999400045655565,-104.54929087505437
6.338382336,1.000200801510328,-104.682856645204
6.340668928,1.0004489364753153,-104.82010949729265
6.342955008,1.0006687444873512,-104.96078189588347
6.3452416,1.000846120271732,-105.10433862452813
6.34752768,1.000969928832094,-105.25009113351521
6.349814272,1.0010322524863022,-105.39724226166825
6.352100352,1.0010290421813637,-105.54480726648166
6.354386944,1.0009604527528706,-105.69187717854817
6.356673536,1.0008308717927648,-105.83749249510714
6.358959616,1.0006484965541427,-105.98090363165997
6.361246208,1.0004250114567665,-106.1213218419071
6.363532288,1.0001742904825643,-106.25832058750393
6.36581888,0.9999124911868195,-106.39161905438743
6.36810496,0.9996561502832544,-106.52109106222377
6.370391552,0.9994216156438288,-106.64709156676753
6.372678144,0.9992238040061798,-106.76987235142126
6.374964224,0.9990753115133301,-106.8901253006973
6.377250816,0.9989857987999093,-107.0086675689968
6.379536896,0.9989607773750313,-107.12638810139066
6.381823488,0.9990019787549603,-107.24424688560111
6.384109568,0.9991067758013488,-107.36312247091246
6.38639616,0.9992685860931041,-107.48400361153506
6.38868224,0.9994769188944924,-107.60756591661719
6.390968832,0.9997187177034728,-107.73443574767076
6.393255424,0.9999786703234732,-107.8649583898211
6.395541504,1.0002399151141634,-107.99924542703059
6.397828096,1.0004861709851998,-108.13729390778327
6.400114176,1.0007016905611494,-108.2786672794879
6.402400768,1.000872698185623,-108.42290010138841
6.404686848,1.0009884587186475,-108.56918821226103
6.40697344,1.0010414335460527,-108.71673506602905
6.409260032,1.0010283580163286,-108.86458186158218
6.411546112,1.0009501278431172,-109.0117171483774
6.413832704,1.0008114600232938,-109.1573830016242
6.416118784,1.0006211600667223,-109.30061020118009
6.418405376,1.0003913807615592,-109.44078820191449
6.420691456,1.0001367260866736,-109.57747463583233
6.422978048,0.9998732940716272,-109.71039643549193
6.425264128,0.9996178301722382,-109.83956046870385
6.42755072,0.9993866447784726,-109.96513420771029
6.429837312,0.9991943012249795,-110.08766417589689
6.432123392,0.9990532997830459,-110.20775077445192
6.434409984,0.9989725887352339,-110.32622181309351
6.436696064,0.9989572231199667,-110.44397846641304
6.438982656,0.9990082600925843,-110.56203796811751
6.441268736,0.9991226484775542,-110.68130254726954
6.443555328,0.9992929063745416,-110.80265025687558
6.44584192,0.999508309073571,-110.9267996788765
6.448128,0.9997551023347471,-111.05433784343215
6.450414592,1.000017632626196,-111.18555228475694
6.452700672,1.0002791990097164,-111.32058509072579
6.454987264,1.0005230946844699,-111.45936631960126
6.457273344,1.000733878764391,-111.60143456555939
6.459559936,1.0008983006161043,-111.74625730785773
6.461846016,1.0010057263272112,-111.89301891166672
6.464132608,1.0010492624358462,-112.04088740705735
6.4664192,1.0010263276731022,-112.18895724837134
6.46870528,1.000938205093114,-112.33619476188096
6.470991872,1.000790502381051,-112.48176090473318
6.473277952,1.0005925610022786,-112.62480471359696
6.475564544,1.0003569197083675,-112.76469538216844
6.477850624,1.0000985497138424,-112.90098813480739
6.480137216,0.9998337905863061,-113.03353546197356
6.482423296,0.9995794972625456,-113.16227734561879
6.484709888,0.9993519859219702,-113.2874876544294
6.48699648,0.9991655782629352,-113.4097032785267
6.48928256,0.9990322797393666,-113.52957482255776
6.491569152,0.9989604943522924,-113.64793631799571
6.493855232,0.9989549837665732,-113.76576417164961
6.496141824,0.9990160768808634,-113.88403127136684
6.498427904,0.9991397709205139,-114.0036128798909
6.500714496,0.9993184048458055,-114.12538528124136
6.503001088,0.9995405138904025,-114.2501003684704
6.505287168,0.9997921044918459,-114.37827010614375
6.50757376,1.0000568605668305,-114.5101997392181
6.50985984,1.0003183048345783,-114.64596986376816
6.512146432,1.000559604013622,-114.78544330391689
6.514432512,1.0007654927204577,-114.92813665437652
6.516719104,1.0009228949166153,-115.07346677641216
6.519005184,1.0010217361947886,-115.22068343590864
6.521291776,1.0010558661286164,-115.36888804766478
6.523578368,1.0010228723937096,-115.51707599142128
6.525864448,1.0009250514931753,-115.66433856078068
6.52815104,1.0007684676569355,-115.80976044920858
6.53043712,1.000563063077149,-115.95255390115749
6.532723712,1.0003216857999706,-116.09210107002026
6.535009792,1.0000599027537216,-116.22798723166893
6.537296384,0.999794272493028,-116.36004802803282
6.539582976,0.9995414669109285,-116.48836961054991
6.541869056,0.999317946992914,-116.61319323511678
6.544155648,0.9991377058423678,-116.73505104297239
6.546441728,0.999012314211828,-116.85470703853885
6.54872832,0.9989498132512182,-116.9729543156114
6.5510144,0.9989541466564474,-117.09080833389665
6.553300992,0.9990251006493991,-117.20921383187388
6.555587072,0.9991583159349896,-117.32909408459074
6.557873664,0.9993451198296224,-117.45132703993106
6.560160256,0.999573744332115,-117.5766012397664
6.562446336,0.9998295877980952,-117.70541300642554
6.564732928,1.000096641754527,-117.83801498698033
6.567019008,1.0003574715578527,-117.97447897709667
6.5693056,1.0005958182554768,-118.1145532178678
6.57159168,1.0007964222236636,-118.2578459661425
6.573878272,1.0009465905146346,-118.4036865385523
6.576164864,1.001036587979927,-118.55126486684775
6.578450944,1.001061100997344,-118.69972215909124
6.580737536,1.0010181353469552,-118.84798473114643
6.583023616,1.00091057662207,-118.99518760299213
6.585310208,1.000745149935508,-119.14043938673585
6.587596288,1.0005324218608243,-119.28295190726836
6.58988288,1.0002858190056922,-119.42208756329856
6.59216896,1.0000208439066545,-119.55753742173343
6.594455552,0.999754486982459,-119.68911611770291
6.596742144,0.9995037947270023,-119.81691788964183
6.599028224,0.9992844823314084,-119.9412902627594
6.601314816,0.9991106909423277,-120.0628275204765
6.603600896,0.9989935012268497,-120.18222146874604
6.605887488,0.9989403344723341,-120.30035909525297
6.608173568,0.9989547285001933,-120.41823201639632
6.61046016,0.9990356776028799,-120.53679841044269
6.612746752,0.9991781400344354,-120.65696769579424
6.615032832,0.9993730422059702,-120.77961009988107
6.617319424,0.999607923667042,-120.9054012839387
6.619605504,0.9998679073589924,-121.03479416182907
6.621892096,1.0001364393426984,-121.16804198880479
6.624178176,1.0003964498831186,-121.30512260882217
6.626464768,1.0006314752214773,-121.44583057109944
6.628750848,1.000826460155715,-121.5896476641934
6.63103744,1.0009690856165758,-121.7359176689954
6.633324032,1.0010502625734454,-121.88384171590943
6.635610112,1.0010649597630592,-122.03246485795258
6.637896704,1.001011924704965,-122.1807980811828
6.640182784,1.00089474525374,-122.32790523339364
6.642469376,1.0007206703689597,-122.47290588411255
6.644755456,1.0005007818800584,-122.61505569591796
6.647042048,1.0002489706807092,-122.75375019129434
6.649328128,0.9999814370511659,-122.88868936020255
6.65161472,0.999714802822122,-123.01974198932191
6.653901312,0.9994662820128905,-123.14703915422692
6.656187392,0.9992517190795375,-123.27094836452653
6.658473984,0.9990846544078482,-123.39209576294277
6.660760064,0.9989759147239559,-123.51119251544775
6.663046656,0.9989323157187326,-123.6291643749753
6.665332736,0.9989567449334723,-123.74705325997238
6.667619328,0.9990476547214185,-123.86575929799363
6.66990592,0.9991993026669219,-123.98623053967029
6.672192,0.9994020207060375,-124.10927340181294
6.674478592,0.9996429690393679,-124.23554126468221
6.676764672,0.9999066646366731,-124.3654861208583
6.679051264,1.0001766014158209,-124.49936620407024
6.681337344,1.0004353722893546,-124.63705041512803
6.683623936,1.0006666192735423,-124.77831328100862
6.685910016,1.0008557568288328,-124.92262195693525
6.688196608,1.0009905530024732,-125.06931360096249
6.6904832,1.0010626238618223,-125.21746935384331
6.69276928,1.0010673186848464,-125.36623131548707
6.695055872,1.0010042374453496,-125.5145814867735
6.697341952,1.000877380652286,-125.6615108097732
6.699628544,1.0006948325805805,-125.80623471056118
6.701914624,1.0004680639642443,-125.94793858223157
6.704201216,1.0002115016754525,-126.08618186150805
6.706487808,0.9999414324923683,-126.22054402652124
6.708773888,0.9996749735875969,-126.35101548292513
6.71106048,0.999429198437905,-126.47774561105344
6.71334656,0.9992194748998521,-126.60118809263872
6.715633152,0.999059540608719,-126.72190998123577
6.717919232,0.998959336943036,-126.84073380596948
6.720205824,0.9989255230585581,-126.95856547985971
6.722491904,0.9989600553634455,-127.0763722330051
6.724778496,0.9990609162974647,-127.19522218295158
6.727065088,0.9992217378875223,-127.31591227631098
6.729351168,0.9994321080186015,-127.43935113515369
6.73163776,0.9996788115474922,-127.5661025599923
6.73392384,0.999946049123744,-127.69664307551189
6.736210432,1.000216940183245,-127.83104168419423
6.738496512,1.0004741317335344,-127.96931196991166
6.740783104,1.0007013842415393,-128.1110985108295
6.743069696,1.0008841812770286,-128.25587614234934
6.745355776,1.0010110137917303,-128.40288026284364
6.747642368,1.0010737143155026,-128.5512918164785
6.749928448,1.0010683124340056,-128.70008954603796
6.75221504,1.000995151608898,-128.8483408920513
6.75450112,1.000858719113344,-128.995070805927
6.756787712,1.0006678382757175,-129.13940717952067
6.759073792,1.0004343378400762,-129.28072480340776
6.761360384,1.0001733225854632,-129.41834617952387
6.763646976,0.9999010926854888,-129.55215153440838
6.765933056,0.999635092736124,-129.6820324356294
6.768219648,0.9993922222966748,-129.8081594840883
6.770505728,0.9991879014499316,-129.93107566409455
6.77279232,0.9990352863216608,-130.05133720783883
6.7750784,0.9989440669661495,-130.1698417191706
6.777364992,0.9989200398659749,-130.28749079419018
6.779651584,0.9989649065297959,-130.40527342456824
6.781937664,0.9990756891834813,-130.52418026338748
6.784224256,0.9992454114931714,-130.64517240576217
6.786510336,0.9994632812728492,-130.76897577972574
6.788796928,0.9997153844906908,-130.89617377278194
6.791083008,0.9999858916778075,-131.02720717499238
6.7933696,1.0002573334259237,-131.16215702333236
6.79565568,1.0005126570562883,-131.30099416168795
6.797942272,1.0007354817644185,-131.4432060252758
6.800228864,1.0009118080885882,-131.5884028409006
6.802514944,1.0010302726268097,-131.73570068982178
6.804801536,1.0010834402372735,-131.8842798555103
6.807087616,1.001067866554001,-132.0330893631511
6.809374208,1.0009845972397462,-132.1812289774171
6.811660288,1.0008387565496024,-132.32766382899595
6.81394688,1.0006396042940624,-132.4716049908634
6.81623296,1.0003997415892305,-132.61234722421472
6.818519552,1.0001344405422938,-132.74941972472874
6.820806144,0.9998605178808114,-132.88258716908916
6.823092224,0.9995953248296588,-133.01179422998774
6.825378816,0.999355806113323,-133.1373311214316
6.827664896,0.9991572559991075,-133.2596802761297
6.829951488,0.999012284037478,-133.3794582188705
6.832237568,0.9989301393270211,-133.4976485478593
6.83452416,0.9989162275626553,-133.6150952933808
6.836810752,0.9989712857921332,-133.7328228621996
6.839096832,0.9990919016606733,-133.8518501438626
6.841383424,0.999270560300799,-133.97304738977198
6.843669504,0.9994956928664833,-134.0971867881707
6.845956096,0.9997530818077598,-134.22483251695058
6.848242176,1.0000263362119386,-134.35632390286148
6.850528768,1.0002980299316218,-134.49178789713852
6.852814848,1.0005510171988,-134.63106399608094
6.85510144,1.0007691664896519,-134.77377524617268
6.857388032,1.0009385326814149,-134.9192873682954
6.859674112,1.0010483929072944,-135.0668571173513
6.861960704,1.0010918408336955,-135.21552117942946
6.864246784,1.0010660071886839,-135.36429548519413
6.866533376,1.0009725711340023,-135.5122532854036
6.868819456,1.0008173602082915,-135.65835005023587
6.871106048,1.000610049929745,-135.80183266334464
6.87339264,1.0003640888048029,-135.94202423473627
6.87567872,1.0000948246951609,-136.07844915326555
6.877965312,0.9998194227062299,-136.21093397135965
6.880251392,0.9995554784478023,-136.33945686383967
6.882537984,0.9993197380952767,-136.46432661540905
6.884824064,0.9991271389985628,-136.5860769763869
6.887110656,0.9989901436150106,-136.70541154490257
6.889396736,0.9989174016073159,-136.82317892955987
6.891683328,0.9989135966465205,-136.94043564393633
6.89396992,0.9989790162616901,-137.05811023306052
6.896256,0.9991095322195268,-137.17720118607585
6.898542592,0.9992968682895719,-137.29859697574025
6.900828672,0.9995291319944927,-137.4230189114272
6.903115264,0.9997914677938374,-137.5510822000445
6.905401344,1.000067176360201,-137.68308486781996
6.907687936,1.0003388508331685,-137.81902590775647
6.909974528,1.0005891286359925,-137.9587591067547
