freq,mag,phase
6.0,1.0006109838776613,7.2310432207354225
6.01076736,1.0007321067471884,6.906136218763714
6.021534208,1.0008166370233476,6.579946390516485
6.032301568,1.0008604830864476,6.252870546870847
6.043068416,1.0008612512973023,5.925434714963217
6.053835776,1.0008190784178492,5.598227873118962
6.064603136,1.0007359647034169,5.271810043944417
6.075369984,1.0006159170532742,4.946602498299333
6.086137344,1.0004650213563757,4.623188800547679
6.096904192,1.0002907428983094,4.30175285098745
6.107671552,1.0001017164138384,3.982677766786086
6.118438912,0.9999073374861555,3.6659980038205586
6.12920576,0.9997173742334814,3.3517861707404117
6.13997312,0.9995413918715417,3.03987050120109
6.15074048,0.9993880795267187,2.7301016459174594
6.161507328,0.999265303488022,2.4220309013492196
6.172274688,0.9991790693882611,2.115300628534593
6.183041536,0.9991338394736153,1.8094277893734407
6.193808896,0.9991319172530039,1.5037618665982624
6.204576256,0.99917331414357,1.1978819935498437
6.215343104,0.9992562924495382,0.8911297516590235
6.226110464,0.9993762389387888,0.5830172424532148
6.236877312,0.9995277884754649,0.2731794916253492
6.247644672,0.9997030409349209,-0.0388397781823693
6.258412032,0.9998932407690815,-0.35327537947710436
6.26917888,1.0000889213678046,-0.6701993245822692
6.27994624,1.0002803416153918,-0.9896534892866701
6.290713088,1.0004580705330235,-1.3115150334081722
6.301480448,1.0006129426584691,-1.6355756578122087
6.312247808,1.0007372626306212,-1.9614395240933373
6.323014656,1.0008250926951792,-2.2887318138809696
6.333782016,1.0008715908644885,-2.6169323228072567
6.344549376,1.0008746547469938,-2.9454947179465045
6.355316224,1.0008339527353147,-3.2738442565030983
6.366083584,1.0007516960350358,-3.601438719311724
6.376850432,1.000631713935708,-3.9277758751995733
6.387617792,1.000479997682874,-4.2524240109111755
6.398385152,1.0003042019336097,-4.574976365805904
6.409152,1.0001127963833272,-4.895229945803053
6.41991936,0.999915705052916,-5.212994244658296
6.430686208,0.9997225209805909,-5.528302390282747
6.441453568,0.9995430910534331,-5.841240981714473
6.452220928,0.9993861221586539,-6.152022781250202
6.462987776,0.9992597778559542,-6.461016702776107
6.473755136,0.9991702589990844,-6.768665269332376
6.484521984,0.9991222195671469,-7.075414002510768
6.495289344,0.9991179290132158,-7.381901004926574
6.506056704,0.9991577644706656,-7.688620282362436
6.516823552,0.9992398247346838,-7.996187337764017
6.527590912,0.9993599783681782,-8.305054680932187
6.53835776,0.9995123055555215,-8.615733790937139
6.54912512,0.9996891669092953,-8.928570172218933
6.55989248,0.9998817385151093,-9.243813326863581
6.570659328,1.0000802350733051,-9.561607705900167
6.581426688,1.0002750913194292,-9.882002263923999
6.592194048,1.0004563708334897,-10.204816497426616
6.602960896,1.000614955801752,-10.52991315548076
6.613728256,1.000743035710038,-10.856848707857244
6.624495104,1.000834174799714,-11.185253292929149
6.635262464,1.0008835387546586,-11.514626639128497
6.646029824,1.0008890219532245,-11.844362717525657
6.656796672,1.0008500337295998,-12.173955527078286
6.667564032,1.000768567348665,-12.502786602177787
6.67833088,1.0006485576950943,-12.830387863428722
6.68909824,1.0004959255065133,-13.15626504390416
6.6998656,1.0003184917477868,-13.48006637796317
6.710632448,1.0001248454484093,-13.801527028175876
6.721399808,0.999924636841007,-14.120467913014242
6.732166656,0.9997279220565375,-14.436939482278751
6.742934016,0.999544670747483,-14.750941798272724
6.753701376,0.9993838948275893,-15.062769775723213
6.764468224,0.9992537742251691,-15.372779637987833
6.775235584,0.9991607722608612,-15.6813554387774
6.786002944,0.999109679294041,-15.989017117806007
6.796769792,0.9991030072109641,-16.29636488532795
6.807537152,0.9991412163836865,-16.603963509891628
6.818304,0.9992223490218506,-16.912349735449016
6.82907136,0.9993425538212348,-17.222089032364746
6.83983872,0.9994957684311337,-17.53354800659482
6.850605568,0.9996743402078186,-17.847281495785108
6.861372928,0.9998692631282083,-18.163413987316577
6.872139776,1.0000710433174476,-18.482149450335633
6.882907136,1.0002695451202757,-18.80349650272862
6.893674496,1.0004545116591035,-19.127340796889154
6.904441344,1.000617196869795,-19.45350540872951
6.915208704,1.000749157285702,-19.781602302834592
6.925975552,1.0008438119249987,-20.11116418686438
6.936742912,1.0008964876332336,-20.441743194722978
6.947510272,1.00090436197793,-20.7727537314412
6.95827712,1.0008670442668017,-21.10362288649823
6.96904448,1.0007864040855596,-21.433778926153416
6.979811328,1.0006664612818466,-21.762677220706962
6.990578688,1.000513023282496,-22.089897221776802
7.001346048,1.0003337457566466,-22.414995423927788
7.012112896,1.0001375034226516,-22.73772633112342
7.022880256,0.9999340487089607,-23.0578937036092
7.033647616,0.9997337885240994,-23.375539779264944
7.044414464,0.999546409373933,-23.690715454181458
7.055181824,0.9993816367563064,-24.003628949639015
7.065948672,0.9992473776003071,-24.314666210795494
7.076716032,0.999150755951773,-24.624275035978833
7.087483392,0.9990963036553455,-24.93290988896637
7.09825024,0.9990870029552911,-25.241170340596224
7.1090176,0.9991234073667079,-25.549634251222663
7.119784448,0.9992037167435567,-25.858902772027353
7.130551808,0.9993239769852923,-26.16948628121338
7.141319168,0.9994778763235118,-26.48190402619428
7.152086016,0.9996584408689666,-26.79645523195251
7.162853376,0.999855976117466,-27.11357140956956
7.173620224,1.0000611338525622,-27.43327745768267
7.184387584,1.0002633275085462,-27.7556349210772
7.195154944,1.0004525669500621,-28.08055516185074
7.205921792,1.0006194445414427,-28.40784148199391
7.216689152,1.0007555438125184,-28.73708818021148
7.227456512,1.0008541146360999,-29.0679215586217
7.23822336,1.000910110000912,-29.399749454758556
7.24899072,1.0009207423059134,-29.732121372782277
7.259757568,1.0008851503880631,-30.064323653789852
7.270524928,1.0008055777002645,-30.395881646969226
7.281292288,1.0006854753978998,-30.726186094724774
7.292059136,1.0005311215184436,-31.05478324032078
7.302826496,1.000349938287518,-31.38124364420352
7.313593344,1.0001509820808487,-31.705308000721175
7.324360704,0.9999441284171254,-32.02680824832541
7.335128064,0.9997399921075238,-32.345699461487435
7.345894912,0.9995482322862091,-32.66207898976388
7.356662272,0.9993789959899779,-32.97619027281576
7.36742912,0.9992404556171002,-33.28832566955935
7.37819648,0.9991398553250118,-33.59894268257373
7.38896384,0.9990819983194652,-33.90860334716024
7.399730688,0.9990700099322211,-34.21778899971065
7.410498048,0.9991043777856653,-34.52724209738434
7.421264896,0.9991836969097541,-34.83742895280243
7.432032256,0.9993039771305056,-35.14891239968017
7.442799616,0.9994591300220047,-35.462220291867986
7.453566464,0.9996414311583182,-35.77774073029561
7.464333824,0.9998418155083334,-36.095811306196104
7.475101184,1.0000504048217151,-36.416528492455015
7.485868032,1.0002567865889194,-36.739945574252694
7.496635392,1.0004505949961486,-37.06601777045545
7.50740224,1.0006219579422886,-37.394443253252334
7.5181696,1.000762567054966,-37.72498052790171
7.52893696,1.0008651035041378,-38.05710868203395
7.539703808,1.0009248457668978,-38.39031193230993
7.550471168,1.0009381303661378,-38.7240362015585
7.561238016,1.000904812867856,-39.057672671573634
7.572005376,1.000826153450025,-39.39068035785574
7.582772736,1.00070605349742,-39.72244184900198
7.593539584,1.0005506409511398,-40.052508547457016
7.604306944,1.0003675382561783,-40.380399228223915
7.615073792,1.0001656404715824,-40.70588704223446
7.625841152,0.999955139649862,-41.02877207139869
7.636608512,0.9997466836795054,-41.348968233007504
7.64737536,0.9995504081924439,-41.66664221900505
7.65814272,0.999376403584604,-41.98193513001544
7.66891008,0.9992333030922619,-42.29522998302518
7.679676928,0.9991283017217515,-42.606941223462
7.690444288,0.9990666584073022,-42.91766116204126
7.701211136,0.9990518524381662,-43.22787296583199
7.711978496,0.9990841716351226,-43.538263302906635
7.722745856,0.9991623521889598,-43.84941465167993
7.733512704,0.9992825507008013,-44.16184794387193
7.744280064,0.9994388092379511,-44.47610901313089
7.755046912,0.9996232470912548,-44.79262218930159
7.765814272,0.9998267209478842,-45.1117104474667
7.776581632,1.000039180595684,-45.433467214302745
7.78734848,1.0002497494312013,-45.75805041938615
7.79811584,1.0004482612806733,-46.085269628793455
7.808882688,1.0006245754330396,-46.414972567971134
7.819650048,1.0007699124808576,-46.74675563864077
7.830417408,1.000877023891409,-47.08023898064008
7.841184256,1.0009404002408908,-47.41487979015271
7.851951616,1.0009568416727173,-47.75010028583168
7.862718464,1.0009256659889403,-48.085258577961504
7.873485824,1.0008481861707266,-48.41978341063527
7.884253184,1.0007281519424454,-48.75308176224295
7.895020032,1.0005715185134696,-49.08462719790648
7.905787392,1.000386213245036,-49.41409995058957
7.916554752,1.0001812313727565,-49.741034760251196
7.9273216,0.9999669361753191,-50.06538443270782
7.93808896,0.9997537430424647,-50.38697560957089
7.948855808,0.9995525772625129,-50.705974471133615
7.959623168,0.9993736246123395,-51.02253058081235
7.970390528,0.9992254968140073,-51.33702920861446
7.981157376,0.9991159913141346,-51.64993167386888
7.991924736,0.9990505375828708,-51.9616880796297
8.002691584,0.9990322347212073,-52.272989294135634
8.013458944,0.9990624711664754,-52.584383807088514
8.024226304,0.9991395073104149,-52.89649605155778
8.034993152,0.9992596308134064,-53.209916908106244
8.045760512,0.9994169276135149,-53.5252061692284
8.05652736,0.9996036688673502,-53.84276048273698
8.06729472,0.9998103384289181,-54.162884091741745
8.07806208,1.0000268423901246,-54.485767806362304
8.088828928,1.0002421946739386,-54.81147580221013
8.099596288,1.0004457309901476,-55.13993202971204
8.110363136,1.000627212959074,-55.470935468735796
8.121130496,1.000777810726476,-55.80410163545129
8.131897856,1.0008895488206218,-56.13902790365768
8.142664704,1.0009571022677939,-56.47514785893035
8.153432064,1.0009768874566811,-56.81187944558698
8.164199424,1.0009479984491867,-57.14864448844967
8.174966272,1.0008717235311395,-57.4847611082754
8.185733632,1.0007517510951751,-57.819678651405475
8.19650048,1.0005940368626407,-58.15284954580797
8.20726784,1.0004063841026547,-58.4838824429563
8.2180352,1.0001980242898376,-58.81242185328889
8.228802048,0.999979541314615,-59.13824187221813
8.239569408,0.9997617037121448,-59.46131737599854
8.250336256,0.9995553134976842,-59.781693068235654
8.261103616,0.999370847053277,-60.09958502577123
8.271870976,0.9992174980999319,-60.41538307463144
8.282637824,0.9991029579517203,-60.72943961194818
8.293405184,0.9990330079906762,-61.04238790340064
8.304172032,0.9990114293614594,-61.35476223841144
8.314939392,0.9990391607387974,-61.66721526856162
8.325706752,0.9991149908515391,-61.98035197374688
8.3364736,0.9992350750170274,-62.294834846979406
8.34724096,0.9993937216420714,-62.61113330954653
8.35800832,0.9995826313952092,-62.929722089609484
8.368775168,0.9997927747026238,-63.25095600596849
8.379542528,1.0000135307509859,-63.57498765257203
8.390309376,1.000233926521794,-63.90190889187526
8.401076736,1.00044289860921,-64.23164628471811
8.411844096,1.0006300449377716,-64.5639959466896
8.422610944,1.0007860199851832,-64.89862215534123
8.433378304,1.00090294860372,-65.23501981917292
8.444145152,1.0009749579450076,-65.57271377473467
8.454912512,1.0009984062604418,-65.91106826959455
8.465679872,1.0009718885785417,-66.24949951147836
8.47644672,1.0008969840468669,-66.58730710547289
8.48721408,1.0007771437128725,-66.9238968886593
8.497980928,1.0006182074983372,-67.25879390552386
8.508748288,1.0004281163852864,-67.59150795882182
8.519515648,1.000216290523911,-67.92165368672697
8.530282496,0.9999931591072634,-68.24909783954386
8.541049856,0.9997701926537236,-68.57367320186839
8.551816704,0.9995581848516341,-68.89553490345958
8.562584064,0.9993678741609242,-69.21482302157348
8.573351424,0.9992088742995141,-69.53190468421103
8.584118272,0.9990890173940971,-69.84725813001475
8.594885632,0.9990144850657022,-70.16138283662416
8.605652992,0.9989891158431853,-70.47487493008451
8.616420352,0.9990142631431339,-70.78843066591898
8.627186688,0.9990887263752756,-71.10267987415247
8.637954048,0.9992088240563387,-71.41819368845024
8.648721408,0.9993684944247149,-71.7355754076481
8.659488768,0.9995600671806915,-72.05527534556713
8.670256128,0.9997737742671537,-72.37762375671628
8.681022464,0.9999992322761144,-72.70287283003194
8.691789824,1.0002249291229335,-73.03106489875898
8.702557184,1.0004397978251829,-73.36214208854892
8.713324544,1.000632972111653,-73.69588597647015
8.724091904,1.0007948945876346,-74.03198873686745
8.73485824,1.0009172082652313,-74.36997406786028
8.7456256,1.000994044981083,-74.70930704396754
8.75639296,1.0010213403470751,-75.04935679930318
8.76716032,1.0009976827567912,-75.3895193717309
8.77792768,1.0009242124737512,-75.72911334636338
8.788694016,1.0008043941869562,-76.06751733593718
8.799461376,1.0006442817565802,-76.40416875478937
8.810228736,1.0004515893002368,-76.73864429927913
8.820996096,1.0002359837650217,-77.07052677880782
8.831763456,1.0000080836801677,-77.3996294711398
8.842529792,0.9997795621628099,-77.72583908586516
8.853297152,0.9995615284375664,-78.049233924222
8.864064512,0.9993649464402875,-78.3699791566603
8.874831872,0.9991997328736858,-78.68844206893822
8.885599232,0.9990742200312996,-79.00507734729817
8.896366592,0.9989946822253494,-79.32042074155669
8.907132928,0.9989651901890528,-79.63513128794467
8.917900288,0.99898755406337,-79.94983644100522
8.928667648,0.9990602866422457,-80.26517402600957
8.939435008,0.999180329374535,-80.58178768423734
8.950202368,0.9993413595791505,-80.90028858984184
8.960968704,0.9995355936219669,-81.22112378155221
8.971736064,0.9997532059058207,-81.5446332544963
8.982503424,0.9999836701766373,-81.8711228331695
8.993270784,1.0002151806399837,-82.20062264792192
9.004038144,1.0004362436000374,-82.53310527683963
9.01480448,1.0006359006324854,-82.8683408954366
9.02557184,1.0008040850732933,-83.20599071111033
9.0363392,1.0009325580255544,-83.54561644662014
9.04710656,1.0010144504021004,-83.88666666612053
9.05787392,1.0010460215978607,-84.22852724541784
9.068640256,1.001025350160376,-84.57048815209501
9.079407616,1.000953536668569,-84.91193287093043
9.090174976,1.0008338472070581,-85.25221409963335
9.100942336,1.000672316109691,-85.59076863770751
9.111709696,1.0004768689188737,-85.92708674289626
9.122476032,1.000257409692708,-86.26076582202626
9.133243392,1.0000244375618808,-86.59163286144482
9.144010752,0.9997899695148891,-86.91952646391084
9.154778112,0.999565326009812,-87.24452857430241
9.165545472,0.9993620218645927,-87.56681817246873
9.176311808,0.999190113702949,-87.88672207849089
9.187079168,0.9990585094899899,-88.20472258981461
9.197846528,0.9989735393892066,-88.52135859598812
9.208613888,0.9989397975290913,-88.83728711458791
9.219381248,0.9989588020395616,-89.15315444958502
9.230147584,0.9990299370801065,-89.46964609596685
9.240914944,0.9991497013608611,-89.78743934995981
9.251682304,0.9993121190037099,-90.1070663366678
9.262449664,0.9995091674358224,-90.42906668488816
9.273217024,0.9997310420871833,-90.75382049609527
9.28398336,0.999966690015123,-91.08159657910059
9.29475072,1.000204424529682,-91.41244952505954
9.30551808,1.0004323163643247,-91.74637845233823
9.31628544,1.0006389962547606,-92.08313918520534
9.3270528,1.000814077973564,-92.42242743572076
9.33782016,1.0009488715881465,-92.7637771694921
9.348586496,1.0010365004797221,-93.10665134202434
9.359353856,1.0010725884824978,-93.45033866811424
9.370121216,1.001055193564561,-93.79423282033169
9.380888576,1.0009851681402042,-94.13764615985228
9.391655936,1.0008657185921763,-94.47990731972669
9.402422272,1.000702866239949,-94.82041886112904
9.413189632,1.0005045737018883,-95.15867843734398
9.423956992,1.0002807045043964,-95.49428997921194
9.434724352,1.0000423644281948,-95.82699390550887
9.445491712,0.9998013268933446,-96.1566701772296
9.456258048,0.9995697958183449,-96.4833310355421
9.467025408,0.9993590925831117,-96.80723477663497
9.477792768,0.9991800784830914,-97.12863889865528
9.488560128,0.9990417480036369,-97.44808018525826
9.499327488,0.9989507931075795,-97.76603617801908
9.510093824,0.9989122454127218,-98.08324847050702
9.520861184,0.998927938424294,-98.40033592679166
9.531628544,0.9989971949323061,-98.71801099053614
9.542395904,0.9991165856395053,-99.03697967306528
9.553163264,0.9992804549105615,-99.35779278315135
9.5639296,0.9994804958760553,-99.68101599024699
9.57469696,0.9997068366535149,-100.00703339667021
9.58546432,0.999948152556485,-100.33613267620609
9.59623168,1.000192536366437,-100.66839990410573
9.60699904,1.0004276644054273,-101.00383647350762
9.617765376,1.0006418557965686,-101.34220752062934
9.628532736,1.0008244500154455,-101.68321494561607
9.639300096,1.0009661511134214,-102.02635343930926
9.650067456,1.0010600060376096,-102.37108229762207
9.660834816,1.0011010462133167,-102.71676774952752
9.671601152,1.0010872605712184,-103.06267600787562
9.682368512,1.0010192369567765,-103.4081304110818
9.693135872,1.0009001240388085,-103.75249055545991
9.703903232,1.0007358746849262,-104.09507199464957
9.714670592,1.000534490912034,-104.4353879168334
9.725436928,1.0003061165748353,-104.77299478916345
9.736204288,1.0000617879951512,-105.10763668642348
9.746971648,0.9998138868665537,-105.4391756383565
9.757739008,0.9995747135643599,-105.76762636389337
9.768506368,0.9993563033282746,-106.09317819907758
9.779273728,0.9991694478095796,-106.41616957496066
9.790040064,0.9990237498953695,-106.73707475395985
9.800807424,0.9989264906194527,-107.05644490052254
9.811574784,0.9988826314057601,-107.37496269358354
9.822342144,0.9988944980961647,-107.69333271280621
9.833109504,0.9989616566502281,-108.01223949219376
9.84387584,0.9990807524155942,-108.33240148047462
9.8546432,0.9992460005603836,-108.65444198183663
9.86541056,0.9994492214012025,-108.97891686350803
9.87617792,0.9996803156425974,-109.30623607470194
9.88694528,0.999927800725163,-109.63670378018337
9.897711616,1.000179338818919,-109.97045277673482
9.908478976,1.0004223398231264,-110.30743560984942
9.919246336,1.0006448335554472,-110.64750510097373
9.930013696,1.0008354573117202,-110.99027757783136
9.940781056,1.0009848295533215,-111.33529646741256
9.951547392,1.0010853718543977,-111.68200071570298
9.962314752,1.00113185689116,-112.0297441720868
9.973082112,1.0011219992934244,-112.37779073979415
9.983849472,1.0010562240598877,-112.72541654812726
9.994616832,1.0009375683594237,-113.07195159322724
10.005383168,1.0007718530442333,-113.41672461482842
10.016150528,1.000567138732848,-113.75919837087254
10.026917888,1.0003338491102667,-114.09893817237007
10.037685248,1.000083124138405,-114.43560727721555
10.048452608,0.9998278308708904,-114.76910054631676
10.059218944,0.9995804354861695,-115.09941955666585
10.069986304,0.999353466250218,-115.42673842371347
10.080753664,0.9991581704100104,-115.7513755807975
10.091521024,0.9990045173994512,-116.07381923011668
10.102288384,0.9989002741795608,-116.39464395169804
10.11305472,0.9988506478816458,-116.71452207769804
10.12382208,0.9988583809871572,-117.03418797986352
10.13458944,0.9989230461345582,-117.35437515725604
10.1453568,0.9990417809575641,-117.67578362161053
10.15612416,0.9992084883805423,-117.9990863475095
10.166890496,0.9994151800031472,-118.32484800731464
10.177657856,0.9996513732037317,-118.65352026023662
10.188425216,0.9999054181169196,-118.98541998437277
10.199192576,1.000164730923922,-119.32069275809016
10.209959936,1.0004163115757922,-119.65930716283931
10.220726272,1.000647605191461,-120.00108962961625
10.231493632,1.0008470596317183,-120.34573255616603
10.242260992,1.0010046911366355,-120.69274137211625
10.253028352,1.0011124904952906,-121.04151388308632
10.263795712,1.0011650634260016,-121.39141592242989
10.274563072,1.0011596075039675,-121.74169209934405
10.285329408,1.001096359282528,-122.09162335203465
10.296096768,1.0009781418874961,-122.44045314734429
