freq,mag,phase
6.0,1.0002006516482325,-57.0838402514049
6.006097408,1.0002345216587603,-57.36077118722172
6.012195328,1.0002514723539757,-57.63807800357943
6.018292736,1.000254005864638,-57.915690196987036
6.024390144,1.000242282052172,-58.19327554346763
6.030487552,1.0002166705869022,-58.47069336331127
6.036585472,1.0001788119682933,-58.74777657546961
6.04268288,1.0001307171798561,-59.02433514257135
6.048780288,1.0000753720490783,-59.30028359698827
6.054878208,1.000015444709828,-59.57552735622994
6.060975616,0.9999545246197721,-59.850024231716915
6.067073024,0.9998959768276913,-60.12379001205127
6.073170944,0.9998434340473863,-60.396927753930626
6.079268352,0.99979951191659,-60.66940663067852
6.08536576,0.9997669926197265,-60.94150527552359
6.091463168,0.9997474259828883,-61.21328991817866
6.097561088,0.9997420625781318,-61.48503080374494
6.103658496,0.9997514596627317,-61.7568349895684
6.109755904,0.9997744468225951,-62.02900660548548
6.115853824,0.9998105292755747,-62.301619414494574
6.121951232,0.9998572170030028,-62.57488194513373
6.12804864,0.9999119755452266,-62.84898091294668
6.13414656,0.9999715834178258,-63.12387342190677
6.140243968,1.0000328972715193,-63.39972334178607
6.146341376,1.0000924011472399,-63.67648588927854
6.152438784,1.0001469073618812,-63.954095712084644
6.158536704,1.0001927416604581,-64.23249917031015
6.164634112,1.0002281724573556,-64.51153023322964
6.17073152,1.000250252536943,-64.79102961288363
6.17682944,1.0002583593589642,-65.0708559020697
6.182926848,1.0002520168598275,-65.35079479170007
6.189024256,1.000231212343475,-65.63058096506533
6.195122176,1.0001972802865027,-65.91010756623012
6.201219584,1.000152237237217,-66.18915566583257
6.207316992,1.0000985015257533,-66.46764628847873
6.2134144,1.000038925212575,-66.74545328702423
6.21951232,0.9999773739023674,-67.0225229918855
6.225609728,0.9999167197010232,-67.2987980360293
6.231707136,0.9998607761710514,-67.57434395230591
6.237805056,0.9998125829761958,-67.84931589928587
6.243902464,0.9997750129678679,-68.12376857046327
6.249999872,0.9997499781149606,-68.39783960750846
6.256097792,0.9997389913897341,-68.67179572555318
6.2621952,0.9997427901772584,-68.94574558047464
6.268292608,0.9997610807185856,-69.21991990063515
6.274390016,0.9997928562835142,-69.4945637275914
6.280487936,0.9998362094380259,-69.76974038775658
6.286585344,0.999888977629675,-70.04574935547511
6.292682752,0.9999479005041915,-70.32252690809233
6.298780672,1.0000099589198372,-70.6002789869934
6.30487808,1.0000714036321392,-70.87889901980911
6.310975488,1.0001289061910141,-71.15848311378825
6.317073408,1.0001790401711672,-71.43886395608365
6.323170816,1.0002192106470276,-71.71994185386866
6.329268224,1.0002470255710179,-72.0015671982666
6.335365632,1.0002608053356559,-72.28360186996127
6.341463552,1.0002599557230525,-72.56573694706823
6.34756096,1.0002443267890602,-72.84789737145994
6.353658368,1.0002148763469083,-73.12984069702722
6.359756288,1.0001732855900674,-73.41137103405869
6.365853696,1.0001215720192083,-73.69232045143667
6.371951104,1.0000632140011665,-73.97261116248089
6.378049024,1.000001187148778,-74.2521696557688
6.384146432,0.9999386937458729,-74.53096904055653
6.39024384,0.999879891356544,-74.80900967911418
6.396341248,0.9998276324976989,-75.08638217369091
6.402439168,0.9997850439767977,-75.363147524145
6.408536576,0.9997546293100421,-75.63952124640943
6.414633984,0.9997378712844451,-75.91565717261996
6.420731904,0.99973588816193,-76.19173324535457
6.426829312,0.9997488018449744,-76.4679589867011
6.43292672,0.9997760314803738,-76.74455346634525
6.43902464,0.9998158830485111,-77.0216821009136
6.445122048,0.9998659757033709,-77.2995305607543
6.451219456,0.9999238887230492,-77.57815555855356
6.457316864,0.9999860653562604,-77.85772979630578
6.463414784,1.000049010625332,-78.13823023202734
6.469512192,1.0001093335649365,-78.41964092144093
6.4756096,1.000163319703231,-78.70193666277723
6.48170752,1.0002084278791865,-78.98498109137572
6.487804928,1.0002415229648847,-79.26865931499763
6.493902336,1.0002611598740037,-79.55277430439904
6.499999744,1.0002660658368951,-79.83713072060466
6.506097664,1.000255758255585,-80.12157021738723
6.512195072,1.000231196020535,-80.40581624787205
6.51829248,1.0001933984249427,-80.68974663111544
6.5243904,1.000144702907388,-80.97311639653637
6.530487808,1.0000876794977946,-81.25591815399564
6.536585216,1.0000256883902785,-81.53795146741001
6.542683136,0.9999621058459902,-81.81914551128504
6.548780544,0.9999005466790533,-82.09963968035277
6.554877952,0.9998445542008195,-82.37938825426367
6.56097536,0.9997971935032625,-82.65854726404274
6.56707328,0.9997612189011836,-82.93715997016636
6.573170688,0.9997388734474635,-83.21546244914789
6.579268096,0.9997308821300802,-83.4936176198035
6.585366016,0.999738296605032,-83.77186613924744
6.591463424,0.9997603415114086,-84.0504102864848
6.597560832,0.9997959643816829,-84.32941171772178
6.603658752,0.9998430850298065,-84.6090736932097
6.60975616,0.9998992463755576,-84.88946703149372
6.615853568,0.9999609737200713,-85.17080509706783
6.621950976,1.0000249907242384,-85.45308691413283
6.628048896,1.0000875802638676,-85.73628732855039
6.634146304,1.000145259309422,-86.02038308564951
6.640243712,1.0001949149807623,-86.30533763133123
6.646341632,1.0002335697109248,-86.59097541781271
6.65243904,1.0002589937762267,-86.87708878610921
6.658536448,1.0002699617771966,-87.16353675472233
6.664634368,1.000265537202123,-87.45012562434161
6.670731776,1.0002461003909866,-87.73664078622025
6.676829184,1.0002126053332827,-88.02287469286793
6.682926592,1.0001673648636642,-88.30861286519374
6.689024512,1.0001124158447536,-88.59382331783068
6.69512192,1.0000509274081202,-88.87825944159549
6.701219328,0.9999865749367739,-89.16191466250262
6.707317248,0.9999230270630065,-89.44479768421832
6.713414656,0.9998635403834497,-89.72687907344981
6.719512064,0.9998116001999777,-90.00829665360732
6.725609984,0.999770378088694,-90.28914251709713
6.731707392,0.9997420144707748,-90.5695602657874
6.7378048,0.9997280715750495,-90.84979689173016
6.743902208,0.9997295108931272,-91.13000882988496
6.750000128,0.9997461334682192,-91.41043699997776
6.756097536,0.9997771424527901,-91.69127218084202
6.762194944,0.9998207155282317,-91.97267442087583
6.768292864,0.9998744317329187,-92.25480696112209
6.774390272,0.9999353192074543,-92.53782000988326
6.78048768,0.9999998395498607,-92.82177071783948
6.7865856,1.0000644878810858,-93.10667028665883
6.792683008,1.0001254667161235,-93.39253505124474
6.798780416,1.0001794617031108,-93.67922540945985
6.804877824,1.0002233441273252,-93.96670088564147
6.810975744,1.000254581277587,-94.25475099256543
6.817073152,1.0002716269866998,-94.5432012036217
6.82317056,1.0002732297221126,-94.83187847325483
6.82926848,1.0002594174363053,-95.12055170129085
6.835365888,1.0002310203740474,-95.4089828449633
6.841463296,1.0001894303916103,-95.69702996752324
6.847561216,1.0001371585561325,-95.98450206936407
6.853658624,1.000076950570733,-96.27130113474844
6.859756032,1.000012367530305,-96.55730177283786
6.86585344,0.9999469126521343,-96.84251161446504
6.87195136,0.9998845262068883,-97.12688586899924
6.878048768,0.9998283844047403,-97.41054863776719
6.884146176,0.9997819283385359,-97.69356131608005
6.890244096,0.9997475755288159,-97.97609536847747
6.896341504,0.999727572904645,-98.25832355639551
6.902438912,0.9997227861820295,-98.54046388343573
6.908536832,0.9997336812026472,-98.82271337640078
6.91463424,0.9997595525198155,-99.10527816548313
6.920731648,0.9997990340869322,-99.38840411367005
6.926829056,0.99984980583532,-99.67219196582303
6.932926976,0.9999092281473948,-99.95678684065068
6.939024384,0.9999736978152964,-100.24234131769467
6.945121792,1.0000397596773716,-100.52881662641862
6.951219712,1.0001036155957284,-100.8162973092378
6.95731712,1.0001616881212991,-101.10467974256693
6.963414528,1.000210655646035,-101.39386126485682
6.969512448,1.0002477605967115,-101.68370737923883
6.975609856,1.0002709752914953,-101.9740504734686
6.981707264,1.0002788975939023,-102.26466537329343
6.987804672,1.0002710842843798,-102.55537659041326
6.993902592,1.000247962454175,-102.84592170338217
7.0,1.0002107343899231,-103.13611642864173
7.006097408,1.0001615646739654,-103.42583113767985
7.012195328,1.0001032189015504,-103.71487002502275
7.018292736,1.0000389794513163,-104.00314080572842
7.024390144,0.9999723241413186,-104.29057121914282
7.030487552,0.9999072946567457,-104.57720133967328
7.036585472,0.9998472670938031,-104.86303970965129
7.04268288,0.999795711503761,-105.14818858336442
7.048780288,0.9997556979922326,-105.43273270422945
7.054878208,0.9997293823725102,-105.71691399511559
7.060975616,0.9997182432901118,-106.0009311031809
7.067073024,0.9997229256772978,-106.28494982747301
7.073170944,0.9997433029378285,-106.56920282311567
7.079268352,0.999778113909385,-106.85390470974285
7.08536576,0.999825511607078,-107.13922959009389
7.091463168,0.999882666691396,-107.42537960684926
7.097561088,0.9999465334449931,-107.71237360608436
7.103658496,1.000013450712807,-108.00038925413853
7.109755904,1.0000797484996757,-108.28933472682876
7.115853824,1.0001415331435326,-108.5792506069332
7.121951232,1.000195325092794,-108.86999570864572
7.12804864,1.0002381863179235,-109.16150989047952
7.13414656,1.000267678119081,-109.45359571756313
7.140243968,1.0002820707879498,-109.74603186412268
7.146341376,1.0002804755814452,-110.0386344225271
7.152438784,1.0002630923706446,-110.3311833086854
7.158536704,1.0002306806030246,-110.62342981449913
7.164634112,1.0001854829348382,-110.91523603120334
7.17073152,1.0001295083898218,-111.20642508380301
7.17682944,1.000066200531109,-111.49687736884594
7.182926848,0.9999989807108364,-111.78646310261733
7.189024256,0.999931778896295,-112.07520867575535
7.195122176,0.9998682790844912,-112.36313626426642
7.201219584,0.9998119718791886,-112.65034251830139
7.207316992,0.999766304851509,-112.93685695589305
7.2134144,0.999733650431333,-113.22293251383047
7.21951232,0.999716030342848,-113.5087185768813
7.225609728,0.999714277298868,-113.79439544500828
7.231707136,0.9997286818384999,-114.08027395556567
7.237805056,0.9997583114648738,-114.36650415732592
7.243902464,0.9998016165521001,-114.65326795613473
7.249999872,0.999856120032887,-114.94078865323426
7.256097792,0.9999186629058069,-115.2291996838665
7.2621952,0.9999859362048746,-115.51855087878421
7.268292608,1.0000540722033884,-115.80885889430837
7.274390016,1.0001191119883759,-116.10018008441885
7.280487936,1.000177579390066,-116.39240613979437
7.286585344,1.000226091764917,-116.68540247961263
7.292682752,1.0002617429406309,-116.9790827691492
7.298780672,1.0002827197850819,-117.27320620341152
7.30487808,1.0002878167395561,-117.56754428839166
7.310975488,1.0002765500944397,-117.86192094501476
7.317073408,1.0002496413951862,-118.15611591728407
7.323170816,1.000208562980454,-118.44989582053334
7.329268224,1.0001557314964877,-118.74311184296572
7.335365632,1.000093956428251,-119.03558817373545
7.341463552,1.0000267087217152,-119.32724751734669
7.34756096,0.9999579462407255,-119.61804655469932
7.353658368,0.9998913605903016,-119.90796711753381
7.359756288,0.9998307782458777,-120.19710243348642
7.365853696,0.9997795899595564,-120.48549558128231
7.371951104,0.9997407114017685,-120.77336540829907
7.378049024,0.9997165000291454,-121.06085359633732
7.384146432,0.9997080518224903,-121.34815289497016
7.39024384,0.9997160052966657,-121.63552951667154
7.396341248,0.9997400272874841,-121.9232024535741
7.402439168,0.9997786317528397,-122.21129823735812
7.408536576,0.9998297680848143,-122.50012535024571
7.414633984,0.9998904894267804,-122.78974735065225
7.420731904,0.9999575100445315,-123.08031818324625
7.426829312,1.0000268014020688,-123.37188267949001
7.43292672,1.0000947827685647,-123.66441661944224
7.43902464,1.0001573893842093,-123.95793909358134
7.445122048,1.0002112301634711,-124.25231182026722
7.451219456,1.0002530908447818,-124.54738350437401
7.457316864,1.0002807416971575,-124.84300282210724
7.463414784,1.0002925913169112,-125.13894733054536
7.469512192,1.0002878796964816,-125.43500544375522
7.4756096,1.0002669651121945,-125.73095084449221
7.48170752,1.0002308307521464,-126.02657788750216
7.487804928,1.000181660637872,-126.32166401667483
7.493902336,1.0001221218921539,-126.61606197717624
7.500000256,1.0000556017233138,-126.90966899525732
7.506097664,0.9999857615207552,-127.20240741776041
7.512195072,0.9999165524430369,-127.49424139075023
7.51829248,0.9998520101757717,-127.78518213228193
7.5243904,0.9997955512119853,-128.07538985324373
7.530487808,0.9997506297789048,-128.3649257508672
7.536585216,0.9997195866003995,-128.65401713580349
7.542683136,0.9997042747460849,-128.94287538659125
7.548780544,0.9997056307226487,-129.23162383540165
7.554877952,0.9997234589925327,-129.52058206534716
7.56097536,0.9997569303882249,-129.80995435793878
7.56707328,0.9998041115980604,-130.09991346134925
7.573170688,0.999862244831977,-130.39066416455094
7.579268096,0.999928224358922,-130.68231816426288
7.585366016,0.9999983003145371,-130.97492995868893
7.591463424,1.0000685199007995,-131.26856979092392
7.597560832,1.0001349542300229,-131.5631941339035
7.603658752,1.0001938322964181,-131.8587599905515
7.60975616,1.0002417371489654,-132.1550947156282
7.615853568,1.0002759865906559,-132.45203440739726
7.621950976,1.000294901680532,-132.74940404056582
7.628048896,1.000297013186955,-133.0469926421017
7.634146304,1.0002823737345452,-133.3445092204371
7.640243712,1.0002517528943093,-133.64180636111513
7.646341632,1.0002069090753343,-133.93863055838918
7.65243904,1.000150203591967,-134.23480633724841
7.658536448,1.000084938275339,-134.53018955365056
7.664634368,1.0000148191431306,-134.824731073112
7.670731776,0.9999436575845304,-135.11832649682975
7.676829184,0.9998755008166298,-135.41103572948836
7.682926592,0.9998142860717463,-135.70289216034075
7.689024512,0.9997632807407123,-135.9940386952771
7.69512192,0.9997255977451545,-136.28462670709314
7.701219328,0.999703195653738,-136.5748323828297
7.707317248,0.9996975129416197,-136.86491527155212
7.713414656,0.9997088204522914,-137.15507549343027
7.719512064,0.9997364834357823,-137.44555872630363
7.725609984,0.999778937554269,-137.73655367040163
7.731707392,0.9998339078803753,-138.02827494526267
7.7378048,0.9998982240073299,-138.32085352504728
7.743902208,0.9999683459028436,-138.6143893361419
7.750000128,1.0000402816595995,-138.90893035266134
7.756097536,1.000110011030349,-139.2045586202717
7.762194944,1.0001735033174126,-139.50108516775006
7.768292864,1.0002273123306382,-139.7984828303685
7.774390272,1.0002683451615262,-140.09655479460832
7.78048768,1.0002941342596967,-140.3951722898054
7.7865856,1.0003035016163355,-140.69402977774178
7.792683008,1.000295619501794,-140.99300739530244
7.798780416,1.00027101271065,-141.2917661834186
7.804877824,1.0002310988820118,-141.59015666017535
7.810975744,1.0001780002868268,-141.8879663602901
7.817073152,1.0001147422050425,-142.18500225873657
7.82317056,1.0000448785857645,-142.4811628880955
7.82926848,0.9999723200429065,-142.7764367840741
7.835365888,0.9999011518303026,-143.07074281508795
7.841463296,0.9998354172670526,-143.3641561015128
7.847561216,0.9997787147729371,-143.65677789253564
7.853658624,0.9997344162533333,-143.94874908267047
7.859756032,0.9997049443748509,-144.24024526082653
7.86585344,0.9996919900894248,-144.53150313415154
7.87195136,0.9996962957200735,-144.82274069018735
7.878048768,0.9997176869871147,-145.1141851880664
7.884146176,0.9997549302479665,-145.40606869403734
7.890244096,0.999805938737554,-145.6986004064054
7.896341504,0.9998680095596704,-145.991977500853
7.902438912,0.9999374556342172,-146.28624494113066
7.908536832,1.000010468963642,-146.58156959319828
7.91463424,1.000082932843699,-146.87789293223605
7.920731648,1.000150739788009,-147.17527228816985
7.926829056,1.0002101139780413,-147.4735262561628
7.932926976,1.0002576813663473,-147.77256371510293
7.939024384,1.0002906946580763,-148.0722047395902
7.945121792,1.0003073232181825,-148.37220740129382
7.951219712,1.000306572672698,-148.67235648394987
7.95731712,1.0002886031809262,-148.97245277655185
7.963414528,1.0002541559108682,-149.27220013062927
7.969512448,1.0002053669656086,-149.57145114274329
7.975609856,1.0001447622734267,-149.86996399974976
7.981707264,1.0000759705212832,-150.16764903553855
7.987804672,1.0000025709366986,-150.46441356361206
7.993902592,0.9999289898048136,-150.76017505398673
8.0,0.999859205955909,-151.05501579427522
8.006097408,0.9997971613760948,-151.34899170979224
8.012195328,0.999746296433249,-151.6422309981017
8.018292736,0.9997096775967111,-151.93490296320377
8.024390144,0.9996892696181099,-152.22721923020282
8.030487552,0.999686263905107,-152.51937913450976
8.036585472,0.9997009033592444,-152.81169452618482
8.04268288,0.9997323178624845,-153.10434358951235
8.048780288,0.9997787827114971,-153.397565034234
8.054878208,0.9998376546028542,-153.6915157865357
8.060975616,0.9999057802553617,-153.98638368110997
8.067073024,0.9999791732306882,-154.2822709191146
8.073170944,1.0000537793475779,-154.57917005263508
8.079268352,1.0001253228485503,-154.87715376879285
8.08536576,1.000189933471463,-155.1760579677744
8.091463168,1.0002437694579585,-155.47584396020298
8.097561088,1.0002839277520785,-155.7762815719878
8.103658496,1.000308122187139,-156.07722198919748
8.109755904,1.000314819736524,-156.37839616924845
8.115853824,1.0003037571000597,-156.67958765568798
8.121951232,1.000275521057363,-156.98054186483031
8.12804864,1.0002315589788193,-157.2810227483518
8.13414656,1.0001745454631998,-157.5808512469536
8.140243968,1.0001074497090552,-157.87986629455602
8.146341376,1.0000340868743014,-158.17797539331193
8.152438784,0.9999586138628999,-158.47509166070478
8.158536704,0.9998853345644829,-158.77120036171672
8.164634112,0.9998182375191339,-159.06636613985594
8.17073152,0.9997612348269225,-159.3607415523465
8.17682944,0.9997175386683917,-159.65444383939038
8.182926848,0.9996895366615083,-159.94768280539293
8.189024256,0.9996789506244603,-160.24068279106086
8.195122176,0.9996863243874781,-160.53368584205248
8.201219584,0.9997113723552664,-160.82694938368778
8.207316992,0.9997524945931568,-161.12069268358704
8.2134144,0.9998075985010866,-161.41510597209827
8.21951232,0.9998735690127726,-161.7103863945697
8.225609728,0.9999466341448527,-162.00663140286244
8.231707136,1.0000227324116109,-162.30395671988228
8.237805056,1.000097540560736,-162.60232184086746
8.243902464,1.0001669627532668,-162.90168156734703
8.249999872,1.0002269128223988,-163.2019909125022
8.256097792,1.0002741275878793,-163.50303555137202
8.2621952,1.0003058720617117,-163.8046812438027
8.268292608,1.0003203395672318,-164.10663752545844
8.274390016,1.0003167150321226,-164.40873313928458
8.280487936,1.0002950904362986,-164.71067156632589
8.286585344,1.0002568566311907,-165.01222378406123
8.292682752,1.000203955541493,-165.31318096200144
8.298780672,1.0001392831639861,-165.61336196501765
8.30487808,1.0000667641526828,-165.91264002341126
8.310975488,0.9999900289877969,-166.21088352484003
8.317073408,0.9999138555449105,-166.50815364563942
8.323170816,0.9998421990770584,-166.8044277210023
8.329268224,0.9997792499809495,-167.09978569747818
8.335365632,0.9997286409308164,-167.39439032509415
8.341463552,0.9996930158765029,-167.68843496642853
8.34756096,0.9996746020791205,-167.98209339541708
8.353658368,0.9996744007513924,-168.27570804338683
8.359756288,0.9996924700341885,-168.56940558510757
8.365853696,0.9997276993936228,-168.8635251807688
8.371951104,0.9997783191076111,-169.15822385179752
8.378049024,0.9998413329603969,-169.4537390401644
8.384146432,0.9999133538928613,-169.75021388743167
8.39024384,0.9999902094825233,-170.047674453823
8.396341248,1.000067651371832,-170.34626273447486
8.402439168,1.0001413737004776,-170.6458912593643
8.408536576,1.0002070795386677,-170.94648523032947
8.414633984,1.0002612511736952,-171.24792191228892
8.420731904,1.0003005302284496,-171.55005029405368
8.426829312,1.0003230040932076,-171.85257992639148
8.43292672,1.0003270943610767,-172.1553383896481
