freq,mag,phase
6.0,1.0002447311293656,-87.36354791478036
6.003041792,1.0001970157083275,-87.52635897846457
6.006083584,1.0001400928067303,-87.68848560181236
6.009125376,1.0000746467649775,-87.84973418448938
6.012167168,1.000004835637808,-88.01002070766074
6.01520896,0.999934611528776,-88.169384901261
6.018250752,0.9998689365165029,-88.3277703577225
6.021292544,0.9998113813600685,-88.48526787260121
6.024334848,0.9997657366337943,-88.64205543574198
6.02737664,0.9997349982193764,-88.79829467300124
6.030418432,0.9997207363141289,-88.95422851569336
6.033460224,0.9997241400440524,-89.11013832608278
6.036502016,0.9997447331170126,-89.26626384547232
6.039543808,0.9997815546002764,-89.42281397006175
6.0425856,0.999832015182549,-89.57999887838349
6.045627392,0.9998931513905855,-89.7380076723457
6.048669184,0.9999612641338852,-89.89697774470585
6.051710976,1.000031846315771,-90.05696577487417
6.054752768,1.0001005805109306,-90.21800901584321
6.05779456,1.000163496657752,-90.37998564516991
6.060836352,1.0002160791226673,-90.5428618334795
6.063878144,1.0002557843756572,-90.70638186742478
6.066919936,1.000279798537957,-90.87036368016688
6.069961728,1.0002864708452557,-91.0346512233233
6.073004032,1.0002756030538207,-91.1989100304337
6.076045824,1.0002477463749577,-91.36290744300528
6.079087616,1.000204836680778,-91.52641264254034
6.082129408,1.0001492107219723,-91.68925216218922
6.0851712,1.0000844817410592,-91.85124986422753
6.088212992,1.0000147996827884,-92.01228398092515
6.091254784,0.9999443610231221,-92.17233597526855
6.094296576,0.9998774540323797,-92.33143411818749
6.097338368,0.9998184097552762,-92.48965212533666
6.10038016,0.9997707842197724,-92.64711714151537
6.103421952,0.9997376096549377,-92.80400993605598
6.106463744,0.9997208798107271,-92.96057608988004
6.109505536,0.9997217436695295,-93.11706317234172
6.112547328,0.9997400219923527,-93.27371505668692
6.11558912,0.9997747282363497,-93.43075788480549
6.118631424,0.999823601441384,-93.5884141140669
6.121673216,0.9998836609110793,-93.74691897298925
6.124715008,0.9999511358000444,-93.90630865735613
6.1277568,1.0000218711056788,-94.06673889695347
6.130798592,1.0000913779039815,-94.22822365218732
6.133840384,1.0001554366597758,-94.3906656463387
6.136882176,1.0002101308087896,-94.55398653237269
6.139923968,1.0002519028235235,-94.7180382029428
6.14296576,1.0002781970454862,-94.88260442928915
6.146007552,1.000287500930667,-95.04743828882016
6.149049344,1.0002790266936499,-95.21229202206696
6.152091136,1.0002534466814303,-95.37692698137387
6.155132928,1.0002124073548622,-95.54110693414898
6.15817472,1.0001582350516753,-95.70463407194178
6.161216512,1.0000943162840632,-95.86735439791248
6.164258304,1.000024941906968,-96.0290986377172
6.167300608,0.9999540608124581,-96.18987989716115
6.1703424,0.9998862000512319,-96.34969599418268
6.173384192,0.9998255949498168,-96.50857595335832
6.176425984,0.9997759175996425,-96.66670811660745
6.179467776,0.9997406464313333,-96.82422550715901
6.182509568,0.9997213661469783,-96.98140023295961
6.18555136,0.9997196595762198,-97.13845089451274
6.188593152,0.9997355538689272,-97.2956059651704
6.191634944,0.999768145754123,-97.4531408008765
6.194676736,0.999815334716656,-97.61125899715886
6.197718528,0.9998740584908332,-97.77017410336654
6.20076032,0.9999409243298927,-97.92999761559759
6.203802112,1.0000116856703753,-98.09085374700601
6.206843904,1.0000818726038139,-98.25274726704396
6.209885696,1.0001471705252056,-98.41560519299605
6.212928,1.0002035458952436,-98.57940064909462
6.215969792,1.0002475882108228,-98.74389411247986
6.219011584,1.0002763295991393,-98.90896154195055
6.222053376,1.0002880110732275,-99.07438236987767
6.225095168,1.0002821370665542,-99.2398239077248
6.22813696,1.0002588523917486,-99.40507342007716
6.231178752,1.0002196921039506,-99.56987130468394
6.234220544,1.0001670801945002,-99.73408965063282
6.237262336,1.0001042505010287,-99.89745618445863
6.240304128,1.000035052553316,-100.05993234613646
6.24334592,0.9999639058187002,-100.22141028550783
6.246387712,0.9998951986935342,-100.38190865734985
6.249429504,0.9998331099622245,-100.54143338284334
6.252471296,0.9997815805639596,-100.70020930515598
6.255513088,0.9997438467646393,-100.8583800835777
6.25855488,0.9997221243237947,-101.01611820752001
6.261597184,0.9997179446149053,-101.17365080678006
6.264638976,0.999731393661045,-101.33131697039111
6.267680768,0.9997617445864888,-101.48931081850074
6.27072256,0.9998071236853232,-101.64786965465086
6.273764352,0.9998646059203847,-101.80719794185013
6.276806144,0.9999307714515281,-101.96743948318533
6.279847936,1.0000014329350952,-102.12867405660063
6.282889728,1.000072232853906,-102.2909349114565
6.28593152,1.0001386447272802,-102.45421230675882
6.288973312,1.0001967536335525,-102.61843743929413
6.292015104,1.0002427949630017,-102.78340026851183
6.295056896,1.0002739129428635,-102.948947416736
6.298098688,1.0002882170950325,-103.11484147032472
6.30114048,1.000284911621493,-103.28084142434749
6.304182272,1.0002640657154762,-103.44670572275331
6.307224576,1.000226873381175,-103.61213693330903
6.310266368,1.000176004399329,-103.77696634386955
6.31330816,1.000114141094444,-103.94102007372449
6.316349952,1.0000454022188563,-104.10414959352886
6.319391744,0.999974086638215,-104.26630622931157
6.322433536,0.9999045305910536,-104.42743510566008
6.325475328,0.9998410524910013,-104.58762596142768
6.32851712,0.9997876789645207,-104.74701901237259
6.331558912,0.999747643202976,-104.90573441905404
6.334600704,0.9997234064549304,-105.06404941058597
6.337642496,0.9997164814306194,-105.2221455814539
6.340684288,0.9997275480656832,-105.38025447258475
6.34372608,0.9997555916197084,-105.53870758759868
6.346767872,0.9997991166940497,-105.69768790225692
6.349809664,0.9998552149209281,-105.85738689378623
6.352851456,0.9999205492052519,-106.01797885721305
6.35589376,0.9999909713189439,-106.17959556398274
6.358935552,1.0000623171517098,-106.34221735670094
6.361977344,1.000129865400155,-106.50588838144914
6.365019136,1.0001895684980984,-106.67047345303834
6.368060928,1.0002377116286973,-106.83589637337606
6.37110272,1.0002712640627809,-107.00186419967568
6.374144512,1.000288181553256,-107.16823378969842
6.377186304,1.000287430864939,-107.33476794298828
6.380228096,1.0002689084546665,-107.50116956111641
6.383269888,1.000234013070535,-107.66718653435842
6.38631168,1.0001846320025847,-107.83265084731394
6.389353472,1.0001240579123953,-107.99733761931093
6.392395264,1.0000558501820906,-108.16111802781803
6.395437056,0.9999843328399106,-108.32389976817572
6.398478848,0.999914039271477,-108.48565889449905
6.401521152,0.99984926221319,-108.64649921484376
6.404562944,0.9997940297621645,-108.80649487509577
6.407604736,0.9997516515761722,-108.96578428209087
6.410646528,0.9997249177793771,-109.12459057055223
6.41368832,0.9997155582519703,-109.28320251796485
6.416730112,0.9997238979633731,-109.44178342050206
6.419771904,0.9997497225274676,-109.6006385643706
6.422813696,0.9997912890609356,-109.75999168588254
6.425855488,0.9998459264898991,-109.9200641461669
6.42889728,0.9999103958593332,-110.08104266587783
6.431939072,0.9999806239926324,-110.24297060814521
6.434980864,1.0000522526200777,-110.4059366869857
6.438022656,1.00012082334436,-110.56993654290957
6.441064448,1.000182132438507,-110.73490121839392
6.44410624,1.0002322748554069,-110.90067740794711
6.447148544,1.0002682283479072,-111.06708888437154
6.450190336,1.0002877374002628,-111.23392904181564
6.453232128,1.0002895411247,-111.40092925891727
6.45627392,1.0002736830949892,-111.56784241599506
6.459315712,1.0002408527912134,-111.73442933261857
6.462357504,1.0001933618159595,-111.90045965730872
6.465399296,1.0001339237323905,-112.06578308224333
6.468441088,1.0000663716331273,-112.2301559010701
6.47148288,0.9999949300332208,-112.39356328313245
6.474524672,0.999923975404368,-112.55593764778642
6.477566464,0.9998578767651894,-112.71738611033561
6.480608256,0.9998007751628013,-112.87792631501299
6.483650048,0.9997562806118363,-113.03779787692781
6.48669184,0.9997270567401392,-113.1971138991773
6.489733632,0.9997150357041208,-113.3561700675587
6.492775424,0.9997208502900803,-113.51518480785796
6.495817728,0.9997442865330416,-113.6744469809066
6.49885952,0.9997837121704001,-113.83420632706517
6.501901312,0.999836811044232,-113.99459393271755
6.504943104,0.9999002596872365,-114.15586059411334
6.507984896,0.9999700905962361,-114.31810474866555
6.511026688,1.000042102570525,-114.4813871139292
6.51406848,1.000111557472775,-114.64568606387023
6.517110272,1.0001743593848473,-114.81099803078251
6.520152064,1.0002265966420107,-114.97713464613862
6.523193856,1.0002649321119643,-115.14391267946526
6.526235648,1.0002869466616846,-115.31116314036197
6.52927744,1.0002913082642457,-115.4786314023223
6.532319232,1.000277934624199,-115.6460298696031
6.535361024,1.0002474235026808,-115.81315860211751
6.538402816,1.0002017975526734,-115.97974019357143
6.54144512,1.0001436779848052,-116.1455800535852
6.544486912,1.0000769058760544,-116.31056604494341
6.547528704,1.0000055261240441,-116.4745864569604
6.550570496,0.9999340016503854,-116.63753900674124
6.553612288,0.9998667136371224,-116.79956894049756
6.55665408,0.9998077905015411,-116.96068892943374
6.559695872,0.9997611970918866,-117.12102517887134
6.562737664,0.9997294518498925,-117.28085827281011
6.565779456,0.99971474158625,-117.44036519828208
6.568821248,0.9997179521185076,-117.59979629263695
6.57186304,0.9997389137743384,-117.75944237051048
6.574904832,0.9997763096623826,-117.91948592276613
6.577946624,0.9998277516229974,-118.08019442440967
6.580988416,0.9998900563994446,-118.24176792549542
6.584030208,0.9999595466962016,-118.40428718939009
6.587072,1.0000316490523942,-118.56784634078711
6.590114304,1.0001020016529558,-118.73244885254883
6.593156096,1.0001662568853902,-118.89802467768952
6.596197888,1.0002203981751856,-119.06445086356466
6.59923968,1.0002610585054375,-119.23159934256553
6.602281472,1.0002856880608824,-119.39927017959248
6.605323264,1.0002928864165863,-119.56712255340744
6.608365056,1.0002820027677595,-119.7349883807508
6.611406848,1.0002538247915937,-119.90260027638338
6.61444864,1.0002100456449872,-120.0696899732234
6.617490432,1.0001534477349538,-120.23612760593144
6.620532224,1.000087412257612,-120.40161976970383
6.623574016,1.0000162686315273,-120.56620344236313
6.626615808,0.9999442018533093,-120.72975098265074
6.6296576,0.9998757576430807,-120.8922619837437
6.632699392,0.9998152628310674,-121.05392403357433
6.635741696,0.9997663376300959,-121.21481199965923
6.638783488,0.9997322405204895,-121.37508764625004
6.64182528,0.9997148619063619,-121.5350280750794
6.644867072,0.9997154222736806,-121.69482243577387
6.647908864,0.9997338589261895,-121.8548026533782
6.650950656,0.9997690181496404,-122.01520108695743
6.653992448,0.9998187654792058,-122.17618288053536
6.65703424,0.9998799857806263,-122.33800787266449
6.660076032,0.9999488376249902,-122.50075972705687
6.663117824,1.0000210703721373,-122.66456866208021
6.666159616,1.0000921730973633,-122.82940354544925
6.669201408,1.0001578297945024,-122.99522883983775
6.6722432,1.0002139390316402,-123.16197513832374
6.675284992,1.0002568933355322,-123.32947095299886
6.678326784,1.0002841489312204,-123.49741972706309
6.681368576,1.00029394309995,-123.66565458852817
6.68441088,1.0002856996229519,-123.83396713195063
6.687452672,1.000259929246028,-124.00204390353508
6.690494464,1.0002181415798868,-124.1696122277953
6.693536256,1.0001631033300007,-124.33652059553854
6.696578048,1.0000980225943945,-124.5025886372769
6.69961984,1.0000271561338194,-124.66766960677414
6.702661632,0.9999546657498315,-124.83175790626211
6.705703424,0.9998852009189275,-124.9948255492688
6.708745216,0.9998230405566615,-125.15694814271062
6.711787008,0.9997721169520323,-125.31833464176245
6.7148288,0.9997354233045777,-125.47903022204768
6.717870592,0.9997154936374155,-125.6393748499971
6.720912384,0.9997133443916181,-125.79955760148957
6.723954176,0.9997291867780852,-125.95983993405464
6.726995968,0.9997620398030536,-126.12050133801522
6.730038272,0.9998100001807847,-126.2817570736745
6.733080064,0.9998699347526111,-126.44380524958551
6.736121856,0.9999380876649028,-126.60678905789798
6.739163648,1.0000103413747998,-126.77078984439912
6.74220544,1.000082201255064,-126.93582747203303
6.745247232,1.0001491894844465,-127.10192002486073
6.748289024,1.000207094711327,-127.26888843705396
6.751330816,1.0002523751669443,-127.43663745805767
6.754372608,1.0002821876963333,-127.60492630217777
6.7574144,1.0002946794709449,-127.773526210488
6.760456192,1.0002890685569836,-127.94220309244136
6.763497984,1.0002658233485426,-128.11069106956015
6.766539776,1.0002261199352118,-128.27872421215568
6.769581568,1.0001726110391151,-128.44609683529046
6.77262336,1.0001086225929967,-128.61266912448374
6.775665152,1.0000380642646687,-128.77824445803978
6.778707456,0.999965336892947,-128.94284042155618
6.781749248,0.99989489993551,-129.10639426550108
6.78479104,0.9998312335505082,-129.26901522002453
6.787832832,0.9997781477476673,-129.43079360037706
6.790874624,0.9997390509380745,-129.5919435877884
6.793916416,0.9997163880209957,-129.75261854576686
6.796958208,0.9997115792523826,-129.9131322420039
6.8,0.9997248190299919,-130.07372571491382
6.803041792,0.9997554641665527,-130.23463804676894
6.806083584,0.9998013594508445,-130.39613540535763
6.809125376,0.9998599388263492,-130.55839114648677
6.812167168,0.9999273907818512,-130.72155777651918
6.81520896,0.9999995997283067,-130.88572105714903
6.818250752,1.0000719872238184,-131.05094816864684
6.821292544,1.0001401401332732,-131.21721553438746
6.824334848,1.0001998767748728,-131.38440425499468
6.82737664,1.0002473882989649,-131.55238278773635
6.830418432,1.0002797878899021,-131.72096010144725
6.833460224,1.000295002829113,-131.88984834943125
6.836502016,1.0002921565986624,-132.05886640220396
6.839543808,1.0002712579436568,-132.22773964138702
6.8425856,1.000233833141697,-132.39617577787146
6.845627392,1.0001820786576412,-132.56403302399212
6.848669184,1.0001191978828698,-132.73101088794567
6.851710976,1.0000490645163373,-132.8971125814137
6.854752768,0.9999761260228894,-133.06215371081475
6.85779456,0.9999047956641463,-133.2261763720082
6.860836352,0.9998396139481812,-133.38923682723097
6.863878144,0.9997845633092393,-133.55143827930806
6.866919936,0.9997431096863816,-133.71296282087943
6.869961728,0.9997177411020274,-133.87399886544154
6.873004032,0.9997101978678476,-134.03482430163572
6.876045824,0.9997207702080709,-134.19566638342567
6.879087616,0.9997489820397532,-134.35680719736018
6.882129408,0.9997929826917703,-134.51851389793242
6.8851712,0.9998500601396774,-134.6809288692064
6.888212992,0.9999166026268207,-134.8442346906031
6.891254784,0.999988572213919,-135.008546204209
6.894296576,1.0000616150693002,-135.1739229822671
6.897338368,1.000130835025769,-135.34035283045398
6.90038016,1.0001922878622163,-135.50772257822248
6.903421952,1.0002419990471094,-135.6758831903716
6.906463744,1.0002769349288918,-135.84469486008493
6.909505536,1.0002948723895828,-136.01387181303338
6.912547328,1.0002947312936872,-136.18319124089268
6.91558912,1.000276462244298,-136.35238618823936
6.918631424,1.0002412371739318,-136.52121676020835
6.921673216,1.0001912904330514,-136.68947414129255
6.924715008,1.0001295872244662,-136.85690057079313
6.9277568,1.0000601201869985,-137.0234151855706
6.930798592,0.9999870082627161,-137.18889537276632
6.933840384,0.9999149183305951,-137.3533666118764
6.936882176,0.999848332400429,-137.51682273282458
6.939923968,0.9997913168348269,-137.6794177257504
6.94296576,0.9997474708755474,-137.84126326723106
6.946007552,0.9997195168205542,-138.00263833962214
6.949049344,0.9997091668455235,-138.16376552271814
6.952091136,0.9997170836157048,-138.32486995031638
6.955132928,0.9997428517147772,-138.48619233739882
6.95817472,0.999784745340574,-138.64800520894136
6.961216512,0.9998402186666835,-138.81059272830183
6.964258304,0.9999059084575946,-138.97400684880316
6.967300608,0.9999775916231685,-139.13844815422442
6.9703424,1.00005088512418,-139.30393435438324
6.973384192,1.000121261778343,-139.47046980083846
6.976425984,1.000184423443614,-139.6379833512306
6.979467776,1.0002362702888157,-139.80629195757692
6.982509568,1.0002737370075807,-139.9752804049674
6.98555136,1.000294377471417,-140.14470630942577
6.988593152,1.0002970134984268,-140.31428081114615
6.991634944,1.0002813605507719,-140.48380524397362
6.994676736,1.0002484902725695,-140.65298344404283
6.997718528,1.0002004082038087,-140.821578169214
7.00076032,1.0001399767403862,-140.98940596418606
7.003802112,1.0000712569050711,-141.1563076847548
7.006843904,0.9999981372281207,-141.32220241172746
7.009885696,0.9999253963986172,-141.48707841711735
7.012928,0.9998574220180073,-141.65093795022375
7.015969792,0.9997984850735999,-141.81386629884955
7.019011584,0.9997523671390701,-141.9760663415378
7.022053376,0.9997217876908501,-142.1377196842622
7.025095168,0.9997086236979528,-142.29908815779393
7.02813696,0.9997138118815628,-142.46038869072575
7.031178752,0.999737021192338,-142.62191345488736
7.034220544,0.9997767483813209,-142.78386691355513
7.037262336,0.9998306083879769,-142.94654717961777
7.040304128,0.9998952047731441,-143.11004545043764
7.04334592,0.9999665689953466,-143.27455764119455
7.046387712,1.0000401749910992,-143.44013350562355
7.049429504,1.0001115538468461,-143.60673016936573
7.052471296,1.0001761972219072,-143.7743276323708
7.055513088,1.000230195038815,-143.94278627212285
7.05855488,1.0002701064133008,-144.11191820923656
7.061597184,1.0002934559701862,-144.28154574844353
7.064638976,1.000298937240665,-144.45134932390954
7.067680768,1.0002860008921923,-144.6211443412686
7.07072256,1.0002554644586963,-144.79060284487244
7.073764352,1.0002093348293981,-144.95951352896878
7.076806144,1.0001504014711713,-145.12770913084296
7.079847936,1.0000823238982655,-145.2949815263328
7.082889728,1.0000093778362178,-145.46125791398202
7.08593152,0.999936034313122,-145.62648731787877
7.088973312,0.9998668081021974,-145.79069628238275
7.092015104,0.9998060319252497,-145.95396702655103
7.095056896,0.9997576032178177,-146.11648496972276
7.098098688,0.9997243663815489,-146.27839131516862
7.10114048,0.9997084563625095,-146.4399695682346
7.104182272,0.9997109202074235,-146.60145862975045
7.107224576,0.9997315667382818,-146.7631219367666
7.110266368,0.9997690785074966,-146.92519531225705
7.11330816,0.9998211316995205,-147.0879332423404
7.116349952,0.9998845340557335,-147.25149681371863
7.119391744,0.9999554639559347,-147.41604512986385
7.122433536,1.0000292810331097,-147.58163188868696
7.125475328,1.0001015185909665,-147.74826721291677
7.12851712,1.0001677011432755,-147.91593963916145
7.131558912,1.000223752167875,-148.08449417718955
7.134600704,1.0002660969840846,-148.2537293665582
7.137642496,1.0002923031570876,-148.42351202594264
7.140684288,1.0003003976699036,-148.59350777013444
7.14372608,1.0002902073078475,-148.7635164719271
7.146767872,1.000262142620504,-148.93325212881612
7.149809664,1.0002181290412138,-149.1024704702258
7.152851456,1.0001606681189517,-149.27097896863535
7.15589376,1.0000935274141747,-149.4385640217886
7.158935552,1.0000206852347815,-149.60518023619295
7.161977344,0.999946775546801,-149.770734460471
7.165019136,0.9998765255809883,-149.935276154129
7.168060928,0.9998139556969976,-150.0988614809637
7.17110272,0.9997632316416449,-150.26162701540744
7.174144512,0.9997274656745847,-150.42380894680704
7.177186304,0.9997087816561346,-150.58555899429078
7.180228096,0.9997084561391177,-150.74718728429508
7.183269888,0.9997263953822663,-150.90893985700433
7.18631168,0.9997616886391263,-151.0711173023558
7.189353472,0.9998118268019518,-151.2338886624131
7.192395264,0.9998740786147661,-151.397472933293
7.195437056,0.9999442693534091,-151.56201161451347
7.198478848,1.000018207290688,-151.72761062296323
7.201521152,1.0000912932893686,-151.89427256178695
7.204562944,1.000158916873442,-152.06193897611618
7.207604736,1.0002170285778549,-152.23052168607848
