freq,mag,phase
6.0,1.0002086959514445,41.46599651944456
6.010540032,1.00019260172133,41.21849581537146
6.021080576,1.0001674384589638,40.97124534537374
6.031620608,1.0001335418988657,40.72435409868163
6.04216064,1.0000926621813504,40.47792348191313
6.052700672,1.0000467382261509,40.232108637527354
6.063241216,0.9999982538143963,39.986873330672665
6.073781248,0.9999497327729893,39.742217947711836
6.08432128,0.9999034963838408,39.49826560971135
6.094861824,0.9998620591959769,39.254817837950526
6.105401856,0.9998274730127724,39.011847928725416
6.115941888,0.9998015626126641,38.769254415845715
6.126482432,0.9997856219503511,38.527006905739455
6.137022464,0.9997805438108772,38.28484246214669
6.147562496,0.9997864970474282,38.04265646359064
6.158102528,0.9998031236707688,37.80030877483399
6.168643072,0.9998298425243802,37.55770079003211
6.179183104,0.999865009580206,37.31467372066061
6.189723136,0.9999070541340065,37.07109178521977
6.20026368,0.9999536697646018,36.82697474445686
6.210803712,1.0000025584381877,36.58218638231681
6.221343744,1.0000512154345498,36.336793671159434
6.231884288,1.000097179891447,36.09074429135079
6.24242432,1.0001381225986705,35.84418505215517
6.252964352,1.0001717422930885,35.59704322473514
6.263504384,1.000196565365293,35.34956261758738
6.274044928,1.0002111067300734,35.10182433699737
6.28458496,1.0002148111489355,34.85394472941822
6.295124992,1.000207369375477,34.60604496737084
6.305665536,1.0001891298698715,34.358334454231155
6.316205568,1.000161207337035,34.110928843267
6.3267456,1.0001247119869796,33.863923148150015
6.337286144,1.0000817495335064,33.61739088744799
6.347826176,1.0000343600712371,33.3715033794507
6.358366208,0.9999850840227265,33.12620133683032
6.36890624,0.9999364046454821,32.88152839447682
6.379446784,0.9998908116579039,32.63746912771679
6.389986816,0.999850603967708,32.393961075281126
6.400526848,0.9998178325302131,32.15091332283713
6.411067392,0.9997942854131677,31.908223195595536
6.421607424,0.999781078962053,31.66580257571877
6.432147456,0.9997789496255112,31.423434580269603
6.442688,0.9997880101633064,31.181002805549625
6.453228032,0.9998077438134624,30.9384337196085
6.463768064,0.9998372210435806,30.695477445620597
6.474308096,0.9998749638882973,30.45207857660097
6.48484864,0.9999189712626323,30.208174576562637
6.495388672,0.9999669629298537,29.96365758764394
6.505928704,1.0000166614541517,29.718483373400964
6.516469248,1.0000653869431424,29.47263262282336
6.52700928,1.0001106436415168,29.226220434956353
6.537549312,1.0001502060987215,28.979193535308294
6.548089344,1.0001819720041163,28.731699383302416
6.558629888,1.0002043426318978,28.483840937845567
6.56916992,1.0002161665447558,28.235770623017633
6.579709952,1.0002167433081457,27.98762061201273
6.590250496,1.0002061473542407,27.739493895112904
6.600790528,1.0001849061689003,27.491561800234194
6.61133056,1.0001541103849272,27.24401257752343
6.621871104,1.0001152211859443,26.99685064383546
6.632411136,1.0000702271319846,26.750263559787065
6.642951168,1.000021582141976,26.504279081700854
6.6534912,0.9999716415919302,26.258886199326707
6.664031744,0.999923000478897,26.014174175683443
6.674571776,0.9998780677860294,25.77001173448341
6.685111808,0.9998393179329321,25.526439609247895
6.695652352,0.9998085739175967,25.2832954261027
6.706192384,0.9997874266923157,25.040448748991402
6.716732416,0.9997771236938605,24.797812826900874
6.72727296,0.9997780575141426,24.55528202235027
6.737812992,0.9997902757333134,24.312620300811
6.748353024,0.9998130233426034,24.06972255224275
6.758893056,0.9998453429828241,23.826444071183232
6.7694336,0.9998853905434828,23.582679286806027
6.779973632,0.9999313607680955,23.33838204498064
6.790513664,0.9999806547476051,23.093448041132746
6.801054208,1.000030934131612,22.847827882698958
6.81159424,1.0000795542235275,22.60160326278354
6.822134272,1.0001240124361257,22.3547237196798
6.832674816,1.0001620671511116,22.107279793087844
6.843214848,1.0001917377499043,21.85941008317558
6.85375488,1.0002116017066824,21.61119892552549
6.864294912,1.0002204534376142,21.362811697161877
6.874835456,1.0002180122944477,21.114348823673478
6.885375488,1.000204263007962,20.86599345207335
6.89591552,1.0001799452079823,20.617887498746704
6.906456064,1.000146328806242,20.370124996642808
6.916996096,1.000105048142924,20.12285302118581
6.927536128,1.0000582753841405,19.876132003701446
6.938076672,1.0000084281239194,19.630026447006706
6.948616704,0.9999579533668917,19.38461137389378
6.959156736,0.9999094755654575,19.139799435581455
6.969696768,0.9998654560721961,18.89556918720368
6.980237312,0.999828256480099,18.651862237848782
6.990777344,0.9997996058259757,18.408618739700717
7.001317376,0.99978112005701,18.165659000087672
7.01185792,0.999773770077935,17.922814285770027
7.022397952,0.9997777897147281,17.68002264104455
7.032937984,0.9997931959818446,17.43709949487876
7.043478016,0.9998191063234146,17.193868319183576
7.05401856,0.999854120830521,16.950267056288936
7.064558592,0.9998965647597959,16.706128580246652
7.075098624,0.9999441775062681,16.461401760766236
7.085639168,0.9999946833592597,16.216051530928475
7.0961792,1.0000453588835512,15.96998591075763
7.106719232,1.00009368695122,15.723259865993109
7.117259776,1.000137267556188,15.475966180686495
7.127799808,1.0001736078828598,15.228116544094334
7.13833984,1.0002011075702637,14.979845959526003
7.148879872,1.0002182444229586,14.731273572831249
7.159420416,1.000224114451979,14.482553080474453
7.169960448,1.0002184442807496,14.233823838606408
7.18050048,1.000201538710505,13.985198440094193
7.191041024,1.000174208461743,13.736873592372664
7.201581056,1.000137758583722,13.488945283009022
7.212121088,1.0000942725497695,13.241528895330047
7.222661632,1.0000457732353478,12.994705482210732
7.233201664,0.9999947552743178,12.748498343080946
7.243741696,0.9999439734269703,12.50300250343461
7.254281728,0.9998958034641513,12.258094706184623
7.264822272,0.9998528726235684,12.013810346866668
7.275362304,0.99981734183825,11.769978309041248
7.285902336,0.999791007627338,11.526552129324196
7.29644288,0.9997752578273204,11.283400522585206
7.306982912,0.9997710433095915,11.040396294500491
7.317522944,0.9997783549975409,10.797350212429189
7.328063488,0.9997968171190478,10.554110593969957
7.33860352,0.9998257080475134,10.310573761998064
7.349143552,0.9998635126183449,10.066583903677307
7.359683584,0.9999081799822647,9.822051055530869
7.370224128,0.9999575429791367,9.576895890068666
7.38076416,1.0000090931903622,9.33105681531148
7.391304192,1.0000600163371423,9.084547925207668
7.401844736,1.0001079180973251,8.837381005917065
7.412384768,1.0001502573754686,8.58962533651126
7.4229248,1.0001849020640792,8.34135086152596
7.433464832,1.0002100032927612,8.09267541523957
7.444005376,1.0002243412461267,7.843741521563003
7.454545408,1.0002270809135847,7.594642353280892
7.46508544,1.0002182190754059,7.345639413896683
7.475625984,1.0001980733777178,7.096792182900711
7.486166016,1.000167631967278,6.848260620863568
7.496706048,1.0001285462654927,6.600142982687026
7.507246592,1.000082804577096,6.352605171501564
7.517786624,1.000032697201821,6.105651138905433
7.528326656,0.9999808211009302,5.8593591792233575
7.538866688,0.9999296911788819,5.613741496131983
7.549407232,0.9998820135156641,5.368712733613156
7.559947264,0.9998403584692276,5.124316669429989
7.570487296,0.9998067798969824,4.88042213198476
7.58102784,0.9997828462877892,4.636824889648423
7.591567872,0.9997700402546736,4.3934800760834944
7.602107904,0.9997689297819401,4.150224422366829
7.612648448,0.9997793504279366,3.9068910194208017
7.62318848,0.9998011772522726,3.6633565029669533
7.633728512,0.999833133737583,3.4194450177291063
7.644268544,0.999873530392048,3.1750528082620324
7.654809088,0.9999204346786819,2.9301007120704265
7.66534912,0.9999713235243017,2.6844851668030345
7.675889152,1.0000237097148197,2.438185768604513
7.686429696,1.000074762994959,2.191191690556283
7.696969728,1.0001221215263634,1.9435690486894486
7.70750976,1.0001631430217262,1.6953389363756521
7.718050304,1.0001958216443625,1.446626066194924
7.728590336,1.0002184057546093,1.197538283278906
7.739130368,1.0002297174747476,0.9482211428006369
7.7496704,1.0002293676990726,0.6988182089266728
7.760210944,1.0002171042845347,0.44949728929418814
7.770750976,1.0001937516510082,0.20037228964106557
7.781291008,1.0001603351730857,-0.04836316421197964
7.791831552,1.0001185446137801,-0.2966180069086758
7.802371584,1.0000706437550702,-0.5443407743957213
7.812911616,1.0000190411836627,-0.7914056524444072
7.82345216,0.9999663270439385,-1.0378151403562281
7.833992192,0.9999152520248172,-1.283521470147922
7.844532224,0.9998683247176541,-1.5286253645347645
7.855072256,0.9998279867236797,-1.7731554732668824
7.8656128,0.9997963949919254,-2.017242639189568
7.876152832,0.9997751348328673,-2.2609944118568985
7.886692864,0.9997652909494367,-2.5045216353204407
7.897233408,0.9997672958308784,-2.748041337239
7.90777344,0.9997812520374646,-2.99166396036997
7.918313472,0.9998062127025598,-3.2355516650351137
7.928853504,0.9998412587109652,-3.479847267282925
7.939394048,0.9998842847388335,-3.7246635395105847
7.94993408,0.9999333366629408,-3.9700634960456402
7.960474112,0.9999855517696283,-4.216133775275717
7.971014656,1.000038603471616,-4.462942744410837
7.981554688,1.0000897278589502,-4.710408668583049
7.99209472,1.000136198388846,-4.958532893991402
8.002635264,1.000175801870258,-5.207228167347349
8.013175296,1.0002062458174912,-5.456378110779494
8.023715328,1.0002262090858143,-5.705896857500029
8.03425536,1.0002345219033957,-5.955600613448133
8.044795904,1.000230887035231,-6.205322927942157
8.055335936,1.0002152048826263,-6.454963492542987
8.065875968,1.0001886042946413,-6.704334532647636
8.076416512,1.000152145228722,-6.953298780985438
8.086956544,1.0001078578820408,-7.201741488407593
8.097496576,1.0000579239645888,-7.449601652525869
8.10803712,1.0000048763126568,-7.696794625195981
8.118577152,0.9999515486588678,-7.9433180449420995
8.129117184,0.9999005457275121,-8.189147851035106
8.139657216,0.9998545154979542,-8.434370002720659
8.15019776,0.9998157495397364,-8.679037467123548
8.160737792,0.9997863941955667,-8.923274128481644
8.171277824,0.9997677957259788,-9.167225927796897
8.181818368,0.9997610267919129,-9.410990281872223
8.1923584,0.9997665182838174,-9.654783568747282
8.202898432,0.9997838155800407,-9.898728066890193
8.213438976,0.9998121265174367,-10.142981553955073
8.223979008,0.999850039090406,-10.387645331051734
8.23451904,0.9998956922882787,-10.632897611252146
8.245059072,0.9999466369702872,-10.87878116041226
8.255599616,1.0000002191497135,-11.125383675040942
8.266139648,1.0000538935588006,-11.372628236109128
8.27667968,1.0001047330667416,-11.62062866615557
8.287220224,1.0001502856502698,-11.869256560643734
8.297760256,1.0001881564311401,-12.118444270928688
8.308300288,1.0002164118634402,-12.368045431529653
8.318840832,1.000233582723647,-12.617999275598464
8.329380864,1.0002386734431916,-12.868079023373069
8.339920896,1.0002315934272048,-13.11816337944507
8.350460928,1.0002125796695618,-13.36807177569523
8.361001472,1.0001826407257852,-13.617703242492372
8.371541504,1.000143225715816,-13.866894554706588
8.382081536,1.000096229524224,-14.11555215528802
8.39262208,1.0000444865358498,-14.363549551084514
8.403162112,0.9999902185759355,-14.610888540332734
8.413702144,0.9999363629237801,-14.857510058468145
8.424242176,0.9998855612456843,-15.103476630362275
8.43478272,0.9998406154487415,-15.348813131567612
8.445322752,0.9998036622754514,-15.593632189912991
8.455862784,0.999776684297036,-15.838043817128028
8.466403328,0.9997609787690828,-16.082198153963695
8.47694336,0.9997575047554125,-16.326254052258232
8.487483392,0.9997663751667762,-16.570316941063787
8.498023936,0.9997871319308049,-16.814625680293304
8.508563968,0.999818760567968,-17.059232294286407
8.519104,0.9998597078169873,-17.30435175808188
8.529644032,0.9999077157916072,-17.550049708058236
8.540184576,0.9999605571505971,-17.796440464297923
8.550724608,1.0000153092887518,-18.043523095431947
8.56126464,1.0000694541916306,-18.29132613940437
8.571805184,1.000119982078976,-18.53983809951464
8.582345216,1.000164381926212,-18.788986680948234
8.59288576,1.000200382603075,-19.0386410420465
8.603425792,1.0002261549010885,-19.288751686007455
8.613965824,1.0002403281364123,-19.539112850772078
8.624505856,1.0002421829536092,-19.789563550804537
8.635045888,1.0002315971995586,-20.040015436486073
8.64558592,1.0002090796351768,-20.290246193941726
8.656126976,1.000175804932549,-20.54013569708274
8.666667008,1.0001335704364231,-20.789537256761893
8.67720704,1.000084221601215,-21.038373406863904
8.687747072,1.0000304678351861,-21.28654491551798
8.698287104,0.9999750823667929,-21.534010032756605
8.708827136,0.9999208694642935,-21.780748905058978
8.719367168,0.9998705578913962,-22.026856498320342
8.729908224,0.9998268279938334,-22.272351177691142
8.740448256,0.9997918220008362,-22.517342901634393
8.750988288,0.9997673104434239,-22.76195479512819
8.76152832,0.9997547506470795,-23.006348303217813
8.772068352,0.9997546074997258,-23.25065701507723
8.782608384,0.9997670015853383,-23.49504039910997
8.793148416,0.9997912038708133,-23.739693477067178
8.803689472,0.9998262110125137,-23.984710170126426
8.814229504,0.9998699319014472,-24.23029283379865
8.824769536,0.9999205869156009,-24.476462959922372
8.835309568,0.9999750616827442,-24.72335443103458
8.8458496,1.0000309042099513,-24.970978398796497
8.856389632,1.0000852985001298,-25.219335796339983
8.866929664,1.0001351550020787,-25.46837362638149
8.87747072,1.0001782085351099,-25.718039737087224
8.888010752,1.0002123062405721,-25.968237089572554
8.898550784,1.0002354202467882,-26.21878851510945
8.909090816,1.0002463981954652,-26.469595421086616
8.919630848,1.0002449318392268,-26.720477851538984
8.93017088,1.0002307498568437,-26.971259221790387
8.940711936,1.00020485189436,-27.22179900060121
8.951251968,1.000168155834582,-27.471966344967242
8.961792,1.0001228848344836,-27.721592742135513
8.972332032,1.0000712345864307,-27.970597460849003
8.982872064,1.0000158184502805,-28.218930362567633
8.993412096,0.9999595233134039,-28.466554873808974
9.003952128,0.9999051536930232,-28.713445379426624
9.014493184,0.9998554567227351,-28.959688195169218
9.025033216,0.9998130999748307,-29.205335043008464
9.035573248,0.9997801538261156,-29.450511699910827
9.04611328,0.9997584239051422,-29.695332123748347
9.056653312,0.9997489766739134,-29.939947824964776
9.067193344,0.9997523297878435,-30.18453895804307
9.077733376,0.9997682426276997,-30.4292867610873
9.088274432,0.9997960848907279,-30.67431631277199
9.098814464,0.9998343440553353,-30.919804798988032
9.109354496,0.9998810764800717,-31.16585188345895
9.119894528,0.999933875228622,-31.41253242084336
9.13043456,0.999989974719055,-31.6599532125165
9.140974592,1.000046821975687,-31.90813696416635
9.151515648,1.0001012745685325,-32.15704175159296
9.16205568,1.000150520375385,-32.406640689342616
9.172595712,1.0001921457636953,-32.65682593007906
9.183135744,1.0002238745198455,-32.90753870811116
9.193675776,1.0002441128467983,-33.158578131404255
9.204215808,1.0002519738998314,-33.40983046039324
9.21475584,1.0002468655539662,-33.66112515735057
9.225296896,1.00022905078754,-33.91229021972336
9.235836928,1.0001995289465924,-34.1631350077857
9.24637696,1.0001596024952806,-34.413540495308375
9.256916992,1.000111466923083,-34.663403365557144
9.267457024,1.000057519076758,-34.91262530660986
9.277997056,1.0000005401841034,-35.161109639993136
9.288537088,0.9999433395707494,-35.4088675906668
9.299078144,0.9998889518184705,-35.65591939716515
9.309618176,0.9998400612786593,-35.90231809372755
9.320158208,0.9997993203977762,-36.148116030280676
9.33069824,0.9997687819855559,-36.393499254771974
9.341238272,0.9997498228735552,-36.63855527516504
9.351778304,0.9997437280034167,-36.88345221494021
9.362318336,0.9997506875069461,-37.12833808241781
9.372859392,0.9997703064480468,-37.373448444105165
9.383399424,0.999801685314436,-37.61889803382361
9.393939456,0.9998433117740388,-37.86482701117121
9.404479488,0.9998928834927114,-38.11134934305209
9.41501952,0.9999479193596755,-38.35858226693482
9.425559552,1.0000057525764603,-38.60656387170487
9.436100608,1.0000631975315852,-38.855324382754006
9.44664064,1.0001175147695174,-39.104819746166974
9.457180672,1.0001658880708475,-39.354971998488914
9.467720704,1.0002057496026304,-39.605746390946244
9.478260736,1.0002351823609776,-39.85698580173896
9.488800768,1.0002524697403103,-40.10850973197418
9.4993408,1.000256964632136,-40.360210140907924
9.509881856,1.0002480753779373,-40.61191229469294
9.520421888,1.000226671798862,-40.86341205680914
9.53096192,1.0001934114946196,-41.11459335975128
9.541501952,1.0001502280834336,-41.365259523468055
9.552041984,1.0000991857523875,-41.61535278104603
9.562582016,1.0000430538457108,-41.86476227199234
9.573122048,0.9999845433500549,-42.1134491511205
9.583663104,0.9999267855913073,-42.36135841350115
9.594203136,0.99987247379842,-42.60854687412846
9.604743168,0.9998246738692553,-42.85510563472941
9.6152832,0.9997857183963825,-43.101126114073764
9.625823232,0.9997575539842849,-43.34668221869425
9.636363264,0.9997417488579763,-43.59199515577888
9.64690432,0.9997390901219977,-43.83717969622499
9.657444352,0.9997497926528004,-44.082412072988255
9.667984384,0.9997731860473673,-44.327925622306246
9.678524416,0.9998082257881875,-44.57381160161808
9.689064448,0.9998530503334152,-44.82021043814315
9.69960448,0.9999054200636155,-45.067264404609546
9.710144512,0.9999627533430768,-45.31504806726338
9.720685568,1.000021898792615,-45.56361959582949
9.7312256,1.0000799097614814,-45.812941185352
9.741765632,1.0001339777556775,-46.06304794447921
9.752305664,1.000181276787449,-46.313801622560405
9.762845696,1.0002192551984714,-46.56511234227775
9.773385728,1.0002460044487198,-46.816886862324225
9.78392576,1.000260202356349,-47.068940898733636
9.794466816,1.000260980811382,-47.32110007286494
9.805006848,1.0002484822067286,-47.57320510784771
9.81554688,1.0002229981544908,-47.82508394267765
9.826086912,1.000186280651654,-48.076559527891064
9.836626944,1.0001397574956872,-48.32752159596841
9.847166976,1.0000859438507235,-48.57784223601991
9.857707008,1.000027589588458,-48.827445517915
9.868248064,0.9999677989107112,-49.07628500469462
9.878788096,0.9999094467475866,-49.32437254584957
9.889328128,0.9998555678107852,-49.571738144633784
9.89986816,0.9998088083040017,-49.81848337329483
9.910408192,0.9997719761576843,-50.06468223683861
9.920948224,0.9997465006066819,-50.31048133320765
9.93148928,0.9997339640669647,-50.556039788896065
9.942029312,0.9997348575133025,-50.801541215807
9.952569344,0.9997494142857491,-51.04713661704647
9.963109376,0.9997766655503965,-51.293055102533096
9.973649408,0.9998153035651374,-51.53938594382939
9.98418944,0.9998635015115855,-51.78630368660847
9.994729472,0.9999186679408647,-52.033900407439305
10.005270528,0.9999780002613619,-52.282277388998615
10.01581056,1.0000385066567794,-52.53144296838071
10.026350592,1.000097080934171,-52.78139484034579
10.036890624,1.000150725776259,-53.032074497245816
10.047430656,1.000196629350749,-53.28343950332788
10.057970688,1.0002325269649481,-53.535355225127915
10.06851072,1.0002565472172094,-53.7876611636919
10.079051776,1.0002673602955074,-54.04022765147367
10.089591808,1.0002645401863521,-54.29286865799763
10.10013184,1.0002480445705932,-54.54537477998809
10.110671872,1.0002188535689642,-54.79761408608444
10.121211904,1.000178329242272,-55.04942478413747
10.131751936,1.0001285550099166,-55.30065767401339
10.142292992,1.0000719826636792,-55.55122323997555
10.152833024,1.0000116821308458,-55.80101741171569
10.163373056,0.9999505813124275,-56.05006456939767
10.173913088,0.9998918799189288,-56.29831409408501
10.18445312,0.9998385083526168,-56.54585804978095
10.194993152,0.9997932102169766,-56.79278564628851
10.205533184,0.9997584619101549,-57.03919682273038
10.21607424,0.9997359077771996,-57.28523442626438
10.226614272,0.9997267833629137,-57.531067698552604
