freq,mag,phase
6.0,0.9990089138403994,-174.78770209603744
6.002285568,0.9989772425066581,-174.92173555322452
6.004571648,0.9990108838511899,-175.0558043430847
6.006857216,0.9991068307085009,-175.1908339835259
6.009142784,0.9992590557223299,-175.3276289727749
6.011428352,0.9994579988451621,-175.46701328717293
6.013714432,0.9996909605348276,-175.60950154854277
6.016,0.999943189301829,-175.7555219341411
6.018285568,1.0001987420171716,-175.90524373708755
6.020571648,1.0004415146447618,-176.058569316386
6.022857216,1.0006562571514708,-176.2152362801673
6.025142784,1.0008289863168307,-176.3746759774919
6.027428352,1.0009492070553225,-176.53626540729172
6.029714432,1.0010091199611855,-176.69914374259108
6.032,1.001004995837298,-176.8624531695408
6.034285568,1.0009371180511553,-177.0251986261662
6.036571648,1.0008095899847929,-177.1865673202635
6.038857216,1.0006305815393302,-177.34567925619172
6.041142784,1.0004114583458215,-177.50192884098715
6.043428352,1.0001657886052608,-177.65480339002832
6.045714432,0.9999092814515477,-177.8040156735391
6.048,0.9996581540144992,-177.9495343660856
6.050285568,0.9994282906947808,-178.09159458867506
6.052571648,0.9992342602699719,-178.23052726366006
6.054857216,0.9990883845750165,-178.36699154239002
6.057142784,0.9989999526261593,-178.50175021588606
6.059428352,0.9989744616104947,-178.63567470079727
6.061714432,0.9990136524390935,-178.76970420543063
6.064,0.9991150276503451,-178.9047237892445
6.066285568,0.9992722435377868,-179.04162053096476
6.068571648,0.9994752584373717,-179.18118656434098
6.070857216,0.9997112022210022,-179.32388132170567
6.073142784,0.9999652048320412,-179.4701935941296
6.075428352,1.000221175913938,-179.62018116680812
6.077714432,1.0004629394837632,-179.7737749900219
6.08,1.000674980850705,-179.93064537733966
6.082285568,1.000844291098727,179.90969942627297
6.084571648,1.0009600198260975,179.74797543521882
6.086857216,1.0010146167626646,179.58504207901044
6.089142784,1.0010048896198667,179.42176014721002
6.091428352,1.0009315030679724,179.25908832087202
6.093714432,1.0007987667046858,179.09790279855932
6.096,1.0006152376275352,178.93905271245714
6.098285568,1.000392399674881,178.7830995361163
6.100571648,1.0001443930180993,178.6305748157599
6.102857216,0.9998868846642044,178.48174554654818
6.105142784,0.9996361920049784,178.3365905540041
6.107428352,0.9994080855086952,178.1949289564541
6.109714432,0.9992171746065588,178.0563055605176
6.112,0.9990754567257156,177.9201081029268
6.114285568,0.9989919811066382,177.78557582471907
6.116571648,0.998971985251315,177.65179116749616
6.118857216,0.9990168529474667,177.51785083963728
6.121142784,0.9991237111606268,177.38276624922648
6.123428352,0.9992858609169746,177.24575338299843
6.125714432,0.9994929483255861,177.10606037698813
6.128,0.9997318727463317,176.96314293365688
6.130285568,0.9999874210202772,176.81658266328455
6.132571648,1.000243755995169,176.6663593407978
6.134857216,1.0004841779637814,176.51248441190648
6.137142784,1.0006938324532308,176.3554034938847
6.139428352,1.0008595193933254,176.19555435154027
6.141714432,1.0009703924278612,176.0337249649175
6.144,1.0010198190402622,175.87073946857384
6.146285568,1.0010045389057365,175.70750052351912
6.148571648,1.00092535215291,175.5449538847185
6.150857216,1.000787362625544,175.38395489566724
6.153142784,1.0005992851612728,175.2253546672058
6.155428352,1.0003730982676204,175.06976171979463
6.157714432,1.0001228622718485,174.91761471471963
6.16,0.9998644699140564,174.7691434811582
6.162285568,0.9996142113018988,174.6244002458247
6.164571648,0.999388075110134,174.4830945208243
6.166857216,0.9992003271398923,174.34483333011008
6.169142784,0.9990628010337687,174.2089215834153
6.171428352,0.9989843624371435,174.07462247454927
6.173714432,0.9989700530734389,173.94097289193692
6.176,0.9990205645085507,173.80708243503923
6.178285568,0.9991329209711536,173.67198714047532
6.180571648,0.9992998559254429,173.5348807187762
6.182857216,0.9995108996321922,173.39503455876752
6.185142784,0.999752667303317,173.25188311364215
6.187428352,1.000009962065364,173.1051389469826
6.189714432,1.0002662813715073,172.9546402342112
6.192,1.0005054484523872,172.80052316036353
6.194285568,1.0007125540314217,172.64319857373317
6.196571648,1.0008743164938525,172.4832178197814
6.198857216,1.000980487903909,172.3212982225648
6.201142784,1.0010245299409866,172.15827526715708
6.203428352,1.001003507463951,171.9950864376263
6.205714432,1.0009187237915116,171.83265439005007
6.208,1.0007756917704138,171.67188043034426
6.210285568,1.0005831178033442,171.51355602289337
6.212571648,1.000353432587135,171.35829137104318
6.214857216,1.0001010231386314,171.20654352989422
6.217142784,0.9998417319105871,171.05848549941402
6.219428352,0.999592235862079,170.91414546986837
6.221714432,0.9993680554398288,170.77324757770637
6.224,0.9991836499335703,170.63532566916356
6.226285568,0.9990505292101022,170.49971913196364
6.228571648,0.9989772543860523,170.36564398357476
6.230857216,0.9989684367795122,170.23214882922
6.233142784,0.9990247317662968,170.09830398045895
6.235428352,0.9991424618405619,169.96324155694822
6.237714432,0.9993143187615271,169.82604143321453
6.24,0.9995293089500432,169.68601840745396
6.242285568,0.9997738896137991,169.54267290719153
6.244571648,1.0000325137533672,169.3956966907006
6.246857216,1.0002889067525973,169.2449398124067
6.249142784,1.0005267229067116,169.09063676343828
6.251428352,1.0007310053025138,168.93312890341258
6.253714432,1.0008888074411404,168.77297502241566
6.256,1.0009902950677783,168.61095115383532
6.258285568,1.0010288214356555,168.44793019185292
6.260571648,1.0010021993725886,168.28481148403006
6.262857216,1.0009118729023494,168.12254919869838
6.265142784,1.0007635828667185,167.9620229234834
6.267428352,1.0005665621970343,167.80398601035458
6.269714432,1.0003335307036127,167.64907939259817
6.272,1.0000790174505039,167.49770840130387
6.274285568,0.9998191387753161,167.350084580512
6.276571648,0.9995703298827749,167.20615730726828
6.278857216,0.9993483509322204,167.06566234853727
6.281142784,0.999167293714863,166.92810502418513
6.283428352,0.9990385593939678,166.79280995286683
6.285714432,0.9989705935792894,166.658961519655
6.288,0.9989673360701558,166.5256269751311
6.290285568,0.9990293611814647,166.3918520451168
6.292571648,0.9991526149878714,166.25675494408893
6.294857216,0.9993292425914067,166.11947135686344
6.297142784,0.9995480778895871,165.97933610477588
6.299428352,0.9997953077177766,165.83579129424294
6.301714432,1.0000553269159198,165.68857479967565
6.304,1.0003115784883672,165.53761330952895
6.306285568,1.000547930577706,165.383087809249
6.308571648,1.000749261532683,165.2253863052882
6.310857216,1.0009031951736949,165.06510392222202
6.313142784,1.0009996663351681,164.90300712539732
6.315428352,1.001032773084485,164.73999991013997
6.317714432,1.001000207069308,164.5769812022123
6.32,1.0009042743233256,164.41490545642142
6.322285568,1.000750839384618,164.25459650559745
6.324571648,1.0005495021288764,164.09689690512388
6.326857216,1.0003132742351362,163.9423656615279
6.329142784,1.0000566876982044,163.79138653023148
6.331428352,0.9997961643717175,163.64420256433448
6.333714432,0.9995483246935885,163.50072179145582
6.336,0.9993285235921607,163.3606326367009
6.338285568,0.9991509641630609,163.22342485793803
6.340571648,0.9990268595966567,163.08844841576087
6.342857216,0.9989641457241769,162.95484142955985
6.345142784,0.9989667723618932,162.82166695128288
6.347428352,0.9990344703367051,162.68799051471413
6.349714432,0.9991631103460565,162.55288075030109
6.352,0.999344538480497,162.41552792846602
6.354285568,0.9995671438415757,162.27525935625007
6.356571648,0.999817079199271,162.13153829494166
6.358857216,1.0000782177230587,161.9841088123043
6.361142784,1.0003342258235646,161.83290576090576
6.363428352,1.0005689101659143,161.678160024321
6.365714432,1.000767447851934,161.52029306995604
6.368,1.0009171742904635,161.3599246123449
6.370285568,1.0010086719393352,161.19776658288646
6.372571648,1.0010362361947898,161.03477448212115
6.374857216,1.0009979135372973,160.87184231424317
6.377142784,1.0008962885452433,160.70994830599685
6.379428352,1.000737833650799,160.5499438576842
6.381714432,1.0005322928721427,160.39256012409726
6.384,1.0002926922195523,160.23842476378886
6.386285568,1.0000341756775568,160.08789242939184
6.388571648,0.9997732776819539,159.94113086522438
6.390857216,0.999526311461444,159.79808255105763
6.393142784,0.9993089128145174,159.6584437712229
6.395428352,0.9991351311407332,159.5216154115416
6.397714432,0.999015596196353,159.38695085972486
6.4,0.9989581968707413,159.25357449798804
6.402285568,0.9989664836248916,159.12056918145706
6.404571648,0.9990399874723527,158.98698436501857
6.406857216,0.9991741449372323,158.85186513840063
6.409142784,0.9993601997572811,158.71444389522307
6.411428352,0.9995866586957995,158.57400409668358
6.413714432,0.9998390699334959,158.43010479908335
6.416,1.0001013818559883,158.2824668161135
6.418285568,1.0003571362804813,158.1310799297644
6.420571648,1.0005900410511928,157.9761573863722
6.422857216,1.0007853585913813,157.81809517096733
6.425142784,1.0009308157555699,157.65763535980594
6.427428352,1.0010172550799867,157.49545327281461
6.429714432,1.0010391269062353,157.33247491194012
6.432,1.0009951342124275,157.16969570575307
6.434285568,1.0008878615754093,157.00799633800816
6.436571648,1.000724237034519,156.84825357437336
6.438857216,1.0005144687982201,156.69123610856366
6.441142784,1.0002716986404157,156.53750297854026
6.443428352,1.0000114626549004,156.38744094297755
6.445714432,0.999750349202711,156.24114113647363
6.448,0.9995043949184812,156.0985395186119
6.450285568,0.9992895278196336,155.95930450393976
6.452571648,0.9991192769936705,155.8228937089081
6.454857216,0.9990046099079587,155.6885278018978
6.457142784,0.9989527187299942,155.5554299849328
6.459428352,0.9989667398215846,155.42258717074253
6.461714432,0.9990461262018451,155.2890423855611
6.464,0.9991856737958081,155.1539633425177
6.466285568,0.9993763306314548,155.0164564290616
6.468571648,0.999606520916033,154.87592779669131
6.470857216,0.99986138758287,154.73183005064845
6.473142784,1.000124619753131,154.5840194170789
6.475428352,1.0003800467155703,154.4324098845721
6.477714432,1.0006109205349898,154.27729224264507
6.48,1.000803043780414,154.1191091136477
6.482285568,1.0009442580537913,153.9585192491918
6.484571648,1.0010255079945947,153.79630697476085
6.486857216,1.0010416708845864,153.63338470826974
6.489142784,1.0009918402546338,153.4707523895429
6.491428352,1.0008788712014554,153.30929250107855
6.493714432,1.0007101779896084,153.14984566301604
6.496,1.0004962045472379,152.99320030222427
6.498285568,1.0002504157844674,152.8398814318486
6.500571648,0.9999884859162295,152.690272605492
6.502857216,0.9997269163880925,152.54444768644834
6.505142784,0.9994823137068674,152.4023240345641
6.507428352,0.9992701574801369,152.26351353259733
6.509714432,0.999103916555245,152.127489459378
6.512,0.9989941112792144,151.9934701586766
6.514285568,0.998947579299865,151.86060229901838
6.516571648,0.9989674702707055,151.7279387967324
6.518857216,0.999052674780168,151.59453520660358
6.521142784,0.9991975386460965,151.45941322918407
6.523428352,0.999393075951073,151.32184514264267
6.525714432,0.9996267942402756,151.18118762912147
6.528,0.9998839280131182,151.03692649224362
6.530285568,1.0001481991908112,150.8889027516267
6.532571648,1.0004028351227856,150.7371147700787
6.534857216,1.0006318635113294,150.58179724876268
6.537142784,1.0008206347569082,150.42350067978174
6.539428352,1.0009574034664772,150.26283569664034
6.541714432,1.001033411539789,150.10062237185227
6.544,1.0010437809730344,149.93777842367604
6.546285568,1.0009880368496737,149.77529586410998
6.548571648,1.000869493562595,149.6140334867862
6.550857216,1.0006955683483572,149.4549419188292
6.553142784,1.0004775080434098,149.298677645097
6.555428352,1.0002288677025053,149.145805771996
6.557714432,0.9999653053538171,148.9966580600228
6.56,0.9997036600299893,148.85132777169838
6.562285568,0.9994603523418141,148.70966793306033
6.564571648,0.9992509737463645,148.57131395026903
6.566857216,0.999088510984276,148.43568238697546
6.569142784,0.9989835816989742,148.30201580501793
6.571428352,0.9989427857305581,148.16939374072962
6.573714432,0.9989687242450161,148.03689920313334
6.576,0.9990596262855748,147.90356686206263
6.578285568,0.9992099790464555,147.76847178961444
6.580571648,0.9994101566673934,147.63084351914284
6.582857216,0.9996473173513141,147.4900119803223
6.585142784,0.999906714844,147.34562821789174
6.587428352,1.0001718598981144,147.19740252884873
6.589714432,1.0004257939100487,147.0454471869817
6.592,1.0006526476965667,146.8899861950042
6.594285568,1.0008378645172522,146.731520011046
6.596571648,1.000970224826929,146.57078662799032
6.598857216,1.0010408335995833,146.40856830671703
6.601142784,1.0010454813758405,146.245846228545
6.603428352,1.0009836855935554,146.0835150857831
6.605714432,1.000859419848457,145.922546036034
6.608,1.0006805411134196,145.76375876425632
6.610285568,1.0004583731243506,145.6078814098273
6.612571648,1.0002067811218898,145.4554701485915
6.614857216,0.9999418344944778,145.30681662401304
6.617142784,0.9996800960475752,145.16196953475517
6.619428352,0.9994383225569586,145.02079903876196
6.621714432,0.9992317539236671,144.88291296272942
6.624,0.9990735186880993,144.74769571089297
6.626285568,0.9989735958296215,144.61431692093998
6.628571648,0.9989385160463463,144.48198011882613
6.630857216,0.9989703353205771,144.34965597983805
6.633142784,0.9990672368252964,144.21642736970222
6.635428352,0.9992228124642296,144.08134438461883
6.637714432,0.9994275877592994,143.94366245318386
6.64,0.9996682899754101,143.80270951104777
6.642285568,0.9999297992479287,143.65813964434628
6.644571648,1.0001956204163691,143.5097456713421
6.646857216,1.0004487453178907,143.35758891889077
6.649142784,1.0006733661379767,143.20197586778858
6.651428352,1.000855148791825,143.04342143236707
6.653714432,1.000982573577548,142.8826288101193
6.656,1.0010477833304259,142.7204408067737
6.658285568,1.0010465383137446,142.5578041790717
6.660571648,1.0009788934171933,142.39565356443396
6.662857216,1.0008488933925799,142.23494949845957
6.665142784,1.0006650893935227,142.0765108027497
6.667428352,1.0004389495091075,141.92107115516166
6.669714432,1.0001846319085335,141.76911782567643
6.672,0.9999182153742586,141.62094257221898
6.674285568,0.9996566496706126,141.47662277865575
6.676571648,0.9994164190748569,141.33596195989975
6.678857216,0.9992128745690654,141.19850760722792
6.681142784,0.9990588667650343,141.06369930746072
6.683428352,0.998964060375274,140.93068866414552
6.685714432,0.9989346473706098,140.79859912049443
6.688,0.998972561883216,140.66646049834569
6.690285568,0.9990753332354104,140.53330964765232
6.692571648,0.9992363175281609,140.3982256691996
6.694857216,0.9994455358155111,140.26048320555444
6.697142784,0.9996897939818485,140.1194329186927
6.699428352,0.9999533152856458,139.9746994364063
6.701714432,1.0002195458517915,139.8261212547942
6.704,1.0004717970153147,139.6737872161529
6.706285568,1.0006939882474601,139.51803423622013
6.708571648,1.0008720791787948,139.35936300889387
6.710857216,1.0009948267152133,139.1985373961761
6.713142784,1.0010544351040467,139.03638290656667
6.715428352,1.0010472599967366,138.8738668021575
6.717714432,1.0009735912486728,138.71190690257183
6.72,1.0008380322037347,138.55148051251203
6.722285568,1.0006492390945319,138.3934287565323
6.724571648,1.0004190562030906,138.23840018692528
6.726857216,1.0001620028357385,138.08692504172566
6.729142784,0.9998943803690389,137.93927698189
6.731428352,0.9996330398697773,137.7954385421308
6.733714432,0.9993945463559504,137.65528919456713
6.736,0.9991940927384625,137.5183144851088
6.738285568,0.9990444126620895,137.38391428078054
6.740571648,0.9989549364747348,137.25125764014902
6.742857216,0.9989314218789592,137.11942665678345
6.745142784,0.9989754137593703,136.9874735809723
6.747428352,0.9990839450403319,136.8544022321603
6.749714432,0.9992503136203036,136.71933835729413
6.752,0.9994640184071834,136.58152509186837
6.754285568,0.9997114357681274,136.44036770806898
6.756571648,0.9999769875807745,136.29547299492666
6.758857216,1.0002436771566379,136.14672617200114
6.761142784,1.0004947791857473,135.99422433831123
6.763428352,1.0007145591985704,135.83831855440727
6.765714432,1.0008887449397466,135.67955312294683
6.768,1.0010067103680746,135.5186820294833
6.770285568,1.0010607347335652,135.3565900239785
6.772571648,1.001047475723991,135.1941840659546
6.774857216,1.0009677930661773,135.03246503761198
6.777142784,1.0008265218812353,134.8723508868165
6.779428352,1.0006328343312667,134.71467084709505
6.781714432,1.0003986775639178,134.56007676335295
6.784,1.0001390659103486,134.409098411035
6.786285568,0.9998702209097614,134.26195081446062
6.788571648,0.999609312757314,134.11868132611636
6.790857216,0.9993727807621512,133.97900336523148
6.793142784,0.9991755243203457,133.84251870551392
6.795428352,0.9990303214635151,133.70853133772263
6.797714432,0.9989462112623936,133.57621254842374
6.8,0.9989285229752193,133.4446735243009
6.802285568,0.998978552017376,133.31287326881102
6.804571648,0.9990930596756069,133.1798888580797
6.806857216,0.9992648900631361,133.04483196911053
6.809142784,0.9994829342030529,132.90696500873727
6.811428352,0.9997336335505442,132.7656824451771
6.813714432,1.0000008700936716,132.6206293818222
6.816,1.0002680537805206,132.47171640178414
6.818285568,1.0005179389958514,132.31906473851444
6.820571648,1.0007349316751597,132.16301154902916
6.822857216,1.0009053003930497,132.00418854834663
6.825142784,1.001018133205698,131.84328223729497
6.827428352,1.0010665088332549,131.68123589371933
6.829714432,1.0010472597111293,131.51897461878596
6.832,1.000961392783333,131.35748790966923
6.834285568,1.000814527824527,131.19769765211197
6.836571648,1.0006159841352402,131.0403957964564
6.838857216,1.0003780126393482,130.8862829390863
6.841142784,1.0001158822278058,130.73579647738984
6.843428352,0.9998459556029607,130.58917859500824
6.845714432,0.9995854940744312,130.44643882869042
6.848,0.9993509383868375,130.30729209315842
6.850285568,0.9991571355182433,130.1712646911695
6.852571648,0.9990163980727524,130.03769504400216
6.854857216,0.9989377602934705,129.9057423060148
6.857142784,0.9989261470217045,129.774447746588
6.859428352,0.9989823814094506,129.64284410344573
6.861714432,0.9991027668218566,129.5099511549518
6.864,0.9992798377425484,129.37490620146767
6.866285568,0.9995022942309626,129.2369639757853
6.868571648,0.9997561195822043,129.09556871182016
6.870857216,1.0000251430217864,128.95037240953485
6.873142784,1.000292452905959,128.80129255699458
6.875428352,1.0005410084538238,128.64847113864275
6.877714432,1.000755222847284,128.4923037225265
6.88,1.0009214619357734,128.33339257873706
6.882285568,1.0010292333368662,128.17250049134242
6.884571648,1.0010718026367293,128.01050205646607
6.886857216,1.0010463226922879,127.84841016380282
6.889142784,1.000954447079016,127.68716568480366
6.891428352,1.000802010095278,127.52767819219615
6.893714432,1.0005983784133727,127.37080289775258
6.896,1.0003568322287415,127.21715654854363
6.898285568,1.0000921533112042,127.06719309117145
6.900571648,0.9998213948374335,126.92111751013711
6.902857216,0.9995615093480672,126.77890554340023
6.905142784,0.9993290805189108,126.64027798900293
6.907428352,0.9991389408776644,126.50474347014358
6.909714432,0.9990028285462712,126.37160415276497
6.912,0.9989297867810061,126.23999332166123
6.914285568,0.9989242023497019,126.1089782299243
6.916571648,0.9989865661590808,125.97751782863905
6.918857216,0.9991129237575058,125.84472486524905
6.921142784,0.9992952263952776,125.70970043836992
6.923428352,0.999522074396913,125.57169046332918
6.925714432,0.999778856450676,125.43017305833948
6.928,1.000049543863229,125.2848272260269
6.930285568,1.0003168866765908,125.13557995782199
6.932571648,1.000564048254422,124.98261162108116
6.934857216,1.0007753316084855,124.82633642961906
