freq,mag,phase
6.0,0.9999358276687382,54.524712664621475
6.002286592,0.9998771871412061,54.3761049484858
6.004572672,0.9998258130883982,54.22827347701643
6.006859264,0.9997848859752161,54.08108285651653
6.009145344,0.9997569979386525,53.93437816841302
6.011431936,0.9997438582991016,53.78792118199591
6.013718016,0.9997464093795367,53.64155500184052
6.016004608,0.9997643812094662,53.495006911787826
6.018290688,0.9997968170021645,53.3480493218209
6.02057728,0.9998415870971453,53.20053004681068
6.022863872,0.9998958640632424,53.05224304306479
6.025149952,0.9999561209443064,52.9031328114639
6.027436544,1.000018766190646,52.75307411916109
6.029722624,1.0000797534962385,52.60209916375978
6.032009216,1.000135122536745,52.45025888457511
6.034295296,1.0001814915704714,52.29763638032933
6.036581888,1.0002157205253341,52.14441051258234
6.03886848,1.0002359687178926,51.990765779989964
6.04115456,1.0002406551321616,51.83692478187886
6.043441152,1.000229501243295,51.68306117627583
6.045727232,1.0002032723558938,51.529462882310696
6.048013824,1.0001636366683133,51.3763004441302
6.050299904,1.0001130008588166,51.22379411420999
6.052586496,1.0000546167164652,51.07202675363151
6.054872576,0.9999921168692155,50.92111491578036
6.057159168,0.9999295010449964,50.771085372067745
6.05944576,0.9998708332119414,50.62190871299374
6.06173184,0.9998195833433237,50.473503033644896
6.064018432,0.9997791351852218,50.325725950538654
6.066304512,0.9997520898315232,50.178433977879514
6.068591104,0.9997401798916131,50.03137083453513
6.070877184,0.9997441403418406,49.884346962525676
6.073163776,0.999763669949441,49.73713470014589
6.075450368,0.9997977459624212,49.589504904873834
6.077736448,0.9998439914926728,49.44125832569971
6.08002304,0.9998996451915241,49.29222766335497
6.08230912,0.9999611679561584,49.14233939688272
6.084595712,1.0000245912410308,48.99150031507757
6.086881792,1.0000860496426487,48.839723395429814
6.089168384,1.0001414333697287,48.68706608945609
6.091454464,1.0001874079170492,48.533645795907546
6.093741056,1.0002210430584013,48.37962227823011
6.096027648,1.0002401502541867,48.22516541167529
6.098313728,1.0002435158420095,48.07052758094169
6.10060032,1.0002308895781122,47.915911487646056
6.1028864,1.0002030251351377,47.7615554665273
6.105172992,1.0001617941792404,47.60767598668764
6.107459072,1.000109664833696,47.454440844792835
6.109745664,1.0000500269139816,47.30199549861683
6.112032256,0.9999865979214396,47.15038531196858
6.114318336,0.9999233864557154,46.99966462317145
6.116604928,0.9998643535015382,46.84982265210497
6.118891008,0.9998132724768829,46.700728102562834
6.1211776,0.9997733993229996,46.55226483244511
6.12346368,0.999747308583325,46.40425194210288
6.125750272,0.9997365426143464,46.25647995736827
6.128036352,0.999741948580229,46.10869038021793
6.130322944,0.999763137707478,45.96070617878008
6.132609536,0.9997987659630249,45.812276040805095
6.134895616,0.99984653477278,45.663201721226585
6.137182208,0.9999035992223837,45.51332744341346
6.139468288,0.9999662219852715,45.36254441555136
6.14175488,1.0000303959951424,45.21080688300424
6.14404096,1.000092209131204,45.05812942476013
6.146327552,1.0001477887194965,44.904555573056285
6.148614144,1.0001933739107527,44.75022059530265
6.150900224,1.0002262321241355,44.59526017111802
6.153186816,1.000244218775397,44.43991717642242
6.155472896,1.0002462534103254,44.28436625782678
6.157759488,1.0002320792740873,44.12888591683018
6.160045568,1.000202680497948,43.9736592343934
6.16233216,1.0001598620618168,43.81895064710134
6.16461824,1.0001062350705987,43.66488927164629
6.166904832,1.0000453496360011,43.5116194363079
6.169191424,0.9999810178505519,43.35921574226339
6.171477504,0.9999171027450687,43.207714230535295
6.173764096,0.9998578931741481,43.057064760333674
6.176050176,0.9998070231589005,42.90720389257764
6.178336768,0.9997677325781962,42.75792440954736
6.180622848,0.999742562599771,42.60910625989455
6.18290944,0.9997330501187845,42.46048561630412
6.18519552,0.9997399350197885,42.31185289447025
6.187482112,0.9997626695377223,42.16297101134215
6.189768704,0.999799934495063,42.01361709162264
6.192054784,0.9998492460227452,41.86359277233436
6.194341376,0.9999076341680752,41.71275702225152
6.196627456,0.9999713338423165,41.56098601371627
6.198914048,1.0000363459705128,41.40823500251294
6.201200128,1.0000985590249583,41.254526505041426
6.20348672,1.000154092359928,41.09993218995836
6.205773312,1.0001993140074823,40.944548925700694
6.208059392,1.0002313953011375,40.78858846409493
6.210345984,1.0002482879102994,40.632215845716914
6.212632064,1.0002488789305874,40.475659679373784
6.214918656,1.000233275558863,40.31918040596911
6.217204736,1.0002022562524673,40.16300811321501
6.219491328,1.0001577966014539,40.00733601308779
6.221777408,1.0001027962618543,39.85233934677911
6.224064,1.0000406345965762,39.69813977876948
6.226350592,0.9999752896444906,39.544818462598386
6.228636672,0.9999108956899584,39.39243333870476
6.230923264,0.9998514743048638,39.240886545546566
6.233209344,0.9998007419517633,39.09009773605457
6.235495936,0.9997620610984094,38.93991367353601
6.237782016,0.9997378629319991,38.790152825914475
6.240068608,0.999729607360253,38.64058492132463
6.2423552,0.9997378935863535,38.490986799449054
6.24464128,0.9997621550866418,38.34110327925428
6.246927872,0.999801019382804,38.19072169729074
6.249213952,0.9998518313043937,38.039631540877515
6.251500544,0.9999116098275403,37.887710635729306
6.253786624,0.9999763622472702,37.73484208767672
6.256073216,1.000042195418402,37.58098508716658
6.258359296,1.000104768525366,37.42614652465124
6.260645888,1.0001602138397252,37.27040001591095
6.26293248,1.0002050600798722,37.11387598572725
6.26521856,1.000236444653318,36.95675646504156
6.267505152,1.0002522201969528,36.799261917872634
6.269791232,1.000251485527216,36.641590497657326
6.272077824,1.0002343743974458,36.484034397498704
6.274363904,1.0002016528983566,36.32675515896619
6.276650496,1.0001557641428451,36.17000824643948
6.278937088,1.0000992774571331,36.013971667327
6.281223168,1.0000359677677746,35.858748518366895
6.28350976,0.9999696313446074,35.70443003461478
6.28579584,0.9999047054825266,35.55101576965245
6.288082432,0.9998450347321821,35.398448398857354
6.290368512,0.9997945950474962,35.2466471747851
6.292655104,0.9997564909935507,35.09543169752453
6.294941184,0.9997331482198102,34.94461861875897
6.297227776,0.9997261738899936,34.7939975916695
6.299514368,0.9997359223905316,34.643294130540724
6.301800448,0.9997618042492987,34.492289738280704
6.30408704,0.9998022300543424,34.34076912595651
6.30637312,0.9998545783472004,34.18852895659678
6.308659712,0.9999156576319268,34.03539205103956
6.310945792,0.9999814914155905,33.88130547301716
6.313232384,1.00004803168628,33.726212901167656
6.315518464,1.000111008808285,33.57010944458703
6.317805056,1.0001663913887922,33.413125822486386
6.320091648,1.0002107749237144,33.25534115172243
6.322377728,1.0002413905450644,33.09698325578314
6.32466432,1.0002560932398024,32.938249231897665
6.3269504,1.000254017543392,32.77935108792063
6.329236992,1.0002353827980628,32.62054406483379
6.331523072,1.000201148964673,32.46209115231006
6.333809664,1.0001536321457913,32.304172702675004
6.336096256,1.0000957446693948,32.146964013559916
6.338382336,1.000031230752197,31.990599256139873
6.340668928,0.9999640533656502,31.835133995929876
6.342955008,0.9998984220864702,31.680585146566976
6.3452416,0.9998386433400296,31.52689664267203
6.34752768,0.9997884141098661,31.37395674392888
6.349814272,0.9997509184505001,31.221618594550712
6.352100352,0.9997286190221957,31.069639490390013
6.354386944,0.9997227968287506,30.917820319717688
6.356673536,0.9997339959234177,30.765921578799553
6.358959616,0.9997613753798505,30.613693070026795
6.361246208,0.9998033616965383,30.460902489536483
6.363532288,0.9998571991956802,30.307365631987047
6.36581888,0.9999195227283224,30.152941838172836
6.36810496,0.9999865014679045,29.997514598927985
6.370391552,1.0000537620184864,29.841080104537127
6.372678144,1.0001170734847586,29.683625219734
6.374964224,1.000172444842826,29.525248066552912
6.377250816,1.000216436805382,29.366102156774687
6.379536896,1.000246164541748,29.20638453283642
6.381823488,1.0002598076048974,29.046284487932393
6.384109568,1.0002564025083038,28.886047589533472
6.38639616,1.0002362166522702,28.725917509725974
6.38868224,1.0002005485816656,28.566158861400435
6.390968832,1.0001514207578195,28.40694710779054
6.393255424,1.0000921712608974,28.248465983356205
6.395541504,1.0000264175592177,28.09083374581463
6.397828096,0.9999583920036776,27.934101410782265
6.400114176,0.9998922619719314,27.778316674965055
6.402400768,0.9998323306108582,27.62339833893944
6.404686848,0.9997823630366512,27.46919198057492
6.40697344,0.9997454572059663,27.31558724499905
6.409260032,0.9997240954983077,27.162344643683532
6.411546112,0.9997195686876869,27.009245063717103
6.413832704,0.9997321367460489,26.856001742329294
6.416118784,0.9997610383848058,26.702426023054652
6.418405376,0.9998046690887717,26.548258543642667
6.420691456,0.9998599493238501,26.393339585609823
6.422978048,0.9999235812305874,26.23747084661673
6.425264128,0.9999914967724526,26.080605907465618
6.42755072,1.0000595077971184,25.922680443954768
6.429837312,1.0001231693108865,25.76375248568832
6.432123392,1.0001785244420558,25.603905124357283
6.434409984,1.0002221001364082,25.44327893873117
6.436696064,1.0002510227338717,25.282080158788524
6.438982656,1.0002635651686373,25.120481159004644
6.441268736,1.0002588186713308,24.958790431614467
6.443555328,1.0002372027989574,24.797235807863615
6.44584192,1.0001999244134188,24.636034792110998
6.448128,1.0001493234983414,24.47542194101303
6.450414592,1.000088762185486,24.315553293064358
6.452700672,1.0000218296659265,24.15654496572255
6.454987264,0.999952933167345,23.998447290466334
6.457273344,0.9998862835359181,23.841297655775985
6.459559936,0.9998262295633098,23.685001966704114
6.461846016,0.9997764468072374,23.529437674574915
6.464132608,0.9997402297892952,23.374448008023503
6.4664192,0.999719701577696,23.219812966370462
6.46870528,0.9997163830897136,23.065279435175327
6.470991872,0.9997303866611227,22.910608275168435
6.473277952,0.9997608872037385,22.755567409458365
6.475564544,0.9998059375044519,22.59990588857301
6.477850624,0.9998626503108814,22.443467093281303
6.480137216,0.9999276083318015,22.28604124393171
6.482423296,0.9999965379085478,22.12762542032897
6.484709888,1.0000652067202673,21.968119173539733
6.48699648,1.0001292375337405,21.80759784083677
6.48928256,1.0001844711425525,21.646148794732504
6.491569152,1.0002276103360126,21.48392853600585
6.493855232,1.0002557985196796,21.32112290942626
6.496141824,1.000267232197727,21.157944700916303
6.498427904,1.0002611446756515,20.99467129769898
6.500714496,1.0002380051321094,20.831553220146933
6.503001088,1.0001992568993807,20.668822817790225
6.505287168,1.0001471201980532,20.506673924224224
6.50757376,1.0000851239017503,20.345284210859276
6.50985984,1.0000171154239592,20.184789905404983
6.512146432,0.9999472603059579,20.02520447649503
6.514432512,0.9998801486257569,19.866571595165162
6.516719104,0.9998199672995016,19.708793621109443
6.519005184,0.9997704687066028,19.551743105289546
6.521291776,0.9997347894068505,19.395262593522332
6.523578368,0.9997152431317258,19.23909785482265
6.525864448,0.999713116939065,19.083037287097206
6.52815104,0.999728524113233,18.926814513240828
6.53043712,0.999760567801572,18.770196562745205
6.532723712,0.9998071692397718,18.61291237424
6.535009792,0.9998653327624201,18.454825238148782
6.537296384,0.9999314971632864,18.295780867844094
6.539582976,1.0000014878571604,18.135663612343752
6.541869056,1.0000707820172907,17.974455428480194
6.544155648,1.0001352040043214,17.81221867973374
6.546441728,1.0001903745175889,17.6490683903058
6.54872832,1.000233052784144,17.48511176938226
6.5510144,1.000260489318832,17.320582314978253
6.553300992,1.0002709085401489,17.155704258043134
6.555587072,1.0002636181744071,16.990748646564832
6.557873664,1.0002389963585099,16.825939786514077
6.560160256,1.0001987304886246,16.661559211249248
6.562446336,1.0001451643023145,16.49775111294402
6.564732928,1.0000817358534568,16.33474741924562
6.567019008,1.0000126362784492,16.172621582181637
6.5693056,0.9999419603330107,16.011445883918043
6.57159168,0.9998743075337423,15.851199899520294
6.573878272,0.9998139586359348,15.691812849596245
6.576164864,0.9997646184847034,15.533158724143105
6.578450944,0.999729518537218,15.375061466325848
6.580737536,0.9997109195389844,15.217265345799397
6.583023616,0.9997099886987021,15.059535435329746
6.585310208,0.9997267833573752,14.901641032653759
6.587596288,0.9997602258473535,14.743309253746778
6.58988288,0.9998082283978791,14.584303636339257
6.59216896,0.9998677173396273,14.424485454819894
6.594455552,0.9999352196331772,14.263645424361055
6.596742144,1.0000061549186636,14.10173037505152
6.599028224,1.0000762212396688,13.938717324020443
6.601314816,1.0001408309977113,13.77465572982026
6.603600896,1.000196080797708,13.609654355234161
6.605887488,1.0002384312642831,13.44386752258008
6.608173568,1.000265049921605,13.277507259144304
6.61046016,1.0002744119390012,13.110799742404385
6.612746752,1.0002657377035598,12.944045453507274
6.615032832,1.0002398213711523,12.777417172275833
6.617319424,1.0001979293418826,12.611249656218213
6.619605504,1.0001429741666745,12.445689942927618
6.621892096,1.0000783745523754,12.280931956258064
6.624178176,1.000008114010075,12.117072879360961
6.626464768,0.9999366346015972,11.95416055500551
6.628750848,0.9998684565179324,11.792202879563257
6.63103744,0.999807871635947,11.631096572378794
6.633324032,0.9997588665104682,11.470700464719654
6.635610112,0.9997243806386276,11.31086385782654
6.637896704,0.9997066733846374,11.151319707161559
6.640182784,0.999706893362491,10.991835346662473
6.642469376,0.9997249993250652,10.832135881090583
6.644755456,0.9997598708394619,10.671989085713468
6.647042048,0.9998093573988801,10.51112923182274
6.649328128,0.9998703878862427,10.349421011057196
6.65161472,0.9999390306807515,10.186675612456538
6.653901312,1.000010912019251,10.022840119512285
6.656187392,1.0000816394664682,9.857888511819905
6.658473984,1.000146701858155,9.69189177800417
6.660760064,1.000201927811305,9.52493518908524
6.663046656,1.0002437406867426,9.35720866172863
6.665332736,1.000269699605093,9.188887822313749
6.667619328,1.0002780034236205,9.020238044546453
6.66990592,1.0002681694170585,8.851540517852483
6.672192,1.0002407607231512,8.683015471957557
6.674478592,1.0001975488303059,8.51492543446108
6.676764672,1.0001411249018293,8.347499248084151
6.679051264,1.0000751879539247,8.180852009772094
6.681337344,1.0000037512409947,8.01514091329368
6.683623936,0.9999314501116433,7.850372517083637
6.685910016,0.9998627086547397,7.686569325886559
6.688196608,0.9998020012401622,7.523623726098066
6.6904832,0.999753175918449,7.3613832854478
6.69276928,0.9997191698789059,7.199652346681351
6.695055872,0.9997022934143958,7.038234516942091
6.697341952,0.99970367044435,6.8768659266998755
6.699628544,0.9997229766722939,6.715254010622472
6.701914624,0.9997593402486837,6.553162893828846
6.704201216,0.9998102803218984,6.390337191183909
6.706487808,0.9998725828296898,6.226643007802956
6.708773888,0.999942416587486,6.061887368546989
6.71106048,1.0000152884644946,5.896017180710357
6.71334656,1.0000867334024262,5.729019601083432
6.715633152,1.0001521236607651,5.560956872910635
6.717919232,1.0002073129183744,5.391932943930474
6.720205824,1.000248834122227,5.222112445886557
6.722491904,1.0002741421779073,5.05173407448147
6.724778496,1.0002814223704035,4.881036413970124
6.727065088,1.000270437360959,4.710265745689724
6.729351168,1.000241736030737,4.539712297893581
6.73163776,1.0001970956206019,4.369602850155623
6.73392384,1.0001393012571338,4.200149905807049
6.736210432,1.0000720461766017,4.031516628249477
6.738496512,0.9999995433406343,3.863831569603549
6.740783104,0.999926412970319,3.6970808730369398
6.743069696,0.9998571548900982,3.5313053759157254
6.745355776,0.9997962690377713,3.3663818973369923
6.747642368,0.9997475615774388,3.202187171728327
6.749928448,0.9997141121040671,3.0384972872243208
6.75221504,0.9996980814311327,2.875079617893913
6.75450112,0.9997004614935723,2.711675665255512
6.756787712,0.9997210410421429,2.548024379564936
6.759073792,0.999758826603018,2.383864686298292
6.761360384,0.9998111150765513,2.2189743135165854
6.763646976,0.9998747896740451,2.0531573635134484
6.765933056,0.9999457991446911,1.8862827176041066
6.768219648,1.0000196623151212,1.718252725304199
6.770505728,1.0000917891781669,1.549069412566273
6.77279232,1.0001573934875245,1.3788297862920302
6.7750784,1.0002126784713603,1.207613984339772
6.777364992,1.000253987839535,1.0356178102327636
6.779651584,1.0002785774651988,0.8630317105727898
6.781937664,1.0002849947319303,0.6901417830128487
6.784224256,1.0002727378708134,0.5172241883718391
6.786510336,1.0002426712460053,0.3445054937639951
6.788796928,1.0001966853750677,0.1722520188530773
6.791083008,1.0001375675858335,0.000656695256173064
6.7933696,1.000069017845516,-0.17008471390538635
6.79565568,0.9999954814053916,-0.33988385416920336
6.797942272,0.9999214555659904,-0.5087175616172028
6.800228864,0.9998517376114978,-0.6765898698701337
6.802514944,0.9997906152961423,-0.8436005765436634
6.804801536,0.9997420546186566,-1.0098946688256356
6.807087616,0.9997091254944408,-1.1756914805214909
6.809374208,0.9996938764652905,-1.3412246740103393
6.811660288,0.999697282819216,-1.5067520786323334
6.81394688,0.999719136492577,-1.6725624109177841
6.81623296,0.9997581424025702,-1.838920950650099
6.818519552,0.9998118699721497,-2.0060002361497955
6.820806144,0.9998768415915851,-2.1740496658894863
6.823092224,0.9999490053626027,-2.3431949166959014
6.825378816,1.000023789644522,-2.5134730202485986
6.827664896,1.0000965159519848,-2.684928084095191
6.829951488,1.0001627653645877,-2.85748219050532
6.832237568,1.0002179913723013,-3.03100366037463
6.83452416,1.0002588932638559,-3.2053228468041826
6.836810752,1.0002828516491322,-3.3802154074496054
6.839096832,1.0002883777307772,-3.555389561659916
6.841383424,1.000275122857577,-3.730614741248247
6.843669504,1.0002438225665489,-3.9056100081246345
6.845956096,1.0001964661445575,-4.08014198134444
6.848242176,1.0001359059676027,-4.253989027441336
6.850528768,1.0000661790319694,-4.4269544758089365
6.852814848,0.9999915694451349,-4.599001847395892
6.85510144,0.9999167428571051,-4.7700302130181225
6.857388032,0.9998465040716008,-4.940120560123848
6.859674112,0.999785111889221,-5.1093346150800265
6.861960704,0.9997366628306089,-5.27784493455085
6.864246784,0.99970413417894,-5.445882568521956
6.866533376,0.9996895704771396,-5.613628493760539
6.868819456,0.9996939595876572,-5.781422767552579
6.871106048,0.9997169363884052,-5.949514092000863
6.87339264,0.999757365581587,-6.118128502486253
6.87567872,0.9998122997491169,-6.28755472674602
6.877965312,0.9998786401640594,-6.457945548963825
6.880251392,0.9999519887154863,-6.629449629663469
6.882537984,1.000027786788402,-6.802125770778277
6.884824064,1.000101235384809,-6.976001167862729
6.887110656,1.0001678039909736,-7.150951400072913
6.889396736,1.0002230727223926,-7.3268892061827495
6.891683328,1.0002638389363887,-7.503640328535439
6.89396992,1.0002872500750954,-7.680942088772025
6.896256,1.0002919081805628,-7.858562082327006
6.898542592,1.0002775673751139,-8.0361954621699
6.900828672,1.0002450458750456,-8.213604114833911
6.903115264,1.000196430941063,-8.390501035343462
6.905401344,1.0001346515516,-8.566712418428079
6.907687936,1.0000637043911975,-8.74206980666338
6.909974528,0.9999879528213184,-8.916438802372426
6.912260608,0.9999123368375973,-9.089812055587865
6.9145472,0.9998413630050758,-9.262239001564511
6.91683328,0.9997798108864743,-9.433793747275002
6.919119872,0.9997314246337856,-9.604641341730218
6.921405952,0.9996992391994592,-9.774998457649332
6.923692544,0.9996853712685294,-9.945120638597118
6.925978624,0.9996906914652931,-10.115291777593262
6.928265216,0.9997148402594486,-10.285751285952488
