freq,mag,phase
6.0,1.000689241968573,-129.38182129739644
6.002286592,1.0004691095279383,-129.52478262714695
6.004572672,1.0002188456057486,-129.6643526356431
6.006859264,0.9999546817313086,-129.80017333420506
6.009145344,0.999693211216851,-129.93221374524222
6.011431936,0.9994511564877987,-130.06052180664847
6.013718016,0.9992437799591476,-130.1855980187098
6.016004608,0.9990843326839892,-130.3079844549378
6.018290688,0.9989830716481325,-130.42845816829814
6.02057728,0.998946362813804,-130.54794401876643
6.022863872,0.9989765403760758,-130.6673850450593
6.025149952,0.9990717468852585,-130.7877387995423
6.027436544,0.9992259554461216,-130.90989698525544
6.029722624,0.9994293326757097,-131.03465999816424
6.032009216,0.999668967497798,-131.1626839025462
6.034295296,0.9999296790111362,-131.2943090547222
6.036581888,1.000194770771898,-131.42978541983072
6.03886848,1.000447524201101,-131.5690425071491
6.04115456,1.000671909517991,-131.71175585438365
6.043441152,1.0008536409865105,-131.85741853281226
6.045727232,1.000981225542393,-132.00534364551592
6.048013824,1.0010465833371978,-132.15462323956618
6.050299904,1.0010454520978107,-132.30443828490232
6.052586496,1.0009781125147497,-132.45374072454393
6.054872576,1.0008485835551433,-132.60158563288576
6.057159168,1.0006651984942707,-132.74718703802307
6.05944576,1.0004393940297116,-132.88982730036827
6.06173184,1.00018561576966,-133.02897780397495
6.064018432,0.9999199441288537,-133.164350219525
6.066304512,0.9996592684761193,-133.29588740156527
6.068591104,0.9994199766630023,-133.4237857855592
6.070877184,0.9992175202924906,-133.54844756446317
6.073163776,0.99906461512934,-133.6705399500768
6.075450368,0.9989710975323647,-133.79082293011587
6.077736448,0.9989428985323374,-133.9102320133096
6.08002304,0.9989818269427986,-134.02971314963406
6.08230912,0.9990854345227437,-134.15026078073157
6.084595712,0.9992471634373863,-134.2726830445899
6.086881792,0.999456693565084,-134.39784103152004
6.089168384,0.9997007665119729,-134.52630824524746
6.091454464,0.9999638413455028,-134.6584770304377
6.093741056,1.0002292061031228,-134.7944764614724
6.096027648,1.000479977867007,-134.93424415506433
6.098313728,1.0007003655060676,-135.07741858812457
6.10060032,1.000876284638701,-135.22347414494078
6.1028864,1.0009965740785134,-135.37166676261322
6.105172992,1.0010537244468687,-135.5211906827958
6.107459072,1.0010439156281001,-135.6710402681625
6.109745664,1.000967955675921,-135.8202471125543
6.112032256,1.000830467880186,-135.96794907781322
6.114318336,1.000640256827774,-136.11326828432144
6.116604928,1.0004092925428842,-136.25551173521848
6.118891008,1.0001521863869902,-136.39421340844623
6.1211776,0.9998853486338275,-136.5291077128721
6.12346368,0.9996255858761811,-136.66018217531604
6.125750272,0.9993894972964037,-136.78763336450163
6.128036352,0.9991920731004438,-136.91192625248988
6.130322944,0.9990458434464536,-137.03370584222625
6.132609536,0.9989602616288562,-137.15377858642972
6.134895616,0.9989406244181157,-137.27310216602172
6.137182208,0.9989882997756022,-137.392603202741
6.139468288,0.9991002234737321,-137.51330126761792
6.14175488,0.9992693308955369,-137.63603646824777
6.14404096,0.9994848978492674,-137.76156010376175
6.146327552,0.9997331373596325,-137.89050854293154
6.148614144,0.9999982812689909,-138.0231313289175
6.150900224,1.0002635772359276,-138.15965999956111
6.153186816,1.0005121717453511,-138.29988823214285
6.155472896,1.0007282218344415,-138.44351706633512
6.157759488,1.000898105868982,-138.58997146864576
6.160045568,1.0010109894369636,-138.73843553010929
6.16233216,1.0010597795711793,-138.8881003700036
6.16461824,1.0010412889815365,-139.03798856705964
6.166904832,1.0009566359743545,-139.187130203068
6.169191424,1.000811349151811,-139.33460448043752
6.171477504,1.000614464973229,-139.47957631644974
6.173764096,1.0003785158971665,-139.62141717115733
6.176050176,1.0001183220545218,-139.75965058973537
6.178336768,0.9998505090355062,-139.89405543167166
6.180622848,0.9995920711825663,-140.0246293710793
6.18290944,0.9993593562842376,-140.15161446245838
6.18519552,0.9991672885006796,-140.27551250102698
6.187482112,0.9990280095402004,-140.3969533537361
6.189768704,0.9989504402287016,-140.51685241944293
6.192054784,0.9989394512221741,-140.63607492767065
6.194341376,0.9989958707032941,-140.7556418756635
6.196627456,0.9991160637621334,-140.8764817781162
6.198914048,0.9992924603603669,-140.9994976153064
6.201200128,0.9995137524339814,-141.12540243078863
6.20348672,0.9997659425318907,-141.25475387429694
6.205773312,1.000033025759258,-141.38790563618832
6.208059392,1.00029801759857,-141.524905357439
6.210345984,1.0005440692073835,-141.6656366894875
6.212632064,1.000755557093882,-141.80968840801512
6.214918656,1.0009192370851816,-141.9564697583836
6.217204736,1.0010245332000645,-142.10516778539724
6.219491328,1.0010647964724273,-142.2549546165699
6.221777408,1.0010375777160925,-142.40484579041862
6.224064,1.0009444065063156,-142.55385605250657
6.226350592,1.0007913338323167,-142.70104504897697
6.228636672,1.0005879034397187,-142.8457165491818
6.230923264,1.0003470938346624,-142.9871071866123
6.233209344,1.0000841182849727,-143.12484491677213
6.235495936,0.9998156353210211,-143.25873590767583
6.237782016,0.9995586806406782,-143.38876395050087
6.240068608,0.9993297136665433,-143.51528284353685
6.2423552,0.999143173408724,-143.6387840402155
6.24464128,0.999010892007146,-143.75989400088113
6.246927872,0.9989415442240138,-143.87958906569662
6.249213952,0.9989393362805268,-143.99874709104176
6.251500544,0.9990044632704809,-144.11835087810323
6.253786624,0.9991328945210703,-144.2393623621522
6.256073216,0.9993163953916254,-144.3626582785776
6.258359296,0.9995433468851672,-144.48890692485864
6.260645888,0.9997992517134242,-144.61870974875552
6.26293248,1.0000679070191112,-144.75231260870157
6.26521856,1.0003322909397097,-144.88980910106505
6.267505152,1.0005755466284667,-145.03099934689993
6.269791232,1.0007823216630092,-145.17544263802802
6.272077824,1.0009394535033453,-145.32251552581653
6.274363904,1.0010370060546683,-145.47144076906233
6.276650496,1.0010687311687783,-145.62133345837782
6.278937088,1.0010326075141611,-145.77116217264464
6.281223168,1.0009310373463085,-145.92001775059202
6.28350976,1.0007702758932773,-146.06694641815093
6.28579584,1.0005605170435565,-146.21120858554625
6.288082432,1.000315134942172,-146.35213011478888
6.290368512,1.0000495469190243,-146.48937978502866
6.292655104,0.9997806731205914,-146.6227244237258
6.294941184,0.9995256014515438,-146.7522471616995
6.297227776,0.9993005146453121,-146.87827318419554
6.299514368,0.9991197653812971,-147.0013187189169
6.301800448,0.9989948317266456,-147.12215046016223
6.30408704,0.9989337296859163,-147.2416098074743
6.30637312,0.9989403437375113,-147.36066282614328
6.308659712,0.9990142614172651,-147.4802981125034
6.310945792,0.9991507449479493,-147.6014870698152
6.313232384,0.9993412352668086,-147.72505064483212
6.315518464,0.9995736246232789,-147.85169231773895
6.317805056,0.9998330807999145,-147.98189763326056
6.320091648,1.000103060046316,-148.1159820167447
6.322377728,1.0003665256895722,-148.25391215277904
6.32466432,1.0006067545443467,-148.3955187406363
6.3269504,1.0008084737920127,-148.54034196633512
6.329236992,1.0009590303560223,-148.6877182252117
6.331523072,1.0010485513052108,-148.83681771945686
6.333809664,1.0010716665222894,-148.98677865575667
6.336096256,1.0010266947974278,-149.1365408195
6.338382336,1.0009166862538383,-149.2851847193184
6.340668928,1.0007483172933653,-149.431809659058
6.342955008,1.0005324542579583,-149.57567192431225
6.3452416,1.0002825946712215,-149.71610837833833
6.34752768,1.0000147169204965,-149.8528172298372
6.349814272,0.9997457202197314,-149.9855897966733
6.352100352,0.9994928232353155,-150.1145580266273
6.354386944,0.9992718659582918,-150.2400902114348
6.356673536,0.9990970992805714,-150.36272145743928
6.358959616,0.9989796405740021,-150.4831964042463
6.361246208,0.9989269072863343,-150.6024557737553
6.363532288,0.998942432252658,-150.72141578491835
6.36581888,0.9990250855000566,-150.8411194415872
6.36810496,0.9991696264617487,-150.96244468145915
6.370391552,0.9993670084525484,-151.08627702051666
6.372678144,0.9996044648623299,-151.21327629936465
6.374964224,0.9998671843147477,-151.34389206420627
6.377250816,1.0001383180245627,-151.47840378471963
6.379536896,1.0004006672231565,-151.61680547207044
6.381823488,1.0006375422590863,-151.75881004042924
6.384109568,1.0008339497623138,-151.90399835279342
6.38639616,1.0009775330417219,-152.05162604713286
6.38868224,1.0010590389786769,-152.20090643163445
6.390968832,1.0010734604597207,-152.3508520157103
6.393255424,1.0010196577191532,-152.50053601851016
6.395541504,1.0009011506159877,-152.64895053542017
6.397828096,1.0007254021232668,-152.79524457955728
6.400114176,1.0005035785656622,-152.93863211916656
6.402400768,1.0002495909203488,-153.07857519284718
6.404686848,0.99997956137766,-153.21469061983615
6.40697344,0.9997108179446142,-153.34689873153098
6.409260032,0.9994601588150551,-153.47532432833853
6.411546112,0.9992437609290856,-153.60032087333897
6.413832704,0.9990752542369111,-153.72253032176167
6.416118784,0.9989654116470345,-153.84267129784348
6.418405376,0.9989212799072485,-153.96171406466513
6.420691456,0.9989456735346348,-154.0806030022349
6.422978048,0.999036982858329,-154.2003198681569
6.425264128,0.9991895720140109,-154.32179987464636
6.42755072,0.999393590582218,-154.4459002160467
6.429837312,0.9996361062604545,-154.573272817358
6.432123392,0.9999017935562229,-154.7043030306726
6.434409984,1.000173689945426,-154.83924673580046
6.436696064,1.0004345751420631,-154.97806816538693
6.438982656,1.0006678777479134,-155.12050822812148
6.441268736,1.000858784051207,-155.26596523186151
6.443555328,1.0009952295476687,-155.41383567070324
6.44584192,1.0010685673846775,-155.56319630483327
6.448128,1.0010740283065778,-155.7131727773307
6.450414592,1.0010114054798818,-155.8627161179209
6.452700672,1.0008844913989037,-156.0108672372505
6.454987264,1.0007014704735189,-156.1567645284509
6.457273344,1.0004737347983133,-156.2997048670961
6.459559936,1.0002158290261698,-156.43909419487926
6.461846016,0.9999440956081481,-156.57467175598916
6.464132608,0.9996757749694862,-156.70624209597338
6.4664192,0.9994278486699393,-156.8341017027592
6.46870528,0.9992161469848618,-156.95857989580767
6.470991872,0.9990541100501132,-157.08034027522643
6.473277952,0.9989521322505943,-157.20014483548104
6.475564544,0.9989166660697162,-157.31894512563508
6.477850624,0.9989500032956017,-157.4377672397892
6.480137216,0.9990500591223027,-157.55752150611403
6.482423296,0.9992104479352251,-157.67917122254363
6.484709888,0.9994209518422892,-157.8035442446224
6.48699648,0.9996683522217867,-157.9312149549754
6.48928256,0.9999367779083981,-158.06267945760206
6.491569152,1.0002091781118285,-158.19803509941065
6.493855232,1.0004682950293706,-158.33725611705762
6.496141824,1.0006977867443296,-158.48004631846374
6.498427904,1.0008829076338608,-158.62584313314164
6.500714496,1.001012021540076,-158.77391433014714
6.503001088,1.0010769611794432,-158.92338119094362
6.505287168,1.0010736057033789,-159.07328573111613
6.50757376,1.0010020465100429,-159.22265499387578
6.50985984,1.0008669208910823,-159.37054273891022
6.512146432,1.0006766473159638,-159.51605624898306
6.514432512,1.000443303815386,-159.65846305622466
6.516719104,1.0001817761762362,-159.79730775880034
6.519005184,0.9999084484273733,-159.93221820923037
6.521291776,0.9996408127396021,-160.06323085068402
6.523578368,0.9993958613727901,-160.19046564089862
6.525864448,0.9991891695309798,-160.31444920543413
6.52815104,0.9990338827446273,-160.43574074303356
6.53043712,0.9989398287156173,-160.55522208073165
6.532723712,0.9989131555251584,-160.67382684140313
6.535009792,0.9989555299633164,-160.79252968902782
6.537296384,0.9990642241705634,-160.91232466712853
6.539582976,0.999232418666876,-161.03413550013752
6.541869056,0.9994493147078094,-161.1587550459744
6.544155648,0.9997012424950774,-161.28678483312999
6.546441728,0.9999721216183657,-161.41860710258706
6.54872832,1.00024483561822,-161.55439254262595
6.5510144,1.0005019596744367,-161.69400143394242
6.553300992,1.000727319193066,-161.83715015888143
6.555587072,1.0009064573712048,-161.98321229059053
6.557873664,1.0010280472720063,-162.13146417127106
6.560160256,1.0010844687366893,-162.28096295561105
6.562446336,1.0010721652644596,-162.43081936602516
6.564732928,1.000991671149483,-162.58000841770348
6.567019008,1.0008482946145143,-162.7275444767442
6.5693056,1.0006510073511616,-162.87261619206643
6.57159168,1.000412233321578,-163.01453804670356
6.573878272,1.0001471571962965,-163.15276746885942
6.576164864,0.999872596387706,-163.28709012224812
6.578450944,0.9996060281086108,-163.41743793787293
6.580737536,0.9993642267003696,-163.54406368794295
6.583023616,0.999162796732913,-163.66751220000205
6.585310208,0.9990143861699669,-163.7883722160585
6.587596288,0.9989285406779923,-163.9075054224442
6.58988288,0.9989108171674951,-164.02586227265164
6.59216896,0.998962108965899,-164.14448514307094
6.594455552,0.9990794839257416,-164.26430533034045
6.596742144,0.9992553376978119,-164.38628943790144
6.599028224,0.9994784630537272,-164.5111589435374
6.601314816,0.9997347394535525,-164.63953689907487
6.603600896,1.0000078032023194,-164.77174131727656
6.605887488,1.0002804851214024,-164.90792908553627
6.608173568,1.0005353562747883,-165.04792073804697
6.61046016,1.000756205127915,-165.1913734564191
6.612746752,1.0009291122346218,-165.33769885730266
6.615032832,1.0010431154977173,-165.48609193572116
6.617319424,1.0010908964801555,-165.63566566643976
6.619605504,1.0010694924044994,-165.78540663959348
6.621892096,1.0009801007165466,-165.9343209015262
6.624178176,1.0008285536436707,-166.08152027114667
6.626464768,1.0006244197250294,-166.2261192931113
6.628750848,1.0003803661578654,-166.36748577231057
6.63103744,1.0001120712853542,-166.50509891669176
6.633324032,0.9998365725223132,-166.63873191826718
6.635610112,0.9995712532703894,-166.76849097524456
6.637896704,0.9993330584321461,-166.8945135651658
6.640182784,0.9991370549848183,-167.0173896404056
6.642469376,0.998995836555027,-167.13779623978988
6.644755456,0.9989183567628452,-167.25656537310292
6.647042048,0.9989094472080735,-167.37473736592295
6.649328128,0.998969972976962,-167.49326319829458
6.65161472,0.9990958813353545,-167.61313884124925
6.653901312,0.9992792622913215,-167.73527553056823
6.656187392,0.9995083851330822,-167.86040799334717
6.658473984,0.9997687671489374,-167.98909718865121
6.660760064,1.0000439068071756,-168.12165794367405
6.663046656,1.000316217658542,-168.25822683984947
6.665332736,1.0005684175297491,-168.3985872373688
6.667619328,1.0007846645980227,-168.54236009667406
6.66990592,1.0009510200838858,-168.68891195780225
6.672192,1.00105714793592,-168.8374243106462
6.674478592,1.0010961017467088,-168.98697505855085
6.676764672,1.0010655414534646,-169.1365804790478
6.679051264,1.00096745345331,-169.2852524802652
6.681337344,1.0008077492841594,-169.43208061700693
6.683623936,1.000596731261661,-169.57618474805332
6.685910016,1.0003477240978875,-169.7169565311062
6.688196608,1.0000765126389624,-169.85390979255078
6.6904832,0.9998003208052113,-169.9869426898283
6.69276928,0.9995365223813724,-170.11597299344447
6.695055872,0.9993021641847343,-170.24140208053288
6.697341952,0.9991118917138229,-170.3637043109854
6.699628544,0.9989780340073664,-170.48363073278216
6.701914624,0.9989089568662809,-170.60208551376468
6.704201216,0.9989093311717436,-170.72004204382156
6.706487808,0.9989788799905814,-170.8384783789246
6.708773888,0.9991132956540401,-170.95839742720105
6.71106048,0.9993040824403582,-171.0806906347489
6.71334656,0.9995389797239163,-171.2060672186287
6.715633152,0.9998033315853918,-171.33505246571866
6.717919232,1.0000801192581608,-171.4680119013482
6.720205824,1.0003517723751483,-171.6049543463359
6.722491904,1.0006012272408886,-171.74565754658124
6.724778496,1.000812408391367,-171.88969638206157
6.727065088,1.0009720102147832,-172.03643253548904
6.729351168,1.0010700603237903,-172.18503144008298
6.73163776,1.0011001997831412,-172.33454918197964
6.73392384,1.0010604871761322,-172.48403711818037
6.736210432,1.0009534609345052,-172.63242914690085
6.738496512,1.0007857994124172,-172.77881563474455
6.740783104,1.000568246127384,-172.92238189827324
6.743069696,1.0003144124673087,-173.06255774508315
6.745355776,1.0000405065548337,-173.19885748709103
6.747642368,0.999763895112029,-173.33115430060207
6.749928448,0.9995021323371314,-173.4595446860545
6.75221504,0.9992717841850766,-173.58432941597977
6.75450112,0.999087562431607,-173.70607934168572
6.756787712,0.9989611611662566,-173.82554753126334
6.759073792,0.9989007634793482,-173.94366160567375
6.761360384,0.9989102589741338,-174.0613772300325
6.763646976,0.9989889734525552,-174.17973262996438
6.765933056,0.9991318380934969,-174.29969348595066
6.768219648,0.9993299852193294,-174.42215113592036
6.770505728,0.9995706156820948,-174.54778364771516
6.77279232,0.9998384406542156,-174.67710799042814
6.7750784,1.000116694460636,-174.8103932847425
6.777364992,1.0003875416180155,-174.94767913101913
6.779651584,1.0006336977885164,-175.08874231622755
6.781937664,1.000839652678541,-175.23303891032768
6.784224256,1.0009924254514693,-175.3799621766567
6.786510336,1.0010821451629281,-175.52861987648475
6.788796928,1.0011031896216283,-175.67809282811893
6.791083008,1.001054378229495,-175.82736534139372
6.7933696,1.0009384356579594,-175.97539820282896
6.79565568,1.0007628353454405,-176.1213685816764
6.797942272,1.00053880777266,-176.26437751864125
6.800228864,1.0002804982015843,-176.40393392550638
6.802514944,1.0000041784331573,-176.53954464532484
6.804801536,0.999727365090313,-176.67117646757276
6.807087616,0.9994678112332107,-176.79885923116896
6.809374208,0.9992417418499441,-176.92299094015334
6.811660288,0.9990638403649751,-177.044165113231
6.81394688,0.998945271132495,-177.16314938798118
6.81623296,0.9988936710276712,-177.2809301936685
6.818519552,0.9989123911572225,-177.39843568213348
6.820806144,0.9990001636249497,-177.51672530175506
6.823092224,0.9991514914938795,-177.636732918577
6.825378816,0.9993567044934439,-177.75933403313795
6.827664896,0.9996028200626881,-177.88520739520777
6.829951488,0.9998741449138551,-178.01487618966442
6.832237568,1.000153447193809,-178.14849178491755
6.83452416,1.0004229716100288,-178.28615141194115
6.836810752,1.0006658241298616,-178.4274762362672
6.839096832,1.000866216409122,-178.57204157547352
6.841383424,1.0010117566988015,-178.71911920005343
6.843669504,1.0010929696669983,-178.86781481356172
6.845956096,1.0011051226042267,-179.01719117414896
6.848242176,1.0010469117471972,-179.16621806659595
6.850528768,1.0009221930898426,-179.31393829465173
6.852814848,1.0007390610525881,-179.459380616415
6.85510144,1.0005087391985232,-179.60187676373246
6.857388032,1.0002459162268602,-179.74074737392067
6.859674112,0.9999673669775205,-179.87565411840026
6.861960704,0.9996907776172866,179.99345904174533
6.864246784,0.9994336677230011,179.86649209502966
6.866533376,0.9992123630546461,179.74299849090556
6.868819456,0.9990410220353341,179.62238506700774
6.871106048,0.9989303567446541,179.5038453077909
6.87339264,0.9988877720025282,179.38643170324377
6.87567872,0.9989157019331358,179.2691246413457
6.877965312,0.9990126080282192,179.1509332092473
6.880251392,0.9991722610344826,179.03088974251145
6.882537984,0.9993844371636623,178.90810494942673
6.884824064,0.9996359660276488,178.7819721429849
6.887110656,0.9999103897869447,178.65200795752511
6.889396736,1.0001904801052028,178.51804387631967
6.891683328,1.000458609243463,178.38007412165933
6.89396992,1.000697520456762,178.2384222054929
6.896256,1.0008921543923772,178.09365149714503
6.898542592,1.0010303180401572,177.94645195023392
6.900828672,1.0011031180731058,177.79774414514554
6.903115264,1.0011058869807885,177.64847420629567
6.905401344,1.0010383549092465,177.49969250240346
6.907687936,1.0009048363031945,177.35237061052922
