freq,mag,phase
6.0,1.0001873873461768,-113.90441032726056
6.00416,1.0002279622479389,-114.13605819537007
6.008320512,1.0002545617493346,-114.36815164066324
6.012480512,1.0002661325898607,-114.60057659308478
6.016640512,1.0002617684200392,-114.83307982393023
6.020801024,1.000241936264623,-115.06548143113562
6.024961024,1.000207766697304,-115.2974721594061
6.029121024,1.0001611873158678,-115.52897470089461
6.033281536,1.000105117173997,-115.75973963791338
6.037441536,1.0000428393751566,-115.9897685028681
6.041601536,0.9999780303082816,-116.2188658674017
6.045762048,0.9999146885098223,-116.44709861299185
6.049922048,0.9998565250622378,-116.67454062130754
6.054082048,0.9998068808949155,-116.90121817891135
6.05824256,0.999769052145729,-117.12731341617092
6.06240256,0.9997449784735092,-117.35302797025908
6.06656256,0.9997364257949186,-117.57850694760677
6.070723072,0.9997437424964583,-117.80402095657278
6.074883072,0.9997664031994891,-118.02977441080974
6.079043072,0.9998032699855149,-118.25596565300403
6.083203584,0.9998520417699512,-118.48282997321724
6.087363584,0.999909765572376,-118.71044421582506
6.091523584,0.9999730981897246,-118.9389439261246
6.095683584,1.0000381969112782,-119.16837738004836
6.099844096,1.0001011357039338,-119.39874472671809
6.104004096,1.0001581615683248,-119.62999118958979
6.108164096,1.0002059109046846,-119.86200307944726
6.112324608,1.0002415117831251,-120.09466047911717
6.116484608,1.0002627972142946,-120.32772261669258
6.120644608,1.0002684330128233,-120.56101154631808
6.12480512,1.0002582376062883,-120.79427970520051
6.12896512,1.000232674232546,-121.02735463178284
6.13312512,1.0001932835418887,-121.2599922175042
6.137285632,1.0001424693427905,-121.49203419138848
6.141445632,1.000083182898176,-121.72332300519537
6.145605632,1.0000189864875466,-121.95373918920794
6.149766144,0.9999537832056061,-122.18331582248443
6.153926144,0.9998913862022892,-122.41199690674756
6.158086144,0.9998355561859409,-122.6398905366871
6.162246656,0.9997897255270733,-122.86708209313906
6.166406656,0.9997565060756914,-123.09375468671823
6.170566656,0.9997380031932875,-123.3200528415861
6.174727168,0.9997351995058356,-123.54626585164823
6.178887168,0.9997484778660519,-123.77256846262333
6.183047168,0.99977683864419,-123.99920275549435
6.18720768,0.9998187744426784,-124.22632671161755
6.19136768,0.9998716211583186,-124.45419245951938
6.19552768,0.9999323270894602,-124.68284842193444
6.199688192,0.9999972134828469,-124.91244230100786
6.203848192,1.0000624868746242,-125.14299371919604
6.208008192,1.00012420495519,-125.37444844260665
6.212168704,1.000178570002341,-125.60674527990055
6.216328704,1.0002223738860705,-125.83979317982691
6.220488704,1.000253182154103,-126.07335257578394
6.224649216,1.0002688874282675,-126.30730946973055
6.228809216,1.0002686055630388,-126.54137958802242
6.232969216,1.0002524517086324,-126.77537388903511
6.237129728,1.0002213060906904,-127.00906350766701
6.241289728,1.000177022190583,-127.24224631962089
6.245449728,1.0001222584537681,-127.47474927113889
6.24961024,1.0000601678283505,-127.70647617290653
6.25377024,0.9999946592039993,-127.93731875320553
6.25793024,0.9999295405805848,-128.16725938391147
6.26209024,0.9998687949097737,-128.3963558325601
6.266250752,0.9998158349985026,-128.62468027229804
6.270410752,0.9997740505452982,-128.85234760819165
6.274570752,0.9997458979036096,-129.07955860633933
6.278731264,0.9997329924318269,-129.30649209925616
6.282891264,0.9997362024720957,-129.5333720242148
6.287051264,0.9997553982617498,-129.76044988633987
6.291211776,0.9997892524905919,-129.98794906850816
6.295371776,0.9998359801489091,-130.21601647895835
6.299531776,0.9998925431223976,-130.4448504300443
6.303692288,0.9999557440163654,-130.67452752286775
6.307852288,1.0000218405520225,-130.905209715426
6.312012288,1.0000866706202953,-131.1367774692913
6.3161728,1.0001464754839648,-131.36929343005258
6.3203328,1.0001977844771908,-131.6025635380435
6.3244928,1.0002373742142123,-131.83656494347002
6.328653312,1.0002628318813886,-132.0710240962856
6.332813312,1.0002727887842007,-132.30574056287477
6.336973312,1.0002666269601672,-132.54056077240128
6.341133824,1.0002445487607055,-132.775174243909
6.345293824,1.0002079782879087,-133.00940094099272
6.349453824,1.0001591186302872,-133.24308021053415
6.353614336,1.0001008243276788,-133.47599716268527
6.357774336,1.00003650305178,-133.70808465565614
6.361934336,0.9999701265050556,-133.93929220040008
6.366094848,0.9999056457843196,-134.16958967117208
6.370254848,0.9998468600452886,-134.3990373235082
6.374414848,0.999797368243879,-134.62775217473256
6.37857536,0.9997600005299353,-134.8558792073443
6.38273536,0.9997371653464013,-135.08358741776001
6.38689536,0.9997301453753252,-135.31111159990252
6.391055872,0.9997394025119127,-135.5386737627015
6.395215872,0.999764374737924,-135.76653494782718
6.399375872,0.9998035317510535,-135.99485623692746
6.403536384,0.9998546364400177,-136.22381548814968
6.407696384,0.9999145865683893,-136.4536180574438
6.411856384,0.999979828494133,-136.68429902620719
6.416016896,1.0000464296527871,-136.9159506944807
6.420176896,1.000110371559036,-137.14856056119848
6.424336896,1.0001679472753686,-137.38202981110334
6.428496896,1.0002156020864297,-137.61627726894682
6.432657408,1.0002505601848821,-137.8511286758679
6.436817408,1.0002706060146926,-138.08638888963264
6.440977408,1.0002746845795913,-138.3218585094519
6.44513792,1.0002624263200903,-138.55728575920665
6.44929792,1.0002346264166981,-138.7924677592862
6.45345792,1.000192803982248,-139.02718558237848
6.457618432,1.0001396219183594,-139.2612378425273
6.461778432,1.000078216716977,-139.4945004881907
6.465938432,1.0000121850715966,-139.7268973621014
6.470098944,0.9999455322057247,-139.95840972204712
6.474258944,0.9998821282523067,-140.1889865897324
6.478418944,0.9998259199159693,-140.4187814814002
6.482579456,0.9997802116699035,-140.6478413433865
6.486739456,0.9997476726755067,-140.87639115510012
6.490899456,0.9997304416351162,-141.10463036785458
6.495059968,0.9997294199048793,-141.3327452572808
6.499219968,0.9997446628648972,-141.560980674196
6.503379968,0.9997752948193575,-141.7895492871406
6.50754048,0.9998196010055683,-142.01868060085752
6.51170048,0.9998748528791713,-142.24854046353846
6.51586048,0.9999376135415361,-142.47926391578423
6.520020992,1.000004412993788,-142.7109044340396
6.524180992,1.0000710230458576,-142.94351519121696
6.528340992,1.0001335999894523,-143.17706251532707
6.532501504,1.0001883702551329,-143.41146452403072
6.536661504,1.0002319783687559,-143.64656835910793
6.540821504,1.0002619056572206,-143.88221903788272
6.544982016,1.0002762353069254,-144.11823613583704
6.549142016,1.0002742613776856,-144.35434603158592
6.553302016,1.0002559887085012,-144.59031224638187
6.557462528,1.0002225303235281,-144.82596256060637
6.561622528,1.0001759478485228,-145.06105953997672
6.565782528,1.0001188435843555,-145.29547514806427
6.56994304,1.0000547514964548,-145.52903407516993
6.57410304,0.9999874456439816,-145.76169696634605
6.57826304,0.9999209022997063,-145.99343321731752
6.582423552,0.99985926966983,-146.22426055555428
6.586583552,0.9998061452745397,-146.45432741475878
6.590743552,0.9997646851548485,-146.68374022596865
6.594903552,0.9997373472790391,-146.91268537639758
6.599064064,0.9997258957334048,-147.14140067723116
6.603224064,0.9997309171783725,-147.370056351947
6.607384064,0.999752130396189,-147.59893033354012
6.611544576,0.9997883947640728,-147.8282386903959
6.615704576,0.9998374175735595,-148.05815511666123
6.619864576,0.9998963387918396,-148.28887365704443
6.624025088,0.9999616273959906,-148.52046933443
6.628185088,1.0000293364781152,-148.75300920901572
6.632345088,1.0000954780354112,-148.9865699112492
6.6365056,1.0001560942000487,-149.22099763053677
6.6406656,1.0002075136971698,-149.45624477225647
6.6448256,1.0002467307314833,-149.69218725100836
6.648986112,1.0002712925032782,-149.92857754532517
6.653146112,1.0002798112615687,-150.16520796815615
6.657306112,1.000271746994983,-150.40187040785614
6.661466624,1.0002474556325691,-150.63832940536915
6.665626624,1.0002085923036506,-150.87435570609674
6.669786624,1.0001572895099218,-151.10979609589546
6.673947136,1.000096676621835,-151.34445004779036
6.678107136,1.0000303197242306,-151.5782050259826
6.682267136,0.9999623016118375,-151.81107425922093
6.686427648,0.9998966292151401,-152.04300278757265
6.690587648,0.9998371569867388,-152.27409362938974
6.694747648,0.9997873951447045,-152.50435417614577
6.69890816,0.9997506310732098,-152.73409699813405
6.70306816,0.9997288594682798,-152.96341099527012
6.70722816,0.9997233017887911,-153.19255719593886
6.711388672,0.9997345605991425,-153.4217756188902
6.715548672,0.9997616392751019,-153.65128314175328
6.719708672,0.9998032255311231,-153.8812640735651
6.723869184,0.9998567598150989,-154.11193226253485
6.728029184,0.999918974953389,-154.34346942971598
6.732189184,0.9999860886918536,-154.57592192811106
6.736349696,1.0000543715677264,-154.80936711109345
6.740509696,1.0001194430150957,-155.04373418361817
6.744669696,1.000177624531846,-155.27903011838933
6.748830208,1.0002253510436432,-155.5150620258712
6.752990208,1.0002596970327111,-155.7517184153539
6.757150208,1.0002786627963005,-155.98871708192107
6.761310208,1.0002811552988704,-156.22593712471155
6.76547072,1.0002669854853523,-156.46309229235936
6.76963072,1.0002368877586478,-156.69994370867857
6.77379072,1.0001927366864332,-156.93629799339274
6.777951232,1.000137158870681,-157.17195533867078
6.782111232,1.0000735228016038,-157.40678974532642
6.786271232,1.0000055462030826,-157.64074378805932
6.790431744,0.9999372235954667,-157.8736969154504
6.794591744,0.9998728287587881,-158.10579145730492
6.798751744,0.9998160722985074,-158.33702150332886
6.802912256,0.9997703931294618,-158.5675293606593
6.807072256,0.9997385189714367,-158.7975180332565
6.811232256,0.9997223565971709,-159.02721443002412
6.815392768,0.9997230851953397,-159.25678997241826
6.819552768,0.9997403297821624,-159.48650460687853
6.823712768,0.9997732924131784,-159.7165971271834
6.82787328,0.9998198903726134,-159.9472405230814
6.83203328,0.9998775747516732,-160.1786716096014
6.83619328,0.9999426390335817,-160.41097037451888
6.840353792,1.000011309051702,-160.64424555785428
6.844513792,1.0000793707602684,-160.8784789901327
6.848673792,1.0001429978721315,-161.11368588072196
6.852834304,1.0001981913104614,-161.34972314999513
6.856994304,1.0002416556910185,-161.586474863281
6.861154304,1.00027084858279,-161.82376769845698
6.865314816,1.0002841014455965,-162.0613780706224
6.869474816,1.0002803469564487,-162.29907658424955
6.873634816,1.0002599718392957,-162.53661939612047
6.877795328,1.00022418826784,-162.77376930078927
6.881955328,1.0001751433984403,-163.01034474460974
6.886115328,1.0001157435133845,-163.24618496928187
6.89027584,1.0000493679988882,-163.48114586923242
6.89443584,0.9999802213948057,-163.7151656880584
6.89859584,0.999912210142742,-163.94823440410133
6.902756352,0.9998496728994937,-164.1803630662984
6.906916352,0.9997960536863779,-164.411730438838
6.911076352,0.9997548444916348,-164.6424482595554
6.915236864,0.9997282959535451,-164.87267252835892
6.919396864,0.9997181173553366,-165.10267017882336
6.923556864,0.9997249413099235,-165.33264865623178
6.927716864,0.9997483805442421,-165.56286324686576
6.931877376,0.9997868905650243,-165.79352791163865
6.936037376,0.9998384170799276,-166.02483399536328
6.940197376,0.9998997431738154,-166.25697256700306
6.944357888,0.9999671669761214,-166.48998882592582
6.948517888,1.0000367270852462,-166.72401283701524
6.952677888,1.000104265956958,-166.9590245670043
6.9568384,1.0001658181939055,-167.19497379787032
6.9609984,1.000217428341636,-167.43171392652908
6.9651584,1.0002564474242197,-167.66911653769392
6.969318912,1.0002801677215591,-167.9069473903579
6.973478912,1.000287246745101,-168.1450488960828
6.977638912,1.0002773704878118,-168.3831345932075
6.981799424,1.0002509417290937,-168.6210016061959
6.985959424,1.000209671792371,-168.85836639606757
6.990119424,1.0001559379444764,-169.09509976663335
6.994279936,1.0000928973648244,-169.33104250031704
6.998439936,1.0000244574347978,-169.56602937987816
7.002599936,0.9999545614854887,-169.80009609143193
7.006760448,0.9998875382204093,-170.03319160848744
7.010920448,0.999827242006907,-170.2653740772584
7.015080448,0.9997774350980889,-170.496818178352
7.01924096,0.9997409394547485,-170.72768236161127
7.02340096,0.9997200554159792,-170.95813112398363
7.02756096,0.9997160910416732,-171.18842130327647
7.031721472,0.9997290943959426,-171.41878834270787
7.035881472,0.999758527972006,-171.64946383837722
7.040041472,0.9998025045543854,-171.88064410049788
7.044201984,0.9998584114433524,-172.11257695634743
7.048361984,0.9999230368582963,-172.34536269207135
7.052521984,0.9999923427888603,-172.5791111061857
7.056682496,1.000062412700866,-172.81384091771753
7.060842496,1.0001287269769343,-173.04957894356448
7.065002496,1.0001876488823618,-173.28616457578502
7.069163008,1.0002354976793781,-173.52353061135133
7.073323008,1.0002693386897015,-173.761526413014
7.077483008,1.000287334959856,-173.9998717108689
7.08164352,1.0002882186742272,-174.23836009028645
7.08580352,1.000271988531014,-174.47674446189333
7.08996352,1.0002396641052944,-174.71480411765367
7.09412352,1.0001930567176134,-174.9523430869395
7.098284032,1.000135036350262,-175.18913597956436
7.102444032,1.0000689530938023,-175.425076947683
7.106604032,0.9999989340651013,-175.66007833194
7.110764544,0.9999288630005331,-175.89407923289605
7.114924544,0.9998632320305668,-176.127142805489
7.119084544,0.9998058939089604,-176.3593824493837
7.123245056,0.9997601481967244,-176.59083986069538
7.127405056,0.9997288287925735,-176.82180102942579
7.131565056,0.9997138085085154,-177.05244768966762
7.135725568,0.9997160162199876,-177.28300992306814
7.139885568,0.9997353732586298,-177.51371639530623
7.144045568,0.9997707577999059,-177.7448469294141
7.14820608,0.9998198407859389,-177.97654577524398
7.15236608,0.9998798717466966,-178.20904422379823
7.15652608,0.9999473817059731,-178.4424726665544
7.160686592,1.0000180858206058,-178.67686635007985
7.164846592,1.0000878875548542,-178.91227097667954
7.169006592,1.0001524912517996,-179.1486395859638
7.173167104,1.000208378966865,-179.38584597875754
7.177327104,1.0002518740369655,-179.62379451957972
7.181487104,1.0002804114160486,-179.86221870542167
7.185647616,1.00029230508721,179.89901705751396
7.189807616,1.000286881902271,179.66022951111543
7.193967616,1.0002643557694857,179.42157872759316
7.198128128,1.0002262827699848,179.18338502216747
7.202288128,1.0001746564696354,178.9457973163574
7.206448128,1.0001127238969458,178.7090005367852
7.21060864,1.0000441211874627,178.47312613365585
7.21476864,0.9999728507543941,178.2382216058026
7.21892864,0.9999033409397202,178.00430173463872
7.223089152,0.9998395974252603,177.77129937058717
7.227249152,0.9997855780280998,177.53916167611706
7.231409152,0.999744473626808,177.307629989629
7.235569664,0.9997187484024697,177.07661045021422
7.239729664,0.9997098310809865,176.84581332553125
7.243889664,0.9997184687682911,176.61499660831106
7.248050176,0.9997439640426645,176.38393791781422
7.252210176,0.9997851051253538,176.1523981364086
7.256370176,0.9998390358873984,175.92021740287916
7.260530176,0.9999028158348318,175.68715132949418
7.264690688,0.9999725326570529,175.45314422977717
7.268850688,1.0000441498186556,175.2181518937682
7.273010688,1.0001132148548468,174.98213351917306
7.2771712,1.0001756557834063,174.7451878145469
7.2813312,1.000227824457108,174.50742567538748
7.2854912,1.0002665159933768,174.26902486169067
7.289651712,1.0002893669822859,174.0301626871052
7.293811712,1.0002950539210231,173.79110158605022
7.297971712,1.0002832572086353,173.5520709869855
7.302132224,1.00025466086124,173.31330375426185
7.306292224,1.0002108381955517,173.07506247513788
7.310452224,1.0001546108511976,172.83749957990162
7.314612736,1.0000890911608797,172.60078099432326
7.318772736,1.0000183583325812,172.36502712790704
7.322932736,0.9999466483373525,172.13025789167503
7.327093248,0.9998779681753804,171.8965144461738
7.331253248,0.999816854342891,171.66365387945618
7.335413248,0.9997666959248095,171.4315540542253
7.33957376,0.9997305576415366,171.20007293279085
7.34373376,0.9997106444856871,170.96898269720108
7.34789376,0.9997081163067163,170.73804460124498
7.352054272,0.9997231186919446,170.5070192734593
7.356214272,0.9997547557048689,170.275674805721
7.360374272,0.9998012884322828,170.0437199416886
7.364534784,0.9998599619651152,169.8110388257654
7.368694784,0.9999268653805916,169.57748749120174
7.372854784,0.999998546704374,169.34293932925897
7.377015296,1.0000703138880893,169.1073738427295
7.381175296,1.0001382472156237,168.87080858205545
7.385335296,1.0001978976783983,168.6333722423314
7.389495808,1.000245932335969,168.39513907156038
7.393655808,1.0002794215605735,168.15629671997635
7.397815808,1.0002963838203216,167.9171364453841
7.40197632,1.0002956071371205,167.67783500307266
7.40613632,1.0002774672056762,167.43866407867426
7.41029632,1.0002427041488051,167.19986037734378
7.414456832,1.0001936524673198,166.96165805965734
7.418616832,1.0001329498232292,166.7242030703878
7.422776832,1.00006441897467,166.48764336068828
7.426936832,0.99999216028269,166.25208418002546
7.431097344,0.9999202779560518,166.01752793095406
7.435257344,0.9998533284833446,165.78396200422586
7.439417344,0.999795140019077,165.5512535539245
7.443577856,0.9997492929902001,165.31929551795292
7.447737856,0.9997185690028447,165.08784424081844
7.451897856,0.9997046845201673,164.85675517393244
7.456058368,0.9997086539992881,164.62567966626327
7.460218368,0.9997300552751747,164.394458260141
7.464378368,0.999767813081293,164.16282212239963
7.46853888,0.9998194875770574,163.9305292285832
7.47269888,0.9998821680900363,163.69741703013634
7.47685888,0.9999520789538507,163.46338848989163
7.481019392,1.0000251518004029,163.22832141741122
7.485179392,1.000096588376674,162.99225667217206
7.489339392,1.0001625662930955,162.7552211905475
7.493499904,1.000218975326946,162.51727783226477
7.497659904,1.0002624060442102,162.2786705872249
7.501819904,1.0002903885214347,162.03952776846995
7.505980416,1.0003010928816096,161.80010836261076
7.510140416,1.000293940788921,161.5606786740188
7.514300416,1.000269267479343,161.32145336905862
7.518460928,1.0002286564481522,161.08269128347965
7.522620928,1.0001743768930123,160.84456863762543
7.526780928,1.0001097367803884,160.6073022479078
7.53094144,1.0000386648584692,160.37099208006939
7.53510144,0.9999652716285532,160.135668269548
7.53926144,0.9998939939321813,159.90139197953158
7.543421952,0.9998291670605848,159.66806475361284
7.547581952,0.9997745934857608,159.4355710434871
7.551741952,0.9997335063521878,159.20374554520257
7.555902464,0.9997084997892706,158.97242363914657
7.560062464,0.9997009614277059,158.7412886856808
7.564222464,0.9997114296166728,158.51015283194747
7.568382976,0.9997392777109838,158.27875494742432
7.572542976,0.9997827701580769,158.0468281234843
7.576702976,0.9998394854096893,157.81419305359475
7.580863488,0.9999059342211575,157.58068053622137
7.585023488,0.9999781626885201,157.34622425912727
7.589183488,1.0000518189590621,157.11071439554408
7.593343488,1.0001225211003815,156.87419323809647
7.597504,1.0001862161651178,156.63670536112272
7.601664,1.0002387525937897,156.39838791899427
7.605824,1.0002772302057181,156.15943460502803
7.609984512,1.0002991992552837,155.92005476822476
7.614144512,1.0003035753657035,155.6805147136576
7.618304512,1.0002896883575927,155.44099307649904
7.622465024,1.0002587320661007,155.20178817861995
7.626625024,1.0002123767609832,154.96315437229083
7.630785024,1.0001533231266921,154.7252454830763
7.634945536,1.0000852453057694,154.48823836100718
7.639105536,1.0000120459703608,154.25220941415776
7.643265536,0.9999381199584204,154.01720956349072
7.647426048,0.9998680286374865,153.78324199017774
7.651586048,0.9998058632874828,153.55022263602652
7.655746048,0.999755289837845,153.31798570421373
7.65990656,0.9997194510537587,153.08635028817497
