freq,mag,phase
6.0,1.0002779259441457,-62.27013979055148
6.003129856,1.0003381111931748,-62.42471843974845
6.006259712,1.0003756325528956,-62.579914413239
6.009389568,1.000390311436998,-62.73562003020234
6.012519424,1.0003804811428154,-62.89133007570085
6.01564928,1.0003469886437595,-63.046781125088074
6.018779136,1.0002923813769857,-63.20163171135198
6.021908992,1.0002192609865714,-63.35555545188846
6.02503936,1.0001327305262977,-63.50840415846772
6.028169216,1.0000379956612435,-63.65998049534744
6.031299072,0.9999410618705715,-63.810164420267895
6.034428928,0.9998474770489275,-63.95910123276967
6.037558784,0.9997636331007915,-64.10668794421753
6.04068864,0.9996946755368005,-64.25328631122437
6.043818496,0.9996444608385217,-64.3989982673612
6.046948352,0.9996165119120084,-64.54422042599742
6.050078208,0.9996126421109339,-64.68918767678737
6.053208064,0.9996325900769876,-64.83432788593765
6.05633792,0.9996754923609542,-64.97995849875724
6.059467776,0.9997388407225084,-65.12638037050034
6.062597632,0.9998184038672323,-65.27386379683573
6.065727488,0.999909164605533,-65.42262193950724
6.068857344,1.0000059163995947,-65.57274292830662
6.071987712,1.0001021963031278,-65.72423072182633
6.075117568,1.0001922066816267,-65.8771588649916
6.078247424,1.0002705291384069,-66.03133915240109
6.08137728,1.000332021140208,-66.18647906938386
6.084507136,1.0003729054717279,-66.34246118344744
6.087636992,1.0003907564942982,-66.49886977096264
6.090766848,1.0003843668500019,-66.6554028017437
6.093896704,1.0003543016716452,-66.8116702737851
6.09702656,1.000302089960046,-66.96740354016629
6.100156416,1.00023131161181,-67.12226697165563
6.103286272,1.0001461266490201,-67.27607309189102
6.106416128,1.000051869519651,-67.428571721537
6.109545984,0.9999545665412582,-67.57976494790427
6.11267584,0.9998600692792973,-67.72956762839894
6.115805696,0.9997742013495542,-67.87814697877523
6.118936064,0.999702656244942,-68.02558938073544
6.12206592,0.9996494935614094,-68.17219578592152
6.125195776,0.9996180178345527,-68.31820596978305
6.128325632,0.9996105992049773,-68.4639440770191
6.131455488,0.9996272358482386,-68.60977006565315
6.134585344,0.9996671745248121,-68.75606049254927
6.1377152,0.9997281377960368,-68.90309662425823
6.140845056,0.9998057433178313,-69.0511684768038
6.143974912,0.9998955550020535,-69.20046933256867
6.147104768,0.9999918910569374,-69.35116729922947
6.150234624,1.0000891345966338,-69.5032631642949
6.15336448,1.0001805552020975,-69.65676659925649
6.156494336,1.0002609870585277,-69.81148791717854
6.159624192,1.0003252853341125,-69.96728195104066
6.162754048,1.0003695488455264,-70.12392614687911
6.165884416,1.0003908872471141,-70.28106264574745
6.169014272,1.000388042312055,-70.4383774249258
6.172144128,1.0003611153786256,-70.59547015733621
6.175273984,1.0003117494829896,-70.75209936626848
6.17840384,1.0002431392483329,-70.90785180858828
6.181533696,1.000159533231864,-71.06260685440726
6.184663552,1.0000660181027863,-71.21603241326018
6.187793408,0.9999685102588113,-71.3681760584162
6.190923264,0.9998729190362421,-71.51894450406603
6.19405312,0.9997853035174797,-71.66840768209998
6.197182976,0.9997110599019071,-71.81677197930925
6.200312832,0.99965470322793,-71.96419295537481
6.203442688,0.9996200948515434,-72.11096711871582
6.206572544,0.999609027196293,-72.25746644146477
6.209702912,0.999622247982488,-72.40402554199741
6.212832768,0.9996592788528346,-72.55096255572924
6.215962624,0.9997172873265732,-72.69862609837027
6.21909248,0.9997930943155013,-72.8472804006315
6.222222336,0.9998817368004543,-72.9971378730441
6.225352192,0.9999778446675417,-73.14834533069966
6.228482048,1.0000755346531511,-73.30098995673984
6.231611904,1.0001684504189372,-73.45502948341996
6.23474176,1.0002510067127974,-73.6103711310795
6.237871616,1.0003182488042055,-73.7668351926157
6.241001472,1.0003655469219876,-73.9240877518927
6.244131328,1.000390476394517,-74.08192737918566
6.247261184,1.0003910128792894,-74.23996455917474
6.25039104,1.000367449695929,-74.39791676228064
6.253520896,1.0003211769543752,-74.55532646395139
6.256651264,1.0002548549323396,-74.71202009886161
6.25978112,1.000172948678722,-74.8676420755663
6.262910976,1.000080183099706,-75.02202792141986
6.266040832,0.9999825652757334,-75.17511297799034
6.269170688,0.9998860238785308,-75.32680305333194
6.272300544,0.9997967159303439,-75.47720501329995
6.2754304,0.9997199091468753,-75.62641924372171
6.278560256,0.9996606803570134,-75.77468799861704
6.281690112,0.9996225646581958,-75.92227624212926
6.284819968,0.9996079172371823,-76.06956058916239
6.287949824,0.9996177236754479,-76.21677912895998
6.29107968,0.9996514451341467,-76.36435145561383
6.294209536,0.9997067585169416,-76.51261472256368
6.297339392,0.9997804290337337,-76.66183177517904
6.300469248,0.9998678573612134,-76.81220878583123
6.303599616,0.9999636195460463,-76.96394133972474
6.306729472,1.0000614985044687,-77.1171148472388
6.309859328,1.0001559468182102,-77.2716842956949
6.312989184,1.0002404605566357,-77.42758556279337
6.31611904,1.0003102752025035,-77.58460512992934
6.319248896,1.0003610048356497,-77.74255099297467
6.322378752,1.0003893760517208,-77.9010736567622
6.325508608,1.0003936001964162,-78.05986736047433
6.328638464,1.0003734109155014,-78.21857759670355
6.33176832,1.000329969381262,-78.37683977772592
6.334898176,1.0002663680816488,-78.53439273780879
6.338028032,1.0001860635157926,-78.69088916267366
6.341157888,1.0000943249756464,-78.84622766774798
6.344287744,0.9999967786351791,-79.00022845983906
6.3474176,0.9998993694413763,-79.152838895028
6.350547968,0.9998083749833682,-79.30413839148262
6.353677824,0.9997291977112702,-79.454252997956
6.35680768,0.9996671092776229,-79.60333519874385
6.359937536,0.9996256223774316,-79.75171725019008
6.363067392,0.9996074296075411,-79.8997013388058
6.366197248,0.9996135651630892,-80.04761423216267
6.369327104,0.9996437855865619,-80.19580437190331
6.37245696,0.9996964598370505,-80.34464077021197
6.375586816,0.9997678310447529,-80.49441679920189
6.378716672,0.9998538290786049,-80.64532492163043
6.381846528,0.9999490226863991,-80.79762738494674
6.384976384,1.000047309087076,-80.95124153856797
6.38810624,1.0001428811341035,-81.10637297936836
6.391236096,1.000229488907372,-81.26280433157862
6.394365952,1.0003019893865084,-81.42041337672093
6.39749632,1.0003558960033307,-81.5789352316255
6.400626176,1.0003875948996865,-81.73814766218413
6.403756032,1.0003954878999468,-81.8976080453353
6.406885888,1.0003787919244587,-82.05709752211946
6.410015744,1.0003386767459255,-82.21616615157834
6.4131456,1.0002775667841532,-82.37458615080507
6.416275456,1.0001992656317442,-82.53197861947986
6.419405312,1.0001085425894958,-82.68822269759988
6.422535168,1.0000111606051687,-82.84311433793901
6.425665024,0.9999131014902612,-82.99663421313886
6.42879488,0.9998206012030824,-83.14880873247495
6.431924736,0.999739083313781,-83.29976718607072
6.435054592,0.9996739497693522,-83.44968905895949
6.438184448,0.9996289560253293,-83.59887394945794
6.441314304,0.999607138108626,-83.74758566267687
6.444444672,0.9996097881654351,-83.89617963698578
6.447574528,0.999636712219405,-84.04500685418972
6.450704384,0.999686432851644,-84.19440147791514
6.45383424,0.9997554329213078,-84.34470152037099
6.456964096,0.9998398855207349,-84.49611276603709
6.460093952,0.9999342037417585,-84.6488455248834
6.463223808,1.0000326497940493,-84.80304595790527
6.466353664,1.000129436623078,-84.95864306819192
6.46948352,1.0002180297268823,-85.11558179508769
6.472613376,1.0002931189615545,-85.27370281545745
6.475743232,1.0003501465006186,-85.43284708838085
6.478873088,1.0003856252739267,-85.59266237845307
6.482002944,1.0003969926234348,-85.75286257823943
6.4851328,1.0003838433764265,-85.91306501729007
6.488262656,1.0003469684911814,-86.07292267885724
6.491393024,1.0002886668624407,-86.23217132179816
6.49452288,1.0002123268292902,-86.39043033900302
6.497652736,1.0001229680621155,-86.54751206750326
6.500782592,1.0000258867454677,-86.70333063061037
6.503912448,0.9999272379478185,-86.85775626232862
6.507042304,0.9998332319757017,-87.01083121347291
6.51017216,0.9997494820167787,-87.16260522260414
6.513302016,0.9996814274240734,-87.31335028981307
6.516431872,0.9996330931163313,-87.46330202337911
6.519561728,0.999607673506981,-87.61266618824347
6.522691584,0.9996066913184514,-87.76196790189681
6.52582144,0.999630122456843,-87.91140808584922
6.528951296,0.9996766081425273,-88.06139049544726
6.532081152,0.9997432635701721,-88.21219324372733
6.53521152,0.9998260001885193,-88.36410423229633
6.538341376,0.9999194000249252,-88.51731083722257
6.541471232,1.0000179870670105,-88.67194415950397
6.544601088,1.0001156474584907,-88.82799707358386
6.547730944,1.0002061511398306,-88.9854592702206
6.5508608,1.0002838578048647,-89.14412000104349
6.553990656,1.0003440953630687,-89.3037989383972
6.557120512,1.000382883350529,-89.46425227834943
6.560250368,1.0003979988666456,-89.62508873755809
6.563380224,1.0003885670933361,-89.78599500703093
6.56651008,1.0003550814794837,-89.94663864032718
6.569639936,1.0002993995370943,-90.10668168279476
6.572769792,1.0002253377236425,-90.26577581513902
6.575899648,1.0001373827469717,-90.42374821367675
6.579029504,1.000040701337447,-90.58041113694959
6.582159872,0.9999416462986744,-90.73570285458675
6.585289728,0.9998461612913094,-90.88962629964063
6.588419584,0.9997602842899881,-91.04228341656624
6.59154944,0.9996893730605652,-91.19381267874522
6.594679296,0.9996378008865214,-91.34449966488702
6.597809152,0.9996086781108461,-91.49461646932467
6.600939008,0.9996040048401167,-91.64449618565969
6.604068864,0.9996237484262126,-91.7945663561024
6.60719872,0.9996671848368459,-91.94506125506115
6.610328576,0.9997312369427713,-92.0963845071462
6.613458432,0.9998119746374612,-92.24880463888871
6.616588288,0.9999045822528695,-92.4024530123028
6.619718144,1.0000031808099987,-92.5575198399238
6.622848,1.0001015057549139,-92.71404727585318
6.625977856,1.000193692307056,-92.87191278898109
6.629108224,1.0002739508784222,-93.03110253565013
6.63223808,1.0003371769509035,-93.1913303441325
6.635367936,1.0003795933465451,-93.35232259448861
6.638497792,1.00039860225293,-93.51378878345574
6.641627648,1.0003927367161185,-93.67538175997562
6.644757504,1.0003626854400571,-93.83676799979861
6.64788736,1.0003100439646406,-93.99757900719688
6.651017216,1.0002382960578222,-94.15748380602635
6.654147072,1.0001518001814984,-94.31627247139603
6.657276928,1.0000557360552582,-94.47383784543693
6.660406784,0.9999564424027244,-94.63001503675763
6.66353664,0.9998598198861474,-94.78472439092158
6.666666496,0.9997718128232896,-94.93819809349127
6.669796352,0.9996980988023442,-95.09054115343956
6.672926208,0.9996430088175547,-95.24197301088869
6.676056576,0.99961038976368,-95.39279106509021
6.679186432,0.9996018731047724,-95.54332842827833
6.682316288,0.9996180536060917,-95.69393985343633
6.685446144,0.9996580839142,-95.84497395546161
6.688576,0.9997195634873268,-95.99677962792352
6.691705856,0.9997983507245471,-96.1496387730852
6.694835712,0.9998896842817687,-96.30370376476266
6.697965568,0.9999880232848737,-96.45920551408429
6.701095424,1.0000871262044615,-96.61612797989609
6.70422528,1.000180921273088,-96.77445448509314
6.707355136,1.000263565264534,-96.93408256121879
6.710484992,1.0003299358403084,-97.09481161342961
6.713614848,1.000375831858195,-97.2563627085982
6.716744704,1.0003984581788294,-97.41846787863419
6.71987456,1.0003964231327034,-97.58071183070865
6.723004928,1.0003699022207828,-97.74276730488226
6.726134784,1.0003204203333615,-97.90431976605444
6.72926464,1.0002511314744402,-98.06505621739727
6.732394496,1.0001661731107347,-98.22467003413718
6.735524352,1.000070932693043,-98.38305638533637
6.738654208,0.9999715049670316,-98.54003929529051
6.741784064,0.9998737407063335,-98.69563067905865
6.74491392,0.9997837566842349,-98.84989085581596
6.748043776,0.9997073032667583,-99.00297925721421
6.751173632,0.999648958116383,-99.15511748769676
6.754303488,0.999612643705402,-99.3066184323429
6.757433344,0.999600278779787,-99.45778987167192
6.7605632,0.9996127639303869,-99.60898355940911
6.763693056,0.9996494681154586,-99.76052223341611
6.766822912,0.9997079201158195,-99.91281992474596
6.76995328,0.9997846872069608,-100.06607360700525
6.773083136,0.9998748268760146,-100.2205676318084
6.776212992,0.9999727694628694,-100.37645144664609
6.779342848,1.000072518298674,-100.5337742216994
6.782472704,1.0001677036482346,-100.69249056387463
6.78560256,1.0002526959966171,-100.85254667835338
6.788732416,1.0003220807418207,-101.01374395091464
6.791862272,1.000371418746236,-101.17582903122197
6.794992128,1.0003978276199144,-101.33847228105424
6.798121984,1.0003996886386588,-101.50134367644515
6.80125184,1.0003766549984214,-101.66411419167899
6.804381696,1.000330405702593,-101.8263610322936
6.807511552,1.0002635992930315,-101.98783222690032
6.810641408,1.0001805588765464,-102.14825974879287
6.813771264,1.0000863267864524,-102.3074310830404
6.816901632,0.9999865882739323,-102.46521256568367
6.820031488,0.999887913869865,-102.62163710342043
6.823161344,0.9997960697892458,-102.77668268813528
6.8262912,0.9997169615323673,-102.9305575482614
6.829421056,0.9996554499555321,-103.0833948840162
6.832550912,0.99961530929883,-103.23554620036936
6.835680768,0.9995991937189145,-103.38731114468621
6.838810624,0.9996079629692272,-103.53901422897657
6.84194048,0.9996411516421104,-103.69110076018151
6.845070336,0.999696757228708,-103.84379635154859
6.848200192,0.9997711088290985,-103.99751324009002
6.851330048,0.9998597251322094,-104.15235185357065
6.854459904,0.9999571606483746,-104.30860856852
6.85758976,1.0000572451954444,-104.46628600468094
6.860720128,1.0001541048192208,-104.62537395847116
6.863849984,1.0002411594622387,-104.7858599471211
6.86697984,1.000313455123652,-104.94748923667875
6.870109696,1.000366346282811,-105.11002091552434
6.873239552,1.0003966166859424,-105.27320305632405
6.876369408,1.0004022056435897,-105.43666422545908
6.879499264,1.0003829322024604,-105.60005457492862
6.88262912,1.0003398881330587,-105.76300797188391
6.885758976,1.0002758103587037,-105.92520392941807
6.888888832,1.0001946446227914,-106.08641268714406
6.892018688,1.0001014762247595,-106.24637839324532
6.895148544,1.0000019890196576,-106.40496783838213
6.8982784,0.9999022861915517,-106.56214158171184
6.901408256,0.9998087366187737,-106.71796747968608
6.904538112,0.9997270824782705,-106.87252948070228
6.90766848,0.999662399866106,-107.02609509198113
6.910798336,0.9996186577846293,-107.17885279015317
6.913928192,0.9995985816604233,-107.33123529389499
6.917058048,0.9996035565409266,-107.48350596910757
6.920187904,0.9996331477154736,-107.63601876565893
6.92331776,0.9996856209175871,-107.78917448142666
6.926447616,0.9997574757766723,-107.94321512393317
6.929577472,0.99984468574069,-108.09846013064677
6.932707328,0.9999413850610909,-108.25502084859151
6.935837184,1.0000419010163988,-108.41303058165458
6.93896704,1.000139810985138,-108.5725042648164
6.942096896,1.000229137295735,-108.7333226589532
6.945226752,1.0003042190205822,-108.89536390220708
6.948356608,1.000360626063901,-109.05836238584679
6.951486464,1.00039469074641,-109.22203392441774
6.954616832,1.0004041377127952,-109.38602428325312
6.957746688,1.0003886088241207,-109.55003638227514
6.960876544,1.0003491063457175,-109.71364631827902
6.9640064,1.000287801091319,-109.87653778599523
6.967136256,1.0002088381512446,-110.03845389272223
6.970266112,1.000116705698238,-110.19916656370079
6.973395968,1.0000175065225303,-110.35852408252634
6.976525824,0.9999171286275127,-110.51647857970913
6.97965568,0.9998219245761846,-110.67302107842312
6.982785536,0.9997378635826772,-110.82831140599883
6.985915392,0.9996699252317192,-110.9825629533072
6.989045248,0.9996226074842984,-111.13594644760418
6.992175104,0.9995986558940374,-111.28886599472484
6.99530496,0.9995997265710307,-111.44165674257799
6.998434816,0.9996256264122954,-111.5946172294525
7.001565184,0.9996748113462668,-111.74816651629675
7.00469504,0.9997443192358837,-111.9026117088899
7.007824896,0.9998296854574658,-112.05810436067779
7.010954752,0.9999256399204599,-112.21501561988333
7.014084608,1.0000262539082765,-112.37333077848415
7.017214464,1.000125371613039,-112.53311452490091
7.02034432,1.0002166240933177,-112.69428923974608
7.023474176,1.0002945593245895,-112.85667943658011
7.026604032,1.0003542548367557,-113.02004960223556
7.029733888,1.0003919938421646,-113.18419636802699
7.032863744,1.0004055083505943,-113.34872041933306
7.0359936,1.0003938779925876,-113.51326665414375
7.039123456,1.0003578404121976,-113.67748560412004
7.042253312,1.0002996222130647,-113.84106053667323
7.045383168,1.0002226690226577,-114.00368709237429
7.048513536,1.0001320998676302,-114.16511305245783
7.051643392,1.0000332026471375,-114.3252512711723
7.054773248,0.999932323182897,-114.48391546891611
7.057903104,0.999835549420131,-114.6411822101742
7.06103296,0.9997490149391194,-114.79714412689633
7.064162816,0.9996781176001885,-114.95201569166825
7.067292672,0.9996271031442694,-115.1060552896274
7.070422528,0.9995993562947018,-115.25949620398946
7.073552384,0.9995964769555177,-115.41273112250899
7.07668224,0.999618643162519,-115.56616250247632
7.079812096,0.9996645026711302,-115.72006445364697
7.082941952,0.9997312365354036,-115.87483757608541
7.086071808,0.9998147190207034,-116.03070608369933
7.089201664,0.9999096895652988,-116.18783659779652
7.09233152,1.0000104134773955,-116.34642478681808
7.095461888,1.0001104534769032,-116.5064697748142
7.098591744,1.0002037463430893,-116.66793359458532
7.1017216,1.000284279487107,-116.83065251958357
7.104851456,1.0003474056245847,-116.9944434408042
7.107981312,1.0003889062007978,-117.15896897724711
7.111111168,1.0004064312372043,-117.32396808238812
7.114241024,1.000398552011748,-117.48904460525934
7.11737088,1.0003660973371251,-117.6538603939958
7.120500736,1.0003109535684631,-117.81806001130597
7.123630592,1.000236640690248,-117.9813468340085
7.126760448,1.0001474337455774,-118.14348002009375
7.129890304,1.000049074171662,-118.30430476535271
7.13302016,0.9999477424319887,-118.46371191558791
7.136150016,0.9998496943849774,-118.62165528688341
7.139279872,0.9997607941498959,-118.77828579133246
7.14241024,0.9996867930555766,-118.93379233232042
7.145540096,0.999632336683926,-119.08838308791633
7.148669952,0.9996005821571923,-119.24235168374088
7.151799808,0.9995937489404904,-119.39609060748374
7.154929664,0.9996121549825295,-119.54990205980401
7.15805952,0.9996545627912752,-119.70420172046263
7.161189376,0.9997184409930812,-119.8592482341204
7.164319232,0.9997999023777043,-120.01537387336867
7.167449088,0.9998937299523906,-120.17276208160558
7.170578944,0.9999942975007909,-120.33158278021473
7.1737088,1.0000952209280514,-120.49183799770502
7.176838656,1.0001902689212265,-120.65356849419717
7.179968512,1.000273557009958,-120.816604892259
7.183098368,1.0003399246649485,-120.98070807572456
7.186228736,1.000385217554352,-121.14564996837267
7.189358592,1.000406568910868,-121.31105509871647
7.192488448,1.0004027628763457,-121.47661356791012
7.195618304,1.0003740422128669,-121.64196261593602
7.19874816,1.0003220960992802,-121.80676961992756
7.201878016,1.000250207566867,-121.97068556649346
7.205007872,1.000162724715884,-122.13347547200503
7.208137728,1.0000651562478353,-122.29497876983152
7.211267584,0.9999635237901601,-122.45503559422522
7.21439744,0.9998641139251462,-122.6136415429773
7.217527296,0.9997731870745636,-122.77094352332627
7.220657152,0.9996963474061104,-122.92704895398694
7.223787008,0.9996382540697161,-123.08219578167223
7.226916864,0.999602629429492,-123.23667652072164
7.23004672,0.999591745604963,-123.39080566097482
7.233177088,0.9996061437525535,-123.5450258900114
7.236306944,0.9996450436659484,-123.69964025131824
7.2394368,0.9997060385545594,-123.85497993412781
7.242566656,0.9997853271899442,-124.01133909694707
7.245696512,0.9998778695875233,-124.16896546373245
7.248826368,0.9999780897437335,-124.32798795964354
7.251956224,1.0000796811258226,-124.48848181038909
