freq,mag,phase
6.0,1.0000529987439593,-157.47197892984838
6.00274176,1.0000806735185235,-157.63033622775373
6.005483008,1.0001033469483254,-157.78903886712504
6.008224768,1.0001199671249916,-157.94803718751834
6.010966528,1.000129550894878,-158.10724355611256
6.013707776,1.0001314172936824,-158.26649741859583
6.016449536,1.000125636840797,-158.42575738682194
6.019191296,1.0001122575377124,-158.58486250628187
6.021933056,1.0000924606773496,-158.74373453567367
6.024674304,1.0000672178210883,-158.90226637858163
6.027416064,1.000038273398661,-159.06042254273797
6.030157824,1.000007223620759,-159.21813959157993
6.032899072,0.999976191957214,-159.37540664987597
6.035640832,0.9999471234202278,-159.5322678606863
6.038382592,0.9999217539418463,-159.68870142894394
6.04112384,0.999901665421603,-159.84482683403974
6.0438656,0.9998881625488503,-160.00069996881695
6.04660736,0.9998820845329544,-160.1564314204694
6.04934912,0.9998837625386663,-160.31213490862027
6.052090368,0.9998931518847403,-160.46795753257135
6.054832128,0.9999096813135514,-160.62391032108823
6.057573888,0.999932175253097,-160.78017700133555
6.060315136,0.9999594542534639,-160.93680212054485
6.063056896,0.9999896162011738,-161.0938057781963
6.065798656,1.0000209816897916,-161.25128925817333
6.068539904,1.0000514167291414,-161.4092214596287
6.071281664,1.0000789417695792,-161.5675451194881
6.074023424,1.0001020772874862,-161.72624629287952
6.076764672,1.0001192317328584,-161.88525426633902
6.079506432,1.0001294155570484,-162.04445696349066
6.082248192,1.0001318400112065,-162.20372554752453
6.084989952,1.0001265587793964,-162.36301200256165
6.0877312,1.0001137754345097,-162.52213691317766
6.09047296,1.0000943460742884,-162.6810582033704
6.09321472,1.0000692509726083,-162.83966231671292
6.095955968,1.000040407717551,-162.99783043013542
6.098697728,1.0000094210791497,-163.15560336412975
6.101439488,0.9999783171504005,-163.31292996146308
6.104180736,0.9999489171810547,-163.4697954165393
6.106922496,0.9999231074908491,-163.6262916953084
6.109664256,0.9999026328275475,-163.7824553467227
6.112405504,0.9998885642340828,-163.93835857457796
6.115147264,0.9998819213717486,-164.09408605184353
6.117889024,0.9998830577332617,-164.24981014880476
6.120630784,0.9998919806600209,-164.4056029747475
6.123372032,0.9999080515855154,-164.56155807522896
6.126113792,0.9999302576022131,-164.7178128074026
6.128855552,0.9999572266682901,-164.87440365170687
6.1315968,0.9999873477179436,-165.03142073489278
6.13433856,1.000018743844217,-165.18886965104053
6.13708032,1.0000493061950952,-165.34676781369748
6.139821568,1.000077277702867,-165.5051250349571
6.142563328,1.0001008486553387,-165.663799029453
6.145305088,1.000118518245247,-165.8228094207135
6.148046848,1.0001292617779183,-165.98199791599674
6.150788096,1.0001321839237156,-166.14129797980078
6.153529856,1.0001275652243176,-166.30060930684473
6.156271616,1.000115194231296,-166.45976870980405
6.159012864,1.0000960413314885,-166.61871917669498
6.161754624,1.0000713211012993,-166.7773407291237
6.164496384,1.0000426207748432,-166.93558095764635
6.167237632,1.000011680061519,-167.09337629293802
6.169979392,0.9999803944128027,-167.25075875516075
6.172721152,0.999950712405776,-167.40766876801788
6.1754624,0.9999245918210505,-167.56419878057972
6.17820416,0.9999036179368048,-167.72036610806157
6.18094592,0.9998890360338353,-167.876311223261
6.18368768,0.9998818048461643,-168.03206090800933
6.186428928,0.9998824465280541,-168.18777911476874
6.189170688,0.9998907763005165,-168.34356406517517
6.191912448,0.9999063768693747,-168.499516384721
6.194653696,0.9999282921677944,-168.65574011088572
6.197395456,0.9999550397835775,-168.8123397654708
6.200137216,0.9999850845143042,-168.9693173280484
6.202878464,1.000016452521855,-169.1267343788809
6.205620224,1.000047309517545,-169.2846151577413
6.208361984,1.000075552441625,-169.44293873674243
6.211103744,1.000099550903118,-169.60161244397133
6.213844992,1.000117642211417,-169.76062607650857
6.216586752,1.00012891011353,-169.91980733176405
6.219328512,1.0001325425263652,-170.0791375651016
6.22206976,1.0001284023957115,-170.23843298182254
6.22481152,1.0001164875744737,-170.3976362157682
6.22755328,1.000097771094291,-170.5565997746017
6.230294528,1.0000733731758429,-170.71526195064618
6.233036288,1.0000448964676254,-170.87353458818896
6.235778048,1.0000138908291039,-171.03138520864914
6.238519296,0.999982528972267,-171.1888152897501
6.241261056,0.9999526373805943,-171.34575107838307
6.244002816,0.9999260548468158,-171.50231557473964
6.246744576,0.9999046753260092,-171.65850057700413
6.249485824,0.9998895328861664,-171.8144707742894
6.252227584,0.9998816588154512,-171.97023298902027
6.254969344,0.9998817693670613,-172.1259494996339
6.257710592,0.9998895827096433,-172.28175949018265
6.260452352,0.9999046573649296,-172.4376751353036
6.263194112,0.9999262635548934,-172.59389011406338
6.26593536,0.9999528167610238,-172.75043194705356
6.26867712,0.9999827174550482,-172.9073939578527
6.27141888,1.0000141901082755,-173.06482052121888
6.274160128,1.0000451384320448,-173.22265559261146
6.276901888,1.0000737677330553,-173.38095699245514
6.279643648,1.0000981868443444,-173.53962577080222
6.282385408,1.0001168552237674,-173.69859017666988
6.285126656,1.0001286373960614,-173.85781167715132
6.287868416,1.0001329156627539,-174.01712903960072
6.290610176,1.000129219989863,-174.17644899852286
6.293351424,1.0001178674780267,-174.33566301212704
6.296093184,1.0000995962126715,-174.49468407069742
6.298834944,1.000075507749694,-174.6533748445105
6.301576192,1.000047106583442,-174.8116659468406
6.304317952,1.000016237094514,-174.9695684950267
6.307059712,0.9999846921784664,-175.12700775267794
6.309801472,0.9999545547114714,-175.28398722442702
6.31254272,0.9999275539804833,-175.4405918387967
6.31528448,0.9999056774539661,-175.5968144400104
6.31802624,0.999890073278582,-175.75278604463176
6.320767488,0.9998817136926929,-175.90855865494237
6.323509248,0.9998810666216892,-176.06426380359932
6.326251008,0.9998884880938399,-176.22004803810236
6.328992256,0.999903140682157,-176.37597409981768
6.331734016,0.9999242740338885,-176.5321474205837
6.334475776,0.9999507136714463,-176.6887002101452
6.337217024,0.9999804839183231,-176.84563195889154
6.339958784,1.0000119244183145,-177.00299051694643
6.342700544,1.0000431304609878,-177.16084222755813
6.345442304,1.0000719726493223,-177.31910743602788
6.348183552,1.0000968131182568,-177.47774717767774
6.350925312,1.0001160233725472,-177.63670010247918
6.353667072,1.0001283819978521,-177.7959036492128
6.35640832,1.0001331714907524,-177.95523326766693
6.35915008,1.0001300165796294,-178.11454935144795
6.36189184,1.0001192495522326,-178.27378886077224
6.364633088,1.000101398529721,-178.43282652371815
6.367374848,1.0000776230097497,-178.59153625146848
6.370116608,1.000049375374578,-178.74989651347272
6.372858368,1.0000184836092418,-178.90781778775383
6.375599616,0.999986853558942,-179.0652936688035
6.378341376,0.9999565107361562,-179.22230936208723
6.381083136,0.9999292231385846,-179.37893507817515
6.383824384,0.9999068432664944,-179.5351596797154
6.386566144,0.9998907276937808,-179.69115328079985
6.389307904,0.9998816777102373,-179.8469090803248
6.392049152,0.9998806129696061,179.99734550530107
6.394790912,0.9998874127664874,179.84160912856697
6.397532672,0.9999015564653917,179.68570533063314
6.40027392,0.9999223708596675,179.52951028715145
6.40301568,0.9999484089264328,179.37301922741247
6.40575744,0.9999781904792392,179.2161209789869
6.4084992,1.0000097007900077,179.0587718519386
6.411240448,1.0000409815471278,178.9009624247151
6.413982208,1.000070174676013,178.7427370093671
6.416723968,1.000095477910761,178.5841280745665
6.419465216,1.0001151520432834,178.4251467417047
6.422206976,1.0001280241270498,178.2659684945633
6.424948736,1.0001334286915993,178.10665599247423
6.427689984,1.0001308367054218,177.94731938050168
6.430431744,1.0001204107874528,177.78807195771583
6.433173504,1.000103015108666,177.62901592517883
6.435915264,1.0000797166788593,177.4702742690476
6.438656512,1.0000515769491036,177.31187522200293
6.441398272,1.0000207679419268,177.15393680488214
6.444140032,0.9999890440483461,176.99642294090143
6.44688128,0.9999584929870234,176.8393935609014
6.44962304,0.9999308730497529,176.68275214782176
6.4523648,0.9999080416173023,176.5264963870165
6.455106048,0.9998912277179898,176.37049194232844
6.457847808,0.9998817575807991,176.21469857793775
6.460589568,0.9998801319254574,176.05897495338618
6.463330816,0.9998863137919224,175.90324942237342
6.466072576,0.9999001210277283,175.74734261570163
6.468814336,0.999920443717979,175.59121254807718
6.471556096,0.9999462668582023,175.4347544145004
6.474297344,0.9999758577817497,175.27787685685638
6.477039104,1.0000073250156687,175.12056583392572
6.479780864,1.0000388883791258,174.96281350698663
6.482522112,1.0000683714615934,174.8045976799724
6.485263872,1.0000940024890612,174.64601609053656
6.488005632,1.0001141704901488,174.48705867128334
6.49074688,1.0001277082660036,174.32790855089706
6.49348864,1.000133616255026,174.16860038517237
6.4962304,1.0001316011119947,174.00923683952752
6.498971648,1.0001217532011655,173.84999242172066
6.501713408,1.0001047272336638,173.69091794854742
6.504455168,1.0000815987699903,173.53214994887279
6.507196928,1.0000538400042702,173.37373522838317
6.509938176,1.0000230872193288,173.21575368813788
6.512679936,0.9999912145853871,173.0582235578678
6.515421696,0.999960473186599,172.90112741104352
6.518162944,0.9999324893593183,172.74448856820433
6.520904704,0.9999091917462719,172.58819633353673
6.523646464,0.9998919113620687,172.43220068041936
6.526387712,0.9998818277995655,172.2764188494808
6.529129472,0.9998796076709884,172.1207137644801
6.531871232,0.999885264106389,171.96498035121326
6.534612992,0.9998985439767352,171.80910773714504
6.53735424,0.9999185608913131,171.6530052888452
6.540096,0.9999440967439733,171.49657711118917
6.54283776,0.9999735744089401,171.33975521717122
6.545579008,1.0000050881185734,171.18246327534717
6.548320768,1.0000367539412254,171.02475260179673
6.551062528,1.000066488728268,170.86659027140266
6.553803776,1.000092525220666,170.7080028811233
6.556545536,1.0001132604164669,170.54910316676114
6.559287296,1.0001272062214301,170.3899565121019
6.562028544,1.000133798968189,170.2306374362475
6.564770304,1.0001322645466204,170.07130391141652
6.567512064,1.0001230356232422,169.91200723101124
6.570253824,1.0001064228292598,169.75296871057705
6.572995072,1.000083653183266,169.59414830369343
6.575736832,1.0000560437709733,169.43574212549242
6.578478592,1.0000253348307,169.27771582209454
6.58121984,0.9999934837785394,169.1201723730098
6.5839616,0.9999624993653669,168.96305240975389
6.58670336,0.9999341738492367,168.80638142569484
6.589444608,0.9999103777195406,168.6500929527044
6.592186368,0.9998925786282111,168.4940846081272
6.594928128,0.9998818828223927,168.33829314118833
6.597669888,0.9998790729346645,168.1825978783224
6.600411136,0.9998842237224497,168.02689506699122
6.603152896,0.9998969129293285,167.87105630087655
6.605894656,0.9999166637296096,167.71497378010346
6.608635904,0.9999419026496073,167.5585760061718
6.611377664,0.9999711995448967,167.4017886608041
6.614119424,1.0000026825516737,167.24459014188326
6.616860672,1.0000345648868436,167.08687638750249
6.619602432,1.0000645413109814,166.92875064206325
6.622344192,1.0000910612969944,166.7702154608046
6.62508544,1.0001121577067273,166.61134305930355
6.6278272,1.000126717854689,166.45218737853872
6.63056896,1.000133856368673,166.29290423707377
6.63331072,1.000133028724234,166.13356266847424
6.636051968,1.0001241972337769,165.97429511298944
6.638793728,1.000108148544098,165.81520844035927
6.641535488,1.000085690088243,165.6563868584824
6.644276736,1.0000583458985157,165.49794361464555
6.647018496,1.0000276603284481,165.33990269656957
6.649760256,0.9999956234182998,165.18232506898153
6.652501504,0.9999643910902029,165.02519527654152
6.655243264,0.9999358376602231,164.8685072113795
6.657985024,0.9999115231047081,164.71219258959098
6.660726272,0.9998933018210945,164.55620273402434
6.663468032,0.999882161976204,164.40041583363328
6.666209792,0.9998786988156151,164.24473235492204
6.668951552,0.9998833301298448,164.0890428236591
6.6716928,0.9998955288453232,163.9332327548625
6.67443456,0.99991480449298,163.77720893054638
6.67717632,0.9999397696747171,163.62086242833522
6.679917568,0.9999688759656238,163.46409462328307
6.682659328,1.0000004344594393,163.30689588389203
6.685401088,1.0000323643190865,163.14925937223794
6.688142336,1.0000626124426597,162.9911720242905
6.690884096,1.0000895437498856,162.83266969582132
6.693625856,1.0001112108886467,162.67383179370566
6.696367616,1.0001262670692155,162.5147153463522
6.699108864,1.000133968788901,162.35542352442923
6.701850624,1.000133721651059,162.1961069455108
6.704592384,1.00012552974112,162.03682699065757
6.707333632,1.0001097988362215,161.8777372414598
6.710075392,1.0000876445655682,161.71889587169653
6.712817152,1.0000606232011935,161.56042442150672
6.7155584,1.000029988020005,161.4023752104585
6.71830016,0.9999980873919003,161.2447741976299
6.72104192,0.9999665798942095,161.08762638282798
6.723783168,0.9999375975166274,160.9309219295191
6.726524928,0.9999129175223578,160.7746072444229
6.729266688,0.9998941354464582,160.61860968648824
6.732008448,0.9998823299359715,160.46281057558386
6.734749696,0.9998783330265665,160.30715530603933
6.737491456,0.9998822910948996,160.15149913389382
6.740233216,0.9998941439039561,159.99571433456669
6.742974464,0.9999129424187935,159.83970669877607
6.745716224,0.9999376772353522,159.68340344025208
6.748457984,0.9999666130910698,159.52670802756498
6.751199232,0.9999980991361638,159.36955163495622
6.753940992,1.0000301631851853,159.21196304658642
6.756682752,1.0000608134275892,159.0539146187583
6.759424512,1.0000879611456603,158.8954685036883
6.76216576,1.0001101199903928,158.7366515550366
6.76490752,1.00012581773555,158.5775616140856
6.76764928,1.0001340496546087,158.41829005304794
6.770390528,1.0001343359369024,158.25896020043496
6.773132288,1.0001266482149807,158.09970050061509
6.775874048,1.000111423806606,157.94058814466104
6.778615296,1.0000896430299677,157.78174872356263
6.781357056,1.0000627996658205,157.62326946800368
6.784098816,1.0000323235325672,157.46520050081114
6.786840064,1.0000002535178771,157.3075966030888
6.789581824,0.9999686443451639,157.15043112473884
6.792323584,0.999939283075063,156.99369806236263
6.795065344,0.9999141496886881,156.83738424459395
6.797806592,0.9998948862008674,156.6813763520525
6.800548352,0.999882557816512,156.52560677427425
6.803290112,0.9998779527372822,156.36995282770138
6.80603136,0.9998814426172078,156.2143241323173
6.80877312,0.9998926475478368,156.05856987311404
6.81151488,0.9999110863756888,155.90261424616293
6.814256128,0.9999354192932829,155.74633426048075
6.816997888,0.9999642891624474,155.58968566897497
6.819739648,0.9999958055507554,155.43260917716526
6.822480896,1.0000279650588753,155.2750598121176
6.825222656,1.0000587997985446,155.117069204346
6.827964416,1.0000864207488211,154.95864925173007
6.830706176,1.0001090191781967,154.79984870274149
6.833447424,1.0001251791669823,154.64079406262448
6.836189184,1.0001340683927697,154.4815537499285
6.838930944,1.0001349199711735,154.3222413765445
6.841672192,1.00012774590049,154.16297710251237
6.844413952,1.0001130270109178,154.00387775944938
6.847155712,1.0000917250304349,153.84504043797025
6.84989696,1.0000650209022983,153.68654294997563
6.85263872,1.0000346797962358,153.52845619386142
6.85538048,1.0000025469856433,153.37081862304763
6.85812224,0.999970754735379,153.21365162110814
6.860863488,0.9999411456001355,153.05691214989798
6.863605248,0.9999156444686451,152.90059503832254
6.866347008,0.9998956820509625,152.74457989353627
6.869088256,0.999882876690155,152.58883290276106
6.871830016,0.9998777051215466,152.43319636901646
6.874571776,0.9998805556851312,152.27758456396018
6.877313024,0.9998912598046982,152.12187916784526
6.880054784,0.9999093245604361,151.96596278432037
6.882796544,0.9999333741957027,151.80974222718217
6.885537792,0.9999619702980942,151.65312484599255
6.888279552,0.999993433376763,151.49609453204275
6.891021312,1.0000257309979814,151.33860738668056
6.893763072,1.0000567283952393,151.1806439543761
6.89650432,1.0000847721356154,151.02229614399738
6.89924608,1.0001078233409273,150.86354529739776
6.90198784,1.0001246269477209,150.70450810392379
6.904729088,1.0001340302889656,150.54529466095119
6.907470848,1.0001355686913596,150.38601188151313
6.910212608,1.0001288968777717,150.22675917107912
6.912953856,1.0001146469510322,150.0676528415558
6.915695616,1.0000936290197047,149.90879655746684
6.918437376,1.0000672698604889,149.7502861591735
6.921179136,1.0000371070473582,149.59219902277493
6.923920384,1.0000048073743437,149.43453909009742
6.926662144,0.999972898195609,149.27734865833386
6.929403904,0.9999429674277535,149.12062778903987
6.932145152,0.9999170446090838,148.96428914261497
6.934886912,0.9998966929188041,148.80828578926366
6.937628672,0.9998832213689535,148.65255058971843
6.94036992,0.9998774224351167,148.49694254171112
6.94311168,0.9998797401882182,148.34135602644568
6.94585344,0.9998900382414363,148.18567640886653
6.948594688,0.999907494711741,148.02979588255445
6.951336448,0.9999311934704224,147.87364232944543
6.954078208,0.9999596994249331,147.71709549561473
6.956819968,0.9999910073687486,147.5601259361632
6.959561216,1.0000234391895402,147.40267417140078
6.962302976,1.0000547977814038,147.24479003600908
6.965044736,1.0000831417734337,147.08645449143768
6.967785984,1.0001067693310413,146.92775791460207
6.970527744,1.0001239903446133,146.76876208290525
6.973269504,1.0001340334291968,146.60958326378937
6.976010752,1.0001360865676467,146.4503078479749
6.978752512,1.000130014706069,146.29106053485197
6.981494272,1.0001162377883435,146.13194709537893
6.984236032,1.0000956327612218,145.9730879452871
6.98697728,1.000069518024271,145.8145891568009
6.98971904,1.0000392756052539,145.6564658472125
6.9924608,1.0000072516249758,145.49883428374733
6.995202048,0.9999750967029337,145.3416278151244
6.997943808,0.9999448511024798,145.18488737912332
7.000685568,0.9999184686457152,145.02856036303754
7.003426816,0.9998975973434355,144.87256176478468
7.006168576,0.9998835715170497,144.71684025493795
7.008910336,0.9998771640786308,144.56123819087728
7.011651584,0.9998788439322654,144.40568971575607
7.014393344,0.9998887308280554,144.25004700292774
7.017135104,0.9999057527103492,144.0942297579835
7.019876864,0.999929199778541,143.93811234338546
7.022618112,0.9999574897537074,143.7816157289316
7.025359872,0.9999887175160801,143.62470924889422
7.028101632,1.0000211952870617,143.46732749858404
7.03084288,1.0000527879548424,143.3094908283273
7.03358464,1.0000815713125162,143.15121889402494
7.0363264,1.0001054491015828,142.99256559454474
7.039067648,1.000123313644035,142.833609710639
7.041809408,1.0001339648191097,142.67446885921836
7.044551168,1.0001365485514782,142.51519862347294
7.047292416,1.0001310330429758,142.35595985151667
7.050034176,1.0001178769010213,142.1968803838173
7.052775936,1.0000974892503445,142.03801798076566
7.055517696,1.0000717414913287,141.87950562121435
7.058258944,1.0000417794038818,141.7213849688317
7.061000704,1.0000096357775545,141.56372170998532
7.063742464,0.9999772921744294,141.40651991178504
7.066483712,0.9999467581257105,141.24975557799948
7.069225472,0.9999199534296256,141.09342356677152
7.071967232,0.9998986595250202,140.93744308015545
7.07470848,0.9998839940167734,140.7817335216986
7.07745024,0.9998769483228412,140.62618181686088
7.080192,0.9998781597333379,140.47065331094743
7.08293376,0.999887384686951,140.3150549686453
7.085675008,0.999903993261312,140.15927872838785
7.088416768,0.999927009524781,140.00322526116216
7.091158528,0.999955133686322,139.84679146092438
7.093899776,0.9999863740151889,139.68993734144573
7.096641536,1.0000189468678915,139.53261348862443
7.099383296,1.0000507417309448,139.3748338008515
