freq,mag,phase
6.0,1.000008869517835,24.304117999233984
6.006938624,0.9998537741439666,24.120951410773433
6.013876736,0.9997064645251323,23.939806405358002
6.02081536,0.9995750837272309,23.760628946273417
6.027753472,0.9994672216419483,23.58305692221814
6.034692096,0.9993889886549779,23.406733021701797
6.04163072,0.9993447585972604,23.231252018746112
6.048568832,0.9993370699389713,23.056100694196804
6.055507456,0.9993663493950408,22.880773119964434
6.062445568,0.9994310787548674,22.704818604564334
6.069384192,0.9995274716793714,22.527743861045337
6.076322816,0.9996502729573323,22.3491477118722
6.083260928,0.9997923271545187,22.168734795677686
6.090199552,0.9999459565554676,21.986312499207997
6.097137664,1.000102313593182,21.801664712514114
6.104076288,1.0002525596245861,21.61497020021157
6.111014912,1.0003882872707217,21.426282152569655
6.117953024,1.000501951421258,21.23586027435571
6.124891648,1.0005870276709439,21.044080576880944
6.13182976,1.00063874783058,20.851331815858455
6.138768384,1.0006542100114362,20.658160660014843
6.145707008,1.0006324123501629,20.464964084074204
6.15264512,1.000574639255761,20.272300716561524
6.159583744,1.000484228890118,20.08065549349138
6.166522368,1.0003659752778213,19.89042382247081
6.17346048,1.0002267233276343,19.701892356627873
6.180399104,1.0000742316933793,19.515378783072514
6.187337216,0.9999171106158705,19.330924303863963
6.19427584,0.9997641661419062,19.14868298515964
6.201214464,0.9996240430873472,18.968299695933762
6.208152576,0.9995046554921317,18.789755217109203
6.2150912,0.9994127359158155,18.612651410391624
6.222029312,0.9993534946124425,18.436544397294988
6.228967936,0.9993302224116055,18.26100312415307
6.23590656,0.9993444728366305,18.08554135241391
6.242844672,0.9993952655660041,17.909561257280135
6.249783296,0.9994797016606206,17.732658137845448
6.256721408,0.999593314699249,17.55441973663653
6.263660032,0.9997294305436607,17.374432852747837
6.270598656,0.9998806167629374,17.192491635294964
6.277536768,1.0000381898076907,17.008386429400918
6.284475392,1.0001933877327172,16.822147925802803
6.291413504,1.000337360527211,16.633819429991334
6.298352128,1.00046211205801,16.443652349253696
6.305290752,1.0005605622704272,16.251948222756525
6.312228864,1.0006271701531906,16.059100481204407
6.319167488,1.0006581192425785,15.865514391874555
6.3261056,1.0006516973413426,15.671801170205299
6.333044224,1.0006082283865128,15.478420873918214
6.339982848,1.0005301125641028,15.285787292629514
6.34692096,1.0004217703018974,15.094478051517909
6.353859584,1.0002892277460131,14.904772530522004
6.360797696,1.0001399691432555,14.716978129995647
6.36773632,0.9999822891672046,14.531248886566102
6.374674944,0.9998252263896701,14.34769871734254
6.381613056,0.9996774723985337,14.166179170842845
6.38855168,0.9995473502515232,13.9865820362396
6.395489792,0.9994424026871274,13.808573575701795
6.402428416,0.9993684456020415,13.63179046687201
6.40936704,0.9993296411787556,13.455751239032029
6.416305152,0.9993282674127436,13.279969870561741
6.423243776,0.9993643334943126,13.103949738362248
6.430181888,0.9994359600312197,12.927199582323398
6.437120512,0.9995390724627732,12.749200897196914
6.444059136,0.9996678296158673,12.56962385116616
6.450997248,0.9998150993094492,12.388128362517383
6.457935872,0.9999723934749515,12.20453842414998
6.464874496,1.0001311224700036,12.018780212868691
6.471812608,1.0002821336507444,11.830863360557473
6.478751232,1.0004170190210724,11.640962900169121
6.485689344,1.0005281707837945,11.449414984928081
6.492627968,1.000609281782297,11.256508509134315
6.499566592,1.0006557449598703,11.06268896107072
6.506504704,1.0006650569044166,10.868459581637074
6.513443328,1.000636517306951,10.674390111219694
6.52038144,1.0005718252425524,10.480934377997194
6.527320064,1.0004745773979966,10.28855029417588
6.534258688,1.0003501231508423,10.097635728624047
6.5411968,1.000205590044806,9.90859172975876
6.548135424,1.0000488856473368,9.721570739521722
6.555073536,0.9998890353846603,9.536690991371849
6.56201216,0.9997349373960229,9.35395748374198
6.568950784,0.9995953117462283,9.173210461266159
6.575888896,0.9994780365809192,8.994239514205674
6.58282752,0.9993897236726976,8.816643041666577
6.589765632,0.9993354592835919,8.640028444952863
6.596704256,0.9993181880973988,8.463890778210382
6.60364288,0.9993390904673283,8.28765293494828
6.610580992,0.9993967403168602,8.110947423218962
6.617519616,0.9994882724778819,7.933176561373654
6.624457728,0.9996082359939205,7.753938933269
6.631396352,0.9997500577810011,7.572876743489525
6.638334976,0.99990563649544,7.3897654866933875
6.645273088,1.0000664027435635,7.204519004000445
6.652211712,1.0002230745768885,7.017009166369002
6.659149824,1.0003670125764206,6.827477861965604
6.666088448,1.000490009787076,6.636073459632282
6.673027072,1.000585049042695,6.443192062785164
6.679965184,1.0006469838479188,6.2491840625121515
6.686903808,1.0006722323153863,6.054605496464734
6.69384192,1.0006592149105697,5.859897265674407
6.700780544,1.0006088013384902,5.665591610667773
6.707719168,1.000523704004552,5.472218911282963
6.71465728,1.0004087104543806,5.2801559276567485
6.721595904,1.0002702718082763,5.089871863927384
6.728534016,1.0001161681858315,4.9015229045617925
6.73547264,0.9999550156531596,4.715294385467905
6.742411264,0.999796013324928,4.531266378387606
6.749349376,0.9996479730236595,4.349334829822702
6.756288,0.9995192081671775,4.1692706688113175
6.763226112,0.9994172099461293,3.99081775112449
6.770164736,0.9993476277996656,3.8134771610472264
6.77710336,0.9993144006269397,3.6368348442136984
6.784041472,0.9993194904239433,3.460386618224514
6.790980096,0.9993625432771396,3.2835914383169222
6.79791872,0.9994411686262048,3.105964486362948
6.804856832,0.9995510564192425,2.92702205194871
6.811795456,0.9996859939028813,2.7463698380921477
6.818733568,0.9998383427913794,2.5637302355602944
6.825672192,0.999999555955447,2.37895576368529
6.832610816,1.0001605582601583,2.1919375564359536
6.839548928,1.0003122615451912,2.002782282738534
6.846487552,1.0004462468349007,1.811649459482376
6.853425664,1.0005547784697235,1.618815551991587
6.860364288,1.00063179134469,1.4246980935415865
6.867302912,1.00067298799157,1.2297573577173093
6.874241024,1.000675945829844,1.0345076818101229
6.881179648,1.0006406193643742,0.8394540575358486
6.88811776,1.000568754912457,0.6451380106908127
6.895056384,1.000464570374922,0.4519551681681965
6.901995008,1.0003337449750374,0.26038701969407
6.90893312,1.0001836290743504,0.07072649934452381
6.915871744,1.0000229408342445,-0.11683736465597383
6.922809856,0.9998602463193733,-0.3021945806646743
6.92974848,0.9997050092392664,-0.48539652654841037
6.936687104,0.99956601712371,-0.6666035807198954
6.943625216,0.9994509297858063,-0.8460664567036636
6.95056384,0.9993663174785185,-1.0241716003858587
6.957501952,0.9993171510772311,-1.2014168847466822
6.964440576,0.9993060954087951,-1.3782223259965978
6.9713792,0.9993336533804738,-1.5551557450242461
6.978317312,0.9993985828955797,-1.7327449225582896
6.985255936,0.9994971037729824,-1.9114657684009368
6.992194048,0.9996236122820038,-2.0917626503336337
6.999132672,0.9997711722492748,-2.273907987696197
7.006071296,0.9999313472914451,-2.458239620051757
7.013009408,1.000095110325467,-2.644785815158216
7.019948032,1.0002533886189509,-2.833514896339916
7.026886144,1.0003971458175283,-3.0243794634339447
7.033824768,1.000518302056253,-3.2170435029738957
7.040763392,1.0006099677835956,-3.411189894533296
7.047701504,1.0006671261973372,-3.6063770228600407
7.054640128,1.0006864732064633,-3.8020873909944464
7.06157824,1.0006668473682048,-3.9978533088663526
7.068516864,1.0006092306251204,-4.193104253608588
7.075455488,1.0005170445122384,-4.387319041491932
7.0823936,1.0003952709128028,-4.580109963684919
7.089332224,1.00025081488711,-4.771113459174435
7.096270848,1.0000918388398987,-4.9600558758922135
7.10320896,0.999927132883224,-5.146790515386231
7.110147584,0.9997662195487408,-5.331301212024178
7.117085696,0.9996177794642387,-5.5137400422434695
7.12402432,0.9994906089754638,-5.694297437088922
7.130962944,0.9993916339847265,-5.873291759201122
7.137901056,0.9993264385835122,-6.051211514672894
7.14483968,0.999298915143999,-6.22847755713045
7.151777792,0.999310519526973,-6.405686467477374
7.158716416,0.9993607409769131,-6.583285975344972
7.16565504,0.9994466100502019,-6.7618803274244454
7.172593152,0.9995634198700207,-6.941816252493743
7.179531776,0.9997045182334001,-7.123616816437803
7.186469888,0.9998620835476236,-7.307447870537125
7.193408512,1.0000273009332215,-7.493474825930336
7.200347136,1.0001906093304218,-7.68181533506293
7.207285248,1.0003430496978487,-7.872306749631423
7.214223872,1.0004758857533482,-8.064751015993515
7.221161984,1.0005817466387505,-8.258871396709567
7.228100608,1.0006547030223816,-8.454211197563009
7.235039232,1.0006904535468668,-8.650359833041744
7.241977344,1.0006869306073263,-8.846748043631662
7.248915968,1.0006445670325719,-9.042802446970935
7.25585408,1.0005654672109399,-9.238076723449506
7.262792704,1.0004542755461037,-9.432056757049354
7.269731328,1.0003169881686196,-9.624375356052076
7.27666944,1.0001613245614356,-9.814698554435338
7.283608064,0.9999962804829712,-10.002850021474933
7.290546176,0.9998308528258167,-10.188755172391055
7.2974848,0.9996744784397897,-10.372455375121598
7.304423424,0.9995360487415725,-10.55420473315487
7.311361536,0.9994231779299699,-10.73421343040677
7.31830016,0.9993425255453073,-10.912874984932166
7.325238272,0.9992984585149054,-11.090752334753619
7.332176896,0.9992935471548791,-11.268272398788573
7.33911552,0.9993281548885592,-11.446035238983287
7.346053632,0.9994004466336501,-11.62453370434915
7.352992256,0.9995060902457624,-11.804281570787516
7.359930368,0.9996392690779735,-11.98565938119892
7.366868992,0.9997927512928465,-12.16902465309704
7.373807616,0.9999574977395455,-12.35458002639049
7.380745728,1.0001244784297945,-12.542460858546375
7.387684352,1.0002843380100426,-12.732547064156114
7.394622976,1.0004278998498348,-12.924760954464531
7.401561088,1.00054718025873,-13.118787465619452
7.408499712,1.0006354933870842,-13.31421992374205
7.415437824,1.0006876465688683,-13.51068556976346
7.422376448,1.0007008794624805,-13.707601766834921
7.429315072,1.000674359025679,-13.90442666247106
7.436253184,1.0006096104373559,-14.100668574833163
7.443191808,1.0005100364902124,-14.295827266126821
7.45012992,1.000381395025777,-14.48940243763456
7.457068544,1.0002308928929524,-14.681123762496963
7.464007168,1.0000668947568743,-14.870751951657825
7.47094528,0.9998985692785347,-15.058065706769204
7.477883904,0.9997356016720028,-15.243149869765427
7.484822016,0.9995869596166557,-15.426107937461532
7.49176064,0.9994611050855872,-15.607206867214213
7.498699264,0.9993654124804656,-15.786800938627161
7.505637376,0.9993048406739169,-15.96531058012141
7.512576,0.999283232324183,-16.143306435254917
7.519514112,0.9993014948944093,-16.32129220551293
7.526452736,0.9993589665911603,-16.499806579998346
7.53339136,0.9994521651694839,-16.67934982468902
7.540329472,0.9995762134559011,-16.860421977911077
7.547268096,0.9997237350082596,-17.043375556414567
7.554206208,0.9998864910692676,-17.228474033299804
7.561144832,1.0000556076928397,-17.415813177873673
7.568083456,1.0002214377078855,-17.605531403465637
7.575021568,1.0003745473932797,-17.79740376016065
7.581960192,1.0005063398404135,-17.991291611846684
7.588898304,1.0006095123637424,-18.186758320970572
7.595836928,1.0006781004987204,-18.383448632547196
7.602775552,1.000708148539504,-18.580844338775414
7.609713664,1.0006982278211631,-18.778389867119476
7.616652288,1.0006486482811028,-18.975528262090986
7.6235904,1.0005621823534723,-19.171776911069667
7.630529024,1.0004436032656205,-19.36667677500279
7.637467648,1.0002996640705297,-19.559785451660904
7.64440576,1.0001384351460794,-19.750790556513657
7.651344384,0.999969023249945,-19.939587929688024
7.658282496,0.9998006531225146,-20.126097821606937
7.66522112,0.9996431268958902,-20.310393860897264
7.672159744,0.9995052955340588,-20.492676351872475
7.679097856,0.9993948352974995,-20.673253444832607
7.68603648,0.9993180460457332,-20.85257483836268
7.692975104,0.9992793499186262,-21.031124139962646
7.699913216,0.9992809895058506,-21.20942188706115
7.70685184,0.9993227119132024,-21.388064033987455
7.713789952,0.9994024131384407,-21.567516959300814
7.720728576,0.9995154142172826,-21.7483150579346
7.7276672,0.9996555259216457,-21.930882320181254
7.734605312,0.9998148948351405,-22.115497987376514
7.741543936,0.9999845890757382,-22.302403585616265
7.748482048,1.0001548082850016,-22.49163817000149
7.755420672,1.0003161807015497,-22.68318102308423
7.762359296,1.0004596330289797,-22.876813435893457
7.769297408,1.0005768796348453,-23.072279713070408
7.776236032,1.0006615795880724,-23.269131388321863
7.783174144,1.0007088157589428,-23.466887501352108
7.790112768,1.0007158145817912,-23.665035175087244
7.797051392,1.0006822361030743,-23.863066285980107
7.803989504,1.0006099292259742,-24.060359593407107
7.810928128,1.0005028573967452,-24.256463860111047
7.81786624,1.0003671039739404,-24.45094121987091
7.824804864,1.0002104512114944,-24.643434462200187
7.831743488,1.0000411877764728,-24.83370152189072
7.8386816,0.999869257797817,-25.021687177961482
7.845620224,0.9997041080653689,-25.207381285988994
7.852558336,0.9995553173743174,-25.39092566960947
7.85949696,0.9994309866613994,-25.572614198795932
7.866435584,0.9993382881661146,-25.752836705097227
7.873373696,0.9992825593625417,-25.93207169206442
7.88031232,0.9992669128286003,-26.110793021648313
7.887250432,0.9992922228503617,-26.289609353475473
7.894189056,0.9993570211541304,-26.469073387439174
7.90112768,0.9994578431344554,-26.64971740466088
7.908065792,0.9995890132447924,-26.83192514036402
7.915004416,0.9997430700604901,-27.016113926154596
7.921942528,0.9999115521706431,-27.202538819279194
7.928881152,1.0000847301585691,-27.391306227918218
7.935819776,1.0002530467677258,-27.582427401435247
7.942757888,1.000406933010709,-27.77579434592056
7.949696512,1.0005376353138706,-27.971142289457283
7.956634624,1.0006378992395395,-28.168047967148798
7.963573248,1.0007020461812008,-28.36613568887326
7.970511872,1.0007265780478836,-28.564845422727203
7.977449984,1.0007098291760161,-28.76363425118022
7.984388608,1.000652724746802,-28.96191136030317
7.99132672,1.000558590393656,-29.159234261478844
7.998265344,1.0004326575941591,-29.35506319500234
8.005203968,1.0002819331608537,-29.549011621918304
8.01214208,1.0001148114461413,-29.74079390754084
8.019080704,0.9999407123057492,-29.930308064896508
8.026019328,0.9997695793453157,-30.117416659749036
8.03295744,0.9996109096456718,-30.302332892276045
8.039896064,0.9994735698763872,-30.485216704441733
8.046834176,0.9993656343443742,-30.666442713316634
8.0537728,0.9992928284670928,-30.84645941284892
8.060711424,0.9992596509680917,-31.02573733152025
8.067649536,0.9992677427055923,-31.20489881587505
8.07458816,0.9993168477401609,-31.38440002743726
8.081526272,0.9994040836967839,-31.56492560730577
8.088464896,0.9995248695103536,-31.746853896317077
8.09540352,0.9996721891008119,-31.93064420269467
8.102341632,0.9998376248736107,-32.116597023864166
8.109280256,1.0000120894014557,-32.304900259768424
8.116218368,1.0001857482560965,-32.49561966883443
8.123156992,1.0003488343974984,-32.688624076797694
8.130095616,1.0004920380983588,-32.883776384129696
8.137033728,1.0006073841070087,-33.080729364415554
8.143972352,1.000688432389993,-33.27904111177465
8.150910464,1.0007304093146727,-33.47821235511784
8.157849088,1.000731014183682,-33.677706432772396
8.164787712,1.0006903058143328,-33.87692577967542
8.171725824,1.0006103248746634,-34.07539210759684
8.178664448,1.0004955547630447,-34.2725252531656
8.18560256,1.0003525552896455,-34.46788980536515
8.192541184,1.000189265499353,-34.66125153087582
8.199479808,1.0000147715601786,-34.85225917951452
8.20641792,0.9998389706647687,-35.040947939763825
8.213356544,0.9996718006544705,-35.2272647193863
8.220294656,0.9995225213321146,-35.411478088685506
8.22723328,0.9993997980140412,-35.59376779469677
8.234171904,0.9993104138772715,-35.77468615537688
8.241110016,0.9992594577392502,-35.95463707185976
8.24804864,0.9992499986531874,-36.134185568081314
8.254986752,0.9992823546304461,-36.31391824561795
8.261925376,0.9993549736694652,-36.4944042126044
8.268864,0.99946357543839,-36.67613083470499
8.275802112,0.9996022864133988,-36.859554674901155
8.282740736,0.9997631303948634,-37.04506477772232
8.289678848,0.9999372871072814,-37.232877723691935
8.296617472,1.0001148079124438,-37.42312220217747
8.303556096,1.0002855458736462,-37.61579393360518
8.310494208,1.0004401317849712,-37.81068085754995
8.317432832,1.0005697936834612,-38.00757591200032
8.324371456,1.00066729283068,-38.206030212983876
8.331309568,1.000726933813822,-38.40556116283355
8.338248192,1.00074547245979,-38.605678558143026
8.345186304,1.0007218551219843,-38.80577111096905
8.352124928,1.0006572214127953,-39.00531289291558
8.359063552,1.000555127490619,-39.20370190020696
8.366001664,1.0004214753215077,-39.40053357700928
8.372940288,1.000263595210962,-39.59539672132284
8.3798784,1.0000904902957206,-39.78801152294235
8.386817024,0.9999117335900144,-39.9782296287561
8.393755648,0.9997374974244805,-40.1660701836154
8.40069376,0.9995775496714642,-40.35162746133187
8.407632384,0.9994408076506968,-40.535197883089445
8.414570496,0.9993352270102116,-40.71711803167303
8.42150912,0.9992666855950258,-40.8978215873694
8.428447744,0.9992389619257914,-41.07791614993756
8.435385856,0.9992539957892967,-41.25796061218583
8.44232448,0.9993106468918916,-41.438469533032084
8.449262592,0.9994059350255906,-41.620053130160336
8.456201216,0.9995344377587531,-41.80319895620232
8.46313984,0.9996889715721613,-41.98827870991948
8.470077952,0.9998607830892706,-42.1756352549389
8.477016576,1.0000403919830048,-42.365419695242466
8.483954688,1.0002176143439923,-42.557657898835494
8.490893312,1.0003823613843787,-42.752263086516244
8.497831936,1.000525505779404,-42.949011364915336
8.504770048,1.0006388600520375,-43.1475024738203
8.511708672,1.0007162074299885,-43.34734429150505
8.518646784,1.0007527818655895,-43.54799073766636
8.525585408,1.0007469779550267,-43.74887996106363
8.532524032,1.0006986634881392,-43.94941464495161
8.539462144,1.0006107007874314,-44.149065298820965
8.546400768,1.0004880545888952,-44.34729882188917
8.55333888,1.0003375700598722,-44.54366542320049
8.560277504,1.0001674034780317,-44.73788830928858
8.567216128,0.9999874162995904,-44.9297418440065
8.57415424,0.9998077207901424,-45.11913480528403
8.581092864,0.9996382622735832,-45.30616134506346
8.588030976,0.9994886093630238,-45.491029174916925
8.5949696,0.9993673612112168,-45.67409687654714
8.601908224,0.9992813472035638,-45.85571863886894
8.608846848,0.9992354344558051,-46.036444316014226
8.615784448,0.9992322204261422,-46.2168451590882
8.622723072,0.999271964224334,-46.397539991328344
8.629661696,0.9993524143490886,-46.57907412794152
8.63660032,0.9994691958345595,-46.7619715608866
8.643538944,0.999615646724726,-46.94668151913317
8.650476544,0.9997835698029729,-47.13359831265794
8.657415168,0.9999635205749169,-47.32289302198709
8.664353792,1.000145441337511,-47.51470909005444
8.671292416,1.000318951106716,-47.708961788696925
8.67823104,1.0004745355232925,-47.905473107610796
8.68516864,1.0006032413908352,-48.103947874710194
8.692107264,1.0006976872050424,-48.30400861063771
8.699045888,1.0007527595530543,-48.50512135986406
8.705984512,1.0007652004190384,-48.70668414144045
8.712923136,1.000734356721213,-48.90817659728712
8.719860736,1.0006618309507143,-49.108994084281996
8.72679936,1.0005516720855396,-49.30857727036899
8.733737984,1.0004100836822682,-49.50649315546572
8.740676608,1.0002448195226301,-49.70230751388505
8.747615232,1.0000654335318366,-49.89580509095831
8.754552832,0.9998817574725671,-50.086836211346316
8.761491456,0.999704299019857,-50.27541908316349
8.76843008,0.9995429227925942,-50.46170578318552
8.775368704,0.9994068556987249,-50.64596396061147
8.782307328,0.9993036801940849,-50.82861291122518
