freq,mag,phase
6.0,0.9993713353761473,-155.56151949007315
6.002285568,0.9995095340988347,-155.6992692331106
6.004571648,0.9996790049181529,-155.83928127247387
6.006857216,0.9998693036293794,-155.98187372452557
6.009142784,1.0000683640049857,-156.12730129350163
6.011428352,1.0002636780608078,-156.27559289189855
6.013714432,1.000442775017823,-156.4265769564633
6.016,1.0005943097708776,-156.57998079123354
6.018285568,1.0007087080584192,-156.73531468699133
6.020571648,1.0007787124842142,-156.8919466555632
6.022857216,1.0007997809784699,-157.04927787233606
6.025142784,1.0007708380927156,-157.20650651142003
6.027428352,1.0006933751099267,-157.363007355999
6.029714432,1.000572425558934,-157.5180486533395
6.032,1.000415689333873,-157.67106968998397
6.034285568,1.000232956269943,-157.82158493167375
6.036571648,1.0000357938299298,-157.96936634362697
6.038857216,0.999836883283757,-158.11424359258507
6.041142784,0.9996486114253705,-158.25634507741344
6.043428352,0.9994830862260495,-158.39581831896726
6.045714432,0.9993506883640151,-158.53313557975966
6.048,0.9992599558454857,-158.66883088400212
6.050285568,0.9992166082471334,-158.80349588571315
6.052571648,0.9992234143024195,-158.9379359995809
6.054857216,0.9992800041056914,-159.07280481156187
6.057142784,0.9993827121900166,-159.2088078742718
6.059428352,0.9995251188009763,-159.3466339240048
6.061714432,0.9996980881708489,-159.4867167140133
6.064,0.9998908504541044,-159.62947438494916
6.066285568,1.000090964363535,-159.77504983827424
6.068571648,1.0002858709407405,-159.92353714060454
6.070857216,1.0004630862508885,-160.07467944483864
6.073142784,1.000611596750782,-160.22819921888146
6.075428352,1.0007218129570181,-160.3835900651236
6.077714432,1.0007867772818668,-160.54025903365635
6.08,1.0008023705726894,-160.6975073934511
6.082285568,1.0007676323232637,-160.85457477233552
6.084571648,1.0006846734549923,-161.0108369660105
6.086857216,1.0005588745248084,-161.16553234568957
6.089142784,1.0003979487995487,-161.31816839316957
6.091428352,1.0002123080846625,-161.468275422193
6.093714432,1.0000135100108742,-161.61556559627974
6.096,0.9998143638386359,-161.76000913041403
6.098285568,0.9996272861346146,-161.90158279964626
6.100571648,0.9994642889782441,-162.04062772168976
6.102857216,0.9993356545442647,-162.17750849384322
6.105142784,0.9992495650798839,-162.31283913243686
6.107428352,0.9992116095699768,-162.44725430562195
6.109714432,0.9992240433101498,-162.58147815751315
6.112,0.9992862290943945,-162.7162711931011
6.114285568,0.9993942491298605,-162.85223892317038
6.116571648,0.9995412233123848,-162.99007227582365
6.118857216,0.9997177788038984,-163.1302645081558
6.121142784,0.9999127363015128,-163.2731291902833
6.123428352,1.0001136875672407,-163.41888715765683
6.125714432,1.0003080416961894,-163.56749716247282
6.128,1.0004833523590733,-163.71880001216616
6.130285568,1.0006285630920522,-163.8724263071278
6.132571648,1.0007344703664605,-164.02786631111252
6.134857216,1.0007943098477063,-164.18449291595257
6.137142784,1.000804276915245,-164.34159859496333
6.139428352,1.0007637994058278,-164.49851076395282
6.141714432,1.0006754650474112,-164.65446373902503
6.144,1.0005446870224042,-164.80887037651598
6.146285568,1.0003798415997092,-164.96106307944063
6.148571648,1.0001912957670933,-165.11075017477444
6.150857216,0.9999910160233509,-165.2575290471469
6.153142784,0.9997917282870756,-165.4014040897583
6.155428352,0.9996061242964557,-165.54250476373204
6.157714432,0.9994457054442369,-165.68110316350933
6.16,0.9993209666143192,-165.81755227496137
6.162285568,0.9992398058976021,-165.95252808688093
6.164571648,0.9992072094780672,-166.08665018957004
6.166857216,0.9992254356880188,-166.22065259333107
6.169142784,0.9992933833881275,-166.35529351581155
6.171428352,0.9994065367787175,-166.49122555816672
6.173714432,0.9995579485557523,-166.6290957754152
6.176,0.9997378453746394,-166.76936028057565
6.178285568,0.9999349473846102,-166.91232905738866
6.180571648,1.0001366894660213,-167.05825740501976
6.182857216,1.0003303246467727,-167.20700465686213
6.185142784,1.0005034484316724,-167.35840853178064
6.187428352,1.0006453372327133,-167.51209516213268
6.189714432,1.0007466867508064,-167.66754890152922
6.192,1.0008013383749126,-167.82412873773313
6.194285568,1.00080565470862,-167.98110995064005
6.196571648,1.000759416423422,-168.1378297172729
6.198857216,1.000665626149875,-168.29348986334833
6.201142784,1.0005299338028124,-168.44747676081056
6.203428352,1.0003611450003973,-168.59924515526438
6.205714432,1.0001699533441177,-168.7483889443888
6.208,0.9999683045827598,-168.89469418937912
6.210285568,0.9997690201708539,-169.03806607972024
6.212571648,0.9995848541619401,-169.1786198606906
6.214857216,0.9994273591966754,-169.3166712803618
6.217142784,0.9993067274194822,-169.45270617503388
6.219428352,0.9992303706559608,-169.58730551319167
6.221714432,0.9992033720867214,-169.72114397396152
6.224,0.9992274411605114,-169.85490491176364
6.226285568,0.99930101651182,-169.98940655579233
6.228571648,0.9994194127899757,-170.12530585140507
6.230857216,0.9995752208659832,-170.26315838772462
6.233142784,0.9997583771877782,-170.40349298393636
6.235428352,0.9999575915211046,-170.54659184189862
6.237714432,1.0001598279090909,-170.69259216829735
6.24,1.0003525248948217,-170.84146031695374
6.242285568,1.0005234526846087,-170.9929858578424
6.244571648,1.0006617350387792,-171.146723079947
6.246857216,1.000758624743556,-171.302152086656
6.249142784,1.000807827831031,-171.45866029631077
6.251428352,1.0008064143315625,-171.61548100590142
6.253714432,1.0007544367188965,-171.77194531283362
6.256,1.0006551537754644,-171.9272767864865
6.258285568,1.0005146979089703,-172.0808643634829
6.260571648,1.0003420762686683,-172.23217608663032
6.262857216,1.0001481469986715,-172.38079280693
6.265142784,0.9999452430953457,-172.52655809099818
6.267428352,0.9997461893750721,-172.6693469470404
6.269714432,0.9995636934801851,-172.80937390556895
6.272,0.9994092567605225,-172.94692512424345
6.274285568,0.9992927376276396,-173.08251563663052
6.276571648,0.9992215040547862,-173.2167133989692
6.278857216,0.9992001844524804,-173.3502381399725
6.281142784,0.9992300681449111,-173.48379677136222
6.283428352,0.9993093508783082,-173.61814235998966
6.285714432,0.9994328771286148,-173.7539336786705
6.288,0.9995929618494411,-173.89180171304073
6.290285568,0.9997794052855614,-174.03217755679083
6.292571648,0.9999803150181406,-174.17538272298927
6.294857216,1.0001831196469713,-174.32148305782243
6.297142784,1.000374788899458,-174.47048087658416
6.299428352,1.00054328772688,-174.6220412575369
6.301714432,1.0006778305866368,-174.77580721129644
6.304,1.0007699797828673,-174.93122508317248
6.306285568,1.0008138022813946,-175.08760419532476
6.308571648,1.000806616185354,-175.2442348450025
6.310857216,1.000748763035818,-175.40041518643235
6.313142784,1.0006439771681492,-175.55539789793832
6.315428352,1.0004987622859223,-175.70853683060858
6.317714432,1.00032244605387,-175.85935753299748
6.32,1.000126047286296,-176.00744180626083
6.322285568,0.9999220788772911,-176.15260892919522
6.324571648,0.9997233370436388,-176.29487314465194
6.326857216,0.999542708016677,-176.43433254171063
6.329142784,0.9993913811858951,-176.5713538662379
6.331428352,0.9992791390874847,-176.7064589636905
6.333714432,0.9992131425275279,-176.84025437188586
6.336,0.9991975125656238,-176.97344947548845
6.338285568,0.9992333443438176,-177.1067291142828
6.340571648,0.9993181901444462,-177.24093800158758
6.342857216,0.9994469397984497,-177.3766956170383
6.345142784,0.9996112993106672,-177.51455574290853
6.347428352,0.9998008359266536,-177.6549504393359
6.349714432,1.0000035349926524,-177.7982167508475
6.352,1.0002066102921996,-177.94441839205118
6.354285568,1.0003970303183096,-178.09346740850225
6.356571648,1.000562870880626,-178.2450942382739
6.358857216,1.00069360341292,-178.39889875031076
6.361142784,1.0007807719387647,-178.5542244577905
6.363428352,1.000819120019061,-178.7104625942122
6.365714432,1.0008060548340931,-178.86689856805276
6.368,1.0007423197377292,-179.02276311114022
6.370285568,1.0006321837967773,-179.1773731345183
6.372571648,1.0004822947589311,-179.3300169941036
6.374857216,1.0003022133315465,-179.48032482496313
6.377142784,1.0001034686560437,-179.62786024085747
6.379428352,0.9998985116671341,-179.7724412282523
6.381714432,0.9997004781131971,-179.91408389821467
6.384,0.9995216827338465,179.94702416194076
6.386285568,0.9993737729065078,179.81055343069877
6.388571648,0.9992660385562603,179.6759268468569
6.390857216,0.9992053100248472,179.54254328861245
6.393142784,0.9991954386203773,179.4096954041481
6.395428352,0.9992371878095667,179.27661173163906
6.397714432,0.9993278560497371,179.14257905538653
6.4,0.9994616189335346,179.00695717185465
6.402285568,0.9996300758364999,178.869111309341
6.404571648,0.9998226367422364,178.72864937120906
6.406857216,1.0000269230278387,178.58534606297516
6.409142784,1.0002300762243188,178.43907536799466
6.411428352,1.0004191468590078,178.28993817119053
6.413714432,1.0005821675166438,178.13827531540673
6.416,1.0007089565700027,177.98452703077638
6.418285568,1.0007912519365205,177.82926158175218
6.420571648,1.0008238899471318,177.67314895865718
6.422857216,1.0008048907849103,177.51697234221234
6.425142784,1.000735325992837,177.36146375000914
6.427428352,1.00061959223952,177.20728043895468
6.429714432,1.0004651433806697,177.05506226550162
6.432,1.0002815080777576,176.90534482039303
6.434285568,1.0000805464564624,176.75839045306657
6.436571648,0.9998747812969991,176.61442319216388
6.438857216,0.9996773852733913,176.4734292034296
6.441142784,0.9995008536277387,176.3351089971343
6.443428352,0.999356409367729,176.19918339905564
6.445714432,0.9992532631177674,176.06505833104262
6.448,0.9991979390774286,175.9320795708395
6.450285568,0.9991939024720764,175.7995962895566
6.452571648,0.9992416235395853,175.66677361048585
6.454857216,0.999337920455495,175.5329251015573
6.457142784,0.9994768668839787,175.39739749198344
6.459428352,0.9996494160493896,175.25957793548082
6.461714432,0.9998449073267064,175.1191220946594
6.464,1.0000506322805973,174.97573214715962
6.466285568,1.000253678687852,174.82938440359266
6.468571648,1.0004412298878396,174.68021770011856
6.470857216,1.0006013692589806,174.52853028227224
6.473142784,1.0007239262166034,174.37482236695988
6.475428352,1.000801105952993,174.2196494304277
6.477714432,1.0008280737752275,174.06375506238894
6.48,1.0008030279294662,173.90784818960012
6.482285568,1.000727575105191,173.75266393923695
6.484571648,1.0006064333948645,173.59893177920983
6.486857216,1.0004473512748173,173.44724113125608
6.489142784,1.000260396185324,173.29808644226588
6.491428352,1.0000571676263983,173.15174114643239
6.493714432,0.9998508142184035,173.00841557666158
6.496,0.9996542470203374,172.86803818022975
6.498285568,0.9994800643389146,172.73034326109993
6.500571648,0.999339419423382,172.59496318575253
6.502857216,0.9992409102920402,172.4613694097354
6.505142784,0.9991911687398722,172.32886330910512
6.507428352,0.9991931666052966,172.19669293578946
6.509714432,0.9992469943022131,172.06415537600847
6.512,0.9993489573821808,171.93046967888714
6.514285568,0.9994927899097239,171.7950175816823
6.516571648,0.9996694949099789,171.6572509898094
6.518857216,0.9998675936840188,171.51677516305506
6.521142784,1.0000746262126934,171.3733608175463
6.523428352,1.0002774296802466,171.22696124220266
6.525714432,1.0004633440127735,171.07776300621418
6.528,1.000620328736854,170.92608103293145
6.530285568,1.0007386236821696,170.77240038814762
6.532571648,1.0008104531987299,170.6173815034322
6.534857216,1.000831636106108,170.46168912218758
6.537142784,1.0008004306096818,170.30609751215286
6.539428352,1.0007191403178302,170.1512934002673
6.541714432,1.0005926080373075,169.99802175611524
6.544,1.0004291024332193,169.84683982799933
6.546285568,1.0002386647532344,169.6982929392868
6.548571648,1.0000335298087384,169.55259894687552
6.550857216,0.9998267496648509,169.40992738348564
6.553142784,0.9996311770314285,169.27017896456073
6.555428352,0.9994596206610552,169.13311896832977
6.557714432,0.9993226223493383,168.9983420936071
6.56,0.9992290769975865,168.86525893840428
6.562285568,0.9991849854685437,168.73316640552343
6.564571648,0.9991930776758186,168.60135900603152
6.566857216,0.9992528905888064,168.46908779514192
6.569142784,0.99936058944755,168.3355938941261
6.571428352,0.999509494396547,168.2002471987241
6.573714432,0.9996899682083906,168.06253560612805
6.576,0.9998907864034726,167.922049366439
6.578285568,1.0000989980813964,167.7786083374257
6.580571648,1.0003015217458437,167.63216548239936
6.582857216,1.0004853362403237,167.48295414637857
6.585142784,1.0006390916072516,167.33129391639258
6.587428352,1.0007529154783543,167.17772672641934
6.589714432,1.0008193714461633,167.02281144715516
6.592,1.000834592097694,166.86735662223668
6.594285568,1.0007972773866882,166.71204267146655
6.596571648,1.000710084283701,166.5576709840153
6.598857216,1.0005781730668863,166.40488081169963
6.601142784,1.0004101737322186,166.25427948829488
6.603428352,1.0002165008007005,166.10632617220685
6.605714432,1.000009460048599,165.96130318370217
6.608,0.9998024605815207,165.81931023491003
6.610285568,0.999608072434829,165.68022682476916
6.612571648,0.9994391915014982,165.54381844683687
6.614857216,0.9993061301006634,165.4096361218563
6.617142784,0.999217709667273,165.2770540126041
6.619428352,0.999179412243587,165.14542185563636
6.621714432,0.9991936072199588,165.01398852475052
6.624,0.9992595310923477,164.88198729572093
6.626285568,0.9993730298476006,164.74867609434818
6.628571648,0.999526747621328,164.61345017305086
6.630857216,0.99971110186666,164.47578678526068
6.633142784,0.9999143554425044,164.33528927192538
6.635428352,1.0001235644566153,164.1918145412901
6.637714432,1.0003254665007444,164.04536983525765
6.64,1.0005073301715746,163.8961336497832
6.642285568,1.0006576035774986,163.74452754989508
6.644571648,1.0007667406505678,163.59103237327798
6.646857216,1.0008277652484847,163.43631708631656
6.649142784,1.0008368662654417,163.28111831841298
6.651428352,1.0007934469937352,163.1261480582978
6.653714432,1.0007001760021492,162.97218123935258
6.656,1.0005630556807947,162.81992796567474
6.658285568,1.0003906661527862,162.6698919779782
6.660571648,1.0001937799830976,162.52258841550747
6.662857216,0.999985178349024,162.37825175511932
6.665142784,0.9997778770308673,162.23691953870582
6.667428352,0.9995849415315795,162.09852825739176
6.669714432,0.9994188317112705,161.962767291305
6.672,0.9992901523775729,161.8292063863654
6.674285568,0.9992069065736061,161.6971553763362
6.676571648,0.9991744039711322,161.5659893462576
6.678857216,0.9991948510063186,161.43488167437326
6.681142784,0.9992669277149754,161.30316859261472
6.683428352,0.9993859793370603,161.17005546025604
6.685714432,0.9995446533933019,161.03493397526842
6.688,0.9997326722351702,160.8973078479516
6.690285568,0.9999382789270344,160.7568091022769
6.692571648,1.0001483179557213,160.61335444880729
6.694857216,1.0003494444234848,160.46689774895967
6.697142784,1.0005290797473636,160.3176703133728
6.699428352,1.000675730243161,160.1660998893215
6.701714432,1.000780079053282,160.01273139889543
6.704,1.0008355377434635,159.85817717429939
6.706285568,1.0008384475189873,159.70326214246123
6.708571648,1.0007886820015701,159.54868170521888
6.710857216,1.0006895773481927,159.3951558715708
6.713142784,1.0005471582301877,159.24341378944234
6.715428352,1.0003704281092471,159.09403797986866
6.717714432,1.0001706245130828,158.94738346504064
6.72,0.9999604836039127,158.80373369679594
6.722285568,0.9997532002686106,158.6630905451253
6.724571648,0.9995619179403815,158.5254254017098
6.726857216,0.9993989723523631,158.3903067000053
6.729142784,0.9992744975756079,158.25731388202442
6.731428352,0.9991965146435662,158.12582063944052
6.733714432,0.9991700329570878,157.9951173706647
6.736,0.9991967776217514,157.86440455844794
6.738285568,0.999274996484597,157.73294668132613
6.740571648,0.9993997532725813,157.60003680434548
6.742857216,0.9995632255504098,157.46503332435293
6.745142784,0.999754846901274,157.3274524389455
6.747428352,0.9999625933784431,157.18700701560678
6.749714432,1.0001733955887764,157.04351779852757
6.752,1.0003735735788115,156.89701612774996
6.754285568,1.0005508228632998,156.7478523244611
6.756571648,1.000693573494996,156.5963585488804
6.758857216,1.000792963644819,156.44309387182804
6.761142784,1.000842584706741,156.28878719389652
6.763428352,1.0008392972487798,156.1341353445885
6.765714432,1.0007834760707812,155.97994285999812
6.768,1.0006782475218803,155.8269191720678
6.770285568,1.0005306399935527,155.67572897831778
6.772571648,1.000349725845371,155.52696727544713
6.774857216,1.000147033371392,155.38098903726654
6.777142784,0.9999353812549845,155.23803818560202
6.779428352,0.9997282815574664,155.09814675176835
6.781714432,0.999538947958019,154.96116539314585
6.784,0.9993790837333966,154.82673838265177
6.786285568,0.9992591645506957,154.69437674535283
6.788571648,0.9991867404709242,154.56341025885476
6.790857216,0.9991662646681181,154.43314473742444
6.793142784,0.9991993337879777,154.30280042100043
6.795428352,0.9992838396797366,154.17163643934612
6.797714432,0.9994141831766339,154.0389149598783
6.8,0.9995823620236791,153.90403614360886
6.802285568,0.9997774789055326,153.76652903448553
6.804571648,0.9999874246939715,153.626059717584
6.806857216,1.0001986940738703,153.48256291070928
6.809142784,1.0003979177140192,153.33611984068978
6.811428352,1.0005723495253462,153.18694417967535
6.813714432,1.0007112035333419,153.03552148504366
6.816,1.0008053641544827,152.88243316238024
6.818285568,1.0008491075411403,152.72834982265093
6.820571648,1.0008395364785336,152.57401227404318
6.822857216,1.0007773019898123,152.42021194097444
6.825142784,1.000666171586669,152.2677004488648
6.827428352,1.0005133409070281,152.1171088175746
6.829714432,1.0003282697200162,151.96896985629738
6.832,1.0001228952668555,151.82369262794043
6.834285568,0.9999101085546009,151.6814558271487
6.836571648,0.9997034895387592,151.54232043097986
6.838857216,0.9995158442028816,151.40605080452355
6.841142784,0.9993595543016485,151.27230378524027
6.843428352,0.9992443022753321,151.1405340408102
6.845714432,0.9991774947538324,151.01015670133805
6.848,0.9991634211374083,150.880331089444
6.850285568,0.9992028509634758,150.75039689445256
6.852571648,0.9992935994762024,150.61949745548398
6.854857216,0.9994295814781037,150.4869487196571
6.857142784,0.999602314752472,150.3521512680825
6.859428352,0.9998008602200362,150.21473084775278
6.861714432,1.0000126190434229,150.07430203636957
6.864,1.0002241386482043,149.93081687696622
6.866285568,1.0004220010130844,149.78436050073725
6.868571648,1.0005937800290072,149.6352430922924
6.870857216,1.0007283757923917,149.48392209745802
6.873142784,1.00081738044937,149.33098120421545
6.875428352,1.0008551058744826,149.1771265364595
6.877714432,1.0008391447742433,149.02314568193717
6.88,1.0007704387526484,148.86977019452098
6.882285568,1.000653394858342,148.71777403787758
6.884571648,1.0004952962543354,148.56775625353214
6.886857216,1.000306265388383,148.42030070403524
6.889142784,1.0000983042740326,148.27574319599353
6.891428352,0.9998843481413235,148.13429748329946
6.893714432,0.9996782760815895,147.99585740065882
6.896,0.9994929438936925,147.8603431355623
6.898285568,0.999340252445662,147.72725824632064
6.900571648,0.9992297859899718,147.59613784373101
6.902857216,0.9991687987224176,147.46629953334616
6.905142784,0.9991609970104544,147.33694183554073
6.907428352,0.9992069769066168,147.20733235967433
6.909714432,0.9993039282206928,147.07673051373263
6.912,0.9994455179152851,146.94436484298657
6.914285568,0.9996228539776969,146.80972803199344
6.916571648,0.9998247720884792,146.67233425450095
6.918857216,1.000038195173357,146.53191532877295
6.921142784,1.0002499091152908,146.3884594060188
6.923428352,1.0004463956240206,146.24201704620413
6.925714432,1.00061502316116,146.09296489109397
6.928,1.000745209980883,145.94171182824024
