freq,mag,phase
6.0,1.000098868632842,-58.36417831198761
6.00879104,1.0001174327144602,-58.72114580863118
6.017582592,1.0001308943040703,-59.07836620026433
6.026373632,1.00013766764257,-59.43571890362076
6.035164672,1.0001374565259205,-59.79319769583739
6.043956224,1.000130313064729,-60.150589956241426
6.052747264,1.0001164463942664,-60.50789325729382
6.061538304,1.0000969678935776,-60.86496960130812
6.070329856,1.0000721683034919,-61.221793851603465
6.079120896,1.0000440810561242,-61.5782764254204
6.087911936,1.0000137934434272,-61.93440744236984
6.096703488,0.9999829416367363,-62.29018824476874
6.105494528,0.9999530847118303,-62.64554438288034
6.114285568,0.9999260203081269,-63.000556551275594
6.12307712,0.9999027408580502,-63.35526912985267
6.13186816,0.9998847500298446,-63.709721826998994
6.1406592,0.999873101538803,-64.06395245033018
6.149450752,0.9998681030107813,-64.41816758558635
6.158241792,0.9998701942256514,-64.7723517209441
6.167032832,0.9998793250963071,-65.12663776618676
6.175824384,0.9998949426876038,-65.48107270551634
6.184615424,0.9999161876615634,-65.83580447311718
6.193406464,0.9999419152156952,-66.19088379568798
6.202198016,0.9999709585378426,-66.546274498548
6.210989056,1.000001612787061,-66.90214286952471
6.219780096,1.0000326918391396,-67.25841104568512
6.228571648,1.000062112477844,-67.6150601861486
6.237362688,1.000088441471527,-67.97214505917286
6.246153728,1.000110417499981,-68.32959002174218
6.25494528,1.0001268349766863,-68.68726107529028
6.26373632,1.000136813684289,-69.04514970965539
6.27252736,1.0001398241889685,-69.40313605233548
6.281318912,1.0001357570174259,-69.76114566969534
6.290109952,1.0001247467219718,-70.11909013884537
6.298900992,1.0001075625675027,-70.47680220728141
6.307692544,1.000084639209852,-70.83434334210015
6.316483584,1.0000577802898072,-71.1915480508641
6.325274624,1.000027780778358,-71.54838696634529
6.334066176,0.999996604389037,-71.90488579596632
6.342857216,0.9999658988163354,-72.26095741846312
6.351648256,0.9999369546109143,-72.61663899929617
6.360439808,0.9999114904491844,-72.97202839243725
6.369230848,0.9998907228220484,-73.3270868112829
6.378021888,0.9998759105035748,-73.68196864241516
6.38681344,0.9998676832457533,-74.03671732056229
6.39560448,0.9998666865224942,-74.39142672431049
6.40439552,0.9998728195930814,-74.74614739449962
6.41318656,0.9998854404228452,-75.10103804456563
6.421978112,0.9999044323599857,-75.45615744531251
6.430769152,0.9999285721426369,-75.81158426415186
6.439560192,0.9999568248193917,-76.16737737092369
6.448351744,0.9999873378794522,-76.52354958933371
6.457142784,1.0000187171962531,-76.88018562815512
6.465933824,1.0000492880975789,-77.23718957146525
6.474725376,1.0000776639718536,-77.5946679950806
6.483516416,1.0001020310844573,-77.95246362928816
6.492307456,1.000121370869315,-78.31056994322752
6.501099008,1.0001344581904177,-78.66895264977673
6.509890048,1.0001407524678714,-79.02744362984876
6.518681088,1.0001398951462392,-79.38601910399387
6.52747264,1.0001319970299836,-79.74450295629475
6.53626368,1.0001172504055844,-80.102904269185
6.54505472,1.0000965501607562,-80.46107497257066
6.553846272,1.0000710021110981,-80.81900231262414
6.562637312,1.0000419199882098,-81.176525214693
6.571428352,1.0000108545138318,-81.53368614181454
6.580219904,0.9999792079896106,-81.89049457760972
6.589010944,0.999948824146369,-82.24687431331216
6.597801984,0.9999213382367537,-82.6029026990292
6.606593536,0.9998980592819907,-82.95865384598883
6.615384576,0.9998803633784964,-83.31409442266963
6.624175616,0.9998689917500423,-83.66935439186385
6.632967168,0.999864554514834,-84.02456662328136
6.641758208,0.9998672831425497,-84.37980312742442
6.650549248,0.9998772222274334,-84.73508511043006
6.6593408,0.9998938372155505,-85.0905469447127
6.66813184,0.9999159481343071,-85.44635694029292
6.67692288,0.9999426750787741,-85.8025079724972
6.685714432,0.9999726847258432,-86.1589706903153
6.694505472,1.000004263960006,-86.51589435658674
6.703296512,1.0000358487078371,-86.87327943211056
6.712088064,1.000065765351133,-87.23104572616403
6.720879104,1.00009240286036,-87.58922475243853
6.729670144,1.0001143391187526,-87.94775853218177
6.738461696,1.0001306335393958,-88.30652954850208
6.747252736,1.0001401854681211,-88.6655363451299
6.756043776,1.000142654911343,-89.02461540048063
6.764835328,1.000137972575335,-89.38366938704401
6.773626368,1.0001259577828148,-89.74267751589424
6.782417408,1.0001077841174622,-90.10147895614979
6.79120896,1.0000839695244637,-90.46001167935418
6.8,1.000056084207784,-90.8182503262202
6.80879104,1.0000252402932122,-91.17609248588421
6.817582592,0.9999932842271494,-91.5335751416736
6.826373632,0.9999617910321096,-91.8906513913732
6.835164672,0.9999324640918453,-92.24731758646756
6.843956224,0.9999067704987769,-92.603649471082
6.852747264,0.9998861749965481,-92.95968266383615
6.861538304,0.9998714529093345,-93.31552181785139
6.870329856,0.9998637504907336,-93.67124141156215
6.879120896,0.9998632764377207,-94.02690318048067
6.887911936,0.9998700187027714,-94.38260687429019
6.896703488,0.9998838723021429,-94.73848201461095
6.905494528,0.9999037909013575,-95.09459392031138
6.914285568,0.9999289561538743,-95.45105722247337
6.92307712,0.9999580067878691,-95.8078225602733
6.93186816,0.9999895052081046,-96.1650679314614
6.9406592,1.0000217236192006,-96.52272919964517
6.949450752,1.0000529348780132,-96.88078718861782
6.958241792,1.0000816202426828,-97.23929643315768
6.967032832,1.0001061010478542,-97.59818378987214
6.975824384,1.0001254335015424,-97.95734836494583
6.984615424,1.0001383340950527,-98.31674107395449
6.993406464,1.0001440435257232,-98.67631687588353
7.002198016,1.0001426181123987,-99.03587730925972
7.010989056,1.0001338384585114,-99.39543158599908
7.019780096,1.0001181134715742,-99.75485571996673
7.028571648,1.000096542671596,-100.11399320851508
7.037362688,1.000069974252872,-100.47287449039949
7.046153728,1.0000398646483024,-100.83141698236314
7.05494528,1.0000078653557756,-101.18953329069944
7.06373632,0.9999755454900905,-101.54724124287655
7.07252736,0.9999446734123835,-101.9045592187657
7.081318912,0.9999167200138888,-102.261503266452
7.090109952,0.999893254436941,-102.61815781209418
7.098900992,0.9998755203290933,-102.9745150991795
7.107692544,0.9998644707731785,-103.33068877729673
7.116483584,0.999860663800755,-103.68678760397427
7.125274624,0.9998642095771969,-104.04294683694611
7.134066176,0.99987481238237,-104.39918408202405
7.142857216,0.9998923909889749,-104.75560255582874
7.151648256,0.9999157279501217,-105.11233005740445
7.160439808,0.9999434780932087,-105.46940691035164
7.169230848,0.9999745057629743,-105.82688915999327
7.178021888,1.0000069258847288,-106.18477983971817
7.18681344,1.0000392361519082,-106.54315842888506
7.19560448,1.0000696792010282,-106.9019582026974
7.20439552,1.0000966165127734,-107.2611195877571
7.21318656,1.0001186885478277,-107.62064081039546
7.221978112,1.0001348007035307,-107.9804256263613
7.230769152,1.0001440487377051,-108.34039839669757
7.239560192,1.0001458867259212,-108.70046640524095
7.248351744,1.0001403989300446,-109.06051360400592
7.257142784,1.0001276251047488,-109.42045624543314
7.265933824,1.000108380464291,-109.78019916227947
7.274725376,1.0000835797916523,-110.13968841116568
7.283516416,1.0000546073246357,-110.49881794611797
7.292307456,1.0000227424287562,-110.85759599084884
7.301099008,0.9999899438065087,-111.21594964574979
7.309890048,0.9999577210866868,-111.57388229340174
7.318681088,0.9999278949746019,-111.93143021341747
7.32747264,0.9999018919286048,-112.28863289491784
7.33626368,0.9998811819727399,-112.64550484772846
7.34505472,0.9998667625262155,-113.00220362682309
7.353846272,0.9998594503148795,-113.35875751143499
7.362637312,0.9998595793216118,-113.71525640207855
7.371428352,0.9998671080898412,-114.07187885781735
7.380219904,0.9998818568671652,-114.42860276403937
7.389010944,0.999902896194333,-114.78561585834578
7.397801984,0.9999291088950315,-115.14292957622423
7.406593536,0.9999591967637745,-115.50063777147447
7.415384576,0.9999916490446139,-115.85877492432608
7.424175616,1.0000247047879054,-116.21736239455753
7.432967168,1.000056571627695,-116.57638140223006
7.441758208,1.0000857955012636,-116.93582488941742
7.450549248,1.000110635917496,-117.29561948063802
7.4593408,1.0001298578297493,-117.65575340825774
7.46813184,1.0001424485130892,-118.01610341005367
7.47692288,1.000147837176411,-118.37655758324934
7.485714432,1.0001456932639439,-118.73706388165145
7.494505472,1.0001359490506727,-119.09753029488591
7.503296512,1.0001193935941388,-119.45779657208081
7.512088064,1.0000966276102472,-119.8178684122785
7.520879104,1.000069032876223,-120.17762382058939
7.529670144,1.0000378806924874,-120.53696040310507
7.538461696,1.0000049183406523,-120.89591708496445
7.547252736,0.9999717323641409,-121.25445438162376
7.556043776,0.9999401908226315,-121.6125519170754
7.564835328,0.9999118781222759,-121.97032917245272
7.573626368,0.9998882493046681,-122.32774004265995
7.582417408,0.9998705787823708,-122.6848801254328
7.59120896,0.9998596625787344,-123.04187878371255
7.6,0.9998563107129882,-123.39877985815548
7.60879104,0.9998606263561118,-123.75569899194686
7.617582592,0.9998722968095805,-124.11272437281093
7.626373632,0.9998907465796244,-124.46999791292016
7.635164672,0.9999151132110916,-124.82751399101006
7.643956224,0.9999440921830057,-125.18542811679539
7.652747264,0.9999760655238505,-125.5437496045597
7.661538304,1.0000095056927296,-125.90252031285091
7.670329856,1.0000425663713888,-126.2617349936176
7.679120896,1.0000736483007706,-126.62139327148779
7.687911936,1.0001010537989483,-126.98145007041481
7.696703488,1.0001233705062171,-127.34184088378835
7.705494528,1.0001392970397496,-127.7024970941696
7.714285568,1.0001482563535922,-128.0633354496058
7.72307712,1.0001495770287512,-128.42425867045156
7.73186816,1.0001431930065479,-128.78516242485574
7.7406592,1.0001294781282664,-129.14597693174548
7.749450752,1.0001091634504102,-129.50652486556734
7.758241792,1.000083276295329,-129.86681886086785
7.767032832,1.000053067234572,-130.2267474783199
7.775824384,1.0000203036343889,-130.58627742199374
7.784615424,0.9999865105839226,-130.94538394915074
7.793406464,0.9999535149686691,-131.30406055130936
7.802198016,0.9999231296141399,-131.66234876848932
7.810989056,0.9998967452489951,-132.02025953599835
7.819780096,0.9998758863236075,-132.37785040826896
7.828571648,0.9998616339857649,-132.73524329754548
7.837362688,0.9998547290276801,-133.09250942002444
7.846153728,0.9998554535555461,-133.44977369922773
7.85494528,0.999863886995123,-133.8070564358716
7.86373632,0.9998795679113561,-134.16455126199256
7.87252736,0.9999016355935257,-134.5223024696751
7.881318912,0.9999290379504054,-134.88036283604353
7.890109952,0.9999602868488149,-135.2388471702169
7.898900992,0.9999937972055555,-135.59775904007168
7.907692544,1.0000277422061508,-135.9571384270838
7.916483584,1.0000604455774906,-136.31694090271526
7.925274624,1.000090170622215,-136.67721160540444
7.934066176,1.0001153784094827,-137.03781187249922
7.942857216,1.0001346026995983,-137.3987331647439
7.951648256,1.0001470639143866,-137.75988988637414
7.960439808,1.0001519587950662,-138.1211710172114
7.969230848,1.0001490657125431,-138.48246698467628
7.978021888,1.0001385153328946,-138.84368880335586
7.98681344,1.0001208611633718,-139.2047477666131
7.99560448,1.0000970596168512,-139.5655401985372
8.00439552,1.000068244097553,-139.9259986575328
8.01318656,1.0000360500234144,-140.28607055894474
8.021978112,1.0000019275007372,-140.6457066288342
8.030769152,0.9999678652112773,-141.00490786582196
8.039560192,0.9999356084599385,-141.36370058086825
8.048351744,0.9999067794973174,-141.72208506165873
8.057142784,0.9998828574852993,-142.08013076821538
8.065933824,0.9998651513686594,-142.43794785651116
8.074725376,0.9998546334309096,-142.79555491816694
8.083516416,0.9998517840164566,-143.15307568596518
8.092307456,0.999856770572185,-143.5106558365082
8.101099008,0.9998693496546528,-143.86834479599977
8.109890048,0.9998889356350713,-144.2262446664064
8.118681088,0.9999144339955055,-144.58447354560542
8.12747264,0.9999445888610602,-144.9430674470634
8.13626368,0.9999777379543289,-145.30209318872502
8.14505472,1.000012143801732,-145.66156219250288
8.153846272,1.0000461723017273,-146.02149229252376
8.162637312,1.0000779314674433,-146.3818895911545
8.171428352,1.0001057996470175,-146.74267104807888
8.180219904,1.0001283613736716,-147.1038098942886
8.189010944,1.000144253005475,-147.4651867156282
8.197801984,1.000152872636416,-147.82677010265542
8.206593536,1.0001535431914366,-148.18839893778787
8.215384576,1.0001464592689373,-148.5500143389226
8.224175616,1.000131788289159,-148.91149742729263
8.232967168,1.0001103176124324,-149.27274414541583
8.241758208,1.0000832341686117,-149.63369994378405
8.250549248,1.0000519143137756,-149.9942801695684
8.2593408,1.000018013108543,-150.35442814516492
8.26813184,0.9999832286058316,-150.7141124227042
8.27692288,0.9999493212052792,-151.07337561999088
8.285714432,0.9999182060921059,-151.43225035210193
8.294505472,0.9998914064644789,-151.79072293889718
8.303296512,0.9998703798935761,-152.1488934737803
8.312088064,0.999856286658589,-152.50683817343446
8.320879104,0.9998496606579863,-152.86466781525903
8.329670144,0.9998510592824534,-153.22246485912663
8.338461696,0.999860345041636,-153.58035686681916
8.347252736,0.9998770749309996,-153.9383739927576
8.356043776,0.9999002618739505,-154.2967079176743
8.364835328,0.9999289432301429,-154.65539138556633
8.373626368,0.9999614076797675,-155.01447964803936
8.382417408,0.9999959760418512,-155.37402129308592
8.39120896,1.0000310774030263,-155.73403969083347
8.4,1.000064562208962,-156.0944933435944
8.40879104,1.0000949048485306,-156.45540473489606
8.417582592,1.0001204817952138,-156.8166827576968
8.426373632,1.0001398442995824,-157.17825327983627
8.435164672,1.000152148542351,-157.54005399338686
8.443956224,1.0001566124910934,-157.90198366609636
8.452747264,1.0001530476995066,-158.2639146488404
8.461538304,1.0001415981013038,-158.62575590210193
8.470329856,1.0001229096892177,-158.98743001866399
8.479120896,1.0000978293496092,-159.3488126919806
8.487911936,1.00006780082844,-159.7098541059064
8.496703488,1.0000343693185056,-160.0704522340566
8.505494528,0.99999910625072,-160.43064376976548
8.514285568,0.9999641118117938,-160.79035758346052
8.52307712,0.9999308808264482,-161.14964716934853
8.53186816,0.9999015904621881,-161.50852600079907
8.5406592,0.9998772874236079,-161.8670603005759
8.549450752,0.9998594960914525,-162.2253462720224
8.558241792,0.9998491936078584,-162.5834028409659
8.567032832,0.9998468242372789,-162.9414183957101
8.575824384,0.9998525578450819,-163.29945859654055
8.584615424,0.999866161712013,-163.65763676280915
8.593406976,0.9998868390832159,-164.0160529045104
8.602198016,0.9999135558971999,-164.37477707391363
8.610989056,0.999944982269865,-164.73388458111768
8.619780096,0.9999793529430313,-165.09344731626973
8.628571136,1.0000149450070162,-165.4534693762248
8.637362176,1.0000499850946731,-165.81398311099073
8.64615424,1.000082594638074,-166.1749225145454
8.65494528,1.0001108943424848,-166.53629067283183
8.66373632,1.0001337304825262,-166.8979901162268
8.67252736,1.0001497682655676,-167.25997505552326
8.6813184,1.0001579878790943,-167.6220976116557
8.69010944,1.0001581724388346,-167.9843050145941
8.698901504,1.0001502234443684,-168.3464707376317
8.707692544,1.0001344624192754,-168.70848783696127
8.716483584,1.0001119076348348,-169.07024324987066
8.725274624,1.0000835655516407,-169.43170273528543
8.734065664,1.0000509071874986,-169.79275396375667
8.742856704,1.0000157601872468,-170.15336704906858
8.751648768,0.9999797699365363,-170.5135043044849
8.760439808,0.9999449436918548,-170.87320516429912
8.769230848,0.9999129986547858,-171.23246275846734
8.778021888,0.9998857900720413,-171.59132927630694
8.786812928,0.9998645027255665,-171.94989079467194
8.795603968,0.9998503857396329,-172.3082456059292
8.804396032,0.9998442673807656,-172.66645573340918
8.813187072,0.9998462907649418,-173.02460622356813
8.821978112,0.9998563891900114,-173.38290402234787
8.830769152,0.9998741811337594,-173.74136073477223
8.839560192,0.9998986094748468,-174.10010039089215
8.848351232,0.9999286663541577,-174.45921634532561
8.857143296,0.9999623533490563,-174.81873678021
8.865934336,0.9999982608053942,-175.17874830487608
8.874725376,1.0000343510844698,-175.53921377038336
8.883516416,1.0000688496103565,-175.90016186557008
8.892307456,1.000099947688281,-176.26155918711586
8.901098496,1.0001259924420194,-176.6233239237933
8.90989056,1.0001456092310854,-176.98542219778767
8.9186816,1.000157696242852,-177.34768456349386
8.92747264,1.000161669638053,-177.7101153005302
8.93626368,1.0001574810466882,-178.0725162708042
8.94505472,1.0001450445967117,-178.4348272498003
8.95384576,1.0001252173723563,-178.79693572202422
8.962637824,1.0000989186776394,-179.1587424613752
8.971428864,1.000067489636259,-179.5202009683309
8.980219904,1.0000327867270844,-179.88119253615042
8.989010944,0.9999962050828173,179.75825635948723
8.997801984,0.9999600309300791,179.39818887622036
9.006593024,0.9999259533283928,179.03858366383395
9.015385088,0.9998958027177977,178.67938667024677
9.024176128,0.9998711961093886,178.32054174537822
9.032967168,0.9998533015160624,177.9619883605304
9.041758208,0.9998431777957961,177.6036080119148
9.050549248,0.9998413224624968,177.24530324666222
9.059340288,0.9998478912801871,176.88694228353313
9.068132352,0.9998624882728863,176.52846183915582
9.076923392,0.9998842653458564,176.16974893779687
9.085714432,0.9999124348562586,175.81068108241925
9.094505472,0.9999450883913018,175.45120549967413
9.103296512,0.999980923319805,175.09127718779257
9.112087552,1.000017797578162,174.73086222790573
9.120879616,1.0000539485091902,174.36998991678703
9.129670656,1.0000874035642227,174.0086303366429
9.138461696,1.0001164549845871,173.64686731988397
9.147252736,1.0001396556916804,173.28475315859305
9.156043776,1.000155638090712,172.92237265246075
9.164834816,1.0001636871895971,172.55982100828678
9.17362688,1.0001632273365186,172.1972157295632
9.18241792,1.0001544400208533,171.83466156473605
9.19120896,1.000137603799231,171.47227642223785
9.2,1.0001138419803834,171.1101581842343
9.20879104,1.0000841025318,170.7483879117306
9.21758208,1.0000500603336986,170.38701398507786
9.22637312,1.0000134601206805,170.02609605299267
9.235165184,0.999976167175963,169.66568753594055
9.243956224,0.9999402419290236,169.30575928797776
9.252747264,0.9999074749934149,168.94624295351014
9.261538304,0.9998795661419626,168.58715858379975
9.270329344,0.9998580349387756,168.2283915249909
9.279120384,0.9998440403036001,167.869857529289
9.287912448,0.9998381568890866,167.51144520531375
9.296703488,0.9998408139810593,167.15304675662537
9.305494528,0.9998519151135866,166.7945753984561
9.314285568,0.9998708650808614,166.4358533515607
9.323076608,0.9998966621913248,166.0768992081072
9.331867648,0.999927892818761,165.71753033713424
9.340659712,0.9999631335915181,165.35771691730605
9.349450752,1.0000004822503459,164.99745303021797
9.358241792,1.000038017781738,164.63665698368644
9.367032832,1.000073415239996,164.27540919908168
9.375823872,1.0001054793959443,163.91370279135768
9.384614912,1.0001320649020435,163.5515930451592
9.393406976,1.0001518911959697,163.18919914918288
9.402198016,1.0001639303880117,162.8265812146899
9.410989056,1.0001675436082003,162.46384653146774
9.419780096,1.0001624692151792,162.1011254546141
9.428571136,1.0001491926068165,161.73850566763267
9.437362176,1.0001280501475591,161.37612575161043
9.44615424,1.0001004394117397,161.0140422765964
9.45494528,1.0000675230039324,160.65237851857614
9.46373632,1.000031131402964,160.29116377290134
9.47252736,0.9999933802753055,159.93041275817848
9.4813184,0.9999558305271786,159.57018819840013
9.49010944,0.9999207668613277,159.21041265134386
9.498901504,0.9998897231247901,158.85108077555518
9.507692544,0.9998646716538682,158.49212597788556
9.516483584,0.9998465404545832,158.13344519509624
