freq,mag,phase
6.0,1.0002589781369953,136.83595008319406
6.002285568,1.0001665975215877,136.68030805980044
6.004571648,1.0000636562447773,136.5261296078302
6.006857216,0.9999565475327957,136.37346769913242
6.009142784,0.9998525080285011,136.222402468212
6.011428352,0.999757978187254,136.07281400794085
6.013714432,0.9996788202783848,135.92454329377458
6.016,0.9996203030398532,135.7772902097601
6.018285568,0.9995859408676208,135.63077082909768
6.020571648,0.9995779726879566,135.48456128116229
6.022857216,0.9995970386248361,135.33834099095796
6.025142784,0.9996418919545458,135.19168386554438
6.027428352,0.9997095940229369,135.0442357522672
6.029714432,0.9997960464572806,134.8957205215179
6.032,0.9998958539932098,134.74585944997165
6.034285568,1.0000026356038805,134.5945925125943
6.036571648,1.0001094927035765,134.44175657144436
6.038857216,1.000209916056028,134.28748395916193
6.041142784,1.0002972606836706,134.13185203315336
6.043428352,1.000366365151867,133.97513575873023
6.045714432,1.0004125167338982,133.81762168923265
6.048,1.0004329935716676,133.6596418070387
6.050285568,1.0004264518422274,133.50159840766293
6.052571648,1.0003930510118226,133.34384962592802
6.054857216,1.0003351205594635,133.18682062274434
6.057142784,1.00025627277905,133.0308418607333
6.059428352,1.0001612736206829,132.8761256744969
6.061714432,1.0000563620364837,132.7228958774393
6.064,0.999948008262062,132.57124082049444
6.066285568,0.9998429296299054,132.42118833112147
6.068571648,0.9997481533001162,132.27259708207026
6.070857216,0.9996694671368336,132.1253310588891
6.073142784,0.9996116934752328,131.97909731641312
6.075428352,0.999578892375768,131.83353283633193
6.077714432,0.9995729473809611,131.6882815155113
6.08,0.9995942074721267,131.54298276532873
6.082285568,0.9996414386644137,131.3972000954415
6.084571648,0.9997117552017969,131.25060612997262
6.086857216,0.9998005356407961,131.10292549123676
6.089142784,0.9999023810194226,130.95386721431498
6.091428352,1.00001079456495,130.80331163537014
6.093714432,1.000118730399214,130.65124898500613
6.096,1.0002196766170683,130.49767966593691
6.098285568,1.0003071247210533,130.34274772778622
6.100571648,1.000375469062848,130.18676702637447
6.102857216,1.0004204051334533,130.02995993313962
6.105142784,1.000439009961385,129.8727713438817
6.107428352,1.000430239808721,129.71550185277093
6.109714432,1.000394456593489,129.55856361381532
6.112,1.0003340904546159,129.4024005529236
6.114285568,1.000252695959449,129.24730030611727
6.116571648,1.0001554499275387,129.09349251118155
6.118857216,1.0000487330626517,128.94120083291506
6.121142784,0.9999388613806062,128.79050959360333
6.123428352,0.9998331148859421,128.64146228189435
6.125714432,0.9997381471727859,128.4938644880887
6.128,0.9996598132001019,128.34760275369632
6.130285568,0.9996031099759286,128.2023371101599
6.132571648,0.9995719209329321,128.05774404225195
6.134857216,0.9995679654499487,127.91344981889551
6.137142784,0.999591677696837,127.76902068831059
6.139428352,0.9996414516734065,127.62409518644303
6.141714432,0.9997142043413922,127.47835298255522
6.144,0.9998054161579992,127.3314386591064
6.146285568,0.9999093591579067,127.18313548486233
6.148571648,1.0000193502910801,127.033317909389
6.150857216,1.000128446247161,126.88193704000544
6.153142784,1.0002298171261055,126.72906746284691
6.155428352,1.00031704293582,126.5748635532139
6.157714432,1.000384621443853,126.41953738487231
6.16,1.0004283029143262,126.26346747860649
6.162285568,1.000445030587448,126.10697239524539
6.164571648,1.0004339183228672,125.95048677159164
6.166857216,1.000395749844293,125.79436801741889
6.169142784,1.000332655352468,125.63904620753114
6.171428352,1.0002488408327945,125.4847558130697
6.173714432,1.0001494557804962,125.33189073391183
6.176,1.0000405743991114,125.18053230244463
6.178285568,0.9999294883831381,125.03082471501862
6.180571648,0.9998230126166795,124.8827182584072
6.182857216,0.9997278856717998,124.73610009562223
6.185142784,0.9996499735189319,124.59079291377309
6.187428352,0.9995946289383256,124.44647432639738
6.189714432,0.999565000027563,124.30283480382236
6.192,0.9995631666013921,124.15945332978761
6.194285568,0.9995892983254867,124.01590026945271
6.196571648,0.9996417441756243,123.87182324455279
6.198857216,0.9997170810202798,123.72685302296556
6.201142784,0.9998107753868994,123.58072077863001
6.203428352,0.9999167417683013,123.4331339800993
6.205714432,1.0000283928973224,123.2840219010928
6.208,1.000138475594634,123.13333133539439
6.210285568,1.0002404522496744,122.98111692222068
6.212571648,1.0003273588689328,122.8275746513478
6.214857216,1.0003941471429765,122.6729500625757
6.217142784,1.0004361309135432,122.51754735120313
6.219428352,1.0004510223954866,122.36176838001903
6.221714432,1.0004375812790587,122.20601321732124
6.224,1.000396739340776,122.05068103799762
6.226285568,1.0003309832973533,121.89612158035465
6.228571648,1.0002446176174626,121.74274400278858
6.230857216,1.0001428592189447,121.5907331482715
6.233142784,1.0000322562358765,121.44031353611159
6.235428352,0.999919799497512,121.29152921202501
6.237714432,0.9998124705479909,121.14436875804589
6.24,0.9997173051009822,120.9987036289797
6.242285568,0.9996400674943584,120.85435819376862
6.244571648,0.9995858129324301,120.71097468411693
6.246857216,0.9995581304951194,120.56825782194296
6.249142784,0.99955850656342,120.42571739806283
6.251428352,0.9995871251390065,120.28305293531552
6.253714432,0.9996422348821646,120.13978141196421
6.256,0.9997202912987956,119.99560143738621
6.258285568,0.9998163691336863,119.85017623678358
6.260571648,0.9999244426403482,119.70329089740298
6.262857216,1.0000377507422993,119.55485638374167
6.265142784,1.000149099915441,119.40478250905277
6.267428352,1.0002511289855318,119.25323511183052
6.269714432,1.0003379732066904,119.1003287121677
6.272,1.0004035369224773,118.94634261134154
6.274285568,1.0004439966089238,118.79159580245826
6.276571648,1.0004568534912643,118.63650722100525
6.278857216,1.0004409087326709,118.48148230646952
6.281142784,1.0003974510216427,118.32691053705562
6.283428352,1.0003288888699142,118.17314372794056
6.285714432,1.0002398701438269,118.0205946593387
6.288,1.0001359329666122,117.86946262900143
6.290285568,1.0000234903414396,117.71992505616599
6.292571648,0.9999096659403737,117.57206033025805
6.294857216,0.9998017020818308,117.42583955306506
6.297142784,0.9997064341689996,117.28111004277706
6.299428352,0.9996300008202442,117.13768673550274
6.301714432,0.9995770745549905,116.99522663908053
6.304,0.9995511627204721,116.85338656423998
6.306285568,0.9995539636121334,116.71174144148247
6.308571648,0.9995852774083606,116.56987784599714
6.310857216,0.999643163919385,116.42738817921999
6.313142784,0.9997237367305061,116.28393055899713
6.315428352,0.9998224026847677,116.13922644429799
6.317714432,0.9999327148664297,115.99298917430357
6.32,1.0000475715234052,115.8451815418193
6.322285568,1.0001597730073999,115.69576512423787
6.324571648,1.000262213157977,115.54477053618521
6.326857216,1.0003485814933286,115.39248754451857
6.329142784,1.0004130155253486,115.2391184648072
6.331428352,1.000451792219845,115.08503144551656
6.333714432,1.0004623973751026,114.9305957265545
6.336,1.0004439865447596,114.77626445572396
6.338285568,1.000397605438888,114.62241772577335
6.340571648,1.0003264350222472,114.46946700207084
6.342857216,1.0002347383100503,114.31769102173007
6.345142784,1.000128344543066,114.1674027795903
6.347428352,1.0000140887733036,114.0187536314412
6.349714432,0.9998989890356881,113.87179121691784
6.352,0.9997905103902385,113.72649070649868
6.354285568,0.9996953198338294,113.58267471145555
6.356571648,0.9996196191680811,113.4401465957763
6.358857216,0.9995682057825309,113.29856454754635
6.361142784,0.9995443763599868,113.15758857589321
6.363428352,0.9995496341106039,113.016778941093
6.365714432,0.9995836160403981,112.87571405170958
6.368,0.9996444049329509,112.7339705460659
6.370285568,0.9997278555422802,112.59121606542581
6.372571648,0.9998289870715305,112.44717979451691
6.374857216,0.9999413130717236,112.3016229693201
6.377142784,1.0000576599133841,112.15439036042723
6.379428352,1.0001708761985235,112.00554007584266
6.381714432,1.0002736149132525,111.8551448960349
6.384,1.000359321419783,111.70342555295885
6.386285568,1.0004227471396572,111.5506635323234
6.388571648,1.000459705656871,111.39716867233592
6.390857216,1.0004679673557761,111.24337529323086
6.393142784,1.0004467801625647,111.08972018105148
6.395428352,1.0003976543283963,110.93656087063104
6.397714432,1.0003235786338274,110.784373879196
6.4,1.0002292855296664,110.63340310706135
6.402285568,1.0001205854617468,110.48391165612775
6.404571648,1.0000044651373414,110.33612949507709
6.406857216,0.9998880436688075,110.19003080053874
6.409142784,0.999778910896284,110.04561702081003
6.411428352,0.9996840922682864,109.90274409101343
6.413714432,0.9996092231302628,109.76107598255695
6.416,0.9995594425484552,109.6203835450954
6.418285568,0.9995376003156752,109.48022668958967
6.420571648,0.9995454544556905,109.34020299572414
6.422857216,0.99958237753053,109.19989128858194
6.425142784,0.9996459109537793,109.05886808625843
6.427428352,0.9997323265207851,108.91680010539747
6.429714432,0.9998360463744798,108.77339116202104
6.432,0.9999503733397537,108.62842062852626
6.434285568,1.0000683331173716,108.48177108230662
6.436571648,1.0001823199065256,108.3334899792786
6.438857216,1.0002851912717365,108.18364727220613
6.441142784,1.000370347782906,108.0324830303963
6.443428352,1.0004324940598914,107.88023866114158
6.445714432,1.0004675453495016,107.72732083714443
6.448,1.0004734442435437,107.574163380537
6.450285568,1.0004494206563173,107.4211294153281
6.452571648,1.0003973542434443,107.26870301626884
6.454857216,1.0003203651361843,107.11722284804357
6.457142784,1.0002232505934492,106.96701715289237
6.459428352,1.0001122075039401,106.8183635540933
6.461714432,0.9999942125272289,106.67140467168969
6.464,0.9998766475266974,106.52616614829354
6.466285568,0.9997671630925032,106.38262182514386
6.468571648,0.9996724918495233,106.24056790322797
6.470857216,0.9995986420201333,106.09978844634442
6.473142784,0.9995505059131722,105.9599137796356
6.475428352,0.9995310099432315,105.8205795973342
6.477714432,0.9995414391108177,105.68134054445233
6.48,0.999581347466794,105.54173646988076
6.482285568,0.9996478771810324,105.40141906988906
6.484571648,0.9997371308431113,105.25997615621493
6.486857216,0.9998433552330706,105.11717382750146
6.489142784,0.9999598764456678,104.97276689059615
6.491428352,1.0000792514586272,104.82666366842912
6.493714432,1.0001941466806177,104.67889565178712
6.496,1.000297105925585,104.5295586850596
6.498285568,1.0003814971861045,104.37889022821052
6.500571648,1.0004421688986043,104.22720347962368
6.502857216,1.0004753004734703,104.07485867900094
6.505142784,1.0004785708180757,103.92226337389661
6.507428352,1.0004518494147214,103.76985151523421
6.509714432,1.0003967194826509,103.61809005240036
6.512,1.0003167136627333,103.46728925511302
6.514285568,1.000216865540336,103.31785730912421
6.516571648,1.0001035011653219,103.1699857923178
6.518857216,0.999983646642682,103.02382465432099
6.521142784,0.9998649921252103,102.87940965630565
6.523428352,0.9997549995388688,102.73670871191187
6.525714432,0.9996608086859827,102.59549956384936
6.528,0.9995881425836264,102.45554993781646
6.530285568,0.9995417047446392,102.31649612705608
6.532571648,0.9995246230719185,102.17794646739229
6.534857216,0.9995377588642764,102.039424180473
6.537142784,0.9995806308136609,101.90052954057714
6.539428352,0.9996502631287504,101.76086098034395
6.541714432,0.9997424773784928,101.62003396119133
6.544,0.9998512082042089,101.47777957606222
6.546285568,0.9999698583037311,101.33388548273376
6.548571648,1.0000908296494548,101.18830936409806
6.550857216,1.0002063507414765,101.04100393470213
6.553142784,1.0003091826056545,100.89216270471339
6.555428352,1.0003929596397385,100.74197346879293
6.557714432,1.0004520664834244,100.5907669466665
6.56,1.0004828909453563,100.438946452518
6.562285568,1.000483595613548,100.28692315095257
6.564571648,1.0004538647728187,100.13511490163762
6.566857216,1.0003957259557483,99.98397912917892
6.569142784,1.0003125776296573,99.83387619849196
6.571428352,1.000209953374128,99.68515680140024
6.573714432,1.000094192548196,99.53803877997775
6.576,0.9999726318232932,99.39268399566636
6.578285568,0.9998528551229976,99.24907888929323
6.580571648,0.9997426348291358,99.10719361554347
6.582857216,0.999648783218865,98.96682644528491
6.585142784,0.9995773966689577,98.82765724568796
6.587428352,0.9995328689476496,98.689410421983
6.589714432,0.999518241957918,98.55157767842563
6.592,0.9995343048989962,98.41377316593854
6.594285568,0.9995802301338214,98.2755417922044
6.596571648,0.9996529982969984,98.13648384224267
6.598857216,0.9997481443449638,97.99624310786288
6.601142784,0.9998596047397095,97.85449582000045
6.603428352,0.9999802527352284,97.71110207912184
6.605714432,1.0001025887979518,97.56597876730156
6.608,1.000218864292023,97.4191325318313
6.610285568,1.000321633427506,97.27072750361965
6.612571648,1.0004043941974534,97.12101038058329
6.614857216,1.0004619162450303,96.97027722466463
6.617142784,1.000490554215776,96.81894437200559
6.619428352,1.000488463971891,96.6674346402111
6.621714432,1.0004557406951438,96.51618908109508
6.624,1.0003942583366598,96.36568077156375
6.626285568,1.000308266551307,96.21622925263334
6.628571648,1.000202725693102,96.06821615393137
6.630857216,1.0000845987119946,95.92184630446539
6.633142784,0.9999612752858601,95.77721723673469
6.635428352,0.9998405218545062,95.63441500412834
6.637714432,0.9997299932846964,95.49332827690134
6.64,0.9996366845414443,95.3537258347227
6.642285568,0.9995666475471221,95.21536306014482
6.644571648,0.9995241167723468,95.07784033628826
6.646857216,0.9995120994737716,94.94073404797714
6.649142784,0.9995312022200378,94.80360834243376
6.651428352,0.9995802638230745,94.66599435367351
6.653714432,0.9996563079131923,94.52752257613723
6.656,0.9997543421163976,94.38778668585434
6.658285568,0.9998684701137793,94.24654769125182
6.660571648,0.9999911569463662,94.10360378804013
6.662857216,1.0001148687626673,93.95891602997435
6.665142784,1.0002316729069662,93.81250040873371
6.667428352,1.0003342650822589,93.66450268614308
6.669714432,1.000415979229361,93.51518036344127
6.672,1.000471868048979,93.3648766711657
6.674285568,1.0004980839677857,93.21402099842082
6.676571648,1.0004930808765542,93.06303312286799
6.678857216,1.00045715314357,92.91234203608988
6.681142784,1.0003926057793788,92.7623795385015
6.683428352,1.0003033553420142,92.6136051546402
6.685714432,1.0001950181742933,92.46623446384415
6.688,1.0000744855855124,92.32057204360815
6.690285568,0.999949404481993,92.17670632772482
6.692571648,0.9998277215816235,92.03465792362763
6.694857216,0.999717016506217,91.89433394652426
6.697142784,0.9996244521568102,91.75550035337764
6.699428352,0.9995558362474787,91.61787427445437
6.701714432,0.9995154837864436,91.48106128425435
6.704,0.9995060393711949,91.34464778084273
6.706285568,0.9995282834663295,91.20815007014782
6.708571648,0.9995805944113682,91.07114696694293
6.710857216,0.9996598676213172,90.93320070766009
6.713142784,0.9997610746921968,90.79398666441298
6.715428352,0.9998776978168419,90.65319330758223
6.717714432,1.0000024674444676,90.51067553362844
6.72,1.0001276151777452,90.36636596351606
6.722285568,1.0002449784698324,90.2203103389623
6.724571648,1.0003471082070448,90.07269755725483
6.726857216,1.000427893502573,89.92375360379197
6.729142784,1.00048176835332,89.7738670379077
6.731428352,1.0005054768698247,89.62345271883304
6.733714432,1.000497596933703,89.47290436785843
6.736,1.000458398337691,89.32272582893148
6.738285568,1.0003903410088788,89.17334804191051
6.740571648,1.0002978441705739,89.02516378995573
6.742857216,1.0001868470817767,88.87844839819671
6.745142784,1.0000638942795292,88.73348621535271
6.747428352,0.9999372493649421,88.59033728626842
6.749714432,0.9998145926553064,88.44902209540784
6.752,0.9997037924506723,88.30943085625853
6.754285568,0.999612034528853,88.1713304473288
6.756571648,0.9995449082947945,88.03443864266883
6.758857216,0.9995068467670039,87.89830964406973
6.761142784,0.9995002525172841,87.76252659799275
6.763428352,0.9995256505587563,87.62664489605574
6.765714432,0.9995814077602863,87.4901753308572
6.768,0.9996638975790921,87.35276056900595
6.770285568,0.9997680621497552,87.21397238037386
6.772571648,0.9998874026578656,87.07360730768711
6.774857216,1.0000141858192118,86.93147848335605
6.777142784,1.0001405251282875,86.78752670139778
6.779428352,1.00025830145176,86.64181220888483
6.781714432,1.0003601569782918,86.4945089211481
6.784,1.000439555477943,86.34593398937234
6.786285568,1.0004914841267603,86.1964290267069
6.788571648,1.0005126353531388,86.0464026558259
6.790857216,1.0005015984948826,85.8963087800789
6.793142784,1.0004591296375582,85.74661598529964
6.795428352,1.0003878323952216,85.59777755979691
6.797714432,1.0002921244402523,85.4501741984144
6.8,1.0001780966425005,85.30410096080973
6.802285568,1.000052852893318,85.15978401582088
6.804571648,0.999924562091008,85.01731888795415
6.806857216,0.9998011453476734,84.87672585580256
6.809142784,0.999690403068181,84.73784381976814
6.811428352,0.9995994164896412,84.60046208914514
6.813714432,0.9995340131323793,84.46421676365487
6.816,0.9994983276043669,84.32875751450592
6.818285568,0.9994947113493624,84.19359269963456
6.820571648,0.999523303373311,84.05827445115551
6.822857216,0.9995824778458102,83.92234510414195
6.825142784,0.9996684673568403,83.78537798820257
6.827428352,0.9997757120201229,83.64700964744517
6.829714432,0.9998976442214512,83.507020687588
6.832,1.0000264091561124,83.36522151979139
6.834285568,1.0001538532164116,83.22157972159152
6.836571648,1.0002719946838308,83.07617965749307
6.838857216,1.0003732622492225,82.92921094001765
6.841142784,1.0004513832667363,82.78093605376505
6.843428352,1.0005011824119068,82.63174581644058
6.845714432,1.00051960596182,82.48209372037455
6.848,1.000505406589075,82.33242041357106
6.850285568,1.0004594954759687,82.18321008085039
6.852571648,1.0003847048831984,82.03486373599083
6.854857216,1.000285686315407,81.88782220367372
6.857142784,1.0001687936874002,81.74234929254683
6.859428352,1.000041343720801,81.59867219877717
6.861714432,0.9999113776989127,81.45689277001438
6.864,0.9997871749753222,81.31695480900161
6.866285568,0.9996765979907692,81.17876491572419
6.868571648,0.9995865998588683,81.04204484500262
6.870857216,0.9995229821108231,80.9064743338822
6.873142784,0.9994898049911995,80.7716241326364
6.875428352,0.999489296415363,80.637036034671
6.877714432,0.9995213475942192,80.50225149385348
6.88,0.99958399935627,80.36678890954454
6.882285568,0.9996734075009714,80.23025649493086
6.884571648,0.9997838644481362,80.09227859411642
6.886857216,0.9999083135833209,79.95262103836373
6.889142784,1.0000389471499622,79.81112537202526
6.891428352,1.0001676166477185,79.66776465653116
6.893714432,1.0002860613209605,79.5226196680968
6.896,1.0003866937526256,79.37590901194153
6.898285568,1.000463205996761,79.22792515983072
6.900571648,1.0005108467055466,79.07903773001615
6.902857216,1.000526416024313,78.92972612988959
6.905142784,1.0005089308568345,78.78043383038111
6.907428352,1.0004594644098654,78.6316526929749
6.909714432,1.000381087743429,78.48380132359165
6.912,1.0002788203241297,78.33727904820735
6.914285568,1.0001589890909637,78.19237769554029
6.916571648,1.0000293327568421,78.0493436633184
6.918857216,0.9998978040564924,77.90818060380747
6.921142784,0.9997730379908678,77.76891047518366
6.923428352,0.9996625734947744,77.63136794535345
6.925714432,0.9995737373241246,77.49531249861721
6.928,0.9995120783393748,77.36033256070907
6.930285568,0.9994815169165616,77.2260778383839
6.932571648,0.999484124692592,77.09203471537919
6.934857216,0.999519696420103,76.95774521237365
6.937142784,0.9995859524523582,76.82273826684454
6.939428352,0.9996788377071889,76.68659038315357
6.941714432,0.9997923822431507,76.5489411181298
6.944,0.9999194155900214,76.40959577862206
