freq,mag,phase
6.0,0.9999572102477394,-115.69967665405038
6.04166656,0.9999435606957605,-117.82582759293163
6.08333312,0.9999302190193051,-119.95214647468265
6.125000192,0.9999176554543342,-122.07854713955712
6.166666752,0.9999057335066688,-124.2050575774389
6.208333312,0.9998947062852265,-126.33163327124743
6.249999872,0.9998847163962532,-128.45821365755828
6.291666432,0.9998758818293837,-130.58481747309034
6.333333504,0.9998681597588124,-132.71142826384886
6.375000064,0.9998617349884352,-134.83797807288133
6.416666624,0.9998566412468038,-136.9644936344859
6.458333184,0.9998530364230032,-139.09090155562657
6.499999744,0.9998507351794612,-141.2172189426585
6.541666816,0.9998499533572232,-143.3433965793477
6.583333376,0.9998506105756324,-145.4694168682148
6.624999936,0.9998527459994666,-147.59529559184725
6.666666496,0.9998563883518783,-149.72099738720576
6.708333568,0.9998613682813958,-151.8464414142581
6.750000128,0.9998677441593995,-153.97168826512436
6.791666688,0.9998754172655818,-156.09667730559008
6.833333248,0.99988441359332,-158.22139558111462
6.874999808,0.9998944496690928,-160.34581248002274
6.91666688,0.9999056681920471,-162.46992735815718
6.95833344,0.9999177976366349,-164.59369628268945
7.0,0.9999307923564843,-166.71711070263376
7.04166656,0.9999443259168846,-168.84015646234232
7.08333312,0.9999586847995063,-170.96276571743056
7.125000192,0.9999734845407102,-173.08498587658863
7.166666752,0.9999884857756968,-175.2067616113325
7.208333312,1.0000037067813246,-177.32803414022845
7.249999872,1.0000189694127561,-179.4488406934329
7.291666432,1.0000339960138374,178.43088025375485
7.333333504,1.0000488299975459,176.31116129367993
7.375000064,1.0000632516803931,174.19198668406935
7.416666624,1.000077138202588,172.07340805894438
7.458333184,1.0000902096709035,169.95548091956027
7.500000256,1.000102532981651,167.8381619448043
7.541666816,1.0001137665534874,165.7215025735984
7.583333376,1.0001241035508426,163.60558644981032
7.624999936,1.0001330286977645,161.49035678804626
7.666666496,1.0001409389798441,159.37588313462552
7.708333568,1.0001473598859099,157.26218079761009
7.750000128,1.000152345225147,155.14929174910708
7.791666688,1.0001558719667014,153.03722381675922
7.833333248,1.0001579072542517,150.92602930980752
7.874999808,1.0001583450127687,148.8156958223201
7.91666688,1.0001572617645218,146.7062705936372
7.95833344,1.0001546473099203,144.5977602297813
8.0,1.000150480665291,142.49021164248194
8.04166656,1.0001448066953424,140.38362134338595
8.08333312,1.0001377919422132,138.27804520235722
8.125000192,1.0001292837672968,136.17348535526182
8.166666752,1.0001194327475138,134.0699573001766
8.208333312,1.0001084058555385,131.96748654272596
8.249999872,1.000096243907408,129.86607829685778
8.291666432,1.0000832073139796,127.76576869261378
8.333333504,1.0000691514050184,125.66657698563967
8.375000064,1.0000544315399171,123.56849822428342
8.416666624,1.0000390651148314,121.47154474578308
8.458333184,1.0000232557485058,119.37574168045376
8.499999744,1.000007159413488,117.28108867403387
8.541666816,0.9999909086270646,115.18758795925245
8.583333376,0.9999747227951093,113.09528039942309
8.625000448,0.9999585481502042,111.00410906683456
8.666667008,0.9999428913448297,108.91415458466426
8.708333568,0.9999276903718677,106.82534688593014
8.750000128,0.9999131737991145,104.73773271665182
8.791666688,0.9998994275599786,102.65129287155509
8.833333248,0.9998865414671683,100.56603544793423
8.874999808,0.9998747741638044,98.48195481208548
8.916666368,0.9998642438353551,96.39900767637589
8.958332928,0.99985487689856,94.31725183795028
8.999999488,0.999846969935722,92.236643708114
9.041667072,0.999840563913764,90.15716250746316
9.083333632,0.9998357933956249,88.0788196975512
9.125000192,0.9998326071146728,86.00161621279383
9.166666752,0.9998309652881398,83.92552379165576
9.208333312,0.9998310944167443,81.85052134657187
9.249999872,0.9998328041222738,79.7765998913049
9.291666432,0.9998362383413631,77.70374849303857
9.333332992,0.9998413409124266,75.63194440525288
9.374999552,0.9998480501142308,73.56120950949814
9.416667136,0.9998563425902594,71.49148534860905
9.458333696,0.9998659658849411,69.42279507440307
9.500000256,0.9998770922874115,67.35507463397305
9.541666816,0.9998894847054215,65.28833534700365
9.583333376,0.9999030580753439,63.22257977475833
9.624999936,0.9999175757028422,61.15776338397204
9.666666496,0.9999330359979148,59.093900303615676
9.708333056,0.9999492789271237,57.0309487579875
9.749999616,0.9999661092114475,54.968906993346856
9.791666176,0.9999832940950276,52.9077610808344
9.83333376,1.0000007687067758,50.847487014346726
9.87500032,1.0000183292979439,48.78809331799892
9.91666688,1.0000357549695706,46.72956428300114
9.95833344,1.0000529663177946,44.6718682784709
10.0,1.000069785946868,42.61501014290068
10.04166656,1.0000858260368974,40.55897012233388
10.08333312,1.0001012052703733,38.503745914081456
10.12499968,1.000115561725847,36.44934078624571
10.16666624,1.0001289067825052,34.395719749243156
10.208333824,1.0001410415850007,32.342906972751
10.250000384,1.0001517590770477,30.290854907151164
10.291666944,1.000160960841493,28.23958124527646
10.333333504,1.0001686217790635,26.189084126064714
10.375000064,1.0001745895806995,24.139338317757716
10.416666624,1.0001789292225785,22.090353734459484
10.458333184,1.0001813263723762,20.042094457206392
10.499999744,1.0001820184505188,17.99459495593743
10.541666304,1.0001808743830312,15.947816484682873
10.583332864,1.0001778755702806,13.90176170698762
10.625000448,1.000173112064975,11.856446560942038
10.666667008,1.0001665049906885,9.811826520349857
10.708333568,1.0001580553789087,7.76789898755251
10.750000128,1.0001480794931625,5.724676367871948
10.791666688,1.0001365611419388,3.6821366204781163
10.833333248,1.0001234650288193,1.6402674709217147
10.874999808,1.000109124361263,-0.4009328730634865
10.916666368,1.000093521929187,-2.4414901621294685
10.958332928,1.0000768987117954,-4.481403633862675
11.000000512,1.0000593697500704,-6.520700009326923
11.041667072,1.0000411844601578,-8.559381910039674
11.083333632,1.0000223812163116,-10.597470314622981
11.125000192,1.000003160335369,-12.63498952694718
11.166666752,0.9999838528582004,-14.671953408398643
11.208333312,0.9999645084282826,-16.708383266381464
11.249999872,0.9999454013209411,-18.74428206415911
11.291666432,0.9999268098869843,-20.779691197116275
11.333332992,0.9999086181761826,-22.814651484044088
11.374999552,0.9998912789178789,-24.849152618881583
11.416667136,0.9998750085989957,-26.883233488524677
11.458333696,0.9998597410658924,-28.916938730854604
11.500000256,0.9998458126212346,-30.950256193766545
11.541666816,0.9998333523937217,-32.9832668713655
11.583333376,0.9998224037494458,-35.015968754505
11.624999936,0.9998131502846765,-37.048374756022554
11.666666496,0.999805716500469,-39.08057215074504
11.708333056,0.9998001946463022,-41.112535145267294
11.749999616,0.999796522506678,-43.144317231920844
11.791666176,0.9997949748169498,-45.175957194080546
11.83333376,0.9997954021746648,-47.20748206534272
11.87500032,0.9997978408117904,-49.23894965396936
11.91666688,0.9998022776413531,-51.27036318004377
11.95833344,0.999808804409625,-53.30174734660559
12.0,0.9998172118763998,-55.33315880303161
12.04166656,0.9998276007084056,-57.364640237760874
12.08333312,0.9998396425491519,-59.39618756304792
12.12499968,0.9998534095121372,-61.427856174756215
12.16666624,0.9998687203098071,-63.45967257053991
12.208333824,0.9998854614358583,-65.49165663262927
12.250000384,0.999903450265791,-67.52385993720557
12.291666944,0.999922540938957,-69.55629269669815
12.333333504,0.9999425073988705,-71.58899337555648
12.375000064,0.9999632551916855,-73.62195208359894
12.416666624,0.9999844435977769,-75.65523835152375
12.458333184,1.0000058860127234,-77.6888614151887
12.499999744,1.0000275391547753,-79.7228413805303
12.541666304,1.0000490317551047,-81.7571858951892
12.583332864,1.0000701517851238,-83.79192568010374
12.625000448,1.0000907153821128,-85.82707086158209
12.666667008,1.0001105781543693,-87.86265958900366
12.708333568,1.000129355762186,-89.89869166465594
12.750000128,1.0001471530935762,-91.93516606998242
12.791666688,1.0001635197927428,-93.97211287026958
12.833333248,1.0001784433600778,-96.00953204900894
12.874999808,1.000191664410912,-98.0474456351939
12.916666368,1.000203098028831,-100.0858572415886
12.958332928,1.0002124855826269,-102.12477065909941
12.999999488,1.00021992459879,-104.16419909892426
13.041667072,1.0002251229595998,-106.20413054155243
13.083333632,1.000228247923413,-108.2445928161875
13.125000192,1.0002290715790132,-110.28557476048789
13.166666752,1.0002275782789845,-112.32708489249897
13.208333312,1.0002237996871342,-114.36913534516628
13.249999872,1.0002177107655161,-116.4117183017256
13.291666432,1.0002094332265439,-118.45483962234643
13.333332992,1.000198968459924,-120.49849822625735
13.374999552,1.000186326695967,-122.54270463398345
13.416667136,1.0001718616766986,-124.58745496647921
13.458333696,1.000155458222278,-126.63272888161532
13.500000256,1.0001372597992038,-128.67856886791674
13.541666816,1.0001175904115065,-130.72498310854826
13.583333376,1.0000965031272915,-132.77194018786727
13.624999936,1.0000741535948234,-134.81944610246768
13.666666496,1.0000509506397677,-136.86754169361043
13.708333056,1.0000269253418779,-138.91621483471417
13.749999616,1.0000023477113633,-140.96546006424032
13.791666176,0.9999774380484316,-143.01530674701795
13.83333376,0.9999525169842179,-145.06573464122064
13.87500032,0.9999276914623432,-147.1167904925649
13.91666688,0.9999033701505089,-149.16844989964122
13.95833344,0.9998797306318767,-151.22074249597705
14.0,0.999856860184727,-153.27369245092243
