freq,mag,phase
6.0,1.0003476515407317,-94.25558638592051
6.002285568,1.00046661002136,-94.38902902704446
6.004571648,1.0005550290614864,-94.52397508220145
6.006857216,1.0006085557356117,-94.65997815121679
6.009142784,1.0006231444329163,-94.79644634351988
6.011428352,1.0005982881421693,-94.93290154287482
6.013714432,1.0005353760414861,-95.06867426238355
6.016,1.0004382830268606,-95.20333495621466
6.018285568,1.0003132349097525,-95.33639492711372
6.020571648,1.0001683140633097,-95.46748051068761
6.022857216,1.0000126471598714,-95.59640226938083
6.025142784,0.9998560866161542,-95.72305321407539
6.027428352,0.9997084462830358,-95.84750762298704
6.029714432,0.9995794945781901,-95.96993277701317
6.032,0.9994771958643893,-96.09066582093192
6.034285568,0.9994081167966635,-96.21019208434114
6.036571648,0.9993767596244619,-96.3289741604135
6.038857216,0.9993850956707719,-96.44761464981886
6.041142784,0.9994326169504736,-96.5666616831101
6.043428352,0.999516238370783,-96.68665509712703
6.045714432,0.9996307540632949,-96.8081165233933
6.048,0.9997688125607762,-96.9313980528362
6.050285568,0.9999216736035219,-97.05685318851069
6.052571648,1.000079540564654,-97.18455106025984
6.054857216,1.0002324977330552,-97.31453227948946
6.057142784,1.000370640399538,-97.4466580556687
6.059428352,1.000485223524014,-97.58060321641786
6.061714432,1.0005692180808656,-97.71603144387215
6.064,1.0006168423331332,-97.85242640697972
6.066285568,1.0006254246914397,-97.98920396577002
6.068571648,1.0005939463871194,-98.12588022608593
6.070857216,1.0005249699125527,-98.261777529092
6.073142784,1.0004223809418513,-98.39649336374589
6.075428352,1.000293030077169,-98.52949138609326
6.077714432,1.000144828232192,-98.66050339567651
6.08,0.9999875454304638,-98.78931233504653
6.082285568,0.9998308046238369,-98.9158074464658
6.084571648,0.9996847634110889,-99.04011354007204
6.086857216,0.9995585745535188,-99.16247851153541
6.089142784,0.9994607367102409,-99.2831352382915
6.091428352,0.9993969766924399,-99.40269969599844
6.093714432,0.9993716988061123,-99.52159117598757
6.096,0.9993863766715526,-99.64042084888018
6.098285568,0.9994400810808883,-99.75973448409131
6.100571648,0.9995297064236202,-99.88011190390465
6.102857216,0.99964901437177,-100.00201220845564
6.105142784,0.999790830082982,-100.12584580907276
6.107428352,0.9999461975580719,-100.25184405252095
6.109714432,1.0001047855975194,-100.38012196713073
6.112,1.0002569768475857,-100.51067611386445
6.114285568,1.0003927782937094,-100.64333686848376
6.116571648,1.0005036824588827,-100.77782823962855
6.118857216,1.0005826118684635,-100.9136674764644
6.121142784,1.0006244453425832,-101.05040295311157
6.123428352,1.0006267790138117,-101.18746236800193
6.125714432,1.000588971251836,-101.32431971771724
6.128,1.0005138515361924,-101.46033829209182
6.130285568,1.000406000875914,-101.5950414996563
6.132571648,1.0002722357857883,-101.72796676239732
6.134857216,1.0001209978882302,-101.85886153227518
6.137142784,0.9999621348014104,-101.9874962236406
6.139428352,0.9998054466432458,-102.11385961147658
6.141714432,0.9996611055087116,-102.23800074931043
6.144,0.9995383750259182,-102.3602017604195
6.146285568,0.9994448469399961,-102.4808489510491
6.148571648,0.9993867396243507,-102.60041196346694
6.150857216,0.9993674218236381,-102.71939205855227
6.153142784,0.9993885735279284,-102.8384146140664
6.155428352,0.99944865239736,-102.9580251681269
6.157714432,0.9995438058630283,-103.07873846929746
6.16,0.9996681256267755,-103.20108801745913
6.162285568,0.9998135612373963,-103.3253678487971
6.164571648,0.9999707819261331,-103.45190962813489
6.166857216,1.0001301501066133,-103.5807742694295
6.169142784,1.0002812054284576,-103.71187414364127
6.171428352,1.0004143907979128,-103.84503970613966
6.173714432,1.0005213633753385,-103.98001005874535
6.176,1.000595165382858,-104.11627997039281
6.178285568,1.000631025961567,-104.25334716226358
6.180571648,1.000626968622269,-104.39062684589418
6.182857216,1.0005829526114847,-104.52763129388576
6.185142784,1.0005018124538743,-104.66371105786496
6.187428352,1.0003886836173854,-104.79834956519247
6.189714432,1.0002506979877008,-104.93122220979845
6.192,1.0000967770972922,-105.06194520242909
6.194285568,0.99993663108103,-105.19039951709719
6.196571648,0.9997804483688785,-105.31653813373345
6.198857216,0.9996380316065012,-105.44051157365017
6.201142784,0.9995185392728149,-105.56260760049857
6.203428352,0.9994298064364734,-105.68314605966088
6.205714432,0.9993771931943275,-105.80270984240515
6.208,0.9993641908066739,-105.92174811022088
6.210285568,0.9993918258318724,-106.04094578975564
6.212571648,0.9994581183785161,-106.16080227755135
6.214857216,0.9995589030994446,-106.28189821593084
6.217142784,0.9996879186393187,-106.40465680681672
6.219428352,0.9998366520017219,-106.52945243387653
6.221714432,0.999996025596124,-106.6564957892266
6.224,1.0001555745976192,-106.78587318643926
6.226285568,1.000305379297381,-106.91751727283864
6.228571648,1.0004356436829727,-107.05121566530485
6.230857216,1.0005385265476578,-107.18659782182421
6.233142784,1.0006070567988592,-107.32322771796343
6.235428352,1.0006369938259039,-107.46056944786534
6.237714432,1.0006262955793757,-107.59809651413218
6.24,1.0005759440804274,-107.7351800309529
6.242285568,1.000488860613346,-107.87124229414145
6.244571648,1.0003705838356676,-108.00585052267775
6.246857216,1.0002287663688338,-108.1385885452263
6.249142784,1.0000722536572875,-108.26912325930473
6.251428352,0.9999109696229982,-108.39735411254658
6.253714432,0.9997553764875754,-108.52329075379528
6.256,0.999615207335526,-108.64707975079476
6.258285568,0.9994993949248969,-108.76897837242961
6.260571648,0.9994153732498455,-108.88947773158799
6.262857216,0.9993686950875563,-109.008981484852
6.265142784,0.9993620453582518,-109.12812637054112
6.267428352,0.9993960081174209,-109.24747788098593
6.269714432,0.9994684943082794,-109.36755345472179
6.272,0.9995748056886975,-109.48898917160936
6.274285568,0.9997083952976723,-109.61215074361641
6.276571648,0.9998603707860925,-109.73740709653481
6.278857216,1.0000213154033781,-109.86497808304111
6.281142784,1.0001810211439555,-109.99488742426719
6.283428352,1.0003293065630918,-110.12697836769587
6.285714432,1.0004565692939922,-110.26114353586848
6.288,1.0005549289874767,-110.3969509517877
6.290285568,1.000618062041814,-110.53392034478833
6.292571648,1.0006417235214908,-110.67154513964779
6.294857216,1.0006247888919848,-110.80918954116999
6.297142784,1.0005679569584498,-110.94632592351427
6.299428352,1.0004750184449256,-111.08240523373922
6.301714432,1.0003517167468503,-111.21689457681403
6.304,1.0002060844147258,-111.34944616105574
6.306285568,1.0000472464926538,-111.4797531251059
6.308571648,0.9998852190323609,-111.60776868662117
6.310857216,0.9997304468701204,-111.73343823658263
6.313142784,0.9995925356148393,-111.85702293032662
6.315428352,0.9994806479714728,-111.97878331404709
6.317714432,0.9994018677466417,-112.09913949710388
6.32,0.9993609359898932,-112.21864058388395
6.322285568,0.9993607649018937,-112.33779187139639
6.324571648,0.9994012440448148,-112.45732975082127
6.326857216,0.9994798011868832,-112.57765395841248
6.329142784,0.9995916074730948,-112.69939665246955
6.331428352,0.9997293720853844,-112.82301077145924
6.333714432,0.999884447639426,-112.94869771020889
6.336,1.0000468350862852,-113.07671160246862
6.338285568,1.0002064310815104,-113.20709222084781
6.340571648,1.0003527521082596,-113.33968611483502
6.342857216,1.0004768923964868,-113.47426501662538
6.345142784,1.000570578971794,-113.61042901468323
6.347428352,1.0006280803312326,-113.74773247402068
6.349714432,1.0006456892855355,-113.88554948373192
6.352,1.0006220819040463,-114.02334984386792
6.354285568,1.0005589625183418,-114.16053520669628
6.356571648,1.000460187568242,-114.29652643659223
6.358857216,1.000332195200659,-114.4308483920385
6.361142784,1.0001828410310651,-114.56321742588514
6.363428352,1.0000218250277153,-114.69326168098053
6.365714432,0.9998592015119758,-114.82101250717717
6.368,0.9997055268699179,-114.9464432999381
6.370285568,0.999570555570833,-115.06976244117611
6.372571648,0.9994627038911921,-115.19133540589638
6.374857216,0.9993889587612713,-115.31154347219362
6.377142784,0.99935413379982,-115.4310130499969
6.379428352,0.9993604438473013,-115.55023584589561
6.381714432,0.9994073640319499,-115.66984830363319
6.384,0.9994920180674666,-115.79045601263583
6.386285568,0.9996090955313539,-115.9124927870841
6.388571648,0.9997511168437645,-116.03645910219645
6.390857216,0.999908967985468,-116.16259672294905
6.393142784,1.0000726793693555,-116.29104758367788
6.395428352,1.0002317779039238,-116.42191270214265
6.397714432,1.0003761198087184,-116.55495967346593
6.4,1.000496660427153,-116.68993881297102
6.402285568,1.0005856533938675,-116.82647719220262
6.404571648,1.0006374509045153,-116.96398289423716
6.406857216,1.000648610476464,-117.10202045728892
6.409142784,1.0006185560448135,-117.23987216071114
6.411428352,1.0005491097851102,-117.3770398656997
6.413714432,1.0004447054339194,-117.51294375010983
6.416,1.0003118979901342,-117.64709642634647
6.418285568,1.0001591025890693,-117.77916595461531
6.420571648,0.9999961468296695,-117.90900289476012
6.422857216,0.9998332695610627,-118.03646242672932
6.425142784,0.9996808549921911,-118.16159272770503
6.427428352,0.999548707270314,-118.28465491925918
6.429714432,0.9994452672832662,-118.40596474159277
6.432,0.9993769419478531,-118.52605083144891
6.434285568,0.9993482107717064,-118.64544940886778
6.436571648,0.9993610511690486,-118.76472339845061
6.438857216,0.9994144029194292,-118.88449252095766
6.441142784,0.9995052582562881,-119.00527165759493
6.443428352,0.9996274725033462,-119.12764619310165
6.445714432,0.9997734786456285,-119.2519862990718
6.448,0.9999338938529369,-119.3785162792806
6.450285568,1.0000985987422826,-119.50746257363556
6.452571648,1.0002570305844116,-119.638724798764
6.454857216,1.0003991997297246,-119.77216360393447
6.457142784,1.0005159797886853,-119.90752766280578
6.459428352,1.0006000648600049,-120.04435966425898
6.461714432,1.0006458160913378,-120.18212709478385
6.464,1.000650628294665,-120.32027543710207
6.466285568,1.0006139749567455,-120.45818060409414
6.468571648,1.0005381298604494,-120.59527891318777
6.470857216,1.0004281723072743,-120.73103740448687
6.473142784,1.0002907363131377,-120.86501077556434
6.475428352,1.0001348589474062,-120.99681978743168
6.477714432,0.9999701838110587,-121.12628828976558
6.48,0.9998072966089783,-121.25340498093567
6.482285568,0.9996565020289472,-121.37825103439023
6.484571648,0.9995274661887384,-121.50101777761027
6.486857216,0.9994285071945302,-121.62214145460119
6.489142784,0.9993657111782751,-121.7420558814776
6.491428352,0.9993433007664412,-121.86138979169817
6.493714432,0.9993626921653651,-121.98068454425935
6.496,0.9994226093108801,-122.10053613284751
6.498285568,0.9995192698266507,-122.22157408366547
6.500571648,0.9996465810975994,-122.34420523120474
6.502857216,0.9997964617014361,-122.4688894943759
6.505142784,0.9999592839504027,-122.59579294516786
6.507428352,1.0001246736638698,-122.72514331193186
6.509714432,1.000282338890509,-122.85681842428154
6.512,1.0004218437325516,-122.99069029014188
6.514285568,1.0005347622878962,-123.12638994645714
6.516571648,1.000613612325984,-123.26347916192668
6.518857216,1.0006533267478268,-123.40144266260566
6.521142784,1.0006516655929187,-123.53967411779246
6.523428352,1.0006085007694745,-123.67758659418946
6.525714432,1.0005264478846065,-123.81460317299802
6.528,1.0004109530946959,-123.95016805173788
6.530285568,1.0002690903502829,-124.08386140135258
6.532571648,1.0001100552213298,-124.2154008978327
6.534857216,0.9999439615134569,-124.34450679079177
6.537142784,0.9997812046402219,-124.47127055444282
6.539428352,0.9996323040565717,-124.59579912415428
6.541714432,0.9995066356612812,-124.71822395794274
6.544,0.9994122995898014,-124.83911540553142
6.546285568,0.9993552630245053,-124.95890000834352
6.548571648,0.9993393242446262,-125.07811673661324
6.550857216,0.9993652696868336,-125.1974488562229
6.553142784,0.9994317281555897,-125.31736101605723
6.555428352,0.9995342926227585,-125.43857496265548
6.557714432,0.9996665356128629,-125.5615317497853
6.56,0.9998199856352363,-125.68651816485539
6.562285568,0.9999849815368995,-125.81385494171953
6.564571648,1.0001509171136982,-125.94356730048192
6.566857216,1.0003072956840322,-126.07561842695692
6.569142784,1.0004442271599971,-126.20986292730922
6.571428352,1.0005528132277675,-126.34587694274921
6.573714432,1.0006262907405101,-126.48316571649764
6.576,1.0006600774957841,-126.62126997202394
6.578285568,1.000651652788717,-126.75957790138096
6.580571648,1.0006018484953951,-126.89745863116285
6.582857216,1.0005136931601328,-127.03434787076851
6.585142784,1.0003927320258201,-127.16969010153916
6.587428352,1.0002467083255413,-127.3031096116741
6.589714432,1.0000848522391899,-127.43427429872443
6.592,0.99991743420019,-127.56303995566262
6.594285568,0.9997552359018355,-127.68941897410504
6.596571648,0.9996083951763263,-127.81355964169194
6.598857216,0.9994864150248894,-127.9356956307352
6.601142784,0.9993968281226052,-128.0563027075221
6.603428352,0.9993457474094868,-128.17587723927156
6.605714432,0.9993362186626005,-128.29503779106986
6.608,0.9993689553395642,-128.41431989869488
6.610285568,0.9994418124348978,-128.53439279546626
6.612571648,0.9995501566849753,-128.65575191659312
6.614857216,0.9996871618719165,-128.77897266602656
6.617142784,0.9998441753875296,-128.90427415499602
6.619428352,1.000011034815022,-129.03193818162197
6.621714432,1.0001772153465551,-129.16205485393675
6.624,1.000332228851557,-129.29451603164875
6.626285568,1.0004661081574633,-129.42903077038756
6.628571648,1.0005703010218583,-129.5653024970081
6.630857216,1.0006383066738946,-129.7028158320605
6.633142784,1.000665721414572,-129.84104408833227
6.635428352,1.0006507337710906,-129.97937022013127
6.637714432,1.0005942631163558,-130.11714852801512
6.64,1.0005000282582703,-130.25385540864002
6.642285568,1.0003737307474907,-130.38893562516023
6.644571648,1.0002236461940575,-130.52204563741637
6.646857216,1.0000591472247955,-130.6528298535678
6.649142784,0.9998907504302773,-130.78117932478963
6.651428352,0.9997292690855726,-130.90717202946706
6.653714432,0.9995847242293507,-131.03092088712856
6.656,0.9994665068863426,-131.15269376667712
6.658285568,0.9993821700642598,-131.2730354284267
6.660571648,0.9993371025797771,-131.39241876412737
6.662857216,0.999334135815953,-131.5114431876698
6.665142784,0.999373595623078,-131.63072474768254
6.667428352,0.99945284967499,-131.75088864995834
6.669714432,0.9995668720946711,-131.87246853636142
6.672,0.9997085828571294,-131.99588956652707
6.674285568,0.9998688442173224,-132.12150121675796
6.676571648,1.0000374113311539,-132.24948709624167
6.678857216,1.0002036647670431,-132.3799139200423
6.681142784,1.0003569428901897,-132.51270882987257
6.683428352,1.0004876136996248,-132.64753676293398
6.685714432,1.0005873046589706,-132.78406400677375
6.688,1.000649484483489,-132.9217678428589
6.690285568,1.0006704856209878,-133.06006049349216
6.692571648,1.0006487339941488,-133.19835561220245
6.694857216,1.0005857309059156,-133.33604164302125
6.697142784,1.0004853263182514,-133.47249038580355
6.699428352,1.0003539991348167,-133.60728492429175
6.701714432,1.0002000034707346,-133.74003559708754
6.704,1.0000330264667008,-133.87041709512735
6.706285568,0.9998639838462928,-133.99833656199547
6.708571648,0.9997033504296103,-134.12389064092375
6.710857216,0.9995613637866864,-134.24718990383116
6.713142784,0.9994473382346402,-134.36865117988128
6.715428352,0.9993682937751758,-134.48868597581716
6.717714432,0.9993293575672931,-134.60784702775334
6.72,0.9993331609946529,-134.72676878149974
6.722285568,0.9993792281610807,-134.84602601810641
6.724571648,0.9994648914394898,-134.9662370053773
6.726857216,0.9995845817608962,-135.0879752685063
6.729142784,0.9997307391775664,-135.2116067985452
6.731428352,0.9998940512741027,-135.33750870186236
6.733714432,1.0000640145583526,-135.46583833282375
6.736,1.000230048074127,-135.59662793731354
6.738285568,1.0003814504493207,-135.72970300677324
6.740571648,1.0005086140446477,-135.86481444028945
6.742857216,1.0006033965559533,-136.001531431333
6.745142784,1.0006597504766614,-136.1393484624055
6.747428352,1.0006741674671829,-136.27768078925968
6.749714432,1.0006457238756712,-136.41591309068613
6.752,1.000576069071829,-136.55338774921424
6.754285568,1.0004697076474651,-136.6896389270521
6.756571648,1.0003332902218123,-136.82410203473347
6.758857216,1.0001755651670368,-136.95641415103017
6.761142784,1.0000065210716977,-137.08638809265898
6.763428352,0.9998368757915399,-137.21382458479255
6.765714432,0.9996775494461394,-137.33889765677262
6.768,0.9995384209998281,-137.46180766304334
6.770285568,0.999428645796739,-137.58285874693965
6.772571648,0.9993551167520173,-137.70261850857688
6.774857216,0.9993225555699626,-137.82152980130004
6.777142784,0.9993330327112603,-137.94029796589908
6.779428352,0.9993859120305539,-138.05955615347227
6.781714432,0.9994779783729406,-138.17983722297683
6.784,0.9996031850739515,-138.3017186947035
6.786285568,0.9997536495667929,-138.4255547837913
6.788571648,0.9999197615395282,-138.55173126027313
6.790857216,1.0000911120812368,-138.68035838128702
6.793142784,1.0002565194845932,-138.8114482022936
6.795428352,1.0004057712514158,-138.9447995984875
6.797714432,1.0005291078593523,-139.08012819277099
6.8,1.0006188554809965,-139.21700362052
6.802285568,1.000669236855272,-139.3549214913048
6.804571648,1.0006769982991586,-139.4932482612995
6.806857216,1.0006417030634578,-139.63138725892983
6.809142784,1.0005654689412502,-139.76867844444823
6.811428352,1.0004531555601541,-139.9046424698204
6.813714432,1.0003118422041342,-140.03875130462728
6.816,1.000150643619981,-140.1706360334079
6.818285568,0.9999796090776123,-140.300115957441
6.820571648,0.99980973657658,-140.42705530198177
6.822857216,0.9996518161522444,-140.55164851177193
6.825142784,0.9995158589678247,-140.6741040178525
6.827428352,0.9994106700514082,-140.79476157904608
6.829714432,0.9993428102936089,-140.9141626652954
6.832,0.999316678517721,-141.03284744837865
6.834285568,0.999334018778892,-141.15147807956336
6.836571648,0.9993937591617333,-141.27067832129617
6.838857216,0.999491968211486,-141.39103766416298
6.841142784,0.999622654473062,-141.5130054900296
6.843428352,0.9997772014914657,-141.63708561139552
6.845714432,0.9999460323610084,-141.76350808287071
6.848,1.0001183007671675,-141.89240953012958
6.850285568,1.0002830518152999,-142.02377003139063
6.852571648,1.0004297811511438,-142.1573923201001
6.854857216,1.0005491777542677,-142.29292776764183
6.857142784,1.0006337044591,-142.42995883154782
6.859428352,1.0006778322220942,-142.56792293544225
6.861714432,1.0006788790298347,-142.70619190544005
6.864,1.0006366271014715,-142.84418227628524
6.866285568,1.0005537766881756,-142.98127418602382
6.868571648,1.0004356889806465,-143.1168623367104
6.870857216,1.0002896724630572,-143.25057462203608
6.873142784,1.0001250943676032,-143.38197996196197
6.875428352,0.999952409162169,-143.51091998790224
6.877714432,0.9997824309950064,-143.6373738696011
6.88,0.9996263133562479,-143.76145643589817
6.882285568,0.9994937257471631,-143.88341288964654
6.884571648,0.9993933070820143,-144.00366747538268
6.886857216,0.9993313209633038,-144.1227292630531
6.889142784,0.9993118222123731,-144.2411872313615
6.891428352,0.9993361097729463,-144.35967999239026
6.893714432,0.9994025893371417,-144.47880304940577
6.896,0.9995070320716658,-144.59917143402984
6.898285568,0.9996429516633357,-144.7213022549946
6.900571648,0.9998014787789578,-144.84556567039886
6.902857216,0.9999726831776756,-144.97220729249582
6.905142784,1.000145693604036,-145.10136731224222
6.907428352,1.0003094529259682,-145.23298758185527
6.909714432,1.0004533612341595,-145.36685164776654
6.912,1.0005685895040115,-145.50255085052018
6.914285568,1.0006476501170174,-145.63967904143823
6.916571648,1.000685497175685,-145.77765995515404
