freq,mag,phase
6.0,1.0000230760396933,147.51990584243788
6.002287616,1.0001264292973773,147.36022740511018
6.004575232,1.0002205188349704,147.199178695752
6.006862848,1.0003005579983204,147.03683757588297
6.009150464,1.0003613605635726,146.8735373255638
6.011438592,1.0003992664199504,146.7095122609521
6.013726208,1.0004118185924986,146.54513962048273
6.016013824,1.000398335417654,146.38080802211994
6.01830144,1.0003592482286272,146.2168403986203
6.020589056,1.0002975593198944,146.05366583412942
6.022876672,1.0002167223899612,145.8915178815166
6.025164288,1.0001220765204681,145.7306459898059
6.027451904,1.0000194414483514,145.57122885268143
6.029740032,0.9999154592018621,145.41334185523928
6.032027648,0.999816553531535,145.25693184001867
6.034315264,0.9997290374200418,145.1019239588646
6.03660288,0.9996584674412383,144.9480367324375
6.038890496,0.999609292089742,144.7950745805155
6.041178112,0.9995847258978384,144.642646189812
6.043465728,0.9995860831856908,144.4904324755951
6.045753344,0.9996135648230607,144.33800378625335
6.04804096,0.9996653513109897,144.18503333861082
6.050329088,0.9997381292309975,144.03117085103756
6.052616704,0.999827220876634,143.87616500215432
6.05490432,0.9999272481300379,143.71976832695634
6.057191936,1.000031638437804,143.56197042236846
6.059479552,1.000133992822089,143.40264058911686
6.061767168,1.000227722071745,143.2418946774454
6.064054784,1.0003070374193284,143.0799349851335
6.0663424,1.0003667538639827,142.9169790864417
6.068630016,1.0004032756722634,142.75335490265445
6.070918144,1.0004140164484372,142.58937472520466
6.07320576,1.0003985030606368,142.42548370944635
6.075493376,1.0003577560229155,142.26199832645207
6.077780992,1.0002941061847916,142.09926249581767
6.080068608,1.0002118845722,141.93763660681594
6.082356224,1.0001158895442122,141.77733455435347
6.08464384,1.0000123954816278,141.61846379753212
6.086931456,0.9999080568323363,141.46112365132646
6.089219584,0.9998092699331327,141.30529291696197
6.0915072,0.9997222590301242,141.15081460396655
6.093794816,0.9996526601273158,140.9974979434021
6.096082432,0.9996048676973933,140.8450561748347
6.098370048,0.9995817880166397,140.69314593958907
6.100657664,0.9995851821751606,140.54138617797105
6.10294528,0.9996145804838539,140.3894384582325
6.105232896,0.9996681412464533,140.23688676654714
6.107520512,0.9997424567746271,140.0834267795716
6.10980864,0.9998331057329811,139.9287987657294
6.112096256,0.9999341708129871,139.77278175979444
6.114383872,1.000039174224719,139.61529212697167
6.116671488,1.0001417484232684,139.45630958019467
6.118959104,1.000235062714004,139.2959352170364
6.12124672,1.0003135696526844,139.13432555033543
6.123534336,1.0003721295223735,138.97175012016942
6.125821952,1.0004069233165054,138.80849383959105
6.128109568,1.0004160202649155,138.64495519210914
6.130397696,1.0003986544486547,138.48147132187145
6.132685312,1.0003559007839131,138.31847166605516
6.134972928,1.0002905932560309,138.15624283903807
6.137260544,1.0002066243753087,137.99514024808147
6.13954816,1.000109478711298,137.8353457174173
6.141835776,1.000005183477525,137.67702875719453
6.144123392,0.9999005023309556,137.52026426742256
6.146411008,0.9998017924411996,137.36499465409517
6.148699136,0.9997152973796569,137.21110371594895
6.150986752,0.9996467634278526,137.05832057403242
6.153274368,0.9996004571302253,136.90642658727808
6.155561984,0.9995791488596834,136.75501010818078
6.1578496,0.9995843442129899,136.60376233087354
6.160137216,0.9996156562640963,136.4522549409406
6.162424832,0.9996710745708249,136.3001220969149
6.164712448,0.9997472453671712,136.14705648614986
6.167000064,0.9998392471928441,135.99280609538633
6.169288192,0.9999412113815873,135.83717484490506
6.171575808,1.0000469420370655,135.68002374722536
6.173863424,1.000149458674623,135.52139390237494
6.17615104,1.0002425370387449,135.3613505845095
6.178438656,1.0003201614256434,135.2000973145203
6.180726272,1.000377415857191,135.0378841493329
6.183013888,1.0004107234384663,134.87502789768092
6.185301504,1.0004179976571796,134.71190846616307
6.18758912,1.0003986364961492,134.54889292763713
6.189877248,1.0003539512648953,134.38631297671057
6.192164864,1.0002867637578237,134.2246038953299
6.19445248,1.0002012901656105,134.06403538049202
6.196740096,1.0001029982067724,133.9047607662985
6.199027712,0.9999978775078534,133.7470392287139
6.201315328,0.9998926759949708,133.59082587523827
6.203602944,0.999794094795788,133.43611142693365
6.20589056,0.9997085215122822,133.28277181811666
6.208178688,0.9996410924919605,133.13055876501213
6.210466304,0.9995960543951138,132.97917433109546
6.21275392,0.999576465986936,132.82829132004076
6.215041536,0.9995835648790663,132.67750256147278
6.217329152,0.9996169402201858,132.52645056138175
6.219616768,0.9996741467724939,132.37476729871193
6.221904384,0.9997520868635982,132.2220886687941
6.224192,0.9998454951780139,132.06823820235874
6.226479616,0.9999485237126772,131.9129304260165
6.228767744,1.0000547565966806,131.75612348309681
6.23105536,1.0001574856254025,131.59785995544473
6.233342976,1.0002500860156958,131.438173563378
6.235630592,1.0003268192789339,131.2772759869669
6.237918208,1.0003827582075386,131.11540489989895
6.240205824,1.0004143515321886,130.9529769674972
6.24249344,1.0004197912020465,130.79023493964243
6.244781056,1.000398527692006,130.6276439030348
6.247068672,1.00035183462314,130.46559739726493
6.2493568,1.0002829026923115,130.30436608998082
6.251644416,1.000195800739853,130.14430740012756
6.253932032,1.0000962514529599,129.98562304717765
6.256219648,0.9999904039228306,129.82841192383128
6.258507264,0.9998848394204216,129.67278664595912
6.26079488,0.9997865958178238,129.51865557415243
6.263082496,0.9997014200545411,129.3658560287527
6.265370112,0.9996351253613274,129.21420953733346
6.26765824,0.9995917225870621,129.0633625050644
6.269945856,0.9995739692216693,128.9129895799998
6.272233472,0.9995828929651334,128.76266100292523
6.274521088,0.9996182124646887,128.61207242968348
6.276808704,0.999677542137229,128.46079094540434
6.27909632,0.9997570986704346,128.308545097238
6.281383936,0.9998518485811071,128.1550547753013
6.283671552,0.9999559895049285,128.0001041625453
6.285959168,1.0000627047122987,127.8436464592898
6.288247296,1.0001655511182448,127.68569655285359
6.290534912,1.0002576623329005,127.52635695569884
6.292822528,1.0003333838021795,127.3658178797201
6.295110144,1.0003880225288706,127.20434658864363
6.29739776,1.0004180764284472,127.04227309000295
6.299685376,1.0004215395420162,126.87998158452132
6.301972992,1.000398284597416,126.71783947160401
6.304260608,1.0003496467363064,126.55622959311191
6.306548224,1.000278781143976,126.3955278135377
6.308836352,1.0001901184469397,126.2359751622467
6.311123968,1.000089313449112,126.07783450835073
6.313411584,0.9999826596369928,125.92121746419751
6.3156992,0.9998769429320202,125.7661344310874
6.317986816,0.9997788240204084,125.61258423182576
6.320274432,0.9996944513961247,125.46035174179464
6.322562048,0.9996293568320255,125.30923128960315
6.324849664,0.9995874807692514,125.15892330267802
6.327137792,0.9995714425090673,125.00903560001626
6.329425408,0.9995825306240297,124.85922937821437
6.331713024,0.9996197853117704,124.70907135777679
6.33400064,0.9996809472122025,124.55822374627658
6.336288256,0.9997622852021548,124.40635811982612
6.338575872,0.9998584556492482,124.25320934935021
6.340863488,0.9999635706675047,124.09863543796084
6.343151104,1.0000708482556395,123.94252233217593
6.34543872,1.0001736839402178,123.78490611981391
6.347726848,1.000265252064188,123.62590477784144
6.350014464,1.0003400720434958,123.46571917179351
6.35230208,1.0003933480147602,123.30458457021837
6.354589696,1.000421629167699,123.14291736474398
6.356877312,1.0004232049335342,122.98103528940469
6.359164928,1.0003978112968737,122.81935752262447
6.361452544,1.0003472079520859,122.65822573390714
6.36374016,1.0002745355918026,122.49799880028174
6.366027776,1.0001842959475367,122.33901420158008
6.368315904,1.000082348007191,122.18139585725392
6.37060352,0.9999748250174478,122.02533747436141
6.372891136,0.9998688752822461,121.87084252022821
6.375178752,0.9997710050960519,121.71783332211201
6.377466368,0.9996875428116093,121.56617887613062
6.379753984,0.9996235156378026,121.41561426122762
6.3820416,0.9995831877849202,121.26581383347545
6.384329216,0.9995690946210771,121.11643649712146
6.386617344,0.9995821991806185,120.96709925525725
6.38890496,0.9996214624698633,120.81736725356434
6.391192576,0.9996847699889384,120.66692782123745
6.393480192,0.9997677358607281,120.51546261112735
6.395767808,0.9998653448930247,120.36267793172107
6.398055424,0.999971508109141,120.20843744720551
6.40034304,1.000079333722096,120.05264842839779
6.402630656,1.0001819138096224,119.89538835872278
6.404918272,1.0002731189901186,119.73670632973305
6.4072064,1.0003468317222426,119.5768430130701
6.409494016,1.0003986986764206,119.4161214653431
6.411781632,1.0004251748838533,119.2548180921283
6.414069248,1.0004246331120483,119.09332563051177
6.416356864,1.0003972726634822,118.93210604433244
6.41864448,1.0003446091896722,118.77143502461901
6.420932096,1.0002700441025696,118.61175040674735
6.423219712,1.0001782123252407,118.45325926728195
6.425507328,1.000074950121241,118.29622471923118
6.427795456,0.9999668779065101,118.14070622809203
6.430083072,0.9998606975725961,117.98676281795875
6.432370688,0.999763074458801,117.83435233700288
6.434658304,0.9996803610482694,117.6832322943225
6.43694592,0.9996176213677018,117.5332018929358
6.439233536,0.9995789789701338,117.38393264488123
6.441521152,0.9995668252844171,117.23506293646827
6.443808768,0.9995819540111094,117.0861585152154
6.446096896,0.9996233587638859,116.936897867527
6.448384512,0.999688673189705,116.78685845728812
6.450672128,0.9997733732244231,116.63574194603316
6.452959744,0.9998723765058174,116.4833298875742
6.45524736,0.9999794269327816,116.32945253989388
6.457534976,1.0000876807850216,116.17401100326352
6.459822592,1.000190320184356,116.01703499153432
6.462110208,1.000280879543544,115.85869361169648
6.464397824,1.000353647870572,115.6992057822977
6.466685952,1.000403869591943,115.53879519269192
6.468973568,1.0004285320240407,115.37786608355339
6.471261184,1.0004260367673605,115.21681800520753
6.4735488,1.0003965024020804,115.05602768735046
6.475836416,1.0003417690835492,114.89582611192564
6.478124032,1.0002653627899287,114.73663281605847
6.480411648,1.0001719348873372,114.57865986418744
6.482699264,1.000067553483821,114.42215772692467
6.48498688,0.9999586956658594,114.26720619910492
6.487275008,0.9998522465219299,114.11384288851364
6.489562624,0.9997550437832564,113.96196126470194
6.49185024,0.9996731915592676,113.81143695239412
6.494137856,0.999611833827772,113.66193518611152
6.496425472,0.9995748323860048,113.51317816476056
6.498713088,0.9995646790028497,113.36478777874099
6.501000704,0.9995819077430044,113.21635911619742
6.50328832,0.999625505129584,113.06753091624324
6.505576448,0.9996926403106934,112.91787024708708
6.507864064,0.999779182609841,112.7671425870822
6.51015168,0.9998796204517785,112.61507483259724
6.512439296,0.9999875544977791,112.46150168719555
6.514726912,1.0000963050838418,112.30637212978732
6.517014528,1.0001987963815564,112.14974556933815
6.519302144,1.0002887209964755,111.9917233041475
6.52158976,1.0003603637651424,111.83253556085438
6.523877376,1.000409079943415,111.67250453836819
6.526165504,1.0004318636194132,111.51198235967277
6.52845312,1.0004272524673379,111.35133974545447
6.530740736,1.0003956344628033,111.19095678237467
6.533028352,1.0003387426504282,111.03124475584933
6.535315968,1.0002603238405792,110.87252846158252
6.537603584,1.0001653950545495,110.71508635300147
6.5398912,1.0000598024822656,110.55909200070025
6.542178816,0.9999502670590839,110.4047253915572
6.544466432,0.9998437462087036,110.25190669127461
6.54675456,0.9997469303385875,110.10059540697551
6.549042176,0.9996658435719027,109.95061831763074
6.551329792,0.9996059469556358,109.8016401054568
6.553617408,0.9995708054883656,109.65341037708478
6.555905024,0.9995625984913552,109.50547966671584
6.55819264,0.9995819945685335,109.35750063072929
6.560480256,0.9996276865651631,109.20907121050676
6.562767872,0.999696943693477,109.05984365140262
6.565056,0.9997852069954528,108.90947883070402
6.567343616,0.9998870849720134,108.75771747542069
6.569631232,0.9999958320738648,108.60447565192693
6.571918848,1.0001049471752865,108.44965022860086
6.574206464,1.0002073773909683,108.29332832331508
6.57649408,1.0002967015262947,108.13563965724362
6.578781696,1.000367033017909,107.97676393039242
6.581069312,1.0004141840824678,107.81708520807963
6.583356928,1.000434972519805,107.65692015445917
6.585645056,1.00042836045273,107.49667761667375
6.587932672,1.0003945020482734,107.33673580979612
6.590220288,1.000335492349314,107.17747673178158
6.592507904,1.0002552360758923,107.0192633463068
6.59479552,1.0001586840357317,106.86235455114861
6.597083136,1.0000518794466544,106.70692168502217
6.599370752,0.9999416943023394,106.55305416820337
6.601658368,0.9998351097595976,106.40079742297614
6.603945984,0.9997387184670575,106.25005280445858
6.606234112,0.9996586771371363,106.10059803497606
6.608521728,0.9996001287804571,105.95217662840417
6.610809344,0.999566689984444,105.8044043302332
6.61309696,0.9995606339039915,105.65696420618083
6.615384576,0.9995821911490452,105.5094517055399
6.617672192,0.9996300937370874,105.36141812878894
6.619959808,0.9997013556738761,105.21255551419787
6.622247424,0.9997914390699889,105.0625402068295
6.624535552,0.9998945920587929,104.9111167483722
6.626823168,1.0000043819614435,104.7581892578543
6.629110784,1.0001138925425372,104.60366903373423
6.6313984,1.0002160637950832,104.44763209876082
6.633686016,1.0003045710507052,104.2902350211401
6.635973632,1.0003736740403786,104.13169965759764
6.638261248,1.0004192363295015,103.97235419459533
6.640548864,1.0004381830170508,103.81255731378465
6.64283648,1.000429285796427,103.6527126752214
6.645124608,1.0003931723458181,103.49318773028874
6.647412224,1.0003320786398286,103.33441617676002
6.64969984,1.0002498827188566,103.17665676658487
6.651987456,1.0001517276546068,103.02025427417873
6.654275072,1.000043840620233,102.86535455197262
6.656562688,0.9999330814272035,102.71204212276923
6.658850304,0.9998263179098253,102.56034871916755
6.66113792,0.9997304295199168,102.41015533907377
6.663426048,0.9996513898988618,102.2612144325734
6.665713664,0.9995943142012697,102.11328428330727
6.66800128,0.9995628012076805,101.96603328351526
6.670288896,0.9995587498950836,101.81906656240949
6.672576512,0.999582597489009,101.67197011011359
6.674864128,0.9996327420411577,101.52435145315486
6.677151744,0.9997059970581255,101.3758477376479
6.67943936,0.9997979064445718,101.2261470582147
6.681726976,0.9999024690785975,101.07505223194686
6.684015104,1.0000130642130665,100.92241944233916
6.68630272,1.0001228770986683,100.7681798147208
6.688590336,1.0002248482674314,100.61244020524306
6.690877952,1.0003126477726947,100.45532798845537
6.693165568,1.00038046636244,100.29709947954481
6.695453184,1.0004242566021082,100.13810208414277
6.6977408,1.0004412124572728,99.97865334600496
6.700028416,1.0004300567638864,99.81919513756587
6.702316032,1.000391696861392,99.6600987230735
6.70460416,1.0003283953932125,99.50176993294095
6.706891776,1.000244194142342,99.34450616247368
6.709179392,1.0001446406738048,99.18860522832883
6.711467008,1.0000355065731268,99.03423042375724
6.713754624,0.9999240761127771,98.8814728053111
6.71604224,0.9998173811689492,98.73029448108251
6.718329856,0.9997220402164861,98.5806387239678
6.720617472,0.9996441337392171,98.43223983088163
6.7229056,0.999588518200389,98.28480822747939
6.725193216,0.9995589004623059,98.13805743692195
6.727480832,0.9995570795584185,97.99151699874159
6.729768448,0.9995831740579362,97.84483402353001
6.732056064,0.999635492017801,97.6976004587678
6.73434368,0.9997109106237609,97.54945846863502
6.736631296,0.999804509079138,97.40010119562011
6.738918912,0.9999104797563706,97.24930771101899
6.741206528,1.0000219686270035,97.09696045726807
6.743494656,1.000132036558038,96.94299915739285
6.745782272,1.0002337458523123,96.7875265088242
6.748069888,1.000320691145436,96.6307045192093
6.750357504,1.000387125652752,96.47279599047162
6.75264512,1.000429241910728,96.31409616777833
6.754932736,1.0004439978678175,96.15501617509473
6.757220352,1.000430708472345,95.99592164479017
6.759507968,1.0003900856225973,95.83722876815146
6.761795584,1.0003245454382972,95.67934797794774
6.764083712,1.0002384800080544,95.52256129795907
6.766371328,1.0001372507025177,95.36715726066147
6.768658944,1.000027082032172,95.21328991709058
6.77094656,0.9999151138531119,95.06106930033617
6.773234176,0.9998084014304178,94.9104461397317
6.775521792,0.9997136104331843,94.76130536655451
6.777809408,0.9996367824364012,94.61341586153904
6.780097024,0.9995828063457504,94.46650561452088
6.782385152,0.9995552133562969,94.32018938426914
6.784672768,0.9995555381293688,94.17410366971981
6.786960384,0.9995838793018201,94.02783067885142
6.789248,0.9996386476611946,93.8809771530452
6.791535616,0.9997161273647663,93.73315941603278
6.793823232,0.9998114271937932,93.58410837137244
6.796110848,0.9999187539709783,93.43361150934808
6.798398464,1.0000310667161725,93.28153675468188
6.80068608,1.0001413800131338,93.1278400605002
6.802974208,1.0002428243011838,92.97265457115432
6.805261824,1.0003287257903914,92.81608572121245
6.80754944,1.000393990628432,92.6584398315235
6.809837056,1.0004341671524908,92.50007756352046
6.812124672,1.0004468516602678,92.34131484515842
6.814412288,1.0004311593761983,92.18260084590757
6.816699904,1.0003881734076017,92.02433324227377
6.81898752,1.0003205462961275,91.86687114334343
6.821275136,1.000232462716469,91.71055999459706
6.823563264,1.000129664237764,91.55564976054872
6.82585088,1.0000185179902734,91.40229284754855
6.828138496,0.9999059939869478,91.25057806371787
6.830426112,0.9997992523909408,91.1004975794057
6.832713728,0.9997051669493215,90.95186944455183
6.835001344,0.9996294480072442,90.80448949769008
6.83728896,0.9995771687214193,90.65805603996834
6.839576576,0.9995514832411577,90.5122223110802
6.841864704,0.999554106876103,90.36653907093941
6.84415232,0.9995848766383725,90.22067509968599
6.846439936,0.9996418982513852,90.07416306604269
6.848727552,0.9997213917663083,89.92668964431778
6.851015168,0.999818563460786,89.7779234951254
6.853302784,0.9999271123619151,89.62770527149715
6.8555904,1.000040291720355,89.47587640338617
6.857878016,1.0001508748745267,89.32244484799234
6.860165632,1.000251855681421,89.16748954519583
6.86245376,1.000336838395976,89.01119338917593
6.864741376,1.0004005421341207,88.85386139840205
6.867028992,1.0004389471362338,88.69577638862616
6.869316608,1.000449472698598,88.53734497286939
6.871604224,1.0004314776290786,88.37898903340047
6.87389184,1.000386091169132,88.22112170599475
6.876179456,1.0003161904100193,88.06409016164311
6.878467072,1.000226260725277,87.90823493487395
6.880754688,1.000121864587552,87.75380001373506
6.883042816,1.000009584020486,87.60096387918736
6.885330432,0.9998965688054128,87.44975203584463
6.887618048,0.9997899858494207,87.30017032620697
6.889905664,0.9996965629463718,87.15204873054144
6.89219328,0.999622140828125,87.00518287230949
6.894480896,0.9995716105479951,86.85921929460504
6.896768512,0.9995479408783291,86.71382380775044
6.899056128,0.9995528769193275,86.56857857708674
6.901344256,0.999585960083786,86.423075293722
6.903631872,0.9996453129652825,86.27690460924345
6.905919488,0.9997269557029325,86.12972891708658
6.908207104,0.999825802883761,85.98128381731337
6.91049472,0.9999357323201815,85.83131082110688
6.912782336,1.00004963756377,85.67974295426298
6.915069952,1.000160457189512,85.52653093015371
6.917357568,1.0002609996264478,85.37180625082644
6.919645184,1.000345123111839,85.215780562597
6.921933312,1.0004071985172014,85.05869242147006
6.924220928,1.0004436407416413,84.90089522176413
6.926508544,1.0004518572243295,84.74278745396148
6.92879616,1.0004315286902838,84.58479232604192
