freq,mag,phase
6.0,1.0007815030858573,-163.09829351661773
6.002286592,1.0008424533501012,-163.25973646134116
6.004572672,1.000850035225379,-163.42168353663985
6.006859264,1.0008041453899275,-163.58336380261625
6.009145344,1.0007075741765272,-163.74398073878035
6.011431936,1.0005663364401336,-163.90288906953649
6.013718016,1.0003893592177144,-164.05947614402282
6.016004608,1.0001878390149466,-164.21332989308078
6.018290688,0.9999745093684822,-164.36416979073022
6.02057728,0.9997627857574246,-164.51192766799028
6.022863872,0.99956603367946,-164.65667880987647
6.025149952,0.9993968715915645,-164.79878343544615
6.027436544,0.9992658298941842,-164.9386998216324
6.029722624,0.999181465614387,-165.07703168423572
6.032009216,0.9991489009272777,-165.21453178827386
6.034295296,0.9991703477983727,-165.3519278467959
6.036581888,0.9992445181392624,-165.49001261929692
6.03886848,0.9993665920932577,-165.6295323828965
6.04115456,0.9995289529058559,-165.77110474205543
6.043441152,0.9997213651127015,-165.91521643792805
6.045727232,0.9999316053865674,-166.06228664704398
6.048013824,1.0001462867110555,-166.21244493667933
6.050299904,1.0003520698900559,-166.3656515558735
6.052586496,1.0005357416784717,-166.52166978321256
6.054872576,1.000685680666406,-166.6800851603516
6.057159168,1.0007926477416558,-166.84033944508982
6.05944576,1.0008495534358373,-167.00183742237226
6.06173184,1.0008530165320781,-167.16373452107646
6.064018432,1.0008027389072978,-167.32534069268294
6.066304512,1.000701838979794,-167.4858048816028
6.068591104,1.0005566943895692,-167.64447802414716
6.070877184,1.000376370850215,-167.80078465662282
6.073163776,1.0001723937928735,-167.95432068604964
6.075450368,0.9999574178870645,-168.10481159486596
6.077736448,0.9997452824626076,-168.25218988381332
6.08002304,0.9995492624182932,-168.39660415138752
6.08230912,0.9993817475162152,-168.53836962706862
6.084595712,0.9992534999145418,-168.67794813355783
6.086881792,0.9991725993031131,-168.81603475233024
6.089168384,0.9991439519008243,-168.9532716194211
6.091454464,0.9991698726284618,-169.09050621881585
6.093741056,0.9992483558371082,-169.22852211248627
6.096027648,0.9993746715625215,-169.36797630446208
6.098313728,0.9995406692773214,-169.50959014065987
6.10060032,0.9997359542624538,-169.65378776957687
6.1028864,0.9999481576983538,-169.80097827845188
6.105172992,1.0001639046900601,-169.95122480715642
6.107459072,1.0003694182041865,-170.10453877439195
6.109745664,1.00055193640586,-170.26068606706198
6.112032256,1.0006995860333403,-170.41918880587613
6.114318336,1.0008033237383454,-170.57952998292512
6.116604928,1.0008565279492745,-170.74103517128958
6.118891008,1.0008556557690051,-170.90285781975535
6.1211776,1.0008009812019514,-171.06430638363335
6.12346368,1.0006957853627307,-171.22459591476255
6.125750272,1.0005466639636909,-171.38301719388593
6.128036352,1.0003631244818427,-171.53905100616203
6.130322944,1.0001565476632686,-171.69222568543
6.132609536,0.999940155294341,-171.8423276172164
6.134895616,0.9997276777514916,-171.98933136649936
6.137182208,0.9995323375948042,-172.13336562896714
6.139468288,0.9993666445362495,-172.27473901393978
6.14175488,0.9992411649516701,-172.41399511681203
6.14404096,0.9991636596653986,-172.55178583714914
6.146327552,0.9991393185776599,-172.68880422734927
6.148614144,0.9991696132161693,-172.82590129134368
6.150900224,0.999252507811549,-172.96375409708872
6.153186816,0.9993829702739131,-173.10317805319895
6.155472896,0.9995526053042807,-173.24476981984537
6.157759488,0.9997508416846083,-173.3890430096512
6.160045568,0.9999649984698191,-173.5362981195991
6.16233216,1.0001816508351722,-173.6866704564368
6.16461824,1.000386887261783,-173.84007085757133
6.166904832,1.000568056804283,-173.9963159735132
6.169191424,1.0007134061556684,-174.15491477666114
6.171477504,1.000813850030924,-174.3152798499917
6.173764096,1.0008631761255147,-174.47672912653334
6.176050176,1.0008580691470306,-174.6384887765374
6.178336768,1.000798819728733,-174.799793657349
6.180622848,1.0006893114838977,-174.95985473997112
6.18290944,1.000536204359012,-175.11803978977503
6.18519552,1.0003493655226832,-175.273725522744
6.187482112,1.000140410582673,-175.42653108019803
6.189768704,0.9999227449759798,-175.5762433042069
6.192054784,0.9997097793474929,-175.72284144909312
6.194341376,0.9995152736339166,-175.86645020164016
6.196627456,0.9993515100459066,-176.0074438709008
6.198914048,0.9992288478365027,-176.14636295348186
6.201200128,0.999155047264999,-176.28380302397113
6.20348672,0.999134845701766,-176.42059430313444
6.205773312,0.9991695915673667,-176.55745729835712
6.208059392,0.9992569656240715,-176.6951990716898
6.210345984,0.9993915758217283,-176.83455206265015
6.212632064,0.9995649204071259,-176.9761372205857
6.214918656,0.9997660279491675,-177.12046189923973
6.217204736,0.9999819846656411,-177.26776500548803
6.219491328,1.0001994466390636,-177.41822301652726
6.221777408,1.0004045365541145,-177.57175025003949
6.224064,1.0005841707445642,-177.72806184662525
6.226350592,1.0007271341984536,-177.8866863086593
6.228636672,1.0008243729923774,-178.0470917516796
6.230923264,1.0008696237717178,-178.20847965347284
6.233209344,1.0008601761771068,-178.37014869682858
6.235495936,1.000796452762043,-178.53127983006
6.237782016,1.0006825073449803,-178.6911061105173
6.240068608,1.000525543060567,-178.8489662064987
6.2423552,1.000335458840669,-179.004321275532
6.24464128,1.000124058102163,-179.15671591903205
6.246927872,0.9999049619333412,-179.30602097887322
6.249213952,0.9996918780631153,-179.4521992171077
6.251500544,0.9994982570724481,-179.59537390385353
6.253786624,0.9993364853142553,-179.7359303149701
6.256073216,0.9992167492152816,-179.87447336094607
6.258359296,0.9991466608464487,179.9883806064987
6.260645888,0.9991307262356763,179.85188976910052
6.26293248,0.9991700087217406,179.71522396305707
6.26521856,0.9992618881473775,179.5776219732014
6.267505152,0.9994006539834139,179.438330592816
6.269791232,0.9995776521913985,179.2967581803994
6.272077824,0.9997814960579865,179.15245961370653
6.274363904,0.9999993626166431,179.0050895202996
6.276650496,1.0002175170323584,178.8545507585496
6.278937088,1.0004222291631084,178.70094713648544
6.281223168,1.0006003249603272,178.54457574833805
6.28350976,1.000740878761075,178.38590265212378
6.28579584,1.0008347060028353,178.22553719427756
6.288082432,1.0008758983075932,178.0641931225546
6.290368512,1.0008620462944264,177.90267033999143
6.292655104,1.0007936998798652,177.74174206181848
6.294941184,1.000675374674636,177.58217738659056
6.297227776,1.0005143962873695,177.42462530468933
6.299514368,1.000321017154788,177.2696596277536
6.301800448,1.000107351328176,177.11766101675417
6.30408704,0.9998870196817659,176.96880357080934
6.30637312,0.9996737114857519,176.82311331637055
6.308659712,0.999481081929092,176.68036732692772
6.310945792,0.9993213060722288,176.54021325272646
6.313232384,0.9992046865751127,176.40205914351904
6.315518464,0.9991383787653548,176.2652893961642
6.317805056,0.9991267638709174,176.12904957784514
6.320091648,0.9991705844290655,175.99264930791125
6.322377728,0.999266967951411,175.85518320635506
6.32466432,0.9994100329210631,175.71601573944605
6.3269504,0.9995906406043416,175.57448021104008
6.329236992,0.9997971837368409,175.43013327172744
6.331523072,1.0000169591648398,175.28272349306428
6.333809664,1.000235858838599,175.13212918139277
6.336096256,1.0004400239479305,174.97846887780278
6.338382336,1.000616537092517,174.82208118335657
6.340668928,1.0007544228448642,174.66339137558714
6.342955008,1.0008446888500093,174.50305150140923
6.3452416,1.0008819102984283,174.34178795235206
6.34752768,1.000863519490175,174.1804211821062
6.349814272,1.0007905648986,174.01970204477897
6.352100352,1.000667852731309,173.86040861089052
6.354386944,1.0005031158651427,173.70321859579565
6.356673536,1.0003063277498625,173.54864839279554
6.358959616,1.0000904156446533,173.39707935171572
6.361246208,0.9998687682753501,173.24870514893044
6.363532288,0.999655440467434,173.1034849325602
6.36581888,0.9994639538380554,172.96122292356426
6.36810496,0.9993063443379963,172.82149664057658
6.370391552,0.9991927830575966,172.68379183318703
6.372678144,0.9991304554732183,172.54734083745015
6.374964224,0.9991230842475596,172.41142518481328
6.377250816,0.9991715801906408,172.27522046454894
6.379536896,0.9992725418217112,172.13795224086212
6.381823488,0.9994197338035115,171.99887608805133
6.384109568,0.9996039928279568,171.85738468243977
6.38639616,0.9998133714224003,171.71308129910608
6.38868224,1.000034792393697,171.56563389631702
6.390968832,1.0002542193071493,171.414979174449
6.393255424,1.000457882913808,171.26129099980005
6.395541504,1.0006327244219697,171.10484105370801
6.397828096,1.000767903813029,170.94618488349437
6.400114176,1.000854567440639,170.78589999471768
6.402400768,1.0008875384288207,170.6247730525623
6.404686848,1.0008645888448249,170.46355875804787
6.40697344,1.0007870399998182,170.30306725105916
6.409260032,1.0006598462216185,170.14409568307806
6.411546112,1.0004910607038886,169.98729262534593
6.413832704,1.0002913169550467,169.8331262905546
6.416118784,1.0000731210314966,169.6820286164402
6.418405376,0.9998503160610052,169.5341153780553
6.420691456,0.9996369814362258,169.38941629551414
6.422978048,0.9994466982274339,169.24762646307073
6.425264128,0.9992914499589994,169.10836382211596
6.42755072,0.9991810772344321,168.97108224233781
6.429837312,0.9991225275558172,168.8350322809805
6.432123392,0.9991198075589237,168.69940643995074
6.434409984,0.9991728054819188,168.56345012370437
6.436696064,0.9992785073873708,168.42635413163248
6.438982656,0.9994299285461761,168.28740072851548
6.441268736,0.9996177308819834,168.14598071233632
6.443555328,0.9998298480551655,168.0016711720222
6.44584192,1.0000529803698288,167.85423108170997
6.448128,1.000273101442504,167.7035367545197
6.450414592,1.000475977809149,167.5498192030012
6.452700672,1.0006490248244624,167.3933540385344
6.454987264,1.0007814291372434,167.23472134390656
6.457273344,1.0008644489020309,167.07451414773607
6.459559936,1.0008931028832562,166.91349501267544
6.461846016,1.0008654329845172,166.75246994732086
6.464132608,1.000783312219716,166.59227093745017
6.4664192,1.0006516608032945,166.43362414371728
6.46870528,1.000479028987138,166.2771665763488
6.470991872,1.0002759444214777,166.12349655956066
6.473277952,1.000055511290836,165.97285801887048
6.475564544,0.9998316692043017,165.82544479283155
6.477850624,0.9996184050086714,165.68127711651624
6.480137216,0.999429298929718,165.53999611201925
6.482423296,0.9992764355510588,165.4012152229476
6.484709888,0.9991694186786656,165.26435819812906
6.48699648,0.9991150098207273,165.12870332172508
6.48928256,0.9991167434018414,164.9934433837293
6.491569152,0.9991745103162303,164.85772314350663
6.493855232,0.9992847891635359,164.72079839821308
6.496141824,0.9994405042613337,164.58199481816865
6.498427904,0.9996318572385401,164.44063398455637
6.500714496,0.999846766730043,164.29637202564956
6.503001088,1.000071485970784,164.1488962151102
6.505287168,1.0002919444346696,163.99819940196295
6.50757376,1.0004941369304265,163.84445152820865
6.50985984,1.0006653793682432,163.68802438632184
6.512146432,1.0007947219312954,163.529402180211
6.514432512,1.0008740186726515,163.3692816672051
6.516719104,1.000898355470537,163.20841173154176
6.519005184,1.000865947019602,163.04761264655951
6.521291776,1.000779038575343,162.88767747701212
6.523578368,1.0006429574031712,162.72939093933908
6.525864448,1.0004661787015088,162.57336161186805
6.52815104,1.000260163938778,162.420129931025
6.53043712,1.0000375508893007,162.26998269284408
6.532723712,0.9998126610663951,162.1231303447363
6.535009792,0.9995996238043225,161.9794676022458
6.537296384,0.9994118856330536,161.83873639713576
6.539582976,0.9992615506335086,161.70043795147973
6.541869056,0.9991577323618553,161.5640584089102
6.544155648,0.999107603200024,161.4287696214962
6.546441728,0.9991139723514105,161.29383801762125
6.54872832,0.9991766290265198,161.15841393746354
6.5510144,0.999291500603504,161.02169545031117
6.553300992,0.9994513982379447,160.88302058670283
6.555587072,0.9996462751860822,160.74174612327607
6.557873664,0.9998637790273935,160.59751562100288
6.560160256,1.0000901193590108,160.45002606391532
6.562446336,1.0003109559707197,160.2993384962305
6.564732928,1.0005122725457978,160.1456043810152
6.567019008,1.0006814983239236,159.98917455274736
6.5693056,1.0008078694898288,159.83060489982103
6.57159168,1.0008834145272774,159.67060502260398
6.573878272,1.0009031363543184,159.50990877109174
6.576164864,1.0008660337731696,159.3493429860386
6.578450944,1.0007743466315107,159.1897203803998
6.580737536,1.0006337264333056,159.03179875760628
6.583023616,1.0004530993629674,158.87618370550447
6.585310208,1.0002439377566763,158.72343497312852
6.587596288,1.000019244483418,158.57385438227664
6.58988288,0.99979337491484,158.4275121995252
6.59216896,0.9995806460939065,158.2844277710809
6.594455552,0.9993943036195831,158.1442135674275
6.596742144,0.9992465086256774,158.00644365994424
6.599028224,0.9991463965509075,157.8705279839983
6.601314816,0.9991004258828381,157.7356566712438
6.603600896,0.9991115455504479,157.60104575313875
6.605887488,0.9991789742609105,157.46590230840786
6.608173568,0.9992985836765899,157.32940553610626
6.61046016,0.9994628904604174,157.19086570649196
6.612746752,0.9996612364321468,157.049676809749
6.615032832,0.9998813888631071,156.90548918973087
6.617319424,1.0001090712325211,156.75804713760417
6.619605504,1.0003302211462002,156.6073325654039
6.621892096,1.00053071007904,156.4535941494175
6.624178176,1.0006978123196268,156.2972229966944
6.626464768,1.0008211038002643,156.1387080316462
6.628750848,1.0008925399929505,155.97880847508094
6.63103744,1.0009079151340674,155.81831086948716
6.633324032,1.0008659065160028,155.6579949576447
6.635610112,1.0007693713498438,155.49870405697524
6.637896704,1.000624081607909,155.34116956893692
6.640182784,1.0004396660541859,155.1860226980503
6.642469376,1.0002273790267338,155.0337843531945
6.644755456,1.0000006695674162,154.88469586858443
6.647042048,0.9997738806992352,154.73896634216345
6.649328128,0.9995615204135778,154.59641607257066
6.65161472,0.9993768336785221,154.45675248946856
6.653901312,0.9992316299096518,154.31953685310572
6.656187392,0.9991351376061833,154.18406304288587
6.658473984,0.999093480742383,154.0496266291128
6.660760064,0.9991094460529113,153.9154099829222
6.663046656,0.9991817660913082,153.7805509685917
6.665332736,0.9993061629678996,153.64425964553712
6.667619328,0.9994746705804962,153.5058624251505
6.66990592,0.9996766140464012,153.36477676531817
6.672192,0.9998992265343031,153.22062689106468
6.674478592,1.0001284924682292,153.0731947903377
6.676764672,1.0003497221220934,152.92253810305021
6.679051264,1.0005491672302769,152.7687945451827
6.681337344,1.0007141449598862,152.61245545023826
6.683623936,1.0008341509064056,152.45404975060865
6.685910016,1.0009016470952976,152.29429306930584
6.688196608,1.0009121909453913,152.13397596621473
6.6904832,1.0008654476557186,151.97392100436966
6.69276928,1.0007639093469525,151.8149707515374
6.695055872,1.0006141676366802,151.65782636817937
6.697341952,1.0004257993760692,151.50317261745866
6.699628544,1.0002102511346003,151.35143504220156
6.701914624,0.9999817054655777,151.2029173528373
6.704201216,0.9997542341233807,151.05776254355803
6.706487808,0.9995422289857385,150.91580636053925
6.708773888,0.9993592744229959,150.77673421373342
6.71106048,0.9992169001514419,150.64002907899172
6.71334656,0.9991241837480058,150.50505570707108
6.715633152,0.9990868255548379,150.3710575537838
6.717919232,0.9991076662036575,150.2371808002358
6.720205824,0.999184969297483,150.10260483770338
6.722491904,0.9993141288752424,149.9665608630905
6.724778496,0.9994869165284912,149.82831529740716
6.727065088,0.9996922839317677,149.68733887790862
6.729351168,0.9999174686267543,149.54323998828406
6.73163776,1.0001479212713895,149.39585466915617
6.73392384,1.0003695222505204,149.24518675985377
6.736210432,1.0005677372647965,149.09151120042551
6.738496512,1.000730439609199,148.93519772843723
6.740783104,1.0008470924865907,148.77689244716547
6.743069696,1.000910344178779,148.61727732620653
6.745355776,1.000916247826781,148.4572012412395
6.747642368,1.0008643104858679,148.29745376758
6.749928448,1.0007580268751917,148.1388110608743
6.75221504,1.0006037213935233,147.98212666846956
6.75450112,1.0004114054607665,147.8279663392085
6.756787712,1.0001930370023027,147.67674303334823
6.759073792,0.9999624554530367,147.52883573626417
6.761360384,0.9997342471682069,147.38426861032505
6.763646976,0.9995227689618158,147.2428870253786
6.765933056,0.9993416689572217,147.10440265477624
6.768219648,0.9992020673007475,146.9682543401432
6.770505728,0.9991131998166847,146.83377917727992
6.77279232,0.9990805342224605,146.70020914428096
6.7750784,0.9991061561762724,146.5667113773329
6.777364992,0.9991886028182047,146.4324697523433
6.779651584,0.999322563073437,146.29660993136105
6.781937664,0.9994995874558158,146.15854883570137
6.784224256,0.9997085708343459,146.01768366467672
6.786510336,0.9999361739123046,145.8736411876951
6.788796928,1.0001680348431485,145.72626685612357
6.791083008,1.0003894932620099,145.57564948173322
6.7933696,1.0005865468020136,145.42198198035936
6.79565568,1.0007466511773437,145.26576857604095
6.797942272,1.0008599667269504,145.1075496804022
6.800228864,1.0009189601765174,144.94811361849077
6.802514944,1.0009200613235945,144.78824659213672
6.804801536,1.0008630741922495,144.62878359226747
6.807087616,1.0007516773547946,144.47055290837258
6.809374208,1.0005928704067224,144.31428955151992
6.811660288,1.0003965439705673,144.1606276912635
6.81394688,1.000175235550658,144.00997340231544
6.81623296,0.9999428185642103,143.86267740231594
6.818519552,0.9997139102393695,143.718696427363
6.820806144,0.9995031736679694,143.5779417594872
6.823092224,0.9993239232616388,143.44004883090955
6.825378816,0.9991875065356931,143.30446192422465
6.827664896,0.9991024234697214,143.1704913673447
6.829951488,0.9990744204171628,143.0373745329096
6.832237568,0.9991050982855154,142.90423907333226
6.83452416,0.9991927354170969,142.77029432768504
6.836810752,0.9993315769429407,142.63469585777435
6.839096832,0.9995128200859478,142.49676239507332
6.841383424,0.9997252626628843,142.35602961914157
6.843669504,0.9999551825370893,142.2120588490164
6.845956096,1.0001882540130678,142.06473268530652
6.848242176,1.0004096894502654,141.91413311455926
6.850528768,1.0006053107936237,141.76054743926233
6.852814848,1.0007630535482777,141.60435579789862
6.85510144,1.0008726599886697,141.4462771168156
6.857388032,1.0009272276891545,141.28700810425633
6.859674112,1.0009234326167924,141.12738983983988
6.861960704,1.0008613699695825,140.96825168825472
6.864246784,1.0007449213711352,140.81040516012746
6.866533376,1.0005815188535545,140.65460511073138
6.868819456,1.000381375784145,140.50146257998347
6.871106048,1.0001570054365483,140.35141333025135
6.87339264,0.9999227856179652,140.2046829636898
6.87567872,0.9996934346660588,140.06136360031496
6.877965312,0.9994834803440767,139.92120772439839
6.880251392,0.999306144253437,139.7839142348319
6.882537984,0.9991729461844345,139.64890108985168
6.884824064,0.999092070826318,139.51545935154525
6.887110656,0.9990687197657399,139.38280772307718
6.889396736,0.9991046799214489,139.25004184032693
6.891683328,0.9991972271577343,139.11638423133857
6.89396992,0.9993409210508304,138.98100969379138
6.896256,0.9995266275607664,138.84328009023454
6.898542592,0.9997423847389422,138.70264160985272
6.900828672,0.9999747082552113,138.5587485390524
6.903115264,1.0002088960975795,138.41147009201026
6.905401344,1.0004300904988697,138.26089968155898
6.907687936,1.0006243291433283,138.10736028558932
6.909974528,1.0007792043778378,137.95126225287908
6.912260608,1.0008851976226751,137.79331299448825
6.9145472,1.0009353381929398,137.63424208979828
6.91683328,1.0009264530254778,137.47485120138822
6.919119872,1.0008592446161033,137.31603664319755
