freq,mag,phase
6.0,0.9999844193477869,-0.03753481486320697
6.041236992,0.9999854433520098,-1.2792942672355885
6.082473984,0.9999863611852997,-2.521144343459496
6.123711488,0.9999873447575724,-3.7630746357716984
6.16494848,0.9999883477602661,-5.005125805275273
6.206185472,0.9999895616442095,-6.247201720566891
6.247422464,0.9999907865902742,-7.489457274896497
6.288659968,0.9999922489377271,-8.731729922301255
6.32989696,0.9999937169672862,-9.974155757832728
6.371133952,0.9999952467941998,-11.216643636204823
6.412370944,0.9999968239307181,-12.459241205642432
6.453608448,0.9999984457946625,-13.701948052798038
6.49484544,1.0000000150164985,-14.944712336603486
6.536082432,1.0000016229504987,-16.187604403758662
6.577319424,1.0000031300111931,-17.430627982593705
6.618556928,1.0000045943779852,-18.67369840162712
6.65979392,1.0000060015645962,-19.91688577882679
6.701030912,1.000007286527807,-21.16015695658363
6.742267904,1.0000084568258982,-22.403545766097345
6.783505408,1.0000094261705343,-23.64704569444065
6.8247424,1.0000102630902767,-24.890626223449278
6.865979392,1.0000110424767787,-26.134297220093114
6.907216384,1.00001148710028,-27.378075179310056
6.948453376,1.000011936525353,-28.621935833310335
6.98969088,1.0000120816658047,-29.865931880494546
7.030927872,1.0000119403513326,-31.10996448545896
7.072164864,1.0000117902431218,-32.35408866110543
7.113401856,1.0000113397257864,-33.598352448351086
7.15463936,1.0000107602560355,-34.84266519141213
7.195876352,1.000009935655622,-36.08708128435351
7.237113344,1.0000090267728965,-37.33156940175986
7.278350336,1.000007829139008,-38.57616815272594
7.31958784,1.0000065084600833,-39.82084791495508
7.360824832,1.000005107378523,-41.065599070861644
7.402061824,1.0000034916939335,-42.31044175333136
7.443298816,1.0000018557144723,-43.555364431891455
7.48453632,1.000000151860486,-44.800374749067345
7.525773312,0.9999982871057791,-46.045471520658424
7.567010304,0.9999965301800346,-47.29064864928426
7.608247296,0.9999945702996957,-48.53589105186202
7.649484288,0.9999926605579054,-49.78124753790563
7.690721792,0.9999907738663322,-51.02667243495337
7.731958784,0.999989148033409,-52.27218034694879
7.773195776,0.9999874011440169,-53.51777192598139
7.814432768,0.9999858728420058,-54.76345102238762
7.855670272,0.9999843551301162,-56.009211956500415
7.896907264,0.9999830752448937,-57.25506731214053
7.938144256,0.9999820709468861,-58.501001792859526
7.979381248,0.9999809884300244,-59.74703541072336
8.020618752,0.9999801208581751,-60.99313924449827
8.061855744,0.999979699113089,-62.239342071201925
8.103092736,0.9999793611780559,-63.48564324497616
8.144329728,0.9999792393942561,-64.73203771871945
8.185567232,0.999979380074896,-65.97853554492573
8.226804224,0.9999797921653039,-67.22513293430599
8.268041216,0.999980309157852,-68.47180057347688
8.309278208,0.9999811955529067,-69.71856022088701
8.350515712,0.9999822607773486,-70.96548743659723
8.391752704,0.9999835451040867,-72.21246485356527
8.432989696,0.9999849622771987,-73.45957489302067
8.474226688,0.9999864728191888,-74.70680593692727
8.51546368,0.9999883274661896,-75.95409616513761
8.556701184,0.9999902049170523,-77.20152462890032
8.597938176,0.999992212609003,-78.44905773324467
8.63917568,0.9999942786776429,-79.69670846056752
8.68041216,0.9999965318768957,-80.9444756775037
8.721649664,0.9999986569091139,-82.19234904043893
8.762886144,1.0000008901778514,-83.44031515537873
8.804123648,1.0000030707932666,-84.68841697104888
8.845361152,1.000005212358922,-85.93662292433284
8.886597632,1.00000733189577,-87.18492814905359
8.927835136,1.0000092581856341,-88.43336108680727
8.96907264,1.00001105785422,-89.68192984556839
9.01030912,1.0000126880553248,-90.93058848700458
9.051546624,1.0000141321119307,-92.17932714822854
9.092783104,1.0000154324012915,-93.42819508338867
9.134020608,1.0000164275235506,-94.67716314870168
9.175258112,1.0000173211520482,-95.92625673783573
9.216494592,1.0000177595399022,-97.17544219673127
9.257732096,1.0000180398549947,-98.42474437639217
9.298968576,1.0000181246423279,-99.6741182836939
9.34020608,1.000017828150517,-100.92358147755496
9.381443584,1.000017218532368,-102.17317641909204
9.422680064,1.0000164286207873,-103.42285337765904
9.463917568,1.0000153782766763,-104.67259602317988
9.505155072,1.0000140710791752,-105.92249385565952
9.546391552,1.000012415966154,-107.1724396135245
9.587629056,1.0000105910312787,-108.42248419812165
9.628865536,1.0000085418138929,-109.67258385909011
9.67010304,1.00000645029302,-110.92278494631026
9.711340544,1.0000040382705726,-112.17309088194098
9.752577024,1.0000016680937645,-113.42345803125477
9.793814528,0.9999990603127252,-114.67391301429417
9.835052032,0.999996465832974,-115.92443614216835
9.876288512,0.9999938730674687,-117.1750515997611
9.917526016,0.9999912163839645,-118.4257413237359
9.958762496,0.9999886262844009,-119.67652678740714
10.0,0.9999861214424219,-120.92737099870062
10.041237504,0.999983722173424,-122.17830212991753
10.082473984,0.9999814496571634,-123.42931537693023
10.123711488,0.9999794436042099,-124.68042382117406
10.164947968,0.9999775985042896,-125.9316084864357
10.206185472,0.999975948471719,-127.18286463119131
10.247422976,0.9999745516525771,-128.43422872299345
10.288659456,0.9999734581917039,-129.68566335549448
10.32989696,0.9999726603909066,-130.93718838071266
10.371134464,0.9999721311392074,-132.1888152627094
10.412370944,0.9999719921377478,-133.44051348832244
10.453608448,0.9999721694173545,-134.69232529443573
10.494844928,0.9999726606164924,-135.94422617239204
10.536082432,0.999973431074751,-137.19622345042833
10.577319936,0.9999746666469728,-138.4483384585414
10.618556416,0.9999760693211617,-139.70053805578158
10.65979392,0.9999778113410623,-140.95285262745597
10.701031424,0.9999798983231388,-142.20526126168022
10.742267904,0.9999821160789245,-143.4577753484519
10.783505408,0.999984665382037,-144.71041676299373
10.824741888,0.9999874244079248,-145.9631692991239
10.865979392,0.9999902846820158,-147.21601997223223
10.907216896,0.999993239277754,-148.46900957664755
10.948453376,0.9999963822852769,-149.72208586271213
10.98969088,0.9999995268560764,-150.97528586743778
11.03092736,1.0000026539266544,-152.22859682668937
11.072164864,1.000005870133419,-153.48203296608904
11.113402368,1.0000088698926035,-154.7355617721487
11.154638848,1.0000119101660965,-155.98922141166025
11.195876352,1.0000146299448847,-157.2429869916218
11.237113856,1.0000172010103208,-158.49685995352345
11.278350336,1.0000196689488035,-159.7508457293344
11.31958784,1.0000217376842335,-161.00493900032046
11.36082432,1.0000235938613629,-162.2591536243151
11.402061824,1.0000251257023771,-163.51344846737328
11.443299328,1.00002618812434,-164.7678463693604
11.484535808,1.000027000777048,-166.02235591861697
11.525773312,1.0000273775270878,-167.27694015182317
11.567010816,1.0000273829995567,-168.5316355559361
11.608247296,1.000027048928538,-169.78641459130506
11.6494848,1.000026208858325,-171.04128918651588
11.69072128,1.0000250305624703,-172.29624527178711
11.731958784,1.0000234030605044,-173.55128195145954
11.773196288,1.0000215344660637,-174.80639185314627
11.814432768,1.0000191970623855,-176.0615790217658
11.855670272,1.0000164747977889,-177.3168508660285
11.896906752,1.0000135986050362,-178.5721938035827
11.938144256,1.0000103693354374,-179.82757803111136
11.97938176,1.0000070533702439,178.91694546437898
12.02061824,1.0000034134518445,177.66139924300396
12.061855744,0.9999996572438832,176.40581027190066
12.103093248,0.9999958836533309,175.15013550820626
12.144329728,0.9999919817910217,173.89442002593677
12.185567232,0.9999882020626709,172.63862779004248
12.226803712,0.9999843903805838,171.3827870130564
12.268041216,0.9999807439539036,170.12687811163144
12.30927872,0.999977154215365,168.87091237871354
12.3505152,0.9999739601317721,167.61489366574997
12.391752704,0.9999709008946425,166.35878220289192
12.432989184,0.9999680820500477,165.10263360885287
12.474226688,0.9999657207263805,163.84641867095362
12.515464192,0.9999636924786812,162.59013713064567
12.556700672,0.9999620367828641,161.3337634022237
12.597938176,0.9999609141998338,160.07733232113836
12.63917568,0.9999602382041334,158.8208355062636
12.68041216,0.9999600513223701,157.56425126119115
12.721649664,0.9999603048793804,156.3075861114112
12.762886144,0.9999610777525877,155.05083268494067
12.804123648,0.9999623660777966,153.7940060626625
12.845361152,0.9999640866250041,152.53707173169204
12.886597632,0.9999663245913594,151.28005741037077
12.927835136,0.9999689909883558,150.02296005928338
12.96907264,0.9999720499642981,148.765749097848
13.01030912,0.9999755655806001,147.5084437899744
13.051546624,0.9999794913524594,146.25103769559385
13.092783104,0.9999836240270688,144.99353000201506
13.134020608,0.9999880410150016,143.73590129176185
13.175258112,0.99999264455277,142.47818018530134
13.216494592,0.9999975019490757,141.22033522525865
13.257732096,1.0000023402975333,139.96239826672712
13.298968576,1.0000072255558845,138.70434811643634
13.34020608,1.000012042118754,137.44618719784694
13.381443584,1.000016736537041,136.1879233193001
13.422680064,1.000021306584068,134.9295462124993
13.463917568,1.0000256959612361,133.67105942175945
13.505155072,1.0000297750330394,132.41247054041781
13.546391552,1.000033467015757,131.15378431152263
13.587629056,1.0000367440195392,129.89498143122188
13.628865536,1.000039634390888,128.63610400021835
13.67010304,1.0000419635053135,127.37711605688202
13.711340544,1.0000437087968923,126.11804648749407
13.752577024,1.0000449708387162,124.85889044163613
13.793814528,1.0000455900799083,123.59963990432038
13.835052032,1.000045599682189,122.34032272886118
13.876288512,1.0000450097959952,121.08093731482276
13.917526016,1.0000437164850002,119.82147941474926
13.958762496,1.0000417776280384,118.56194880732444
14.0,1.000039183712649,117.30237824176461
