freq,mag,phase
6.0,1.0000511550822133,5.339224700799899
6.00733952,0.9998930295313407,5.117281167884769
6.01467904,0.9997394794197941,4.897456206733723
6.02201856,0.9995999509053597,4.6795905341084
6.029357568,0.9994822532545793,4.463438648916376
6.036697088,0.9993930212172673,4.248678724706394
6.044036608,0.9993369855638068,4.034832495093803
6.051376128,0.9993175534229766,3.821512899066739
6.058715648,0.999335724118453,3.608170153290207
6.066055168,0.9993905611391488,3.394321092992923
6.073394688,0.9994788673137691,3.179418546487741
6.080733696,0.9995960770529592,2.9631515616829085
6.088073216,0.9997354982252692,2.7450570730704063
6.095412736,0.9998893721515902,2.524974718360003
6.102752256,1.0000492204890299,2.3026627444025323
6.110091776,1.000206199278966,2.0782179440213358
6.117431296,1.0003516454578967,1.851664489704628
6.124770816,1.00047743920535,1.6232777731409056
6.132110336,1.0005765608116104,1.3932822004536545
6.139449344,1.000643572889596,1.1621613715367163
6.146788864,1.000674547158686,0.930312867250253
6.154128384,1.000667974311386,0.6982724973067033
6.161467904,1.0006240887369755,0.4665142190472775
6.168807424,1.0005452568785567,0.23558043971313733
6.176146944,1.0004359536606766,0.005891435472813239
6.183486464,1.0003019694403057,-0.2222047291231705
6.190825472,1.000151032452406,-0.4484221209300495
6.198164992,0.9999911553078662,-0.672493159357496
6.205504512,0.999831382701379,-0.8944719289492161
6.212844032,0.9996806472862597,-1.1143735102926084
6.220183552,0.9995472441115034,-1.332377716636494
6.227523072,0.9994385342998414,-1.5487163555536891
6.234862592,0.9993607186573085,-1.7638870609282522
6.2422016,0.9993178906515362,-1.9782259665183002
6.24954112,0.9993128170424711,-2.192265374761438
6.25688064,0.9993456013771413,-2.4065338809697963
6.26422016,0.9994144774093822,-2.6215076370183983
6.27155968,0.9995156851583135,-2.8376948992904456
6.2788992,0.9996435102776445,-3.0554752928581776
6.28623872,0.9997910796560894,-3.2751029285909072
6.293577728,0.9999498843591894,-3.496914903392713
6.300917248,1.0001116237679453,-3.7209327001892976
6.308256768,1.0002668659854133,-3.9471293316656273
6.315596288,1.0004071489111936,-4.175311615963662
6.322935808,1.0005248132661815,-4.405350919194634
6.330275328,1.000613094966533,-4.6368110720508255
6.337614848,1.000667222359326,-4.869237033782291
6.344954368,1.0006842187896605,-5.102185526379775
6.352293376,1.0006629913553227,-5.335165720486453
6.359632896,1.000604700744211,-5.567653493536162
6.366972416,1.0005126259990096,-5.799154009491106
6.374311936,1.0003916976608598,-6.029264572874615
6.381651456,1.0002487927119061,-6.2575893980599355
6.388990976,1.0000916448596189,-6.483911133408068
6.396330496,0.9999289691469566,-6.708073146425775
6.403669504,0.9997698279185834,-6.930121670579918
6.411009024,0.9996230936710596,-7.150137948532272
6.418348544,0.9994968624196156,-7.368319326090165
6.425688064,0.9993981756317615,-7.58499912013818
6.433027584,0.9993326041853363,-7.80055581842832
6.440367104,0.9993037335524253,-8.015542357770384
6.447706624,0.9993132863169194,-8.230427827387658
6.455045632,0.9993605755611636,-8.445701393373959
6.462385152,0.9994433043621471,-8.661900690877294
6.469724672,0.9995566939737319,-8.879486533756536
6.477064192,0.9996945027631142,-9.09878674609117
6.484403712,0.9998490462119314,-9.320125383306022
6.491743232,1.00001197903489,-9.543658481619172
6.499082752,1.0001740150238332,-9.769421509086497
6.506422272,1.000326381005008,-9.99732517684432
6.51376128,1.0004604767916099,-10.227234518287556
6.5211008,1.0005687687213778,-10.458856850831042
6.52844032,1.0006455567741959,-10.69173352916035
6.53577984,1.0006862394516347,-10.92547032195823
6.54311936,1.000688535575054,-11.159538019577
6.55045888,1.000652636750371,-11.393413399521545
6.5577984,1.0005802370238264,-11.626559623704702
6.565137408,1.0004752701205397,-11.858593172210773
6.572476928,1.0003435139305974,-12.089030019185607
6.579816448,1.0001924919627625,-12.317602181150894
6.587155968,1.0000302672897563,-12.544050916512985
6.594495488,0.9998659912039152,-12.768340662560396
6.601835008,0.9997087008825101,-12.99049187881185
6.609174528,0.9995671755705615,-13.210630996830009
6.616513536,0.999449394971731,-13.429028730205122
6.623853056,0.9993616902551299,-13.646077609295334
6.631192576,0.9993090777185019,-13.862205247986653
6.638532096,0.9992945256118124,-14.077902319179557
6.645871616,0.9993188274627898,-14.29369157494017
6.653211136,0.9993807391001003,-14.510103488953876
6.660550656,0.9994769019283309,-14.727607117959458
6.667889664,0.9996017319853562,-14.946672104355107
6.675229184,0.9997486466487889,-15.167612267507849
6.682568704,0.9999094935610606,-15.390684552051539
6.689908224,1.0000750576289301,-15.615995690449935
6.697247744,1.0002363753051917,-15.84355429954143
6.704587264,1.0003844044669692,-16.073261560687378
6.711926784,1.000511030191268,-16.304885194675474
6.719266304,1.0006092034483403,-16.53805896862181
6.726605312,1.00067340957528,-16.772391996895706
6.733944832,1.000700107153676,-17.007341201885005
6.741284352,1.0006877173580713,-17.24247065366094
6.748623872,1.0006370534645725,-17.47720219041118
6.755963392,1.0005506457643083,-17.710992129700106
6.763302912,1.0004334572123093,-17.943486398061175
6.770642432,1.0002917475176543,-18.174263578138323
6.77798144,1.0001334458619757,-18.403052501669947
6.78532096,0.9999674110900243,-18.629670119465487
6.79266048,0.9998028031948906,-18.854078689946753
6.8,0.9996485905413804,-19.076347716507705
6.80733952,0.9995135678105038,-19.296651207089283
6.81467904,0.9994050852404902,-19.5153943523671
6.82201856,0.9993293641098268,-19.73288911055595
6.829357568,0.9992902352238274,-19.949631919837888
6.836697088,0.9992905607521907,-20.166152010094546
6.844036608,0.9993298069128,-20.382940328190294
6.851376128,0.9994060012572842,-20.600607801640805
6.858715648,0.9995151301542718,-20.819520584492757
6.866055168,0.9996508598919827,-21.040134365654406
6.873394688,0.9998059315544061,-21.26278321298173
6.880733696,0.9999715618805992,-21.487627360486503
6.888073216,1.000138632100425,-21.714770134120723
6.895412736,1.0002980409482154,-21.944183741964416
6.902752256,1.0004406657966514,-22.17568359959503
6.910091776,1.0005588423561596,-22.4089809663013
6.917431296,1.0006457194810328,-22.643695852637812
6.924770816,1.0006967796830422,-22.87940923909106
6.932110336,1.0007090136177295,-23.115603909760686
6.939449344,1.0006815903111752,-23.35173047261175
6.946788864,1.0006163046573098,-23.58725630282347
6.954128384,1.000516274366465,-23.821712052906452
6.961467904,1.0003874638530095,-24.05464780107162
6.968807424,1.0002366567669063,-24.285719684485468
6.976146944,1.0000723898033472,-24.5147106587539
6.983486464,0.9999036265239627,-24.741480284130557
6.990825472,0.9997398093159928,-24.96599962901243
6.998164992,0.9995899506083336,-25.18845209685552
7.005504512,0.9994625044695068,-25.409010863111163
7.012844032,0.9993644788345215,-25.62813687711594
7.020183552,0.9993013402729016,-25.8461739422543
7.027523072,0.9992766397561743,-26.0636222818733
7.034862592,0.9992917916912134,-26.28105490665855
7.0422016,0.999346073940416,-26.498994484232263
7.04954112,0.999436399903976,-26.717944620413665
7.05688064,0.9995577241245873,-26.93837081429535
7.06422016,0.9997036319294611,-27.160635026066664
7.07155968,0.9998657960921467,-27.385037466587566
7.0788992,1.0000351595842785,-27.61174435562871
7.08623872,1.00020268831749,-27.840751407186673
7.093577728,1.0003587428526315,-28.072069841279532
7.100917248,1.000494759243835,-28.30534409491029
7.108256768,1.0006034204978267,-28.540290251466672
7.115596288,1.0006783823900296,-28.776571488817122
7.122935808,1.0007154578777335,-29.01362592876616
7.130275328,1.0007128245354346,-29.250987098156767
7.137614848,1.0006702375379384,-29.488079985784104
7.144954368,1.0005904010791542,-29.7243810371596
7.152293376,1.0004773622138095,-29.959430614006965
7.159632896,1.0003376804093533,-30.192767402030544
7.166972416,1.0001786923784142,-30.42414020294243
7.174311936,1.0000094476308556,-30.65334899891951
7.181651456,0.9998392001557014,-30.88026965288086
7.188990976,0.9996773654533992,-31.10496610784103
7.196330496,0.9995332014527879,-31.3276279845839
7.203669504,0.9994144197837848,-31.548509167283868
7.211009024,0.9993277290924842,-31.76805588092394
7.218348544,0.9992779207344782,-31.986689097141088
7.225688064,0.9992679780038212,-32.20498409918336
7.233027584,0.9992984130942262,-32.423423056283575
7.240367104,0.9993675672402222,-32.64260461588032
7.247706624,0.9994714923737984,-32.862955004979945
7.255045632,0.9996046309127711,-33.084951815559535
7.262385152,0.9997595373068392,-33.30898162375833
7.269724672,0.9999279782385343,-33.535229715952646
7.277064192,1.0000998923054614,-33.76383767401803
7.284403712,1.0002663709160375,-33.99476940827556
7.291743232,1.0004179210055406,-34.22788782215838
7.299082752,1.0005462782279615,-34.46295339357492
7.306422272,1.0006441977071379,-34.699608901323835
7.31376128,1.00070618952321,-34.93738868920148
7.3211008,1.0007289105962267,-35.175799185442
7.32844032,1.0007110009779738,-35.41428040835656
7.33577984,1.000653442618012,-35.65229253664192
7.34311936,1.0005593734888367,-35.889320816033695
7.35045888,1.0004338793499725,-36.12489032747887
7.3577984,1.0002840198380065,-36.35865638442389
7.365137408,1.0001178982164194,-36.59028653047342
7.372476928,0.9999448325019692,-36.81968273350157
7.379816448,0.999774356488061,-37.0467789496819
7.387155968,0.9996159134600211,-37.271658076543545
7.394495488,0.9994784059886023,-37.494604625840715
7.401835008,0.9993693455578785,-37.715869910581944
7.409174528,0.9992949147174754,-37.935973729824696
7.416513536,0.9992593470225523,-38.15529458050366
7.423853056,0.9992645472081991,-38.37446608876407
7.431192576,0.9993102482837352,-38.59403944739599
7.438532096,0.9993940148645748,-38.81453690651063
7.445871616,0.9995113484818601,-39.036391585031915
7.453211136,0.9996554774712278,-39.26007739472498
7.460550656,0.9998186438730351,-39.48590992939469
7.467889664,0.9999917987262008,-39.71404650738603
7.475229184,1.0001653992547037,-39.94459410970754
7.482568704,1.000329498139927,-40.17747993464698
7.489908224,1.0004754343035298,-40.412496665853034
7.497247744,1.0005948520005414,-40.649364965137025
7.504587264,1.0006811587521096,-40.887659521751246
7.511926784,1.0007296130583518,-41.12689946081905
7.519266304,1.0007374159424451,-41.36659475904123
7.526605312,1.0007040673950198,-41.60617963322853
7.533944832,1.0006315226965048,-41.84503665245901
7.541284352,1.000523641459445,-42.08276015912571
7.548623872,1.0003861013721813,-42.3188392458206
7.555963392,1.0002270043852155,-42.55298318897718
7.563302912,1.0000547498617223,-42.784891496064034
7.570642432,0.9998790766534615,-43.01448285642036
7.57798144,0.9997096037724961,-43.24177521983858
7.58532096,0.9995556913158687,-43.4669004581047
7.59266048,0.999426165356475,-43.69015529008431
7.6,0.9993279893754817,-43.911855620394334
7.60733952,0.9992666835878623,-44.13253000744086
7.61467904,0.9992457226415872,-44.3527009347004
7.62201856,0.999266324615328,-44.57286997287413
7.629357568,0.9993273504472651,-44.79366994860751
7.636697088,0.9994254317227831,-45.01555323939332
7.644036608,0.9995554763923259,-45.23903329107367
7.651376128,0.9997098621062829,-45.46448635464452
7.658715648,0.9998802940946594,-45.692184601320484
7.666055168,1.0000571774626037,-45.922288031369675
7.673394688,1.0002307943346354,-46.154827996271166
7.680733696,1.0003916893013363,-46.389632267820346
7.688073216,1.0005306516391674,-46.626525442528546
7.695412736,1.0006400804279858,-46.865215181160984
7.702752256,1.0007139521933934,-47.10511413066873
7.710091776,1.0007481018522546,-47.34582740146989
7.717431296,1.000740611901839,-47.58675550004958
7.724770816,1.000691791779515,-47.82735215148869
7.732110336,1.0006040459070034,-48.06709516863808
7.739449344,1.0004828592724027,-48.305446574518896
7.746788864,1.0003343524572597,-48.542012136491515
7.754128384,1.0001668904580547,-48.77649598083307
7.761467904,0.9999896657704932,-49.00864819867318
7.768807424,0.9998125593486332,-49.238468145970515
7.776146944,0.9996453651140104,-49.465941374677584
7.783486464,0.9994972998640764,-49.69137920747423
7.790825472,0.9993767655281683,-49.91496072757425
7.798164992,0.999290356574872,-50.13723606033424
7.805504512,0.9992429807433213,-50.358582451087116
7.812844032,0.9992371032926636,-50.57964220261811
7.820183552,0.9992733115249341,-50.800924121524716
7.827523072,0.9993497304437816,-51.022995846763095
7.834862592,0.9994619617939301,-51.24642131181922
7.8422016,0.9996039151324017,-51.47158302301833
7.84954112,0.9997676482150861,-51.69888420592013
7.85688064,0.9999442406425443,-51.92853818781447
7.86422016,1.0001237919565615,-52.160637579182485
7.87155968,1.0002964399708838,-52.39515518988188
7.8788992,1.0004525982554098,-52.631973850912715
7.88623872,1.0005834434231085,-52.87076774148276
7.893577728,1.00068182424345,-53.11121063705939
7.900917248,1.0007425852004703,-53.35270286845819
7.908256768,1.00076168168974,-53.59483198656621
7.915596288,1.0007385516217688,-53.83694767221766
7.922935808,1.0006741370762715,-54.07855085399474
7.930275328,1.0005720019586475,-54.31909572548324
7.937614848,1.0004378949324146,-54.55803197136986
7.944954368,1.000279041263649,-54.79504903518975
7.952293376,1.0001042068513402,-55.029844213137494
7.959632896,0.9999231105235312,-55.262271867729254
7.966972416,0.9997458995219799,-55.49229473972992
7.974311936,0.9995822676984377,-55.72005523628654
7.981651456,0.9994411976619568,-55.945793740790215
7.988990976,0.9993306971146642,-56.169850579493016
7.996330496,0.999256989981536,-56.392684418876634
8.003669504,0.999224153253672,-56.614809982722036
8.011009024,0.9992338805190766,-56.83686023537141
8.018348544,0.9992858630631258,-57.05934499870385
8.025688064,0.9993773558078806,-57.28283355704518
8.033027584,0.9995031766775437,-57.507851090879285
8.040367104,0.9996563827358705,-57.73479320864751
8.047706624,0.999828618167579,-57.96401464080431
8.055045632,1.0000100967817467,-58.195650038991225
8.062385152,1.0001911867021192,-58.429806821364444
8.069724672,1.0003614816518998,-58.66636938920961
8.077064192,1.000511674018392,-58.90519160004938
8.084403712,1.0006333800642606,-59.14587151976487
8.091743232,1.0007198586659287,-59.388020094615236
8.099082752,1.0007663309533987,-59.63109971051204
8.106422272,1.0007703186150771,-59.874572938939906
8.11376128,1.000731198621503,-60.11788880450264
8.1211008,1.000651305000823,-60.36043775241251
8.12844032,1.0005349400372703,-60.60169474115915
8.13577984,1.0003885721803605,-60.84122774542998
8.14311936,1.000220205751342,-61.078658333595534
8.15045888,1.0000391301709917,-61.313773885001005
8.1577984,0.9998553945284021,-61.54645946697192
8.165137408,0.9996791314620491,-61.776737302596786
8.172476928,0.9995202815688423,-62.00478030834996
8.179816448,0.9993874253852137,-62.23086226857132
8.187155968,0.9992880803162162,-62.45541948666392
8.194495488,0.999227943094583,-62.6789338184073
8.201835008,0.9992101012181877,-62.90195721001825
8.209174528,0.9992358902401751,-63.125035293648565
8.216513536,0.9993037414844218,-63.34886346389165
8.223853056,0.9994100009142964,-63.573825223015874
8.231192576,0.9995487796679285,-63.800556939199986
8.238532096,0.9997126423757843,-64.02935701034848
8.245871616,0.9998922465965121,-64.26053956601619
8.253211136,1.0000777053680212,-64.49421850590394
8.260550656,1.0002588841015765,-64.73046389975848
8.267889664,1.0004255954491057,-64.96909916070939
8.275229184,1.0005685889707467,-65.20990124845206
8.282568704,1.0006801323652976,-65.45245038575301
8.289908224,1.0007537808511109,-65.69633033279001
8.297247744,1.0007855422143785,-65.94094353595982
8.304587264,1.0007734366562309,-66.18576717151828
8.311926784,1.0007183748681052,-66.43018733204298
8.319266304,1.0006231367766776,-66.67361757737547
8.326605312,1.0004929934992814,-66.91560584104525
8.333944832,1.0003350775911835,-67.15564253706074
8.341284352,1.0001581123541563,-67.39346836287405
8.348623872,0.9999719319313332,-67.62887439881416
8.355963392,0.9997867155578053,-67.86182092221624
8.363302912,0.9996127533247581,-68.09237896204621
8.370642432,0.9994598443690643,-68.32072138469829
8.37798144,0.9993362728795603,-68.54725041085281
8.38532096,0.9992491785724037,-68.77236778117418
8.39266048,0.9992033144135704,-68.99665196660825
8.4,0.9992012202988643,-69.22062203181811
8.40733952,0.9992431014212235,-69.44488200210037
8.41467904,0.9993269137288459,-69.67007528983899
8.42201856,0.9994477096561513,-69.89666378265042
8.429357568,0.9995990312143086,-70.12516292477468
8.436697088,0.9997724506604785,-70.35588514407497
8.444036608,0.999958444934143,-70.58912806482812
8.451376128,1.0001466236882286,-70.82494023478675
8.458715648,1.000326642777767,-71.06328135357074
8.466055168,1.0004885394232914,-71.30400270661801
8.473394688,1.0006232650705482,-71.5467914617186
8.480733696,1.0007232842407197,-71.79121822757979
8.488073216,1.0007832626821256,-72.0367381475295
8.495412736,1.0007996655390188,-72.28287502229215
8.502752256,1.0007714671823038,-72.52895751151065
8.510091776,1.0007002353591048,-72.7744436542571
8.517431296,1.0005898753001936,-73.01874071897058
8.524770816,1.0004465225350876,-73.26133770296309
8.532110336,1.0002777742781626,-73.5018974455757
8.539449344,1.0000932765176076,-73.74012843724111
8.546788864,0.9999030642146304,-73.97584545351525
8.554128384,0.9997175816325933,-74.20903646083627
8.561467904,0.999547280491767,-74.43986927020421
8.568807424,0.99940154993876,-74.66858019584991
8.576146944,0.9992884893930997,-74.89558137839825
8.583486464,0.9992145220614466,-75.12137254701615
8.590825472,0.9991836953479425,-75.34645960344763
8.598165504,0.9991977827685614,-75.57148575467117
8.605504512,0.9992558392485242,-75.79702493402128
8.612844544,0.9993552138356009,-76.02369986821653
8.620183552,0.9994901837053498,-76.2519762307001
8.62752256,0.9996531501248128,-76.48233625552457
8.634862592,0.9998354000088865,-76.71506827664317
8.6422016,1.0000266334289516,-76.95039883615922
8.649541632,1.00021636717909,-77.18835148344918
8.65688064,1.0003940500858435,-77.428839985856
8.664220672,1.0005499568528051,-77.67164731623367
8.67155968,1.0006750907624085,-77.91642091744946
8.678898688,1.000762952806163,-78.1626729541008
8.68623872,1.0008083205507392,-78.4098819781279
8.693577728,1.0008087317566043,-78.65744485054022
8.70091776,1.0007640984838586,-78.90477599012988
8.708256768,1.00067695342922,-79.15126848027859
8.7155968,1.000551750250447,-79.39637246390633
8.722935808,1.000395667998488,-79.63961370503453
8.730274816,1.0002171033946958,-79.8806177671497
8.737614848,1.0000259486531093,-80.11918981903099
8.744953856,0.9998327734056937,-80.35518407748182
8.752293888,0.9996483925677189,-80.58868076696345
8.759632896,0.9994829621777918,-80.81982225123488
8.766972928,0.9993456623457388,-81.04895978919785
8.774311936,0.9992439760283087,-81.27650102947473
8.781650944,0.9991839686116765,-81.50297390700862
8.788990976,0.9991687188707454,-81.72902174801203
8.796329984,0.9991993463898577,-81.95515219337291
8.803670016,0.9992739872100496,-82.18207224281328
8.811009024,0.9993887495415881,-82.41031030943013
8.818349056,0.9995373042382545,-82.64037355391824
8.825688064,0.9997112260883749,-82.87267441684102
8.833027072,0.9999012674946002,-83.10748379492793
8.840367104,1.0000966463290824,-83.34496316532548
8.847706112,1.0002866631431042,-83.58508685841717
8.855046144,1.0004606962587976,-83.82776689513928
8.862385152,1.0006092301632514,-84.0726686184147
8.869725184,1.0007240380943487,-84.31939435008155
8.877064192,1.0007985227120109,-84.56744016031313
8.8844032,1.0008286192912585,-84.81627578437019
8.891743232,1.0008126362022183,-85.0652398937044
8.89908224,1.0007513730463236,-85.31375243736589
8.906422272,1.0006481188452458,-85.56120276118081
8.91376128,1.0005085766882962,-85.80704385891767
8.921101312,1.0003404116817234,-86.05088908060074
8.92844032,1.0001529150515633,-86.29233460075612
8.935779328,0.9999562803683624,-86.5312445042521
