freq,mag,phase
6.0,0.9998790117286109,-22.215221380820115
6.009962496,0.9999727460690465,-22.587724877971752
6.019925504,1.0000682095210958,-22.961647607076394
6.029888,1.0001604596564082,-23.336943988128866
6.039850496,1.0002451786838957,-23.713617849163036
6.049812992,1.000317983473272,-24.09152083206693
6.059776,1.000374842178171,-24.470457586891968
6.069738496,1.000413209825537,-24.85017486537524
6.079700992,1.0004309496251793,-25.23049619226363
6.089664,1.000427310673017,-25.6110851680751
6.099626496,1.0004021976862902,-25.991726329369502
6.109588992,1.000356735929375,-26.372058135602302
6.119551488,1.000293525845837,-26.751912422221114
6.129514496,1.0002156828005897,-27.131041756417343
6.139476992,1.0001269331189504,-27.50928163284393
6.149439488,1.0000321005839365,-27.886574627407636
6.159402496,0.9999356198332701,-28.262781475630426
6.169364992,0.9998425311083944,-28.63793337030925
6.179327488,0.9997575994915602,-29.012150707579174
6.189289984,0.9996851544205931,-29.385566279637857
6.199252992,0.9996289654223104,-29.758326595760895
6.209215488,0.9995917658955753,-30.130613100558282
6.219177984,0.9995756233980022,-30.50277908948036
6.22914048,0.9995812476009478,-30.875095440559036
6.239103488,0.9996083929276153,-31.247795591306925
6.249065984,0.999655779963066,-31.62122185914949
6.25902848,0.9997210134837432,-31.99553045824283
6.268991488,0.9998011314461108,-32.37095713845175
6.278953984,0.999891453643745,-32.74772430185341
6.28891648,0.9999879936035903,-33.125913123887536
6.298878976,1.0000855684295218,-33.50555969043941
6.308841984,1.0001791752806672,-33.88663628919752
6.31880448,1.0002642383770737,-34.26908133473224
6.328766976,1.0003363458711376,-34.65276666019749
6.338729984,1.000391906198403,-35.03746506442848
6.34869248,1.0004278487988363,-35.422929661646975
6.358654976,1.000442669748148,-35.80897105215377
6.368617472,1.0004353134988357,-36.19524854145169
6.37858048,1.0004059542514898,-36.58152542778226
6.388542976,1.0003565515602506,-36.96748269463242
6.398505472,1.0002891836403975,-37.352897806342156
6.40846848,1.0002073750766614,-37.73753188474926
6.418430976,1.0001152402638305,-38.12124740476288
6.428393472,1.0000171566687461,-38.503946133850334
6.438355968,0.9999186371131088,-38.885568952496435
6.448318976,0.9998241568147699,-39.26613931690064
6.458281472,0.9997388614517636,-39.64573537570647
6.468243968,0.9996669392226935,-40.02452412620376
6.478206976,0.9996121183379022,-40.402687806132334
6.488169472,0.9995771436076312,-40.78047830141901
6.498131968,0.9995639252155536,-41.1581274689936
6.508094464,0.9995730988290794,-41.53597556729774
6.518057472,0.9996042568702335,-41.914295179235424
6.528019968,0.99965601466997,-42.29332017212483
6.537982464,0.999725343568862,-42.67338393323318
6.54794496,0.9998092877693079,-43.05461399778536
6.557907968,0.9999032854289392,-43.43719548424733
6.567870464,1.0000027242423553,-43.821243174859426
6.57783296,1.0001026103690807,-44.20677500384704
6.587795968,1.0001977059117948,-44.59383136317268
6.597758464,1.0002832999662863,-44.982229422352155
6.60772096,1.0003549417766366,-45.371885842501925
6.617683456,1.0004091521874643,-45.76255255404038
6.627646464,1.000442840280476,-46.15400135886081
6.63760896,1.000454715638345,-46.5459580855576
6.647571456,1.000443887081755,-46.938132979008074
6.657534464,1.0004107150878105,-47.33024670769241
6.66749696,1.000356973707933,-47.722012781866454
6.677459456,1.0002854713994629,-48.113184113733524
6.687421952,1.0001997287873756,-48.50354236612223
6.69738496,1.000103813068055,-48.89291893777475
6.707347456,1.000002924399689,-49.28123018868808
6.717309952,0.9999017998340439,-49.66847567471174
6.72727296,0.9998060907676762,-50.05461113125956
6.737235456,0.9997200456772987,-50.43979705763214
6.747197952,0.9996483785847603,-50.824192189363984
6.757160448,0.9995950033707527,-51.20795573006939
6.767123456,0.9995619990598192,-51.591323928012244
6.777085952,0.9995517181433891,-51.97468438015776
6.787048448,0.9995643615857313,-52.358214145089185
6.797011456,0.9995993937760727,-52.74229870049909
6.806973952,0.9996552242186478,-53.12715137802705
6.816936448,0.9997289558632673,-53.51305134891032
6.826898944,0.9998167370660813,-53.900257813468436
6.836861952,0.9999145500331182,-54.288813611742185
6.846824448,1.0000171564769882,-54.67891007554231
6.856786944,1.0001192231060574,-55.07054777070617
6.86674944,1.0002157786408918,-55.463688044198335
6.876712448,1.000302090656684,-55.85823627804631
6.886674944,1.000373431126451,-56.25402160570955
6.89663744,1.0004265173767952,-56.650816317732165
6.906600448,1.0004581989453856,-57.048395434412534
6.916562944,1.0004672336189,-57.4464149856421
6.92652544,1.000452837142421,-57.844648852945085
6.936487936,1.000415817774476,-58.242772415888155
6.946450944,1.0003579853037736,-58.64052058550368
6.95641344,1.000282187556529,-59.03758606222173
6.966375936,1.0001923102408474,-59.43381617864695
6.976338944,1.0000927919822853,-59.829009713993834
6.98630144,0.9999886617560274,-60.22314997518148
6.996263936,0.9998850828487492,-60.6161344146089
7.006226432,0.9997876442081048,-61.00799996358588
7.01618944,0.9997010000386892,-61.398888740890584
7.026151936,0.9996295086828987,-61.78899589680072
7.036114432,0.9995770205477572,-62.17847981059666
7.04607744,0.9995461824149193,-62.567649013491256
7.056039936,0.9995386551131542,-62.956732380050376
7.066002432,0.999554620096979,-63.346160719558334
7.075964928,0.9995936426292146,-63.73608965912549
7.085927936,0.9996535604077493,-64.12689676709759
7.095890432,0.9997315869502622,-64.51881404702173
7.105852928,0.9998234171679776,-64.9120604577896
7.115815936,0.9999249069152557,-65.3067410073165
7.125778432,1.000030701495639,-65.70297035321106
7.135740928,1.0001354495000898,-66.1008201116307
7.145703424,1.0002338697105673,-66.50017805273366
7.155666432,1.0003209834677456,-66.90096266169927
7.165628928,1.0003922893370922,-67.30298573206926
7.175591424,1.000444090802039,-67.70604009054824
7.18555392,1.0004741690682097,-68.10984567014609
7.195516928,1.0004803139724787,-68.5141134262345
7.205479424,1.0004626725605577,-68.9185367752683
7.21544192,1.0004218109773901,-69.32278878080153
7.225404928,1.0003597030216411,-69.72660230165512
7.235367424,1.0002798118663525,-70.1297297360865
7.24532992,1.0001857345021072,-70.53194653836633
7.255292416,1.0000824186518738,-70.93308181669701
7.265255424,0.9999749223643658,-71.33306115327487
7.27521792,0.9998688164379523,-71.73193440939527
7.285180416,0.9997692280535585,-72.12966903090037
7.295143424,0.9996816107256252,-72.52636628709888
7.30510592,0.9996102278826456,-72.92224504470397
7.315068416,0.9995587051748789,-73.31755258603548
7.325030912,0.9995296293932697,-73.71258741167962
7.33499392,0.9995245622396852,-74.10756784928373
7.344956416,0.9995438834144547,-74.50284870722709
7.354918912,0.9995867294708249,-74.89874445177941
7.36488192,0.9996507992182386,-75.2955556923135
7.374844416,0.9997329971088519,-75.6935640303617
7.384806912,0.999829318387657,-76.0928871538913
7.394769408,0.9999346286327876,-76.49374356218445
7.404732416,1.0000437337671895,-76.89619134524683
7.414694912,1.0001512930168965,-77.30031164985137
7.424657408,1.0002516542010438,-77.70599896126971
7.434620416,1.000339840828321,-78.11309218197214
7.444582912,1.000411318225513,-78.52142850545845
7.454545408,1.0004624274388434,-78.93080304096524
7.464507904,1.0004906051816562,-79.34092797732912
7.474470912,1.0004943486935922,-79.75148159497209
7.484433408,1.0004734863422324,-80.16214864514781
7.494395904,1.000428753660126,-80.57257698156339
7.5043584,1.0003626831078534,-80.98256867396518
7.514321408,1.0002782183977361,-81.39179305843494
7.524283904,1.0001800086894224,-81.80002906198926
7.5342464,1.000072607782057,-82.20716413913311
7.544209408,0.9999615977751577,-82.61312734343187
7.554171904,0.9998525733058781,-83.01787002912621
7.5641344,0.9997509509987517,-83.42146894024091
7.574096896,0.9996621768792373,-83.82402736830544
7.584059904,0.999590367127664,-84.22577708897279
7.5940224,0.9995394312298591,-84.62692031503859
7.603984896,0.9995120104123372,-85.02776690172493
7.613947904,0.9995094214134232,-85.428654120336
7.6239104,0.999531965044585,-85.82986196371714
7.633872896,0.9995784870571032,-86.23170791812056
7.643835392,0.9996468864478739,-86.6345432371236
7.6537984,0.9997333210768077,-87.03860051218153
7.663760896,0.9998338740957566,-87.44406254808565
7.673723392,0.999943482410715,-87.8511021026659
7.6836864,1.0000562634191,-88.25981694341714
7.693648896,1.0001668622241167,-88.67017159254608
7.703611392,1.0002694981366322,-89.08211338521578
7.713573888,1.0003590844124393,-89.4955668027869
7.723536896,1.0004309766330648,-89.91025879122348
7.733499392,1.000481582283489,-90.3259467012207
7.743461888,1.000508371172596,-90.74239325414737
7.753424896,1.0005097150893956,-91.15924636193523
7.763387392,1.0004855866532032,-91.57615857220354
7.773349888,1.000437160005357,-91.99281091212833
7.783312384,1.000366869494254,-92.40896556992901
7.793275392,1.0002780490455403,-92.82426083651958
7.803237888,1.0001752949274034,-93.23859331114052
7.813200384,1.0000636406847165,-93.65170861613174
7.823163392,0.9999489311533185,-94.0635762044179
7.833125888,0.999836669771621,-94.47422649931998
7.843088384,0.9997326720888481,-94.88364068002572
7.85305088,0.9996422321053903,-95.2920663875974
7.863013888,0.9995699577869794,-95.6995869062239
7.872976384,0.9995194183524876,-96.10653313677717
7.88293888,0.9994932393518596,-96.5132144873584
7.892901376,0.9994931186039498,-96.91990565155488
7.902864384,0.999518710464801,-97.32697637325812
7.91282688,0.999569049034295,-97.73476004357013
7.922789376,0.9996415070494286,-98.14350865794484
7.932752384,0.9997326049541063,-98.55356298438032
7.94271488,0.9998376236858363,-98.96510594409754
7.952677376,0.9999514247228245,-99.3782329138361
7.962639872,1.0000682165595896,-99.79309490963455
7.97260288,1.0001821362505277,-100.20965065958897
7.982565376,1.0002874335814138,-100.62785393618711
7.992527872,1.0003787210667678,-101.04755053365766
8.00249088,1.000451473005049,-101.46851887455954
8.012453376,1.0005017725917755,-101.89051165488853
8.022415872,1.0005273039244422,-102.31319987598147
8.032378368,1.0005264398267593,-102.73627749911272
8.042341376,1.000499197880013,-103.1594059139485
8.052303872,1.0004471001594235,-103.58222588305485
8.062266368,1.0003725806970196,-104.00444679564406
8.072229376,1.0002792307083006,-104.42579307015845
8.082191872,1.0001718039080485,-104.8460934591908
8.092154368,1.0000558450098058,-105.2651340635323
8.102116864,0.9999368424525188,-105.68286760870335
8.112079872,0.9998210932225374,-106.09928021850313
8.122042368,0.9997142753277801,-106.51446969295131
8.132004864,0.9996218588854268,-106.92856959952957
8.141967872,0.999548640404966,-107.34180871691467
8.151930368,0.9994981804251128,-107.75443431480379
8.161892864,0.9994732623657382,-108.16680353352244
8.17185536,0.9994751060912157,-108.57918528676514
8.181818368,0.9995037900346603,-108.99195838105865
8.191780864,0.9995578396153333,-109.40551495317443
8.20174336,0.999634581026119,-109.82009688486734
8.211705856,0.9997302033710413,-110.23598088764813
8.221668864,0.9998400512021774,-110.65343496457744
8.23163136,0.9999585265472977,-111.0725357164444
8.241593856,1.00007960667424,-111.4934131005177
8.251556864,1.0001971786770538,-111.91604754912005
8.26151936,1.0003055360961672,-112.34032655715234
8.271481856,1.0003989015956876,-112.766181635583
8.281444352,1.0004728062481525,-113.19325813582846
8.29140736,1.000523177563303,-113.62138889604765
8.301369856,1.0005475074951995,-114.05023364106032
8.311332352,1.0005446803965088,-114.47938387943398
8.32129536,1.0005145942092635,-114.90859426974805
8.331257856,1.0004587489856336,-115.33741578191609
8.341220352,1.0003798430017234,-115.7655918182471
8.351182848,1.0002818010571481,-116.19286599303841
8.361145856,1.0001695094812566,-116.61894117317928
8.371108352,1.0000486713750727,-117.0437415381393
8.381070848,0.9999253234828325,-117.4671562833249
8.391033856,0.9998054526976424,-117.88922582246889
8.400996352,0.9996954515731173,-118.30995641968099
8.410958848,0.9996006826165529,-118.72959771156289
8.420921344,0.9995261024536486,-119.14832106996776
8.430884352,0.9994754554869427,-119.56644168130241
8.440846848,0.9994513844339984,-119.98424506913092
8.450809344,0.9994551205911173,-120.40211621975591
8.460772352,0.9994867217772917,-120.82043918376132
8.470734848,0.9995444621765501,-121.23950897859338
8.480697344,0.9996256296251798,-121.65965384237043
8.49065984,0.9997261257057988,-122.08118601051132
8.500622848,0.9998410396076752,-122.50429842798097
8.510585344,0.999964382719555,-122.9291632345872
8.52054784,1.0000902444986957,-123.35580015635334
8.530510336,1.0002120348346342,-123.78426611468117
8.540473344,1.0003237789624222,-124.21445442713834
8.55043584,1.0004197335232743,-124.64617922873795
8.560398336,1.0004950826407666,-125.07919483175897
8.570361344,1.0005458449042859,-125.51325438888563
8.58032384,1.0005696163363464,-125.947992566466
8.590286848,1.000564942783046,-126.38306368104841
8.600249344,1.000531939234193,-126.81810044840002
8.61021184,1.000472359672553,-127.25272798397117
8.620174336,1.0003890173449428,-127.68664574496643
8.630136832,1.0002860135597935,-128.1195605334226
8.640099328,1.0001685562420133,-128.55125759949394
8.650061824,1.0000425074769834,-128.981551351655
8.660025344,0.9999141551645863,-129.41040623238774
8.66998784,0.9997899783288088,-129.8378540774544
8.679950336,0.9996762773446276,-130.26390214340768
8.689912832,0.9995787353814315,-130.6887933954886
8.699875328,0.9995024008909345,-131.11272638424452
8.709837824,0.999451062467,-131.53602409622556
8.71980032,0.9994275895216869,-131.95899475225391
8.72976384,0.9994331105574294,-132.38205508801354
8.739726336,0.9994674292837616,-132.80553416506092
8.749688832,0.9995290187792792,-133.22981902687127
8.759651328,0.9996146447626238,-133.65523862508533
8.769613824,0.9997202543038624,-134.08207331799107
8.77957632,0.9998404381427831,-134.51055657160006
8.789538816,0.999969284737961,-134.94086124102247
8.799502336,1.0001002418309033,-135.37298987547086
8.809464832,1.0002268112258599,-135.80698344821
8.819427328,1.0003425422277357,-136.24273545410878
8.829389824,1.0004415900405608,-136.68004648831857
8.83935232,1.000518833045643,-137.1187119799499
8.849314816,1.0005704442497763,-137.55839826136355
8.859277312,1.0005937644842435,-137.99873883823787
8.869240832,1.00058734757144,-138.43939901660013
8.879203328,1.0005516448228222,-138.87999292017554
8.889165824,1.0004882508991733,-139.32011115532723
8.89912832,1.0004003327504305,-139.7594781155847
8.909090816,1.0002921632760282,-140.19775721815995
8.919053312,1.0001691296195958,-140.63472267446778
8.929015808,1.0000374324243124,-141.07021307632502
8.938979328,0.9999035125074213,-141.5042016896434
8.948941824,0.9997744102187278,-141.93662138260615
8.95890432,0.9996563889935769,-142.36764867327142
8.968866816,0.9995555822886253,-142.79740916152355
8.978829312,0.9994769208711141,-143.22620630248252
8.988791808,0.9994246303390559,-143.654281303873
8.998754304,0.9994014212667627,-144.08207388233313
9.0087168,0.9994084563440802,-144.50989149941407
9.01868032,0.9994455780520934,-144.9381550027293
9.028642816,0.9995109251375393,-145.36727120764922
9.038605312,0.9996012533848381,-145.79754209885624
9.048567808,0.9997123111120376,-146.2292713436544
9.058530304,0.9998382711629743,-146.66270430100252
9.0684928,0.9999729957249701,-147.0980230877652
9.078455296,1.0001097635478193,-147.5352218298478
9.088418816,1.0002416457611352,-147.97435189950235
9.098381312,1.0003618705945754,-148.41528963625953
9.108343808,1.00046450371386,-148.8578318588105
9.118306304,1.0005443317141343,-149.30173975699577
9.1282688,1.0005971805322023,-149.7466895698611
9.138231296,1.000620274509073,-150.19227610617733
9.148193792,1.0006125779614694,-150.63814956448368
9.158157312,1.000574139925672,-151.08391342786265
9.168119808,1.0005068775934007,-151.529185888179
9.178082304,1.000414050026995,-151.9736021823507
9.1880448,1.0003003515283302,-152.41685413227364
9.198007296,1.0001713149649423,-152.85867566503512
9.207969792,1.0000333387744063,-153.2989706178334
9.217932288,0.9998934814079691,-153.737624573083
9.227895808,0.9997586364004554,-154.1746629353075
9.237858304,0.9996358034156039,-154.6102145306868
9.2478208,0.9995309430969819,-155.04439427103955
9.257783296,0.9994495773877454,-155.47755050257007
9.267745792,0.9993958855950448,-155.90999187241752
9.277708288,0.9993725247023891,-156.34207041641997
9.287670784,0.9993809923661142,-156.77420986511288
9.297634304,0.9994207138438975,-157.20675718146538
9.3075968,0.9994900300756149,-157.64020192765105
9.317559296,0.9995853650539478,-158.0748257738273
9.327521792,0.9997021444975266,-158.51098230397028
9.337484288,0.9998343989390057,-158.94889917993015
9.347446784,0.9999756340046574,-159.38872037086222
9.35740928,1.0001187652290418,-159.8305383908403
9.3673728,1.0002566150816035,-160.27433068161977
9.377335296,1.000382077336582,-160.71999217965757
9.387297792,1.0004890807784956,-161.1672796237964
9.397260288,1.0005718604545428,-161.61597183834235
9.407222784,1.000626470718628,-162.06571383544866
9.41718528,1.0006497714726503,-162.51613385654468
9.427147776,1.0006408576694374,-162.9667809425888
9.437111296,1.0005997635901571,-163.41729786456096
9.447073792,1.00052851856528,-163.86724671198786
9.457036288,1.0004305862347567,-164.31623241795575
9.466998784,1.0003108834346095,-164.76399274974645
9.47696128,1.0001752299750113,-165.21024029677318
9.486923776,1.0000304635927983,-165.65483841478823
9.496886272,0.9998838632845051,-166.097701284085
9.506849792,0.9997426577991307,-166.53881732266817
9.516812288,0.9996141074081889,-166.9783488337585
9.526774784,0.9995046214945168,-167.41648188774764
9.53673728,0.999419903219072,-167.85347622812
9.546699776,0.999364234614691,-168.28967705774082
9.556662272,0.999340488955466,-168.72549683056383
9.566624768,0.999350133739405,-169.16135880532966
9.576588288,0.999392544655472,-169.59767119466105
9.586550784,0.999465959004924,-170.03485368177223
9.59651328,0.9995666718156441,-170.47328717480528
9.606475776,0.9996896556978746,-170.9132817904903
9.616438272,0.9998288001659771,-171.35513089701703
9.626400768,0.9999773265454388,-171.7989438954493
9.636363264,1.0001276296685007,-172.24481331717217
9.646326784,1.0002721984406366,-172.69274804172593
9.65628928,1.000403777661303,-173.14256704350598
9.666251776,1.0005156763039562,-173.59413167505505
9.676214272,1.0006023176531154,-174.0470879954203
9.686176768,1.00065898678586,-174.50113636655223
9.696139264,1.0006829557110617,-174.9558249060409
9.70610176,1.0006729379343344,-175.41076999060084
9.716064256,1.00062904254004,-175.86548749971598
9.726027776,1.0005536591575572,-176.3196018246273
9.735990272,1.0004503117706096,-176.77268631417158
9.745952768,1.0003240150928274,-177.2244351040478
9.755915264,1.0001810731024052,-177.67456099773966
9.76587776,1.0000287222564215,-178.12292517045455
9.775840256,0.9998744526313879,-178.5694217338325
9.785802752,0.9997260595409792,-179.01409619093306
9.795766272,0.9995910538006594,-179.45703510428953
9.805728768,0.9994762137372892,-179.89847488445776
9.815691264,0.9993874406556907,179.66129998645937
9.82565376,0.9993292058452031,179.2219217640768
9.835616256,0.9993047758166544,178.7829683865206
9.845578752,0.9993152767407968,178.34399996747104
9.855541248,0.9993604632474609,177.90458604561076
9.865504768,0.9994381317747901,177.46428296514316
9.875467264,0.9995446249868442,177.0226765720461
9.88542976,0.9996744316276692,176.5794577154757
9.895392256,0.9998213035520797,176.1343222881438
9.905354752,0.9999777562611897,175.68711811267107
9.915317248,1.0001361454304956,175.237769209629
9.925279744,1.0002884524238778,174.786337060404
9.935243264,1.0004269774989798,174.3328731940745
9.94520576,1.0005446657124535,173.87766250978603
9.955168256,1.0006356580366997,173.4209866000398
9.965130752,1.0006951048168617,172.96318335769644
9.975093248,1.000720048443899,172.50474292689287
