freq,mag,phase
6.0,1.000076808485309,-110.31190486173857
6.035555328,1.000088311638248,-112.11518668713137
6.071111168,1.000099273844972,-113.91866078684082
6.106666496,1.0001088681541968,-115.72228792693168
6.142222336,1.0001166810205118,-117.52603979049555
6.177777664,1.0001228466269287,-119.32984230237818
6.213333504,1.000127252055161,-121.13365142887241
6.248888832,1.0001297083283278,-122.9374921724887
6.284444672,1.0001302180117844,-124.74124791066527
6.32,1.0001287867567044,-126.54493139926215
6.355555328,1.0001254340640846,-128.34845311457792
6.391111168,1.0001202347919922,-130.15180059743767
6.426666496,1.0001131970301447,-131.9549373473648
6.462222336,1.0001044930661744,-133.75779468030996
6.497777664,1.000094212836893,-135.56034069425257
6.533333504,1.0000824074669128,-137.36255682586696
6.568888832,1.0000694521202844,-139.16439353541028
6.604444672,1.0000553856129224,-140.96582233628135
6.64,1.0000405261478356,-142.76678341327525
6.675555328,1.0000250895714076,-144.56726967637016
6.711111168,1.0000091539504898,-146.36726078290468
6.746666496,0.9999931288990851,-148.16667613900495
6.782222336,0.9999771527621919,-149.96555677533482
6.817777664,0.9999615597009754,-151.76386345479744
6.853333504,0.9999465296679136,-153.56150431522101
6.888888832,0.9999323108568602,-155.3585429129123
6.924444672,0.9999190464827283,-157.15492437815325
6.96,0.9999070879358075,-158.9506285466851
6.995555328,0.9998965750360262,-160.74565721635526
7.031111168,0.999887631411664,-162.53996480702872
7.066666496,0.9998802967080718,-164.33357138185696
7.102222336,0.9998749335698329,-166.12643762016302
7.137777664,0.9998713481096702,-167.91857137738663
7.173333504,0.9998698682209035,-169.70998127070837
7.208888832,0.9998704538151668,-171.50064205067676
7.244444672,0.9998729619454344,-173.29052969238762
7.28,0.9998774170825955,-175.0796426958279
7.315555328,0.9998838335750909,-176.86799851772057
7.351111168,0.9998921195900435,-178.65556072642386
7.386666496,0.9999021259181479,179.55765482123695
7.422222336,0.9999135955351036,177.77169082851134
7.457777664,0.9999266402559295,175.98652066313394
7.493333504,0.9999406923704337,174.20217608680673
7.528888832,0.9999559205051435,172.4186621042145
7.564444672,0.9999717730000626,170.63599123229218
7.6,0.9999883227623,168.85415432034384
7.635555328,1.0000049854779025,167.0731865837507
7.671111168,1.0000217270992415,165.29311648039638
7.706666496,1.0000383001655615,163.51394252488925
7.742222336,1.0000543948493679,161.7356652506803
7.777777664,1.0000696424192481,159.9583666321874
7.813333504,1.0000840152215118,158.18202111802935
7.848888832,1.0000972344254861,156.40663397200527
7.884444672,1.0001090003165867,154.63225070943494
7.92,1.0001192506849028,152.8589175009408
7.955555328,1.0001277089726062,151.08660484030125
7.991111168,1.0001343058269112,149.3153879496587
8.026666496,1.0001389279486608,147.545268768512
8.062222336,1.0001415012954569,145.77628507568593
8.097777664,1.0001419356750612,144.00845706566324
8.133333504,1.0001401671594743,142.24179539879782
8.168888832,1.0001364427308215,140.47635524943905
8.204444672,1.000130488735263,138.71213204141364
8.24,1.0001227497925909,136.9491585439788
8.275555328,1.0001130215433784,135.18746947020756
8.311111168,1.0001016464666257,133.4270754206606
8.346666496,1.0000886987890898,131.66800545113657
8.382222336,1.0000742849992161,129.9102499490125
8.417777664,1.0000587996118888,128.15383442063612
8.453333504,1.000042434613885,126.39879798137682
8.488888832,1.0000253301129236,124.64512405357831
8.524444672,1.000007805759075,122.89283676424061
8.56,0.9999901623172016,121.14193532497892
8.595555328,0.9999726117718304,119.3924297536888
8.631110656,0.9999554627025032,117.64432000224517
8.666667008,0.9999390725355917,115.89760450454493
8.702222336,0.9999234344665322,114.1522612298892
8.737777664,0.9999091055145576,112.40831244095362
8.773332992,0.9998960501051507,110.66574017418566
8.808889344,0.999884661792175,108.92453913592533
8.844444672,0.9998750928520707,107.18469553144368
8.88,0.9998674007012369,105.44618459388239
8.915555328,0.9998617090584726,103.70901506775208
8.951110656,0.9998582729529953,101.97315580827447
8.986667008,0.9998569858660696,100.23859684947871
9.022222336,0.9998579662809621,98.50531344768082
9.057777664,0.9998611905543553,96.77327476680368
9.093332992,0.9998667206124923,95.04249982757788
9.128889344,0.9998742082397379,93.31293112699112
9.164444672,0.9998838816834699,91.58456573335533
9.2,0.9998953321547805,89.85738809170914
9.235555328,0.9999085641263907,88.13137310018823
9.271110656,0.9999232766668295,86.40651493615002
9.306667008,0.9999393027377594,84.68278470476905
9.342222336,0.9999563726290935,82.96018751562964
9.377777664,0.9999742865148242,81.23866623463563
9.413332992,0.9999926784845117,79.51826505538672
9.448889344,1.0000113422730668,77.79894034730987
9.484444672,1.000029919254194,76.08068915327009
9.52,1.000048216395158,74.36351300804733
9.555555328,1.0000658803010978,72.64739810260842
9.591110656,1.0000825893106664,70.9323427163504
9.626667008,1.0000981910748525,69.21833318880512
9.662222336,1.0001123763216544,67.50538727112506
9.697777664,1.0001248868490935,65.79350898190566
9.733332992,1.000135589007358,64.08267838467833
9.768889344,1.0001442389856736,62.37290880310514
9.804444672,1.0001507798185632,60.664222087563516
9.84,1.000154998849496,58.95660277752647
9.875555328,1.0001568619118413,57.25006594331557
9.911110656,1.0001562696114503,55.54458920280979
9.946667008,1.0001533592357257,53.840219484796506
9.982222336,1.0001480857928498,52.13692693866184
10.017777664,1.0001405114638773,50.434733425150554
10.053332992,1.0001306597028066,48.73362737260743
10.088889344,1.0001188189928163,47.033637130615695
10.124444672,1.0001050536093365,45.33474035791769
10.16,1.0000896770903753,43.63696815355723
10.195555328,1.0000728362238944,41.940257428610515
10.231110656,1.0000547261870683,40.24464983552402
10.266667008,1.0000357765518062,38.55014986005735
10.302222336,1.0000162270721458,36.856699885355106
10.337777664,0.9999962785744108,35.164326965180635
10.373332992,0.9999763032481745,33.47300019303936
10.408889344,0.9999567406150901,31.78270724405305
10.444444672,0.9999376459040298,30.093422188439277
10.48,0.9999195719321754,28.40514928823004
10.515555328,0.9999026368368222,26.717838197823188
10.551110656,0.9998872170924695,25.031472712239445
10.586667008,0.9998734618281012,23.34602038910822
10.622222336,0.9998617157717201,21.661467356819358
10.657777664,0.999852042439263,19.977762670743523
10.693332992,0.9998446236653236,18.294890639380416
10.728889344,0.9998397140685967,16.612796969425183
10.764444672,0.999837301957507,14.931441490499791
10.8,0.9998374571135352,13.250829254910325
10.835555328,0.9998402326143933,11.570880195322864
10.871110656,0.9998454391580405,9.891582234518479
10.906667008,0.9998532513887528,8.212891747990522
10.942222336,0.9998634052709052,6.534776669251198
10.977777664,0.9998757827852225,4.85718151155203
11.013332992,0.9998902372332232,3.180097016228051
11.048889344,0.9999064974536772,1.5034786134296911
11.084444672,0.9999243738962317,-0.1726969392287625
11.12,0.9999434853235551,-1.8484680898287342
11.155555328,0.9999637558828237,-3.523871614074186
11.191110656,0.9999846945030009,-5.198904861000677
11.226667008,1.0000059998767274,-6.873635239233619
11.262222336,1.0000274520185464,-8.548043628774355
11.297777664,1.000048503367851,-10.222175906022143
11.333332992,1.0000690006316335,-11.896047349526647
11.368889344,1.0000885360529512,-13.569635425768755
11.404444672,1.0001068846722372,-15.242993336377317
11.44,1.0001237172462367,-16.91613384443975
11.475555328,1.000138575566024,-18.589032417899265
11.511110656,1.0001516430464705,-20.261722641669504
11.546667008,1.0001622673436679,-21.934205169720883
11.582222336,1.0001704320967708,-23.606478298515146
11.617777664,1.0001759857566812,-25.278559476544984
11.653332992,1.0001788807388423,-26.950408705041
11.688889344,1.000179006482595,-28.622067307746022
11.724444672,1.000176286701146,-30.29353774156553
11.76,1.000170926505038,-31.964782148780255
11.795555328,1.0001628427379214,-33.6358514209207
11.831110656,1.0001520466015703,-35.30669753499823
11.866667008,1.00013893347875,-36.97736673270798
11.902222336,1.0001236280894552,-38.647821135814596
11.937777664,1.000106110262907,-40.318089680078906
11.973332992,1.000086974580449,-41.98817751909747
12.008889344,1.0000662526840103,-43.65810675950819
12.044444672,1.0000445100634874,-45.32786404211491
12.08,1.000021947223173,-46.997454720059125
12.115555328,0.9999989496992816,-48.66693415016145
12.151110656,0.9999756382021896,-50.33628426875594
12.186667008,0.9999527364079642,-52.00554891909057
12.222222336,0.9999303258967384,-53.67471743369005
12.257777664,0.9999089710340556,-55.34384131828794
12.293332992,0.9998889001632766,-57.01295181375256
12.328889344,0.9998703771860005,-58.68206856795015
12.364444672,0.9998538732814738,-60.35122659279714
12.4,0.9998395833714068,-62.02044982427907
12.435555328,0.99982763113191,-63.68979527637528
12.471110656,0.9998183501766096,-65.35927885384432
12.506667008,0.9998118366506963,-67.02896300329422
12.542222336,0.99980836373065,-68.69885782784908
12.577777664,0.999807867102192,-70.36903099213784
12.613332992,0.9998103508286329,-72.03950822010695
12.648889344,0.9998157881472585,-73.710331120246
12.684444672,0.9998242246468556,-75.3815556802802
12.72,0.9998355221400681,-77.0532163437991
12.755555328,0.9998495473929564,-78.72532623254348
12.791110656,0.9998660463173423,-80.39796050839965
12.826667008,0.9998848027518086,-82.07113037184754
12.862222336,0.9999054068478338,-83.74487817587578
12.897777664,0.999927896261422,-85.41921455776395
12.933332992,0.9999515575760676,-87.09422123204504
12.968889344,0.9999762426269643,-88.7698854605788
13.004444672,1.000001601000037,-90.44624948419855
13.04,1.0000271427534226,-92.12329916731844
13.075555328,1.000052436717576,-93.80111110910894
13.111110656,1.0000771846667436,-95.47965457142178
13.146667008,1.0001009883375926,-97.15894971211867
13.182222336,1.0001234600179159,-98.83901794185094
13.217777664,1.0001441515860832,-100.51986043680424
13.253332992,1.0001629040295164,-102.2014853320079
13.288889344,1.0001792562694671,-103.88389319678359
13.324444672,1.0001930161570256,-105.56707377600968
13.36,1.0002039090146497,-107.25103669750291
13.395555328,1.000211734578446,-108.93577697486808
13.431110656,1.0002163080692206,-110.62128082494694
13.466667008,1.0002176879570948,-112.30754218020776
13.502222336,1.000215637717846,-113.99456391932956
13.537777664,1.000210325521694,-115.68230614363638
13.573332992,1.0002016365127229,-117.3708042193711
13.608889344,1.0001897739555132,-119.06000784730975
13.644444672,1.000174796341971,-120.74994850690807
13.68,1.0001571004456102,-122.44057902066355
13.715555328,1.0001366383621864,-124.13191592997264
13.751110656,1.0001140543271736,-125.82396113223308
13.786667008,1.0000893757852316,-127.51669024949207
13.822222336,1.0000630198374625,-129.2101210763191
13.857777664,1.000035542311979,-130.90425396538825
13.893332992,1.0000071265310055,-132.5990708307251
13.928889344,0.9999783670344138,-134.29459558177072
13.964444672,0.9999496465680039,-135.9908535845803
14.0,0.9999214060567067,-137.68783537924344
