freq,mag,phase
6.0,0.9996484476192232,-135.43902378253654
6.002286592,0.9997172599612214,-135.585377518195
6.004572672,0.9998044768507504,-135.7328270820716
6.006859264,0.9999047090596455,-135.88161865203045
6.009145344,1.0000115786160628,-136.03192522725982
6.011431936,1.0001183920038346,-136.18377180912114
6.013718016,1.000218313713128,-136.3370283073895
6.016004608,1.0003050032312535,-136.49168653873997
6.018290688,1.0003731470739088,-136.6474364247369
6.02057728,1.000418192372942,-136.80392651770023
6.022863872,1.00043748819978,-136.96092775913309
6.025149952,1.0004296184433603,-137.1179734720623
6.027436544,1.0003952795436248,-137.274672624939
6.029722624,1.0003364752675612,-137.4306786309015
6.032009216,1.0002568245223091,-137.58568987438986
6.034295296,1.0001616126372979,-137.73934435322064
6.036581888,1.0000568178193636,-137.89156444789526
6.03886848,0.9999489848192263,-138.04221132291713
6.04115456,0.9998449086321394,-138.19129355167254
6.043441152,0.9997511743570563,-138.33889616509035
6.045727232,0.9996738703144717,-138.4852521858965
6.048013824,0.9996177770086374,-138.63059126681978
6.050299904,0.9995865439974903,-138.77525863570617
6.052586496,0.9995821089672856,-138.9197037659675
6.054872576,0.9996047524528049,-139.06416657261968
6.057159168,0.999652969485715,-139.20920696317728
6.05944576,0.9997238665345966,-139.35502866699494
6.06173184,0.9998129450865407,-139.5020260815316
6.064018432,0.9999144224739271,-139.650355189182
6.066304512,1.000022052802097,-139.80015584151386
6.068591104,1.0001289337708266,-139.95153859796906
6.070877184,1.0002282226313524,-140.10439743317343
6.073163776,1.0003138129775,-140.25854668620397
6.075450368,1.0003800905831965,-140.41378970628733
6.077736448,1.0004229702030456,-140.56980840272593
6.08002304,1.0004397734598058,-140.7262062522435
6.08230912,1.0004293529925337,-140.8826106104443
6.084595712,1.0003923185161547,-141.03869917913326
6.086881792,1.000331113126318,-141.19400872291922
6.089168384,1.0002494695472535,-141.34828168615627
6.091454464,1.0001527170958309,-141.5012107803298
6.093741056,1.0000467972826763,-141.65266789725413
6.096027648,0.9999385936022777,-141.8024950750998
6.098313728,0.9998347358531567,-141.95076278561555
6.10060032,0.9997420561926451,-142.09762383853666
6.1028864,0.9996662228336441,-142.24318708826326
6.105172992,0.9996121986339946,-142.38781936213556
6.107459072,0.9995833237928048,-142.53179765234057
6.109745664,0.999581434360548,-142.6755139507874
6.112032256,0.9996067364725898,-142.8194311287987
6.114318336,0.9996575754325018,-142.96377377254748
6.116604928,0.9997307140552368,-143.10905628853496
6.118891008,0.9998216262899378,-143.25551821909903
6.1211776,0.9999244061469112,-143.40332819552114
6.12346368,1.0000327030674223,-143.5526549962816
6.125750272,1.000139493569159,-143.70351852818482
6.128036352,1.0002382022687852,-143.85583885810073
6.130322944,1.0003224633539602,-144.0094355306542
6.132609536,1.0003869819561457,-144.16411469368285
6.134895616,1.0004276317437832,-144.31955482196096
6.137182208,1.0004417701052832,-144.47533675886433
6.139468288,1.0004286589926932,-144.63110708165902
6.14175488,1.000389038786311,-144.7864583736979
6.14404096,1.0003254307053897,-144.94104486897777
6.146327552,1.0002417155629921,-145.09450941253863
6.148614144,1.0001433593088185,-145.24664929096704
6.150900224,1.0000365522170918,-145.39725512241918
6.153186816,0.9999279565492589,-145.5462702602695
6.155472896,0.9998245546087356,-145.69373364019484
6.157759488,0.9997328516343126,-145.8397271998068
6.160045568,0.9996586572150881,-145.98451176679262
6.16233216,0.9996066716527594,-146.12834567582766
6.16461824,0.999580252807145,-146.2715424354248
6.166904832,0.9995810673885929,-146.41457689587662
6.169191424,0.999609065129165,-146.55771969427258
6.171477504,0.9996624544458421,-146.70148471882703
6.173764096,0.9997379079688506,-146.84614218595323
6.176050176,0.9998305458726906,-146.99197368497082
6.178336768,0.9999346683652209,-147.13921491962756
6.180622848,1.0000435378099823,-147.28796754684768
6.18290944,1.000150338337995,-147.43828898516875
6.18519552,1.0002482222542441,-147.59004098803393
6.187482112,1.0003311723405435,-147.74307610610202
6.189768704,1.0003937163761027,-147.8971665286504
6.192054784,1.0004319740816179,-148.0519573372543
6.194341376,1.0004435501114584,-148.2070629745959
6.196627456,1.0004277365749552,-148.3620854555804
6.198914048,1.0003854317206196,-148.51671827464307
6.201200128,1.0003193897159663,-148.67044126326033
6.20348672,1.0002336120476991,-148.82310617465893
6.205773312,1.000133752139285,-148.9743888682712
6.208059392,1.0000259601500434,-149.12410786122467
6.210345984,0.9999171538991691,-149.2722480257186
6.212632064,0.9998141803804453,-149.41880353223456
6.214918656,0.999723535621966,-149.56392697597602
6.217204736,0.9996510064524867,-149.70780584121528
6.219491328,0.9996012667812014,-149.85081929599116
6.221777408,0.9995773832024333,-149.99320962959126
6.224064,0.9995809043591366,-150.1354556580668
6.226350592,0.9996116210513204,-150.27789637854448
6.228636672,0.9996675912791928,-150.42094804742501
6.230923264,0.9997452738047162,-150.56492669843703
6.233209344,0.9998398284006385,-150.71012816495568
6.235495936,0.9999450680583191,-150.85674942324238
6.237782016,1.0000544658831274,-151.00492429147386
6.240068608,1.0001611707985252,-151.15464288350438
6.2423552,1.000258321390454,-151.3057726435496
6.24464128,1.000339742526038,-151.45818215960335
6.246927872,1.000400288760031,-151.6116252458885
6.249213952,1.0004361561645703,-151.7656751069711
6.251500544,1.000445086883437,-151.92005199262778
6.253786624,1.0004265243870218,-152.07436092876054
6.256073216,1.0003815220992758,-152.22811922421573
6.258359296,1.00031297947089,-152.3810363196066
6.260645888,1.0002251816031746,-152.53281639284393
6.26293248,1.0001238366754253,-152.6831679774765
6.26521856,1.0000152070996124,-152.8319749553015
6.267505152,0.9999062217302137,-152.97916800745188
6.269791232,0.9998037768289092,-153.1247667943832
6.272077824,0.9997143258777815,-153.26895950085748
6.274363904,0.9996435979934113,-153.41191844482623
6.276650496,0.9995960295008104,-153.55403449120695
6.278937088,0.9995748543203343,-153.6956277037169
6.281223168,0.9995810857724149,-153.8370341231176
6.28350976,0.9996145725656762,-153.97868615823938
6.28579584,0.9996730952860531,-154.12102685541214
6.288082432,0.9997530832739471,-154.2642769395806
6.290368512,0.9998493681307061,-154.40879963984324
6.292655104,0.9999558164139258,-154.5547910005958
6.294941184,1.0000657430901503,-154.70230613860159
6.297227776,1.0001721987621872,-154.85134949887853
6.299514368,1.0002683791125209,-155.0018638358882
6.301800448,1.0003482418755247,-155.1535871004779
6.30408704,1.0004068267055763,-155.30630029573416
6.30637312,1.0004401785887103,-155.45962364446797
6.308659712,1.000446304406737,-155.61322903693178
6.310945792,1.000424863736137,-155.76668790341353
6.313232384,1.0003772485162505,-155.91962389769864
6.315518464,1.0003062014049393,-156.0716360667125
6.317805056,1.0002164075554634,-156.22246573707565
6.320091648,1.0001135455648544,-156.3718511474001
6.322377728,1.0000040870225395,-156.51968181390512
6.32466432,0.9998949422910935,-156.66586012037732
6.3269504,0.9997931283217798,-156.8104935188312
6.329236992,0.9997049796258333,-156.9537016796243
6.331523072,0.999636090600174,-157.09573059299856
6.333809664,0.9995909862356055,-157.23692239213315
6.336096256,0.9995723880953914,-157.37758892964195
6.338382336,0.9995814959652888,-157.51816960487076
6.340668928,0.9996178209362288,-157.65899877309644
6.342955008,0.999678970719781,-157.8005237605414
6.3452416,0.9997611582460437,-157.94306486646173
6.34752768,0.9998591835983636,-158.08688836686122
6.349814272,0.9999667658358761,-158.23217680663976
6.352100352,1.000077166079551,-158.37901139357703
6.354386944,1.000183339636052,-158.52734707375646
6.356673536,1.0002784919782448,-158.67715245745234
6.358959616,1.0003567866655938,-158.8281636126997
6.361246208,1.000413153080029,-158.980141945737
6.363532288,1.000444002537435,-159.13269004095363
6.36581888,1.000447281338036,-159.2854586694183
6.36810496,1.000423001085797,-159.43805640706563
6.370391552,1.000372488155791,-159.5901031776429
6.372678144,1.000299101410356,-159.7411477983368
6.374964224,1.0002073233360078,-159.8909948125165
6.377250816,1.000103026298664,-160.03938103347218
6.379536896,0.9999928115661095,-160.18616805746097
6.381823488,0.99988362561273,-160.33133702306728
6.384109568,0.999782425628341,-160.47491412096434
6.38639616,0.999695659889704,-160.61710851112923
6.38868224,0.9996288228581901,-160.75817469945764
6.390968832,0.9995860096829016,-160.8983319363206
6.393255424,0.9995702120861387,-161.0381035485424
6.395541504,0.9995822026154227,-161.17777484223976
6.397828096,0.9996214264375706,-161.3177680985865
6.400114176,0.9996851967792311,-161.4584958472839
6.402400768,0.999769597519117,-161.6002931338432
6.404686848,0.9998693500488424,-161.7433406503449
6.40697344,0.9999780570647675,-161.8878919846074
6.409260032,1.0000888165885973,-162.03396964747222
6.411546112,1.0001945711182307,-162.18164024243464
6.413832704,1.0002887041399942,-162.3306616878198
6.416118784,1.000365260233532,-162.48091798276255
6.418405376,1.0004193686117495,-162.63212892526124
6.420691456,1.0004475586290698,-162.78386457517902
6.422978048,1.0004479983621557,-162.93577213862034
6.425264128,1.0004207627695776,-163.08744517111563
6.42755072,1.0003675024910912,-163.2385181114448
6.429837312,1.0002915890910502,-163.3886031573336
6.432123392,1.0001977971730944,-163.5374099515965
6.434409984,1.0000921478967049,-163.6847432940731
6.436696064,0.9999811410851791,-163.83045004190228
6.438982656,0.9998720324636315,-163.9745636103918
6.441268736,0.9997716918702167,-164.1170676882188
6.443555328,0.9996862906507568,-164.25817211641154
6.44584192,0.999621450769075,-164.39817860464078
6.448128,0.9995813214247352,-164.53742016126432
6.450414592,0.9995682497037349,-164.67617714384164
6.452700672,0.999583305351342,-164.81494347186305
6.454987264,0.9996253249352335,-164.95406176111155
6.457273344,0.9996917724313507,-165.09393110474466
6.459559936,0.9997785659868574,-165.23490093469684
6.461846016,0.9998799052578324,-165.37721319190925
6.464132608,0.999989626797164,-165.52097111300148
6.4664192,1.0001006549382647,-165.66632501182647
6.46870528,1.0002060485632844,-165.8131825066473
6.470991872,1.0002989716185893,-165.96148440529268
6.473277952,1.0003737621281,-166.11095863688192
6.475564544,1.000425447872475,-166.26130758148477
6.477850624,1.0004508205688296,-166.4122128481194
6.480137216,1.0004483844100578,-166.5631832211836
6.482423296,1.0004181979151112,-166.71392345381466
6.484709888,1.0003621023720304,-166.8639875035557
6.48699648,1.0002836773380261,-167.0130379318937
6.48928256,1.0001879836248646,-167.16079270321538
6.491569152,1.000080921119462,-167.30701999313362
6.493855232,0.9999693409594281,-167.45165347741062
6.496141824,0.9998603492272014,-167.59461731077616
6.498427904,0.9997607676090515,-167.73604831442935
6.500714496,0.9996769681200296,-167.87607627063923
6.503001088,0.9996143619893277,-168.0150276792584
6.505287168,0.9995767378403163,-168.15318592553876
6.50757376,0.9995665589799585,-168.2909600264348
6.50985984,0.9995845739930109,-168.42878035648735
6.512146432,0.9996297023281775,-168.56699553902254
6.514432512,0.9996988689125522,-168.70598603701177
6.516719104,0.9997877770996567,-168.84610187706315
6.519005184,0.9998908455554012,-168.98760892343049
6.521291776,1.000001492234166,-169.13058189681735
6.523578368,1.00011277252927,-169.27515853850085
6.525864448,1.0002175003670333,-169.42124671936253
6.52815104,1.0003092384139274,-169.56874759788656
6.53043712,1.0003820706544306,-169.7173966916275
6.532723712,1.0004313062781836,-169.866894300299
6.535009792,1.0004538575576862,-170.0168573559575
6.537296384,1.000448389290758,-170.16692203761076
6.539582976,1.0004151057035713,-170.3166527758561
6.541869056,1.0003562258604777,-170.46568242199788
6.544155648,1.0002754015447548,-170.6136876695228
6.546441728,1.0001776292601992,-170.7603377120269
6.54872832,1.0000693109998735,-170.90546583287633
6.5510144,0.9999571677557992,-171.0489287002734
6.553300992,0.9998483044176921,-171.1907406901392
6.555587072,0.999749778367321,-171.33099975531778
6.557873664,0.9996676795383155,-171.46992359056878
6.560160256,0.9996072639791815,-171.60778487148187
6.562446336,0.9995723276025335,-171.74487809948232
6.564732928,0.9995651895415394,-171.8816256901248
6.567019008,0.9995863070636394,-172.0184764344008
6.5693056,0.9996342623358734,-172.15576427294053
6.57159168,0.9997061058845853,-172.2938597494429
6.573878272,0.9997972602817234,-172.43313832987323
6.576164864,0.9999020300665264,-172.57378467583814
6.578450944,1.0000136525322674,-172.71594142007288
6.580737536,1.0001249877771121,-172.85969267967894
6.583023616,1.000229166426917,-173.00500848710917
6.585310208,1.0003195210251212,-173.15165077547164
6.587596288,1.0003902200705266,-173.29945555147668
6.58988288,1.0004369703003992,-173.44807952591955
6.59216896,1.000456678873855,-173.59711946827468
6.594455552,1.0004480222936534,-173.74618228006017
6.596742144,1.000411722945208,-173.89492900204638
6.599028224,1.000349964429918,-174.0429074238103
6.601314816,1.0002666052451716,-174.18975386104108
6.603600896,1.0001669758608265,-174.33528666739358
6.605887488,1.0000574061878844,-174.47924207058873
6.608173568,0.9999447780572424,-174.62149925155603
6.61046016,0.9998362060689722,-174.7621875920734
6.612746752,0.9997387363298884,-174.90129996264105
6.615032832,0.9996583839556558,-175.03903280390037
6.617319424,0.9996002784096087,-175.17575792236616
6.619605504,0.9995681346642739,-175.31179083363668
6.621892096,0.999564116408276,-175.44752436693355
6.624178176,0.9995883572697226,-175.58335293782113
6.626464768,0.9996393455938849,-175.7196540791222
6.628750848,0.9997139043182472,-175.856850210329
6.63103744,0.9998073007856539,-175.99523033576796
6.633324032,0.999913600452003,-176.1350335221716
6.635610112,1.0000259937087008,-176.27636379983173
6.637896704,1.0001374273204064,-176.41929745226366
6.640182784,1.000240858311367,-176.5637493208207
6.642469376,1.0003297816901355,-176.70956568638286
6.644755456,1.000398390655917,-176.85646449927643
6.647042048,1.000442393655583,-177.00415305888586
6.649328128,1.0004591993634762,-177.15224708417523
6.65161472,1.000447371034386,-177.3003260593788
6.653901312,1.0004079714997223,-177.44803287394686
6.656187392,1.00034314686661,-177.59490760192242
6.658473984,1.0002574806064946,-177.74064016422074
6.660760064,1.000155879771795,-177.88497770744132
6.663046656,1.000045127804191,-178.02774408056976
6.665332736,0.9999320657089443,-178.16881727647694
6.667619328,0.9998239446737412,-178.3082801241946
6.66990592,0.9997275080264364,-178.44618527920562
6.672192,0.9996490663620957,-178.58278154536168
6.674478592,0.99959346783564,-178.7183541460253
6.676764672,0.9995643177648683,-178.8532995741277
6.679051264,0.9995633980682062,-178.9879547338878
6.681337344,0.9995908561738304,-179.12273656013843
6.683623936,0.9996448103992897,-179.25811565182906
6.685910016,0.9997221831261967,-179.39436454019219
6.688196608,0.9998176660190075,-179.53184403767577
6.6904832,0.9999254910866835,-179.6707744951137
6.69276928,1.0000386848569456,-179.8112669684118
6.695055872,1.000150177507712,-179.95335539372377
6.697341952,1.0002527246780704,179.9030656206391
6.699628544,1.0003399576258223,179.75812747255077
6.701914624,1.0004064191961775,179.61213095996393
6.704201216,1.0004477891570027,179.4653884400567
6.706487808,1.000461345052619,179.31828326854895
6.708773888,1.0004463151517962,179.1712230912121
6.71106048,1.00040376016151,179.024618522351
6.71334656,1.0003360994670127,178.8788740934833
6.715633152,1.0002478737305796,178.7342728782162
6.717919232,1.000144523266161,178.59111109367913
6.720205824,1.0000324971007775,178.44959115480475
6.722491904,0.9999191420351181,178.30973259029912
6.724778496,0.9998115300124618,178.1715151793434
6.727065088,0.9997163711765261,178.03483933937042
6.729351168,0.9996398633260721,177.8994141726958
6.73163776,0.9995868447155972,177.76500726773855
6.73392384,0.9995607221109046,177.63119539687239
6.736210432,0.9995630167272668,177.4976181854742
6.738496512,0.999593750427246,177.3638512193889
6.740783104,0.9996508493885301,177.22949088301402
6.743069696,0.9997309063128711,177.09416423567697
6.745355776,0.9998286034845244,176.95756510113978
6.747642368,0.9999378079070326,176.8195413418679
6.749928448,1.0000517678217407,176.67992772355024
6.75221504,1.0001631286363253,176.53870300968615
6.75450112,1.0002646617806628,176.3960044749061
6.756787712,1.0003501992589645,176.25195888353775
6.759073792,1.0004142979264727,176.10686621086626
6.761360384,1.0004527673464976,175.9610791898516
6.763646976,1.000463126203584,175.81496430527793
6.765933056,1.0004448133679529,175.66896655031877
6.768219648,1.000399035239563,175.5234909460997
6.770505728,1.0003284941019959,175.37889110416165
6.77279232,1.0002376651398022,175.23549393520355
6.7750784,1.0001324496432238,175.09355767378452
6.777364992,1.0000196212060155,174.95325454476531
6.779651584,0.9999059294085967,174.8146450717504
6.781937664,0.9997988393632221,174.6776800033357
6.784224256,0.9997050863713102,174.54221961308392
6.786510336,0.9996307170741823,174.40801988282377
6.788796928,0.999580339772867,174.27479575347724
6.791083008,0.999557364838649,174.1421236232632
6.7933696,0.9995629881820257,174.0096507300681
6.79565568,0.9995969663021381,173.8769280958937
6.797942272,0.9996572607887115,173.743543076623
6.800228864,0.9997398529016166,173.60917896514326
6.802514944,0.9998397824916678,173.47350456444607
6.804801536,0.9999505723304096,173.33636953225556
6.807087616,1.0000650997304656,173.19762625367105
6.809374208,1.000176138017649,173.05729817317135
6.811660288,1.0002767463476423,172.9154659942682
6.81394688,1.0003604482527082,172.77231688582432
6.81623296,1.0004219728310861,172.62817833533975
6.818519552,1.0004573620698243,172.48338014309135
6.820806144,1.0004645756597508,172.33830444984372
6.823092224,1.0004428637988314,172.19339273556471
6.825378816,1.0003938180910883,172.0490313246252
6.827664896,1.0003203095139879,171.9055737618072
6.829951488,1.0002270955110717,171.76339077481825
6.832237568,1.0001201336322068,171.6226924722454
6.83452416,1.0000061597553123,171.48365812196047
6.836810752,0.9998924026320615,171.3463200410901
6.839096832,0.9997860139740292,171.210652607395
6.841383424,0.9996938145333346,171.07642701789712
6.843669504,0.9996216789067887,170.94346867039772
6.845956096,0.9995741145501774,170.8114164788341
6.848242176,0.9995542287038083,170.67991515336413
6.850528768,0.9995632462275285,170.5485300771783
6.852814848,0.9996006935547452,170.41683267420177
6.85510144,0.9996641016498337,170.2844580038996
6.857388032,0.999749473584282,170.1510649312045
6.859674112,0.999851470271504,170.01631277020712
6.861960704,0.9999635181480708,169.88009823309153
6.864246784,1.000078507827901,169.74224112679317
6.866533376,1.0001892817541886,169.60279089177448
6.868819456,1.000288799251767,169.46182978210544
6.871106048,1.000370429552493,169.31963935572105
6.87339264,1.000429482786273,169.17646503006262
6.87567872,1.0004618209616434,169.0326428189532
6.877965312,1.0004656386846782,168.88862350656007
6.880251392,1.0004405483716896,168.74477548886625
6.882537984,1.000388031868278,168.60155635384396
6.884824064,1.0003116697564944,168.45930821210857
6.887110656,1.0002160435433702,168.31835141496046
6.889396736,1.0001073420816846,168.1789209750156
6.891683328,0.9999925096062651,168.04115617985386
6.89396992,0.9998786249876173,167.90510969308878
6.896256,0.999773136675661,167.77070648381886
6.898542592,0.9996825899479483,167.63774855442568
6.900828672,0.9996128049343906,167.50604823512654
6.903115264,0.9995680787933782,167.3752091151225
6.905401344,0.9995515899111747,167.2448425297303
6.907687936,0.9995640992568129,167.11453937302514
6.909974528,0.9996049603559756,166.98390736249604
6.912260608,0.9996715492935835,166.85255911096186
