freq,mag,phase
6.0,1.0000491912533989,-120.67989362426565
6.003820544,1.0001749694696211,-120.89272607193071
6.007641088,1.0002902626288188,-121.10727434521888
6.01146112,1.0003877163527708,-121.32336818192266
6.015281664,1.0004615838842523,-121.54069789513422
6.019102208,1.0005074001928633,-121.75889078716204
6.022922752,1.000522205077279,-121.9775451558637
6.026743296,1.0005052380842305,-122.19620304945262
6.030563328,1.000457474082234,-122.41442854567501
6.034383872,1.0003817993341122,-122.63179541988222
6.038204416,1.0002827881488692,-122.84793394830318
6.04202496,1.0001662910324494,-123.06254102687377
6.045845504,1.0000395598196645,-123.27549343806317
6.049665536,0.9999101492204185,-123.48660376105269
6.05348608,0.9997859979036176,-123.69598580609807
6.057306624,0.9996744094259173,-123.90366531919675
6.061127168,0.9995823811928285,-124.10990940675158
6.064947712,0.9995154341488677,-124.31501933291523
6.068767744,0.999477721888919,-124.5194609145676
6.072588288,0.9994713589381194,-124.7235662100816
6.076408832,0.9994968224708972,-124.92783453844734
6.080229376,0.9995526724846199,-125.13270512766266
6.08404992,0.9996355054357349,-125.33856854582842
6.087869952,0.9997401479013105,-125.54581476541391
6.091690496,0.999860553294596,-125.75465494686048
6.09551104,0.9999892342481627,-125.96529149095396
6.099331584,1.000118323729698,-126.17779474956116
6.103151616,1.0002401937052323,-126.39206302512818
6.10697216,1.0003473035294483,-126.60795842629707
6.110792704,1.0004333306876858,-126.82530899750171
6.114613248,1.0004928343443793,-127.0436563018977
6.118433792,1.0005224010251066,-127.2626807128818
6.122253824,1.0005201287404277,-127.4819440458333
6.126074368,1.0004861437271173,-127.70092347746248
6.129894912,1.000422486444637,-127.91926389046752
6.133715456,1.0003330590137312,-128.13652443480288
6.137536,1.0002232623231961,-128.35238312880216
6.141356032,1.0000995912358939,-128.56660316927488
6.145176576,0.9999697216880595,-128.7790686016939
6.14899712,0.9998414243987045,-128.98968169342447
6.152817664,0.9997223567070974,-129.19858022660003
6.156638208,0.9996198963468248,-129.405932617071
6.16045824,0.9995402424839157,-129.6119504155459
6.164278784,0.9994883002921029,-129.8170781791451
6.168099328,0.9994670713980122,-130.0217198231259
6.171919872,0.9994780222786803,-130.22629811983302
6.175740416,0.9995204179854379,-130.43125311916415
6.179560448,0.9995916317974332,-130.6370383805256
6.183380992,0.999687551445433,-130.84403975161618
6.187201536,0.9998022123415936,-131.0525489218287
6.19102208,0.9999286829598927,-131.26277856055816
6.194842624,1.0000593559027227,-131.47488396103836
6.198662656,1.0001863030061662,-131.68880314694596
6.2024832,1.0003017428529002,-131.90449128771937
6.206303744,1.0003989216397757,-132.1216911615525
6.210124288,1.000471635806534,-132.34011963499694
6.213944832,1.000515691545339,-132.55936194773872
6.217764864,1.000528340828336,-132.77907362258514
6.221585408,1.0005088688619677,-132.99874317397405
6.225405952,1.0004582865344236,-133.21791865284933
6.229226496,1.0003798127927706,-133.43620868059344
6.23304704,1.000278027773842,-133.65323766510437
6.236867072,1.0001591422943679,-133.86873869783022
6.240687616,1.0000303937141208,-134.08243530125682
6.24450816,0.9998995562200793,-134.29435400468716
6.248328704,0.9997745475241746,-134.5044590678079
6.252149248,0.9996629649275275,-134.71292286984095
6.25596928,0.9995715248098302,-134.91992590708256
6.259789824,0.9995057778118439,-135.1258535509484
6.263610368,0.9994698123300984,-135.33106551525583
6.267430912,0.9994657569906337,-135.53599909063126
6.271250944,0.9994939208834871,-135.74112509928042
6.275071488,0.9995526036962193,-135.94683871270422
6.278892032,0.999638185207094,-136.15366188831177
6.282712576,0.9997455467956518,-136.36184123058345
6.28653312,0.9998682699785871,-136.57168028854548
6.290353152,0.9999987492285325,-136.78332576306542
6.294173696,1.0001291561709207,-136.99684187722715
6.29799424,1.0002516455336012,-137.2121813224687
6.301814784,1.0003587279008077,-137.4291700107086
6.305635328,1.0004439554258844,-137.647521858695
6.30945536,1.000502105523887,-137.86689993506945
6.313275904,1.0005297337437775,-138.08693990897493
6.317096448,1.0005250557728707,-138.30714196784132
6.320916992,1.000488405327613,-138.5270629116098
6.324737536,1.0004219674353492,-138.74628565115836
6.328557568,1.0003297253528878,-138.96440030531494
6.332378112,1.0002173577404891,-139.1810509579088
6.336198656,1.0000913986362496,-139.39604895260405
6.3400192,0.9999597111800788,-139.6092175099251
6.343839744,0.9998303103644328,-139.8205924475654
6.347659776,0.9997108128877661,-140.03015623403275
6.35148032,0.9996085859872875,-140.23817971284203
6.355300864,0.9995297878806416,-140.44494682558962
6.359121408,0.9994793799573367,-140.6507607531498
6.362941952,0.9994602360083285,-140.8561544693761
6.366761984,0.9994735666775256,-141.06146550095912
6.370582528,0.9995186820301817,-141.26723244784387
6.374403072,0.9995927809424011,-141.4738654849389
6.378223616,0.9996913318190138,-141.68175029409954
6.38204416,0.9998085735443268,-141.89116849669375
6.385864192,0.9999371221880653,-142.10234787478942
6.389684736,1.0000694869550697,-142.31538966249497
6.39350528,1.0001973574379572,-142.53029103594872
6.397325824,1.0003132600704803,-142.74695984817973
6.401146368,1.0004098878291838,-142.96512642265927
6.4049664,1.0004817353115205,-143.18454416236588
6.408786944,1.0005241298920047,-143.40474206794954
6.412607488,1.0005345546206632,-143.62537536517786
6.416428032,1.0005125072443732,-143.84593633355618
6.420248576,1.0004592268880301,-144.06594942165012
6.424068608,1.0003778819588567,-144.28503104962303
6.427889152,1.000273344679774,-144.50281393564504
6.431709696,1.0001520876399055,-144.71903686381532
6.43553024,1.0000213633474606,-144.93345842528225
6.439350272,0.9998890348232914,-145.1460322642033
6.443170816,0.9997631485416714,-145.35677920731084
6.44699136,0.9996513477126521,-145.5658502867919
6.450811904,0.999560392061202,-145.77348633408783
6.454632448,0.9994958849384538,-145.9800568426871
6.45845248,0.9994616748388969,-146.18590100032273
6.462273024,0.9994599165198154,-146.3915209127804
6.466093568,0.9994906748858663,-146.59738628383144
6.469914112,0.9995521534396985,-146.80387192634325
6.473734656,0.9996405747313344,-147.0114558642121
6.477554688,0.9997505576295534,-147.22046988473107
6.481375232,0.9998756831509088,-147.43114801206326
6.485195776,1.0000080272406975,-147.64369275745705
6.48901632,1.0001398388171134,-147.8581037338172
6.492836864,1.0002629975292339,-148.07436999096703
6.496656896,1.0003701834028895,-148.29225129157356
6.50047744,1.0004546526518192,-148.51155256883993
6.504297984,1.0005115156133126,-148.73181987379758
6.508118528,1.0005372190159738,-148.95271005166438
6.511939072,1.0005302681499384,-149.17378997845123
6.515759104,1.0004909555338173,-149.3944903042152
6.519579648,1.0004216830988402,-149.6144519593584
6.523400192,1.0003266494383507,-149.83328976491845
6.527220736,1.0002116333721502,-150.0506248037709
6.53104128,1.0000834739198476,-150.2662660352549
6.534861312,0.9999499770659612,-150.4800726827599
6.538681856,0.999819294867029,-150.6919836801361
6.5425024,0.9996992712491233,-150.90212280120446
6.546322944,0.9995972214481863,-151.11074352187023
6.550143488,0.9995193115712278,-151.31803568630576
6.55396352,0.9994702674778889,-151.52447789992746
6.557784064,0.9994531385558229,-151.7304410320425
6.561604608,0.9994689486178296,-151.93638356130282
6.565425152,0.9995167415425971,-152.1428077455212
6.569245696,0.9995936535277862,-152.3501668769813
6.573065728,0.9996950034596931,-152.55877410556246
6.576886272,0.9998146864253528,-152.7689498287221
6.580706816,0.9999455352574965,-152.9809378641944
6.58452736,1.0000794897438676,-153.19481668787043
6.588347904,1.000208461784572,-153.41058620066286
6.592167936,1.0003246916940525,-153.62810835964294
6.59598848,1.0004211712365696,-153.84713738540987
6.599809024,1.0004918924486075,-154.0673555241493
6.603629568,1.0005326048385426,-154.2884125153826
6.607450112,1.0005410826619388,-154.50980266076766
6.611270144,1.0005164884930553,-154.73110901408057
6.615090688,1.000460435670438,-154.9518427709284
6.618911232,1.0003762208327553,-155.17159742897587
6.622731776,1.0002690558664438,-155.39002958118652
6.626551808,1.0001453155855717,-155.6068141172843
6.630372352,1.0000124640294876,-155.8217868279105
6.634192896,0.9998785829215927,-156.03490193260717
6.63801344,0.9997517549973781,-156.24618145645152
6.641833984,0.9996396828743574,-156.45572581671414
6.645654016,0.9995492511584656,-156.66385363654882
6.64947456,0.9994858403713504,-156.87091708800577
6.653295104,0.9994533835807816,-157.07729720526154
6.657115648,0.9994538572835165,-157.28347628373257
6.660936192,0.9994872293449866,-157.48986399498563
6.664756224,0.9995514607041207,-157.69700307243772
6.668576768,0.9996427650190333,-157.90524999295405
6.672397312,0.9997554141177529,-158.1149246424888
6.676217856,0.999882801349278,-158.3263239986588
6.6800384,1.0000171798855984,-158.5396110013215
6.683858432,1.000150371142148,-158.75480893336766
6.687678976,1.0002743005969645,-158.97182960364174
6.69149952,1.0003814910783697,-159.19054711563263
6.695320064,1.0004654308607903,-159.410574030117
6.699140608,1.0005210664562214,-159.63163148508207
6.70296064,1.0005448918341366,-159.85326141558886
6.706781184,1.000535571928558,-160.07501688561877
6.710601728,1.0004936352855731,-160.29640779963404
6.714422272,1.0004215870033817,-160.51700077588666
6.718242816,1.0003237554526614,-160.73639341971239
6.722062848,1.0002060162256583,-160.95429138018542
6.725883392,1.000075613527,-161.1704266566127
6.729703936,0.9999403054434027,-161.38470342166755
6.73352448,0.9998084021564938,-161.59707128427615
6.737345024,0.9996876600456635,-161.80764397550203
6.741165056,0.9995857645218952,-162.01666863888428
6.7449856,0.9995086069902838,-162.22441649492518
6.748806144,0.9994610448875804,-162.4312862595768
6.752626688,0.99944589464545,-162.63768802792586
6.756447232,0.9994641174284906,-162.84415048230537
6.760267264,0.9995146805941486,-163.0511213854528
6.764087808,0.999594392431907,-163.25900818733436
6.767908352,0.9996985461170722,-163.46822167775278
6.771728896,0.9998208901242138,-163.67902576509334
6.77554944,0.9999538616135485,-163.89168074936487
6.779369472,1.0000894586147555,-164.10623184216692
6.783190016,1.0002195473354774,-164.3227234911918
6.78701056,1.0003362899133388,-164.54094436714036
6.790831104,1.0004324276149854,-164.76070023577728
6.794651136,1.0005022447115433,-164.98164789225467
6.79847168,1.0005415334164354,-165.20334320105633
6.802292224,1.0005478408550295,-165.4254075451948
6.806112768,1.0005207960892504,-165.64734697620628
6.809933312,1.0004619233446206,-165.86863909488957
6.813753344,1.0003749123243886,-166.08895009001378
6.817573888,1.0002649180102852,-166.30783605425847
6.821394432,1.0001385989947984,-166.52510477321226
6.825214976,1.0000036417777798,-166.74048909418497
6.82903552,0.9998682361503352,-166.9539818898693
6.832855552,0.9997404417800467,-167.1656170569018
6.836676096,0.9996281811491474,-167.37553782678785
6.84049664,0.9995381477785215,-167.5840204877834
6.844317184,0.9994758328598953,-167.7914476567089
6.848137728,0.9994450582927601,-167.9982144127054
6.85195776,0.9994477021654958,-168.20477292571277
6.855778304,0.9994836298331705,-168.4116246510369
6.859598848,0.9995506271733771,-168.61922463764222
6.863419392,0.9996448148229581,-168.8279475537721
6.867239936,0.9997601939235502,-169.03819861563346
6.871059968,0.9998900012959138,-169.25017492403865
6.874880512,1.0000264660874545,-169.46407044430208
6.878701056,1.0001611269547248,-169.67992002566865
6.8825216,1.0002858359222728,-169.89757220978365
6.886342144,1.0003931407599829,-170.11690066239365
6.890162176,1.000476525320432,-170.33758243963473
6.89398272,1.0005308812631823,-170.55926485569108
6.897803264,1.0005528822398961,-170.78149138587628
6.901623808,1.0005412799002775,-171.00381921154843
6.905444352,1.0004967062895394,-171.22575707462187
6.909264384,1.000421812499245,-171.44681866731833
6.913084928,1.0003211055377514,-171.66667924019575
6.916905472,1.0002007207992774,-171.8849728594614
6.920726016,1.0000678743903617,-172.10148711516314
6.92454656,0.9999306329116363,-172.31607801972038
6.928366592,0.9997974060375103,-172.52877031316845
6.932187136,0.9996761410512189,-172.73963137737695
6.93600768,0.9995742192085356,-172.94893802998695
6.939828224,0.9994977459733888,-173.15694614865487
6.943648768,0.9994515726883435,-173.36411456989185
6.9474688,0.9994383492046728,-173.57085789776008
6.951289344,0.9994589766065067,-173.7776500366946
6.955109888,0.9995121931842184,-173.98500052863037
6.958930432,0.9995948803303214,-174.19329098935438
6.962750464,0.9997019266475478,-174.40297344456303
6.966571008,0.9998268528703443,-174.61427970900397
6.970391552,0.9999620949891737,-174.82745421017592
6.974212096,1.0000995761781883,-175.04257813144406
6.97803264,1.0002308998020213,-175.25960654285575
6.981852672,1.0003480315943458,-175.4784069644648
6.985673216,1.0004440177330383,-175.69873500300002
6.98949376,1.0005129551209735,-175.92022520707673
6.993314304,1.0005506533898851,-176.14250126782088
6.997134848,1.0005548651739833,-176.36506884451904
7.00095488,1.0005252985554103,-176.5874907959416
7.004775424,1.0004636624038323,-176.80923486853737
7.008595968,1.0003737396336392,-177.02995078568517
7.012416512,1.0002610108179284,-177.24920856663908
7.016237056,1.0001321193568875,-177.46677102712448
7.020057088,0.9999949831231684,-177.68244402358914
7.023877632,0.999857794716161,-177.89617151689762
7.027698176,0.9997290194629815,-178.10801681302414
7.03151872,0.9996163540620401,-178.318177448726
7.035339264,0.999526652357528,-178.52684974890926
7.039159296,0.9994654025156023,-178.7345026784305
7.04297984,0.999436338831161,-178.941500565823
7.046800384,0.9994412329173781,-179.1483216867777
7.050620928,0.999479708589193,-179.35547138437698
7.054441472,0.9995496213520114,-179.5633871596792
7.058261504,0.9996466783403558,-179.77246599945968
7.062082048,0.9997649626501289,-179.9831236316499
7.065902592,0.999897283348919,179.80445409712667
7.069723136,1.0000357267680893,179.5900794423603
7.07354368,1.0001719150217125,179.3737730840205
7.077363712,1.0002975729006414,179.15560782517215
7.081184256,1.0004050279371597,178.93576296829252
7.0850048,1.0004879314933006,178.71456652165622
7.088825344,1.0005410137446837,178.49239643264147
7.092645888,1.0005612400328803,178.26971413147172
7.09646592,1.0005471908703392,178.04695586965332
7.100286464,1.0004999605378657,177.82463017681852
7.104107008,1.0004221570450096,177.60318637167674
7.107927552,1.0003186205313872,177.38303983251535
7.111748096,1.0001953261905723,177.1644782770697
7.115568128,1.0000601209266762,176.94775337863777
7.119388672,0.9999209384143327,176.73297101662507
7.123209216,0.9997862329332315,176.52012331213908
7.12702976,0.999664180393314,176.30908993422153
7.130849792,0.999562224105634,176.0996487247982
7.134670336,0.9994865987683862,175.89149921347786
7.13849088,0.9994416830976467,175.68418146730355
7.142311424,0.9994304498774133,175.4772608416885
7.146131968,0.9994535295816807,175.27026518041487
7.149952,0.9995095633326762,175.06269446332692
7.153772544,0.9995949706719448,174.85409649624884
7.157593088,0.9997050243071962,174.6441309542709
7.161413632,0.9998327286593475,174.43246766152131
7.165234176,0.9999703813576548,174.21891633228464
7.169054208,1.0001096100474822,174.00338100032263
7.172874752,1.0002422510234525,173.78591667216995
7.176695296,1.000359968714649,173.56668334091657
7.18051584,1.0004558007640232,173.3459054753446
7.184336384,1.0005237766111765,173.12398613672073
7.188156416,1.0005599723371505,172.90132554008318
7.19197696,1.0005620882048327,172.6783504743714
7.195797504,1.0005299346234418,172.45558762496762
7.199618048,1.0004654786517828,172.23353114106695
7.203438592,1.00037260290385,172.01257644229574
7.207258624,1.0002569360797087,171.7931035770455
7.211079168,1.0001254430693578,171.5753609096675
7.214899712,0.9999860524919219,171.3595561324341
7.218720256,0.9998471605641862,171.14571263353142
7.2225408,0.9997171523095366,170.9337772328549
7.226360832,0.9996040912930867,170.7235683522701
7.230181376,0.9995147174537011,170.51480184307985
7.23400192,0.9994545685327773,170.30707993507818
7.237822464,0.9994272078945377,170.0999763712859
7.241643008,0.9994342773308011,169.89305914057837
7.24546304,0.999475472475999,169.68578236212807
7.249283584,0.9995482898463723,169.47766723893113
7.253104128,0.9996482469582362,169.26833720977572
7.256924672,0.9997694452603479,169.05744763170097
7.260745216,0.9999043266176516,168.84473466865222
7.264565248,1.0000450266734038,168.63005362557664
7.268385792,1.0001828510401836,168.4133778985418
7.272206336,1.0003093604279623,168.19484004302572
7.27602688,1.0004170515293946,167.974615975074
7.279847424,1.00049948477014,167.75306476544438
7.283667456,1.0005513845025702,167.53052904749632
7.287488,1.0005696842924343,167.30750640155492
7.291308544,1.0005534531949267,167.08445822416212
7.295129088,1.0005033119959312,166.8618832496975
7.298949632,1.0004225946312624,166.64022847319882
7.302769664,1.000316074968683,166.41990784363156
7.306590208,1.000189991571032,166.2012153626475
7.310410752,1.0000521953735162,165.984415294643
7.314231296,0.9999109257043118,165.76956469017605
7.318051328,0.9997748074720817,165.55672148258486
7.321871872,0.9996519774777006,165.3456773805496
7.325692416,0.9995499848431129,165.13625027558462
7.32951296,0.9994749118383314,164.92808782301952
7.333333504,0.9994314153367402,164.72074618831456
7.337153536,0.9994222476887341,164.51380637695385
7.34097408,0.9994478948465565,164.30674239658936
7.344794624,0.99950670267697,164.09908751501627
7.348615168,0.9995953118556717,163.89037915718117
7.352435712,0.999708234772021,163.6802034815467
7.356255744,0.9998386887593763,163.46835360621586
7.360076288,0.9999787625187658,163.25454670078489
7.363896832,1.0001200651613162,163.03876203782428
7.367717376,1.0002539130121038,162.8209929831344
7.37153792,1.0003722706030578,162.60143878007756
7.375357952,1.00046792914126,162.38036983640126
7.379178496,1.0005351315729532,162.15813517642314
7.38299904,1.000569826800148,161.93516934586313
7.386819584,1.000569807766846,161.71198683752976
7.390640128,1.0005350822323913,161.48903003365706
7.39446016,1.0004676975175701,161.2667905873858
7.398280704,1.0003717546338637,161.04568076624264
7.402101248,1.0002531625818831,160.82612258895753
7.405921792,1.0001188480562808,160.60838014440236
7.409742336,0.9999770551240925,160.39256198707798
7.413562368,0.9998363510633418,160.17875867625077
7.417382912,0.9997053264709739,159.96684200087867
7.421203456,0.9995917087928297,159.75673213241967
7.425024,0.9995027651196006,159.54803902502792
7.428844544,0.9994435902998708,159.3403950800066
7.432664576,0.9994177521363591,159.1333738790168
7.43648512,0.9994271667126571,158.92644336612065
7.440305664,0.9994711222021254,158.71915988558902
7.444126208,0.9995469794262646,158.51102223345026
7.447946752,0.9996499297203548,158.30160903535162
7.451766784,0.9997741218488453,158.09057721682998
7.455587328,0.9999118380417779,157.8776919465487
7.459407872,1.000054813123691,157.66280647238767
7.463228416,1.0001941453545988,157.44593195301323
7.46704896,1.0003218381317063,157.22716001978944
7.470868992,1.0004297987890856,157.00668997172346
7.474689536,1.0005115297043066,156.78490068538082
7.47851008,1.0005623153046297,156.56213901492575
7.482330624,1.000578830972857,156.33891866767038
7.486150656,1.000560120669723,156.1157204679984
7.4899712,1.0005073286256405,155.89299745358153
7.493791744,1.000423548845521,155.67125571566373
7.497612288,1.0003138183908828,155.45089940998483
7.501432832,1.000184883104212,155.23222584985638
7.505252864,1.0000444887237234,155.01545451123943
7.509073408,0.9999010664205192,154.8007055673837
7.512893952,0.9997632695209316,154.58794906566916
7.516714496,0.9996395725803302,154.37705881666506
7.52053504,0.9995376801087931,154.16776812743748
