freq,mag,phase
6.0,1.0004927785010806,4.921591095549165
6.002287616,1.0004721027905188,4.842673511226045
6.004575232,1.0004226241430163,4.764233756165073
6.006862848,1.0003463832579336,4.686670129503403
6.009150464,1.0002482128723147,4.61039528636209
6.011438592,1.0001343594057543,4.535705767213741
6.013726208,1.0000121099673607,4.462673290696053
6.016013824,0.9998892668515889,4.391447078491765
6.01830144,0.9997738882150927,4.322017825586868
6.020589056,0.9996731102659612,4.2540796316920435
6.022876672,0.9995936639371233,4.187503983767789
6.025164288,0.999540509581784,4.121839064017507
6.027451904,0.9995169310668518,4.056794371288504
6.029740032,0.9995248328795101,3.9918601077313927
6.032027648,0.9995633638000224,3.9265366598727085
6.034315264,0.9996300750860283,3.8604556260213667
6.03660288,0.9997208445701231,3.7932212569482635
6.038890496,0.9998299338619944,3.7245094604867357
6.041178112,0.999950120563128,3.6541377172192586
6.043465728,1.000073868927592,3.5819461764704097
6.045753344,1.0001931335221783,3.507950321140166
6.04804096,1.0003002903877773,3.432335984014816
6.050329088,1.0003884098630216,3.3552789904670055
6.052616704,1.0004521373732485,3.2771095718749708
6.05490432,1.0004870908039465,3.198204735502425
6.057191936,1.0004910103127802,3.119012218919443
6.059479552,1.0004638557074177,3.0399733482415243
6.061767168,1.0004071667201828,2.961541977843331
6.064054784,1.0003246889231534,2.8841516104812777
6.0663424,1.0002216649575897,2.808081399687991
6.068630016,1.0001046002990386,2.733582151597396
6.070918144,0.9999810714932629,2.6608554713587758
6.07320576,0.9998589891880179,2.5899433440528594
6.075493376,0.9997462718328971,2.520745777268291
6.077780992,0.9996499145137104,2.453031887560762
6.080068608,0.9995763967966105,2.386572484681058
6.082356224,0.999530146575444,2.32099359903953
6.08464384,0.9995143836373792,2.255855125719766
6.086931456,0.9995299978964934,2.1907485084804703
6.089219584,0.9995760201947554,2.12510726234777
6.0915072,0.9996495231845526,2.058688360864128
6.093794816,0.9997458537183134,1.9909258843237225
6.096082432,0.9998586489050583,1.9217137139377478
6.098370048,0.9999808674288676,1.850673365615376
6.100657664,1.0001046378170928,1.7779179294319638
6.10294528,1.000221909350567,1.7033413506830735
6.105232896,1.0003252834974434,1.6271628534803162
6.107520512,1.00040806389296,1.5496085286323424
6.10980864,1.0004650231735934,1.4710304541216672
6.112096256,1.0004925946554193,1.391835242633953
6.114383872,1.0004886154928248,1.3124579903897327
6.116671488,1.000453742510591,1.2333337853346884
6.118959104,1.0003900458097552,1.1549683429938031
6.12124672,1.0003016386244195,1.0777016757285633
6.123534336,1.000193907144026,1.0018520562897628
6.125821952,1.0000742687856414,0.9276437656810543
6.128109568,0.9999499772251726,0.8552025839653943
6.130397696,0.9998291499985867,0.784565228796385
6.132685312,0.9997193950292242,0.7156216388984027
6.134972928,0.9996279991342718,0.6480858593873026
6.137260544,0.9995606173945127,0.5817389173059765
6.13954816,0.9995216502051818,0.5162215062277044
6.141835776,0.9995136492655291,0.4509523733886192
6.144123392,0.9995371544947763,0.38558734026001545
6.146411008,0.9995905792795406,0.31969618225336655
6.148699136,0.9996705196727153,0.25278971584377147
6.150986752,0.9997718356686807,0.18457853675156866
6.153274368,0.9998881014379288,0.1147673008050797
6.155561984,1.0000118470468695,0.04316182266029673
6.1578496,1.0001350844017871,-0.030260328508464225
6.160137216,1.000250004542054,-0.10537345291628737
6.162424832,1.0003492093524717,-0.18209558116495994
6.164712448,1.0004261121404328,-0.260122394467904
6.167000064,1.0004762365655757,-0.33907225198626384
6.169288192,1.000496025333983,-0.4185749296175981
6.171575808,1.0004842410859098,-0.49807295884671715
6.173863424,1.0004418909454835,-0.577200724530384
6.17615104,1.0003713644540386,-0.6555289510439009
6.178438656,1.0002770464045194,-0.7326696604533411
6.180726272,1.000165573866139,-0.8083258568049706
6.183013888,1.0000434553833495,-0.8822598532069797
6.185301504,0.9999188321192883,-0.9543768206916797
6.18758912,0.9997997125694466,-1.0247450174237114
6.189877248,0.9996935882244007,-1.0934629382166012
6.192164864,0.9996074280101862,-1.1608044981728396
6.19445248,0.9995466047939788,-1.2270126656200158
6.196740096,0.999515069834063,-1.292602021215461
6.199027712,0.9995149788044868,-1.3579681021688603
6.201315328,0.9995461488867972,-1.4235395420895673
6.203602944,0.9996067273632038,-1.4897993999442283
6.20589056,0.9996928905361974,-1.5571407030882665
6.208178688,0.9997990374387674,-1.6259132930032498
6.210466304,0.9999182682132715,-1.6963177006815169
6.21275392,1.0000429602882315,-1.768506451889407
6.215041536,1.0001652520117428,-1.8424978417862334
6.217329152,1.0002771964701191,-1.9182605752049133
6.219616768,1.0003717600126034,-1.9955023128512173
6.221904384,1.0004426940729099,-2.0739884782332227
6.224192,1.0004856174930505,-2.153274061379586
6.226479616,1.0004976349117913,-2.2329699140601473
6.228767744,1.000478064709949,-2.3126662873378154
6.23105536,1.0004280883668129,-2.3917821092978415
6.233342976,1.000350974488102,-2.470046747492243
6.235630592,1.0002515473565148,-2.5469965450922976
6.237918208,1.0001362089845893,-2.6224014556588586
6.240205824,1.0000123790368745,-2.6960567694263164
6.24249344,0.9998880060823495,-2.7679060218797025
6.244781056,0.9997709498717746,-2.8379970807602066
6.247068672,0.9996688225473757,-2.9064924925248654
6.2493568,0.9995882085927642,-2.9736524287485278
6.251644416,0.9995342674129504,-3.0398472818859408
6.253932032,0.9995104603460497,-3.1054482621677733
6.256219648,0.9995181472050422,-3.17096711750046
6.258507264,0.9995569974919938,-3.2367940463745972
6.26079488,0.9996247530327608,-3.3034487007747084
6.263082496,0.9997166094859358,-3.3712557856548155
6.265370112,0.9998270417367493,-3.4405671420345247
6.26765824,0.9999488450777653,-3.5115876561539885
6.269945856,1.0000742107294245,-3.5843898475399287
6.272233472,1.0001949249209567,-3.658998193657832
6.274521088,1.0003036366833051,-3.735301085861415
6.276808704,1.0003930006242956,-3.8130466468338677
6.27909632,1.000457672976113,-3.891978943260886
6.281383936,1.000493074701575,-3.971606897035481
6.283671552,1.0004972482920875,-4.051521397334686
6.285959168,1.0004699186852977,-4.1313056434768525
6.288247296,1.0004125348463342,-4.210428047676233
6.290534912,1.0003290499576574,-4.2885734727296185
6.292822528,1.000224693797877,-4.365373781014348
6.295110144,1.0001061380414349,-4.440488729415278
6.29739776,0.9999810645244531,-4.513896064353319
6.299685376,0.9998573552916497,-4.5854147580152675
6.301972992,0.9997430704151452,-4.655248229826063
6.304260608,0.9996453689266321,-4.723539593181691
6.306548224,0.9995705805781524,-4.790548659538586
6.308836352,0.9995236873270379,-4.856738907788415
6.311123968,0.9995076071162541,-4.922367906327831
6.313411584,0.999523223521981,-4.988071558836573
6.3156992,0.9995698149197454,-5.054226381371808
6.317986816,0.9996442041364795,-5.121264595956258
6.320274432,0.9997416609506959,-5.189560410368122
6.322562048,0.9998558795889797,-5.259419469775526
6.324849664,0.9999797305120535,-5.3310668365678895
6.327137792,1.0001051228552922,-5.4044599020267
6.329425408,1.0002240860498397,-5.479702248719942
6.331713024,1.0003289263451964,-5.556561817148822
6.33400064,1.0004129252699847,-5.634864841661319
6.336288256,1.0004707446196042,-5.714106865594563
6.338575872,1.0004987296369723,-5.794052404002741
6.340863488,1.0004950076179995,-5.874204467862536
6.343151104,1.000459790553798,-5.954053567638529
6.34543872,1.0003953615837426,-6.033135142586929
6.347726848,1.0003059256968245,-6.11116990785716
6.350014464,1.0001969519580776,-6.1877350535303215
6.35230208,1.0000755195150168,-6.262608791475873
6.354589696,0.999949668453147,-6.335669821795591
6.356877312,0.9998271284643371,-6.406976738376742
6.359164928,0.9997159236293949,-6.476548844647775
6.361452544,0.9996231612475647,-6.544632441871152
6.36374016,0.9995547151420516,-6.611563013926312
6.366027776,0.9995151227816095,-6.677711400923269
6.368315904,0.9995067151333853,-6.743439377617762
6.37060352,0.999530430475047,-6.80937644522263
6.372891136,0.9995844003480818,-6.875849355885492
6.375178752,0.9996652711670874,-6.943321378016014
6.377466368,0.9997678454818335,-7.012134587173673
6.379753984,0.9998855725552355,-7.082575783757527
6.3820416,1.0000110106131597,-7.154788493803633
6.384329216,1.0001360240686101,-7.228842068624532
6.386617344,1.0002524257994732,-7.3046735691711
6.38890496,1.0003530858205887,-7.382080099614856
6.391192576,1.0004312722235813,-7.4608322702582734
6.393480192,1.0004821438393006,-7.54054138637229
6.395767808,1.0005024623701069,-7.620724480720281
6.398055424,1.000490697499304,-7.701031725231849
6.40034304,1.0004479094391487,-7.780902923358826
6.402630656,1.0003764783733409,-7.8599982878558174
6.404918272,1.0002812382593127,-7.937836551847322
6.4072064,1.0001682290696865,-8.014198632069247
6.409494016,1.0000445686123354,-8.088795756227883
6.411781632,0.9999182447373292,-8.161597659152696
6.414069248,0.9997974594437107,-8.232608712515683
6.416356864,0.999689736860325,-8.301941965223842
6.41864448,0.9996021782860033,-8.369867583241682
6.420932096,0.9995403657600076,-8.436686161615965
6.423219712,0.999508313963157,-8.50282556039417
6.425507328,0.9995079967101275,-8.568725509552474
6.427795456,0.9995393162106809,-8.634894600644069
6.430083072,0.9996007132693282,-8.701707657882796
6.432370688,0.9996877578190583,-8.769626747897066
6.434658304,0.9997952147625031,-8.838981490305402
6.43694592,0.9999159460660719,-8.910013705896175
6.439233536,1.0000424642329393,-8.982853683170495
6.441521152,1.000166459319187,-9.057528161129884
6.443808768,1.0002801244545063,-9.13394248018486
6.446096896,1.0003759187770904,-9.21190860659023
6.448384512,1.0004481530885354,-9.29109129666399
6.450672128,1.0004918330282417,-9.371136696348
6.452959744,1.0005042210947368,-9.451628554941593
6.45524736,1.0004846463864767,-9.532066476411654
6.457534976,1.000434113746207,-9.611961235558594
6.459822592,1.0003561367831424,-9.690950497222113
6.462110208,1.0002554589187378,-9.768648567963476
6.464397824,1.0001387355433615,-9.844751691170387
6.466685952,1.0000132922531686,-9.91908286400309
6.468973568,0.9998870516031019,-9.99160218388705
6.471261184,0.9997683785556531,-10.06233225450395
6.4735488,0.9996646689010418,-10.131466439566708
6.475836416,0.999582779735018,-10.199211539293072
6.478124032,0.9995279401835047,-10.265979925772433
6.480411648,0.9995034361308185,-10.332151394480222
6.482699264,0.9995110428115341,-10.398248038595996
6.48498688,0.9995503295652043,-10.464658091473925
6.487275008,0.9996186254803292,-10.531873068376122
6.489562624,0.9997116107437307,-10.600238869497494
6.49185024,0.9998235609792984,-10.670145589371423
6.494137856,0.9999468234437453,-10.741831250676318
6.496425472,1.000073886365867,-10.81526163029929
6.498713088,1.0001965070745387,-10.890566592644356
6.501000704,1.0003068587912352,-10.967566243876858
6.50328832,1.0003977684086034,-11.046029748204369
6.505576448,1.0004632758146255,-11.125734026551022
6.507864064,1.0004995333317108,-11.206108605489108
6.51015168,1.0005040948932111,-11.286758404057323
6.512439296,1.0004765562276576,-11.367293118160028
6.514726912,1.0004186655165745,-11.447237046579037
6.517014528,1.0003342053799535,-11.52611730800891
6.519302144,1.0002286253045838,-11.60364851163862
6.52158976,1.0001085617758319,-11.67949142729764
6.523877376,0.9999815902846788,-11.753571128464326
6.526165504,0.9998560070196643,-11.825791997034171
6.52845312,0.9997400541156294,-11.89625812838124
6.530740736,0.9996409804513776,-11.965145592504912
6.533028352,0.9995649691027212,-12.032779875495768
6.535315968,0.9995171671716766,-12.09949375848161
6.537603584,0.9995005093908996,-12.16576888708578
6.5398912,0.9995162074451444,-12.232023381233077
6.542178816,0.9995630122690015,-12.298756919182752
6.544466432,0.999638211467809,-12.36636322899419
6.54675456,0.9997369172362293,-12.43526531396816
6.549042176,0.9998526829407014,-12.505743041431398
6.551329792,0.9999781463186604,-12.577992749184714
6.553617408,1.0001052843302394,-12.65207008993085
6.555905024,1.000226000052213,-12.728012219837437
6.55819264,1.000332401922783,-12.805569999263565
6.560480256,1.000417859376609,-12.884572984097094
6.562767872,1.000476735745477,-12.964632235841469
6.565056,1.000505406674866,-13.045338092577493
6.567343616,1.0005019599072806,-13.126246592046783
6.569631232,1.0004665353268436,-13.206858237946793
6.571918848,1.000401456414149,-13.286739656415586
6.574206464,1.000310853174282,-13.365518200929687
6.57649408,1.0002005916288133,-13.442818192179564
6.578781696,1.0000776165977399,-13.518424701449483
6.581069312,0.9999498848194804,-13.592204554614257
6.583356928,0.999825549011015,-13.664157178504492
6.585645056,0.9997126271542635,-13.734362453340012
6.587932672,0.999618357627957,-13.803071940423859
6.590220288,0.9995487406682885,-13.870613125575666
6.592507904,0.9995081570550595,-13.937314444186407
6.59479552,0.9994995174514772,-14.00366739307481
6.597083136,0.9995231200138939,-14.070160402273531
6.599370752,0.9995775261390977,-14.137213179363641
6.601658368,0.9996594602682274,-14.205253421967022
6.603945984,0.9997632850981684,-14.274681842774116
6.606234112,0.9998825980574486,-14.345762291611303
6.608521728,1.0000097041949896,-14.418617370459025
6.610809344,1.0001364530991315,-14.49334962273993
6.61309696,1.000254743851052,-14.569868514624316
6.615384576,1.0003569850991245,-14.648036946093944
6.617672192,1.0004365059518212,-14.727506966969859
6.619959808,1.0004885065073728,-14.807971322103004
6.622247424,1.000509346380613,-14.888942214225645
6.624535552,1.0004978646489797,-14.970025227587882
6.626823168,1.0004546038931457,-15.050711149988201
6.629110784,1.0003824295972046,-15.130561572323403
6.6313984,1.0002861632692028,-15.209206630294938
6.633686016,1.0001716162942815,-15.28626920544554
6.635973632,1.000046325329694,-15.361607952869306
6.638261248,0.9999181811139596,-15.435103384379087
6.640548864,0.9997955316903588,-15.506767952559603
6.64283648,0.9996861971750455,-15.576756772284977
6.645124608,0.9995970908368865,-15.645287413400872
6.647412224,0.9995341137451004,-15.712706005327632
6.64969984,0.9995012854239029,-15.779434457139116
6.651987456,0.9995005142160142,-15.845935817347543
6.654275072,0.9995320844595111,-15.912662547105837
6.656562688,0.9995939024405416,-15.98007994600141
6.658850304,0.999681937805744,-16.048581370640733
6.66113792,0.99979070338937,-16.11854834791892
6.663426048,0.9999132941635119,-16.190211722736006
6.665713664,1.0000414187552153,-16.263710226013366
6.66800128,1.0001673865546925,-16.339080761767814
6.670288896,1.000282748977562,-16.41622596434315
6.672576512,1.0003801820270615,-16.494909214791452
6.674864128,1.0004537257219828,-16.57489957326313
6.677151744,1.0004983188374679,-16.65571558433234
6.67943936,1.0005113665575396,-16.73697698407161
6.681726976,1.0004917517375929,-16.81821406921265
6.684015104,1.0004409006082409,-16.898882102750562
6.68630272,1.0003621276852728,-16.978648035963968
6.688590336,1.0002602192089867,-17.05712072919671
6.690877952,1.0001418144941465,-17.133991746090388
6.693165568,1.0000146859041366,-17.20904946240662
6.695453184,0.9998866422328612,-17.282250426651096
6.6977408,0.9997660514578399,-17.353651523987896
6.700028416,0.9996607645647606,-17.42345102124289
6.702316032,0.9995773421258207,-17.491811530850388
6.70460416,0.999521331342318,-17.559183321600724
6.706891776,0.9994960875275983,-17.62596283205078
6.709179392,0.9995034197743456,-17.692610503951578
6.711467008,0.99954285424713,-17.7595966481581
6.713754624,0.9996118988338806,-17.82740438630475
6.71604224,0.9997059989340342,-17.896410801695108
6.718329856,0.999819275370562,-17.96693118428371
6.720617472,0.9999443781056653,-18.039216777299515
6.7229056,1.0000732739108344,-18.113341745997463
6.725193216,1.0001976029396198,-18.18934575182618
6.727480832,1.0003096717978535,-18.267091370125588
6.729768448,1.0004022806203474,-18.346292125041863
6.732056064,1.0004692971202687,-18.426722401868805
6.73434368,1.000506428946641,-18.50791797552715
6.736631296,1.0005113821763205,-18.58938949320752
6.738918912,1.000483744152383,-18.670751622510423
6.741206528,1.000425384377811,-18.751447834729447
6.743494656,1.000340035372366,-18.831115969329975
6.745782272,1.0002331893566914,-18.909418536682875
6.748069888,1.000111372300036,-18.98601487259843
6.750357504,0.9999826126155423,-19.0608369616392
6.75264512,0.9998553374129667,-19.13375562056471
6.754932736,0.9997374459540403,-19.204875562416156
6.757220352,0.999636531100078,-19.274454128750403
6.759507968,0.999559170871382,-19.342669915563118
6.761795584,0.999510264394627,-19.410020385734995
6.764083712,0.9994928501037259,-19.476857481351463
6.766371328,0.9995084015213016,-19.543724430364318
6.768658944,0.9995555197346101,-19.61102051916134
6.77094656,0.9996314344005451,-19.67924482126772
6.773234176,0.9997312841896938,-19.748748414061033
6.775521792,0.9998485643529085,-19.819868990745384
6.777809408,0.9999758192155065,-19.89275004667839
6.780097024,1.0001048704012723,-19.967530635551167
6.782385152,1.0002275211662448,-20.044147523962216
6.784672768,1.0003357840453688,-20.122493820692114
6.786960384,1.000422890478812,-20.20222123775612
6.789248,1.0004829516217804,-20.28309566776519
6.791535616,1.0005125186559736,-20.364597990563187
6.793823232,1.0005093863756043,-20.446292066504622
6.796110848,1.0004739710074024,-20.527721844037647
6.798398464,1.0004082090949575,-20.60841738764077
6.80068608,1.0003165680227795,-20.68797989026732
6.802974208,1.000205005689851,-20.766076024308607
6.805261824,1.0000802425447073,-20.842422395997723
6.80754944,0.9999507585399934,-20.916933674396443
6.809837056,0.9998244349903469,-20.989595275907057
6.812124672,0.9997095985922152,-21.06048484350592
6.814412288,0.9996136268987263,-21.12981987703331
6.816699904,0.9995427044793209,-21.197976799233334
6.81898752,0.9995010381439102,-21.265307645637144
6.821275136,0.9994917870594076,-21.33226834455603
6.823563264,0.9995153005904573,-21.399337682418988
6.82585088,0.9995700108239948,-21.466970500098334
6.828138496,0.9996527704675326,-21.535638266739248
6.830426112,0.9997579147219694,-21.605646952893814
6.832713728,0.9998787744647153,-21.677376944006003
6.835001344,1.000007725146672,-21.75089274954248
6.83728896,1.0001365207464086,-21.8263361458083
6.839576576,1.0002566571217144,-21.903565088000843
6.841864704,1.0003607958426595,-21.982488592459035
6.84415232,1.0004419810019622,-22.06275502082049
6.846439936,1.0004951275379521,-22.14401145814592
6.848727552,1.0005166867814883,-22.225811161466982
6.851015168,1.0005054481742917,-22.307654590846926
6.853302784,1.00046203503939,-22.389179080095918
6.8555904,1.000389357477774,-22.469852107657175
6.857878016,1.0002918409106303,-22.54926715686786
6.860165632,1.000175752360425,-22.62714123579589
6.86245376,1.0000487669407743,-22.703208397971757
6.864741376,0.9999187532401798,-22.77744121889664
6.867028992,0.9997939708675156,-22.84985415812044
6.869316608,0.9996828409092895,-22.92049814279577
6.871604224,0.9995919395884804,-22.98968770259993
6.87389184,0.9995276222744462,-23.05771962358425
6.876179456,0.9994936839214009,-23.125063989594278
6.878467072,0.9994925972085086,-23.192164029049138
6.880754688,0.9995240664354217,-23.25950359643295
6.883042816,0.9995863347184271,-23.32750505615969
6.885330432,0.9996754554893011,-23.39661459121287
6.887618048,0.9997856153096268,-23.46723347514664
6.889905664,0.9999095965543663,-23.539532003246496
6.89219328,1.000039815185602,-23.613708722256167
6.894480896,1.0001676549051792,-23.68975022226672
6.896768512,1.000285070043537,-23.767651910728848
6.899056128,1.000384361184494,-23.847110118271303
6.901344256,1.0004593810976974,-23.927867814032513
6.903631872,1.0005052330077848,-24.00947331568385
6.905919488,1.0005188434001722,-24.091565455410027
6.908207104,1.000499516581794,-24.173583731628785
6.91049472,1.0004484503465185,-24.25511597863128
6.912782336,1.0003688125844856,-24.335714250116308
