freq,mag,phase
6.0,0.9999577640281612,-0.7098164214450117
6.041451008,0.9999718391585456,-1.9703843687357363
6.082901504,0.9999869333913866,-3.2312622395702677
6.124352512,1.000002219473134,-4.4925317242044525
6.165803008,1.0000176181697413,-5.754117529445762
6.207254016,1.0000328079362695,-7.016024131540135
6.248704512,1.000047742053841,-8.278290582221574
6.29015552,1.000062078956778,-9.540854966947677
6.331606016,1.0000756691193529,-10.803797403941305
6.373057024,1.000088390147385,-12.067041767892524
6.41450752,1.0000999182386698,-13.33061055282643
6.455958528,1.000110242339379,-14.59448022805528
6.497409536,1.0001190751239368,-15.858666212978024
6.538860032,1.0001264572335582,-17.123171926911628
6.58031104,1.0001320159627376,-18.387938959241048
6.621761536,1.0001361369354382,-19.65297534296534
6.663212544,1.0001383527315075,-20.918300359343043
6.70466304,1.0001386318552383,-22.183883217962496
6.746114048,1.000137149517072,-23.44969174486842
6.787564544,1.0001338581906938,-24.715735664216187
6.829015552,1.0001288316623245,-25.982012663461557
6.87046656,1.0001220963305533,-27.248454023813814
6.911917056,1.0001137862471596,-28.51515484881413
6.953368064,1.0001037890820164,-29.782030553495957
6.99481856,1.0000924795314665,-31.049060561420394
7.036269568,1.0000798960648234,-32.31624996492974
7.077720064,1.0000664035995515,-33.58363459017071
7.119171072,1.0000518704396282,-34.85117021592314
7.160621568,1.0000368416227063,-36.118828200776996
7.202072576,1.0000211571717612,-37.3866480727085
7.243523072,1.000005166598897,-38.65464387044937
7.28497408,0.9999891796270375,-39.92274011025177
7.326425088,0.9999732612238025,-41.19101863839852
7.367875584,0.9999577570074583,-42.45943464360118
7.409326592,0.9999428572833732,-43.727981550868755
7.450777088,0.999928587776922,-44.99670592772135
7.492228096,0.999915533101553,-46.26556724052805
7.533678592,0.9999034542775437,-47.53461147005114
7.5751296,0.9998927435611509,-48.80384497831548
7.616580096,0.9998834834937587,-50.073220316595936
7.658031104,0.9998759032508415,-51.34283854798271
7.699482112,0.9998699032500489,-52.61263912148823
7.740932608,0.9998658500925502,-53.882651559356155
7.782383616,0.9998635302708697,-55.152930694484745
7.823834112,0.9998631549424516,-56.423416071994275
7.86528512,0.9998647955469723,-57.69418379270025
7.906735616,0.9998681120799288,-58.965192965960654
7.948186624,0.9998733825839115,-60.23650675126701
7.98963712,0.999880497004804,-61.508135709539125
8.031088128,0.999889206453387,-62.78002377660365
8.072538624,0.9998994343814419,-64.05227020909831
8.113989632,0.9999112989799798,-65.3248103671064
8.15544064,0.9999244173845273,-66.59768836404274
8.196891136,0.9999386048035064,-67.8709363032866
8.238342144,0.9999537475874221,-69.14453055519205
8.27979264,0.9999696468724311,-70.4184700393153
8.321243648,0.9999860505928545,-71.69275634348391
8.362694144,1.0000027542795578,-72.96744547013786
8.404145152,1.0000195797580473,-74.2424712814406
8.445595648,1.000036308393872,-75.51786669372332
8.487046656,1.0000524983342258,-76.79365994087212
8.528497664,1.000068113612812,-78.06976842845418
8.56994816,1.000083064362747,-79.34625413270489
8.611398656,1.000096877908351,-80.62309403857897
8.652850176,1.00010943743527,-81.90025473671275
8.694300672,1.0001206996435898,-83.17775589022798
8.735751168,1.0001303839771092,-84.45559444598786
8.777201664,1.0001384080894509,-85.7337441591082
8.818653184,1.0001446786627435,-87.01220012704258
8.86010368,1.0001490986609685,-88.29092697465369
8.901554176,1.000151436959426,-89.5699348083289
8.943004672,1.0001519300586532,-90.84919421155199
8.984456192,1.0001502445724217,-92.12871942431394
9.025906688,1.0001467611176555,-93.40846010106546
9.067357184,1.000141166193809,-94.68844762233384
9.108808704,1.000133767211942,-95.96864299733444
9.1502592,1.0001244742090665,-97.24902445221882
9.191709696,1.0001135640100787,-98.52959178988435
9.233160192,1.0001011279714023,-99.81030750551399
9.274611712,1.0000872870629138,-101.09119929142896
9.316062208,1.0000723064336021,-102.37224447629416
9.357512704,1.0000563448375397,-103.65343434393648
9.398964224,1.0000395286837211,-104.93475774711924
9.44041472,1.000022181625703,-106.21621038235365
9.481865216,1.0000044294145112,-107.4977870828945
9.523315712,0.9999865883400425,-108.77950582476157
9.564767232,0.9999690099416529,-110.06133487726834
9.606217728,0.9999517513918684,-111.34328013236953
9.647668224,0.9999350905823645,-112.62537595492746
9.68911872,0.9999192924976036,-113.90757870198345
9.73057024,0.9999045048406768,-115.18994098987599
9.772020736,0.9998910587007562,-116.47242545788757
9.813471232,0.9998790095999346,-117.75507815156313
9.854922752,0.9998686353436093,-119.0378882024847
9.896373248,0.9998600064185889,-120.32087024675576
9.937823744,0.9998533102146424,-121.60402563882515
9.97927424,0.9998485168730936,-122.88738339273479
10.02072576,0.9998458890960333,-124.17094844033868
10.062176256,0.9998453134824221,-125.45471445804313
10.103626752,0.9998469449383085,-126.73872279581416
10.145077248,0.9998505886967868,-128.02297508304432
10.186528768,0.9998564161903589,-129.3074909219206
10.227979264,0.9998642092973348,-130.59229446325395
10.26942976,0.9998739835420448,-131.8773484663781
10.31088128,0.9998854695661588,-133.16273319157563
10.352331776,0.999898593515298,-134.44840861355803
10.393782272,0.9999133198133725,-135.73438484305197
10.435232768,0.9999293147640026,-137.02070284508846
10.476684288,0.9999463986671903,-138.3073646037159
10.518134784,0.9999642852046399,-139.5943232249763
10.55958528,0.9999827744827353,-140.88166859986885
10.601035776,1.0000017689726808,-142.16933828099624
10.642487296,1.0000207573020463,-143.45734604719595
10.683937792,1.0000396967712235,-144.7457006524039
10.725388288,1.000058207388576,-146.03438435182156
10.766839808,1.0000761183364564,-147.32342147787563
10.808290304,1.0000932186915126,-148.61280913411554
10.8497408,1.0001092051537064,-149.90248975620221
10.891191296,1.0001236785145027,-151.19248921823194
10.932642816,1.0001366989128555,-152.48279949240032
10.974093312,1.000148050123395,-153.77338339085875
11.015543808,1.0001574271742177,-155.0642672671118
11.056995328,1.000164861868678,-156.35541624557598
11.098445824,1.0001701446256466,-157.6468042756536
11.13989632,1.0001732112693085,-158.93843612692
11.181346816,1.0001739473594717,-160.23027539391953
11.222798336,1.0001724066429512,-161.5223223082585
11.264248832,1.0001686460319001,-162.81456322857915
11.305699328,1.000162582950312,-164.10695599162858
11.347149824,1.0001543605607521,-165.3995002375393
11.388601344,1.0001439548270086,-166.69220172573384
11.43005184,1.0001315888393425,-167.98499766212765
11.471502336,1.0001174494665648,-169.2779279059584
11.512953856,1.0001016772424602,-170.57093681187763
11.554404352,1.0000845326164267,-171.86402127563446
11.595854848,1.0000661119578986,-173.15718490062864
11.637305344,1.0000467038391376,-174.45041357257807
11.678756864,1.0000264968070196,-175.74368779724037
11.72020736,1.000005953050495,-177.0370212613132
11.761657856,0.9999850786374184,-178.330380807585
11.803108352,0.9999644544542562,-179.62379268624875
11.844559872,0.9999441339153646,179.08275433969513
11.886010368,0.9999244330181779,177.78926791738016
11.927460864,0.9999057456285492,176.4957096844421
11.968912384,0.9998880918987036,175.2021221191603
12.01036288,0.9998719013423231,173.90847541107422
12.051813376,0.9998573867079503,172.61477094699868
12.093263872,0.9998447026920447,171.3209808445558
12.134715392,0.9998339507826026,170.02710484680793
12.176165888,0.9998254785171324,168.73313846123094
12.217616384,0.9998192475994009,167.43906670868188
12.25906688,0.9998154885906451,166.14485768549636
12.3005184,0.9998142119536583,164.85050956133247
12.341968896,0.9998154117591088,163.5560225453084
12.383419392,0.9998191337569908,162.26136365941085
12.424870912,0.9998254748497498,160.96654112109346
12.466321408,0.9998341114821656,159.67148812663822
12.507771904,0.9998451657542348,158.37623488605564
12.5492224,0.9998583330266835,157.08075771223704
12.59067392,0.9998735881038172,155.78505030379782
12.632124416,0.999890628724584,154.48908502905783
12.673574912,0.99990944517121,153.1928803119132
12.715025408,0.9999295932977155,151.89637485028015
12.756476928,0.9999508749920627,150.59962255500966
12.797927424,0.9999730687755366,149.3025702635817
12.83937792,0.9999958776832787,148.00525635732276
12.88082944,1.0000188261338159,146.7076477264927
12.922279936,1.000041850687975,145.40974005251428
12.963730432,1.000064608467179,144.11156395399863
13.005180928,1.0000866413549916,142.8131036056093
13.046632448,1.0001077857002107,141.5143722187843
13.088082944,1.000127607430049,140.2153901335995
13.12953344,1.0001460915187508,138.91613713623977
13.17098496,1.0001626165877089,137.61665524699507
13.212435456,1.0001772588593565,136.3169247243479
13.253885952,1.000189645605895,135.0170044691742
13.295336448,1.0001997420185258,133.71688315183624
13.336787968,1.0002070612502723,132.41658610366858
13.378238464,1.0002118259612212,131.11612903241792
13.41968896,1.0002138079131528,129.81554369085347
13.461139456,1.0002129605482624,128.51481894254886
13.502590976,1.0002092505653857,127.21400777219284
13.544041472,1.0002026830308073,125.91311163626739
13.585491968,1.000193377661027,124.61216951860825
13.626943488,1.0001813528880883,123.31119076195908
13.668393984,1.000166799604688,122.01018758545581
13.70984448,1.00014982827781,120.70919294872377
13.751294976,1.0001307135965247,119.40821986791356
13.792746496,1.000109572740219,118.10726054256709
13.834196992,1.0000866548805536,116.80638193777739
13.875647488,1.0000624265792626,115.50554077485924
13.917097984,1.0000371655308757,114.2048059379667
13.958549504,1.0000110194389613,112.90413177727682
14.0,0.9999844326337733,111.60355379123588
