freq,mag,phase
6.0,0.9999344237148539,-72.08402878966119
6.002286592,0.9998558029816119,-72.20032327399983
6.004572672,0.9997859362961822,-72.3155102232757
6.006859264,0.9997298420841672,-72.42983414793959
6.009145344,0.9996912360276967,-72.54350787275911
6.011431936,0.9996725146564878,-72.65673814321883
6.013718016,0.999674734988845,-72.76987981843429
6.016004608,0.9996981273085259,-72.88321820675631
6.018290688,0.999740763071799,-72.99707673641353
6.02057728,0.999800490433037,-73.11168926177592
6.022863872,0.9998731194145761,-73.22725829403262
6.025149952,0.9999536390260524,-73.3439842751726
6.027436544,1.000037768366351,-73.46191080127491
6.029722624,1.0001197490700806,-73.5811064500312
6.032009216,1.0001943036880554,-73.70146543106561
6.034295296,1.0002568834866665,-73.82279918247887
6.036581888,1.000303239899296,-73.94493043927756
6.03886848,1.0003306374026162,-74.06763652933095
6.04115456,1.000337277973836,-74.1906126367054
6.043441152,1.0003228388190715,-74.31353504537131
6.045727232,1.0002879619646374,-74.43613890065119
6.048013824,1.0002351020803122,-74.55812098450588
6.050299904,1.0001674511966294,-74.67924568390744
6.052586496,1.000089452653528,-74.79927801376091
6.054872576,1.0000060295092958,-74.91825211952788
6.057159168,0.999922385408107,-75.03596885635343
6.05944576,0.9998439837721165,-75.15249767445512
6.06173184,0.9997757792537844,-75.26800538056278
6.064018432,0.9997221643419786,-75.38262307691171
6.066304512,0.9996862159687031,-75.49666655884357
6.068591104,0.9996705972041148,-75.61027780081218
6.070877184,0.9996762572639846,-75.72383582408035
6.073163776,0.9997027024401177,-75.83770991640289
6.075450368,0.9997485084708212,-75.95207233106245
6.077736448,0.999810271980749,-76.06727504679912
6.08002304,0.9998846773329982,-76.18341962320949
6.08230912,0.9999666862274137,-76.30078692209005
6.084595712,1.0000508959034522,-76.41936370407574
6.086881792,1.0001322000740387,-76.53914161216441
6.089168384,1.000205438128579,-76.66011315962704
6.091454464,1.0002657722093538,-76.78203052474173
6.093741056,1.0003095819525123,-76.9047466039155
6.096027648,1.0003339892060377,-77.02794147625973
6.098313728,1.0003373053433182,-77.15140046805547
6.10060032,1.0003195106106235,-77.27472618429759
6.1028864,1.0002817328496878,-77.39771248653861
6.105172992,1.0002261688597145,-77.52002581483461
6.107459072,1.0001566014093777,-77.64146203758553
6.109745664,1.000077048470788,-77.761744957575
6.112032256,0.9999930477286444,-77.88094466468817
6.114318336,0.9999097223482213,-77.99891474492905
6.116604928,0.9998324460033415,-78.11571461133386
6.118891008,0.9997659450421387,-78.23148144023037
6.1211776,0.9997146635395765,-78.34645134303852
6.12346368,0.9996816828544731,-78.46077240177983
6.125750272,0.9996693389096055,-78.57479159454097
6.128036352,0.9996782016410785,-78.68881752805918
6.130322944,0.9997078961421026,-78.80314558796688
6.132609536,0.9997563757011487,-78.91805725594708
6.134895616,0.9998207371721811,-79.03381271549165
6.137182208,0.9998966218628443,-79.15061175604033
6.139468288,0.9999795628070183,-79.26856942726657
6.14175488,1.000063810260451,-79.38777408717948
6.14404096,1.0001445075154494,-79.50819503919753
6.146327552,1.0002161866726786,-79.62969087215649
6.148614144,1.000274462191856,-79.75219595051296
6.150900224,1.0003154691649152,-79.87543817247821
6.153186816,1.000336874880258,-79.99914777932561
6.155472896,1.0003369236692734,-80.12305204060003
6.157759488,1.0003158575014754,-80.24678404312608
6.160045568,1.000275120025897,-80.37010322604608
6.16233216,1.0002169251354238,-80.49269894869907
6.16461824,1.0001454157075043,-80.61441215570977
6.166904832,1.0000646268781623,-80.73498397075498
6.169191424,0.9999802091979471,-80.85442462257713
6.171477504,0.999897196399037,-80.97261662758007
6.173764096,0.9998210444681382,-81.08969897344886
6.176050176,0.9997563927905735,-81.2057609578851
6.178336768,0.9997076026819025,-81.32102199825034
6.180622848,0.9996776472561799,-81.4357123808747
6.18290944,0.999668506024184,-81.55008517214705
6.18519552,0.9996807165179704,-81.66457005997103
6.187482112,0.9997134419778393,-81.7793533254129
6.189768704,0.999764699829464,-81.89480264485326
6.192054784,0.9998313369913829,-82.01107314219095
6.194341376,0.9999088238764013,-82.12845244461865
6.196627456,0.9999923518930196,-82.24703636565438
6.198914048,1.000076928119134,-82.36682838293457
6.201200128,1.0001566012738938,-82.48785984020932
6.20348672,1.0002266338229642,-82.60995018738286
6.205773312,1.0002827545085025,-82.7329971972583
6.208059392,1.0003208906732888,-82.85677595558275
6.210345984,1.0003391130834036,-82.98097285754855
6.212632064,1.0003359307179163,-83.10527270996056
6.214918656,1.0003118196937582,-83.22940230625528
6.217204736,1.0002679533928098,-83.35304928184688
6.219491328,1.0002073220975116,-83.475988410259
6.221777408,1.0001338714820234,-83.59788583148088
6.224064,1.0000520951268443,-83.71871896428067
6.226350592,0.9999672212798731,-83.83838980065653
6.228636672,0.9998846418524201,-83.95679923983383
6.230923264,0.9998098593671434,-84.07410815383636
6.233209344,0.9997473890322458,-84.19043722731737
6.235495936,0.9997010078137334,-84.30599562524544
6.237782016,0.999674141046008,-84.42100416005366
6.240068608,0.9996681736676459,-84.53581148276965
6.2423552,0.9996835606368193,-84.65070548523468
6.24464128,0.9997194701190117,-84.76598057760518
6.246927872,0.9997733859224216,-84.88192561596495
6.249213952,0.9998420801350579,-84.99877529602861
6.251500544,0.9999210853934782,-85.11669732906034
6.253786624,1.0000053453902258,-85.2358726328813
6.256073216,1.00008957722675,-85.35624216032734
6.258359296,1.0001684593569395,-85.47785891035905
6.260645888,1.0002366595964294,-85.60052630380763
6.26293248,1.000290499508243,-85.72413561597428
6.26521856,1.0003259131868312,-85.84840181453109
6.267505152,1.0003409942713024,-85.97304877465564
6.269791232,1.0003345843174238,-86.09773991386925
6.272077824,1.0003071401147503,-86.22224777345829
6.274363904,1.0002603687635832,-86.34620949412864
6.276650496,1.000197418024785,-86.46936937928135
6.278937088,1.0001223222878988,-86.59155656824912
6.281223168,1.0000393667460854,-86.71262058397076
6.28350976,0.9999544193077357,-86.83247838834853
6.28579584,0.999872438509203,-86.95111142054944
6.288082432,0.999798937684869,-87.06867779629813
6.290368512,0.9997384497490248,-87.18525160254173
6.292655104,0.9996947816231114,-87.30107622655534
6.294941184,0.9996708564867942,-87.41642392105716
6.297227776,0.9996682891575726,-87.53161191021151
6.299514368,0.9996869217637091,-87.64691266797252
6.301800448,0.9997258360808211,-87.76263345916182
6.30408704,0.9997823025146583,-87.87909162227338
6.30637312,0.9998529969328055,-87.99648238213983
6.308659712,0.9999334323459137,-88.11500101356671
6.310945792,1.0000182434604679,-88.23475896199395
6.313232384,1.0001021643930377,-88.35570752236136
6.315518464,1.0001800069001345,-88.47787809298292
6.317805056,1.0002466106541599,-88.60111354286073
6.320091648,1.000297880771323,-88.72522121850943
6.322377728,1.0003302550805253,-88.84994001154558
6.32466432,1.000342215342439,-88.9750201149024
6.3269504,1.0003325849983329,-89.10013074874689
6.329236992,1.0003020462392578,-89.22493233661528
6.331523072,1.000252512313552,-89.3492265277159
6.333809664,1.0001872011598405,-89.47266561105374
6.336096256,1.0001104469006705,-89.59509120038517
6.338382336,1.000026561088931,-89.71633469218038
6.340668928,0.9999414338066189,-89.83636000549582
6.342955008,0.9998603532807084,-89.95524841972924
6.3452416,0.9997883802386808,-90.0729870185284
6.34752768,0.9997300522694265,-90.1898007618324
6.349814272,0.9996892261453705,-90.30592659822956
6.352100352,0.9996683047393448,-90.42161440110189
6.354386944,0.9996689546907689,-90.53713000858582
6.356673536,0.9996907603892776,-90.65286785868894
6.358959616,0.9997325553446129,-90.76908545597044
6.361246208,0.9997914830861198,-90.88604682765772
6.363532288,0.9998643453915906,-91.00394329684073
6.36581888,0.9999458874463657,-91.1229714684396
6.36810496,1.000031177794268,-91.24331791495258
6.370391552,1.0001148193583451,-91.36484214335462
6.372678144,1.0001912838311469,-91.48755393555535
6.374964224,1.0002561125121125,-91.61133124695459
6.377250816,1.0003047643296714,-91.73593162922981
6.379536896,1.0003344548226443,-91.86112185772737
6.381823488,1.000343083047309,-91.9865774203845
6.384109568,1.000330155293231,-92.11204766062176
6.38639616,1.0002965751063888,-92.23720144930927
6.38868224,1.0002442885487597,-92.36173466888692
6.390968832,1.0001768070736097,-92.4854222563376
6.393255424,1.0000984499285333,-92.60804531893933
6.395541504,1.0000139564071167,-92.72949598164345
6.397828096,0.9999287811005936,-92.84974906572266
6.400114176,0.9998485802477979,-92.96880453401103
6.402400768,0.9997780982348734,-93.08676765739062
6.404686848,0.9997219851872596,-93.20381158531302
6.40697344,0.9996838716515097,-93.32019532735136
6.409260032,0.9996660872262615,-93.43620955948161
6.411546112,0.9996698836988017,-93.55210277685981
6.413832704,0.9996949397760372,-93.66823322141478
6.416118784,0.9997397279954937,-93.78485316061827
6.418405376,0.9998013289251438,-93.90232035599607
6.420691456,0.9998757071108454,-94.02077208289434
6.422978048,0.9999582822028236,-94.1403724620034
6.425264128,1.000044097418478,-94.26120852571056
6.42755072,1.000127118300434,-94.38326829742073
6.429837312,1.0002025032497217,-94.5065408273428
6.432123392,1.0002651617956477,-94.63079956276894
6.434409984,1.000311280355029,-94.75589918712082
6.436696064,1.0003379114767812,-94.88148950094883
6.438982656,1.0003433482621626,-95.00740304936464
6.441268736,1.000327207345053,-95.13318914093827
6.443555328,1.0002906904401716,-95.25864482381805
6.44584192,1.0002357681426235,-95.38343441250011
6.448128,1.0001661953727934,-95.5073155823023
6.450414592,1.0000861897075026,-95.63012523508543
6.452700672,1.0000010841006541,-95.75180088521235
6.454987264,0.9999161623249669,-95.87218789792045
6.457273344,0.9998368075733622,-95.99142406279122
6.459559936,0.9997681022332077,-96.10956845633302
6.461846016,0.9997142733996209,-96.22685330575484
6.464132608,0.9996790220841915,-96.34349834055918
6.4664192,0.9996644146469469,-96.45981927046735
6.46870528,0.9996714162574668,-96.57606797311587
6.470991872,0.9996996679826508,-96.69259359630338
6.473277952,0.9997471340617253,-96.80969442511761
6.475564544,0.9998111205670112,-96.92759361413293
6.477850624,0.9998874669839343,-97.04654415868437
6.480137216,0.9999710328749334,-97.16669292004654
6.482423296,1.0000568264810967,-97.28805697238953
6.484709888,1.0001394171047455,-97.41067245488813
6.48699648,1.000213359408627,-97.53441261702991
6.48928256,1.0002738608578166,-97.65920864236976
6.491569152,1.000317392967497,-97.78474649972873
6.493855232,1.000340971223361,-97.91078435320348
6.496141824,1.0003432367370966,-98.03699957825994
6.498427904,1.0003239863891122,-98.16311901615934
6.500714496,1.0002843491949642,-98.28884173649587
6.503001088,1.0002268531375733,-98.41386598851871
6.505287168,1.000155231975496,-98.53797538788719
6.50757376,1.0000740050660561,-98.66094180904385
6.50985984,0.9999883243382719,-98.78273704222403
6.512146432,0.9999036848759014,-98.90332458124222
6.514432512,0.999825358003995,-99.02269488527095
6.516719104,0.9997583663876226,-99.14104837305152
6.519005184,0.9997070222009069,-99.25855633922265
6.521291776,0.9996746496202533,-99.37545572169026
6.523578368,0.9996632142098949,-99.49206374145096
6.525864448,0.9996734837515323,-99.60866463516524
6.52815104,0.9997047335856112,-99.7255755306067
6.53043712,0.9997551361441546,-99.84307411018645
6.532723712,0.9998213018445735,-99.96146880782548
6.535009792,0.999899198111985,-100.08092562788448
6.537296384,0.9999838098586944,-100.20154210965872
6.539582976,1.00006961288583,-100.32344358685282
6.541869056,1.000151401628605,-100.44656827317502
6.544155648,1.0002238194426922,-100.57083163230732
6.546441728,1.0002822697487026,-100.69607319435647
6.54872832,1.0003231040725094,-100.8220261065344
6.5510144,1.000343696884059,-100.94845283873586
6.553300992,1.0003425435474373,-101.07502952263594
6.555587072,1.000320115698364,-101.20147449602786
6.557873664,1.0002774659549263,-101.32744121110036
6.560160256,1.0002175640153521,-101.45267544825266
6.562446336,1.0001439691636687,-101.57696103553579
6.564732928,1.000061499340527,-101.70010029703663
6.567019008,0.9999754661831343,-101.82200277344963
6.5693056,0.9998910791713435,-101.94271604424497
6.57159168,0.999814042345922,-102.06225212845891
6.573878272,0.9997490114190012,-102.18081068576994
6.576164864,0.9997001811045022,-102.29849224340363
6.578450944,0.9996706602293424,-102.41564893810168
6.580737536,0.9996624383393937,-102.5325029601653
6.583023616,0.9996759080343663,-102.64945236646614
6.585310208,0.9997103000383724,-102.7667103057697
6.587596288,0.9997634206405582,-102.8846617388892
6.58988288,0.999831833882679,-103.00347658246628
6.59216896,0.9999112826619024,-103.12343403223274
6.594455552,0.9999966064264688,-103.2445551544195
6.596742144,1.0000823903704614,-103.36696353285267
6.599028224,1.0001633165935688,-103.49058416702826
6.601314816,1.000234062703804,-103.61533152067727
6.603600896,1.000290301765141,-103.74101382353967
6.605887488,1.0003284104483825,-103.86739787318865
6.608173568,1.0003459301802329,-103.9942036399486
6.61046016,1.000341613800451,-104.12104635343603
6.612746752,1.0003159741514807,-104.24779986578675
6.615032832,1.0002704921867929,-104.37396727025217
6.617319424,1.0002079618241548,-104.49937227648205
6.619605504,1.000132675732453,-104.62382042552521
6.621892096,1.0000491058426029,-104.74709328395481
6.624178176,0.9999626135387208,-104.86916892866434
6.626464768,0.9998788875492646,-104.98998763331434
6.628750848,0.9998030515033082,-105.10968302246624
6.63103744,0.9997400071480819,-105.22833522647426
6.633324032,0.9996937288372728,-105.34623881729641
6.635610112,0.9996672880951397,-105.46360589242371
6.637896704,0.9996621928743143,-105.58077728515863
6.640182784,0.9996787758388527,-105.69804545263393
6.642469376,0.99971631569564,-105.81568141122663
6.644755456,0.9997720262879368,-105.9340068566961
6.647042048,0.9998425534669518,-106.05330861296214
6.649328128,0.9999232970128843,-106.17370612586372
6.65161472,1.0000094384858573,-106.29532316270132
6.653901312,1.000095002949278,-106.41818993345765
6.656187392,1.0001750942331553,-106.54229463157152
6.658473984,1.0002441149280636,-106.66749384432721
6.660760064,1.0002981092650882,-106.79358448362841
6.663046656,1.0003332929249935,-106.9203567373849
6.665332736,1.0003475513005518,-107.04750153914638
6.667619328,1.000340193895417,-107.17470637133823
6.66990592,1.0003112652860462,-107.30165404288022
6.672192,1.0002630006708984,-107.4280371030391
6.674478592,1.0001981742759853,-107.5536078421116
6.676764672,1.0001211090365527,-107.67814358182183
6.679051264,1.0000365445131134,-107.80157782428144
6.681337344,0.9999498699413447,-107.92372531366365
6.683623936,0.9998667745189134,-108.04466495617332
6.685910016,0.9997923113124139,-108.16445814929824
6.688196608,0.9997312350038772,-108.28331724958238
6.6904832,0.9996876449470502,-108.40137733910568
6.69276928,0.9996641482292442,-108.51895380181949
6.695055872,0.9996622771362237,-108.63637351791546
6.697341952,0.9996822269159331,-108.75397337270203
6.699628544,0.9997227150873095,-108.87195034813384
6.701914624,0.9997809023099615,-108.990710249928
6.704201216,0.9998534531341255,-109.11043253080594
6.706487808,0.9999355930008321,-109.23127498969092
6.708773888,1.0000221929306634,-109.35335640054835
6.71106048,1.0001075401935555,-109.47667981305786
6.71334656,1.0001864794746143,-109.60124885480934
6.715633152,1.0002537910276474,-109.72687710514697
6.717919232,1.000305312244682,-109.8533820799011
6.720205824,1.0003376626589588,-109.98050130103844
6.722491904,1.0003488149544757,-110.1079340132037
6.724778496,1.0003381446219863,-110.23542819387602
6.727065088,1.000306232258512,-110.36262011554898
6.729351168,1.000255177720736,-110.4891629799056
6.73163776,1.0001880105272662,-110.61489735550335
6.73392384,1.0001093113470403,-110.73958232752378
6.736210432,1.0000238583074152,-110.86308637020026
6.738496512,0.9999371203200571,-110.98531473721008
6.740783104,0.9998546490680223,-111.10634537253466
6.743069696,0.9997817144879281,-111.22622894760111
6.745355776,0.9997229047683832,-111.34520331859895
6.747642368,0.9996819864916685,-111.46344465011832
6.749928448,0.9996615592524097,-111.58126099910808
6.75221504,0.99966291809591,-111.69893121065519
6.75450112,0.9996860374007852,-111.81677764479039
6.756787712,0.9997294110339877,-111.9351247355781
6.759073792,0.999790192180569,-112.05423761929295
6.761360384,0.9998646228380965,-112.17439379828352
6.763646976,0.9999480120456932,-112.29564617943011
6.765933056,1.0000349939355104,-112.41817873010953
6.768219648,1.000120083318684,-112.54196152297486
6.770505728,1.000197725639936,-112.66696713253715
6.77279232,1.0002631433923326,-112.79300408889179
6.7750784,1.0003122010105783,-112.91986910306684
6.777364992,1.0003416409984989,-113.04733527308495
6.779651584,1.0003495994706646,-113.17509974414425
6.781937664,1.0003356859632924,-113.30282131104578
6.784224256,1.0003007250902298,-113.43017212556184
6.786510336,1.0002469099925522,-113.55689080649074
6.788796928,1.0001776614589633,-113.68274438357956
6.791083008,1.0000973076451078,-113.80751895577576
6.7933696,1.0000111965342169,-113.9311172625246
6.79565568,0.9999245219197799,-114.05339612360133
6.797942272,0.9998428688589499,-114.1744874255677
6.800228864,0.9997715261203325,-114.29449672429398
6.802514944,0.9997149453826629,-114.41356805769041
6.804801536,0.9996768063058139,-114.53194117510023
6.807087616,0.9996593878804115,-114.64996148265006
6.809374208,0.9996639830161883,-114.76789354896165
6.811660288,0.9996902171825538,-114.88602598389518
6.81394688,0.9997364145460428,-115.00472489723155
6.81623296,0.9997997356270512,-115.12418417695675
6.818519552,0.9998760613240143,-115.24470417933756
6.820806144,0.9999605231671053,-115.36642726012451
6.823092224,1.0000478002658282,-115.48936160128031
6.825378816,1.0001323418921442,-115.61358497660406
6.827664896,1.0002087900874717,-115.73899482543516
6.829951488,1.000272200044682,-115.86542450057304
6.832237568,1.0003185993179564,-115.99264797431606
6.83452416,1.0003451288150345,-116.12042816370561
6.836810752,1.000349941118213,-116.24843524141195
6.839096832,1.0003328147969137,-116.37636513894537
6.841383424,1.0002947465137983,-116.50391397069545
6.843669504,1.0002383507830543,-116.63076188329192
6.845956096,1.0001669204354167,-116.75673095073655
6.848242176,1.0000852853166098,-116.88155389579146
6.850528768,0.9999983960884722,-117.00516696410878
6.852814848,0.9999118948726674,-117.12754469835814
6.85510144,0.999831171481495,-117.2486758003409
6.857388032,0.9997615501020579,-117.36876946200915
6.859674112,0.999707260094748,-117.4879601003192
6.861960704,0.999671905239007,-117.60648630138756
6.864246784,0.9996577081720012,-117.72465085226939
6.866533376,0.9996655047904245,-117.84281238564566
6.868819456,0.9996949417820288,-117.96123153235567
6.871106048,0.9997439861460161,-118.08023123928159
6.87339264,0.9998095703332344,-118.20007747566669
6.87567872,0.9998875783378798,-118.32097221818749
6.877965312,0.999973089984972,-118.44308114899778
6.880251392,1.0000606235864171,-118.56641756970585
6.882537984,1.0001445359318983,-118.69105132122371
6.884824064,1.0002195298936558,-118.81684192023705
6.887110656,1.0002809551286522,-118.94361494438466
6.889396736,1.00032476329459,-119.0711999626376
6.891683328,1.0003481155576963,-119.19928947333129
6.89396992,1.0003498368621642,-119.32748722649744
6.896256,1.0003294994690852,-119.45560471921738
6.898542592,1.0002884561152094,-119.583318225356
6.900828672,1.0002294281087711,-119.7102941825859
6.903115264,1.00015605662434,-119.83631514047717
6.905401344,1.0000730008911516,-119.96118408166933
6.907687936,0.9999855566771434,-120.08484910961458
6.909974528,0.9998993089229995,-120.20725759514009
6.912260608,0.9998197516156277,-120.328420262596
6.9145472,0.9997519333533147,-120.44856434880546
