freq,mag,phase
6.0,1.0002359396008595,171.26188353075744
6.002286592,1.0002554312702787,171.10304826620566
6.004572672,1.0002590304729413,170.94408293366016
6.006859264,1.0002463916592772,170.78517163685197
6.009145344,1.0002184992665015,170.62656914468465
6.011431936,1.0001770576956088,170.4684950254978
6.013718016,1.00012462805705,170.31109134135474
6.016004608,1.0000645252741298,170.15452349548474
6.018290688,1.000000792119904,169.9988696504761
6.02057728,0.999937232686639,169.84414668134073
6.022863872,0.9998776857911496,169.69034301386932
6.025149952,0.9998263692560082,169.5373327375983
6.027436544,0.999786292161156,169.3850357377792
6.029722624,0.9997599012458684,169.23321876468626
6.032009216,0.9997489381301929,169.0816921861716
6.034295296,0.9997542444497466,168.93022124212342
6.036581888,0.9997753838030867,168.77853228310005
6.03886848,0.9998110098687124,168.62648669124482
6.04115456,0.9998588978429771,168.47384037708437
6.043441152,0.9999159133770515,168.32042732340585
6.045727232,0.9999784982812291,168.16617100282627
6.048013824,1.000042771829719,168.01100169238234
6.050299904,1.0001047350630046,167.85493120211302
6.052586496,1.0001602638197324,167.69800132457186
6.054872576,1.0002059533647554,167.5403792759023
6.057159168,1.0002388560547508,167.38219867363625
6.05944576,1.0002569557303622,167.2236272433101
6.06173184,1.000259057813365,167.06495381818928
6.064018432,1.0002451526953955,166.9063716745678
6.066304512,1.0002159571529852,166.74806686312454
6.068591104,1.0001732832544799,166.5903809215047
6.070877184,1.0001199174771283,166.4333513674211
6.073163776,1.000059296244321,166.27716559905767
6.075450368,0.9999951542412894,166.121893117616
6.077736448,0.9999316072320499,165.96758594212739
6.08002304,0.9998725224427861,165.81415782725134
6.08230912,0.9998219018149214,165.66153985530127
6.084595712,0.9997827185326703,165.50962364421613
6.086881792,0.9997575463132691,165.35815154567877
6.089168384,0.9997480008738845,165.2069520178954
6.091454464,0.9997546860265037,165.05580050370838
6.093741056,0.9997772550398967,164.90443448111728
6.096027648,0.9998140982672429,164.75265927437246
6.098313728,0.9998630423608764,164.60026272013792
6.10060032,0.9999209070757129,164.44710687379413
6.1028864,0.9999840180382705,164.2930949398439
6.105172992,1.0000485001443624,164.13817223011438
6.107459072,1.0001101447697602,163.98232571246373
6.109745664,1.0001650722762796,163.8256837522288
6.112032256,1.0002098469161844,163.66829286952986
6.114318336,1.0002417086961466,163.51036561291926
6.116604928,1.0002584703584891,163.3521142840139
6.118891008,1.0002592081464377,163.19373841838973
6.1211776,1.0002438848061619,163.03546202991848
6.12346368,1.0002132951191531,162.87757816603664
6.125750272,1.000169504672495,162.72021636731677
6.128036352,1.0001152792484425,162.5635689272833
6.130322944,1.000053880463149,162.40781278934574
6.132609536,0.9999894811900638,162.2529579066627
6.134895616,0.9999261153502413,162.0990412581334
6.137182208,0.9998674709433618,161.94601877717724
6.139468288,0.9998174032033406,161.7938210872364
6.14175488,0.9997793350287705,161.64225210033203
6.14404096,0.9997555186814644,161.4911738497169
6.146327552,0.9997473642279191,161.34033014205423
6.148614144,0.9997554493610875,161.18949715853407
6.150900224,0.9997793110588484,161.03844276931213
6.153186816,0.9998175070148001,160.88695767554026
6.155472896,0.9998673532836663,160.73486580464163
6.157759488,0.9999260538346049,160.58197208512092
6.160045568,0.999989620750343,160.42822692669185
6.16233216,1.000054155366419,160.2735454533248
6.16461824,1.000115458294276,160.1179409109322
6.166904832,1.0001698660251321,159.9615586825898
6.169191424,1.000213881434131,159.80446216187735
6.171477504,1.0002444934627563,159.64681225963963
6.173764096,1.0002600183085413,159.4888717251095
6.176050176,1.000259247074538,159.33082230460232
6.178336768,1.0002424263261132,159.17290849198457
6.180622848,1.0002105826914773,159.01536571311482
6.18290944,1.0001656631174252,158.8583910990636
6.18519552,1.0001103575632835,158.7021528962761
6.187482112,1.000048594761155,158.54680389052047
6.189768704,0.9999839449471212,158.39235234962385
6.192054784,0.9999204648991595,158.23886777322684
6.194341376,0.9998623476866612,158.0862820548047
6.196627456,0.9998131824434547,157.9344987267819
6.198914048,0.9997760468727936,157.78332621171458
6.201200128,0.999753523239599,157.6326397957932
6.20348672,0.999746563439526,157.48213462975446
6.205773312,0.9997562355600327,157.33165778298988
6.208059392,0.9997815308777815,157.18092097344075
6.210345984,0.9998208898611758,157.02977834823412
6.212632064,0.9998718733766864,156.87794397273322
6.214918656,0.9999312193416887,156.72530781694826
6.217204736,0.9999952533109103,156.5718066797816
6.219491328,1.0000599182935752,156.41740994048195
6.221777408,1.0001209732187737,156.26212627584
6.224064,1.0001746424949955,156.10597724473934
6.226350592,1.0002176629318695,155.94915032854385
6.228636672,1.0002470210029857,155.79181947650417
6.230923264,1.0002611377006556,155.63417786481975
6.233209344,1.0002591098536564,155.47649254043083
6.235495936,1.0002408577593715,155.31892899975207
6.237782016,1.0002076821428614,155.161778585702
6.240068608,1.0001614962657808,155.00522707163012
6.2423552,1.0001054295862755,154.8493971203947
6.24464128,1.0000430141352488,154.69448164648847
6.246927872,0.9999780862413086,154.54046010067714
6.249213952,0.999914728048885,154.3874118907502
6.251500544,0.9998571923771626,154.23524773619977
6.253786624,0.9998087758632335,154.0838785210596
6.256073216,0.9997727545957711,153.9331437983481
6.258359296,0.9997513876974121,153.78281362681514
6.260645888,0.9997461148926188,153.6327283105002
6.26293248,0.9997571241563569,153.48258546841893
6.26521856,0.9997837899741127,153.33218206128333
6.267505152,0.9998243240194113,153.18132968484508
6.269791232,0.9998763387238274,153.02979741141795
6.272077824,0.9999364820551885,152.87748068569883
6.274363904,1.0000009679634752,152.7242787358321
6.276650496,1.000065516604751,152.57011554021227
6.278937088,1.0001262729184233,152.41509612562143
6.281223168,1.0001794401422943,152.25925593553887
6.28350976,1.0002213779657851,152.10271982764692
6.28579584,1.0002496431508965,151.9457113772828
6.288082432,1.0002623552596044,151.78838783882878
6.290368512,1.0002588131359307,151.6310571106878
6.292655104,1.000239089364595,151.4738815903329
6.294941184,1.0002046592246758,151.31711540409407
6.297227776,1.0001573905763057,151.1609535459403
6.299514368,1.0001004654047034,151.00558638632327
6.301800448,1.000037391911744,150.8510850220152
6.30408704,0.9999722933035124,150.6975214697086
6.30637312,0.9999091710616862,150.54491192295308
6.308659712,0.9998520803141223,150.39320027640053
6.310945792,0.9998046144245829,150.2422701797711
6.313232384,0.9997696153125669,150.09195434188814
6.315518464,0.9997497158860802,149.94204957379063
6.317805056,0.9997457604767703,149.79230318247414
6.320091648,0.9997582283332198,149.64253030534252
6.322377728,0.9997862707978994,149.49249047144815
6.32466432,0.9998281133618739,149.3419494877059
6.3269504,0.9998811784584571,149.19070685023377
6.329236992,0.9999420882947605,149.03868708262792
6.331523072,1.000006766561825,148.88576806553013
6.333809664,1.0000713990189447,148.73190141955232
6.336096256,1.0001318031688706,148.57718321751543
6.338382336,1.0001841257669275,148.4216028383161
6.340668928,1.00022513834504,148.2654141232038
6.342955008,1.0002521715453159,148.10870946236886
6.3452416,1.0002635213981992,147.95175976231977
6.34752768,1.0002584536787784,147.79475465106233
6.349814272,1.0002373750506512,147.63797453612256
6.352100352,1.0002015255646972,147.48163939662797
6.354386944,1.0001530576747029,147.32590373311885
6.356673536,1.0000952427845615,147.17095374617242
6.358959616,1.000031695750498,147.01689415235515
6.361246208,0.9999663918336976,146.8638298858387
6.363532288,0.9999035092366213,146.7116561143523
6.36581888,0.9998469102746249,146.56041748251366
6.36810496,0.9998003259757866,146.4098938463843
6.370391552,0.9997665179271926,146.2600093291095
6.372678144,0.9997479929066767,146.11049825079886
6.374964224,0.9997455155524202,145.96115072862088
6.377250816,0.9997594911405132,145.81176660696556
6.379536896,0.9997889083550688,145.66205598936028
6.381823488,0.9998320549738252,145.51183962582294
6.384109568,0.9998860576333771,145.360952267391
6.38639616,0.9999476146563967,145.20921701093508
6.38868224,1.0000126982607938,145.05658290029547
6.390968832,1.000077314928212,144.90301834734427
6.393255424,1.000137365662557,144.74855163879243
6.395541504,1.000188869263929,144.59332236507214
6.397828096,1.00022879600312,144.4374068380869
6.400114176,1.0002546123608531,144.2810433999825
6.402400768,1.0002645149268379,144.12447135200964
6.404686848,1.0002580039059008,143.9678457263704
6.40697344,1.000235401132949,143.8114626884647
6.409260032,1.0001981468799708,143.65551558407682
6.411546112,1.0001485773681773,143.5002297968217
6.413832704,1.0000899687277902,143.34573370883163
6.416118784,1.0000260260065288,143.1921687289998
6.418405376,0.9999605393137195,143.03953384924552
6.420691456,0.999897846681785,142.88784559219778
6.422978048,0.9998418041654243,142.73704644856227
6.425264128,0.9997960788537986,142.58699504391055
6.42755072,0.9997635939819572,142.43753114529773
6.429837312,0.9997463275470134,142.28844006823743
6.432123392,0.9997453666843639,142.13951009329108
6.434409984,0.9997607897809138,141.99045720155303
6.436696064,0.9997916125593981,141.8411340475379
6.438982656,0.9998359311205052,141.69124103438418
6.441268736,0.9998909865897649,141.54065851718582
6.443555328,0.9999532143451282,141.3892535452292
6.44584192,1.0000185718615249,141.23691606864932
6.448128,1.0000831508335692,141.08363975109725
6.450414592,1.000142736370679,140.92950262397565
6.452700672,1.000193502026519,140.77456800382836
6.454987264,1.0002324164441998,140.61899651740535
6.457273344,1.0002568476435847,140.46297597233954
6.459559936,1.000265365077637,140.30672465308288
6.461846016,1.0002573193814346,140.150525936767
6.464132608,1.000233243250825,139.9945305733331
6.4664192,1.0001945778731967,139.83903777501993
6.46870528,1.0001440692957113,139.6841766072966
6.470991872,1.000084629353737,139.530154572926
6.473277952,1.0000200176446925,139.3770222001703
6.475564544,0.999954473200432,139.22488360789538
6.477850624,0.9998920756903138,139.07369845177192
6.480137216,0.9998366743450264,138.9233354001747
6.482423296,0.9997918955238313,138.7737438158817
6.484709888,0.9997606662418548,138.62473015339495
6.48699648,0.9997447547508476,138.4760510759117
6.48928256,0.9997452753803571,138.32752467051873
6.491569152,0.9997622187572768,138.1788645051843
6.493855232,0.9997945696103246,138.02987204104735
6.496141824,0.999840153846327,137.8803322829163
6.498427904,0.999896111709625,137.7300696710213
6.500714496,0.9999589443908551,137.578964324963
6.503001088,1.0000246662596637,137.4269462837941
6.505287168,1.0000892010948856,137.27397482216935
6.50757376,1.0001482284935668,137.12013770112935
6.50985984,1.0001982576645325,136.96552310901106
6.512146432,1.0002360361541491,136.810296231253
6.514432512,1.000259118015107,136.65460908166128
6.516719104,1.000266105473877,136.49875535241165
6.519005184,1.0002564769355247,136.34293720409482
6.521291776,1.0002310148314937,136.1873403829964
6.523578368,1.0001910612502032,136.03230267066323
6.525864448,1.0001393788691377,135.87788377496696
6.52815104,1.0000791422480808,135.7243453162761
6.53043712,1.0000141042011823,135.57168016555553
6.532723712,0.9999485015703664,135.42003066775302
6.535009792,0.9998863139316886,135.269288294615
6.537296384,0.9998316705014755,135.11941695085824
6.539582976,0.9997879500076429,134.97029604018306
6.541869056,0.9997578850610903,134.8217053853686
6.544155648,0.9997434858917198,134.6734696253354
6.546441728,0.99974545756271,134.52533663639034
6.54872832,0.9997639122155594,134.37709054972945
6.5510144,0.9997976239293785,134.22845896961365
6.553300992,0.9998443810581138,134.0792548394559
6.555587072,0.9999013199789761,133.92932775862482
6.557873664,0.9999648470301664,133.7785247398337
6.560160256,1.000030849693561,133.62679137351543
6.562446336,1.00009513619864,133.47417448057624
6.564732928,1.000153674104533,133.3206388389313
6.567019008,1.0002028793651896,133.16633833731015
6.5693056,1.0002394792928526,133.01142038594168
6.57159168,1.0002612522216254,132.85612196647858
6.573878272,1.0002666759419268,132.70063922955586
6.576164864,1.0002555529505046,132.5452069242549
6.578450944,1.0002285112444453,132.39007886398826
6.580737536,1.0001873256895268,132.2354425070715
6.583023616,1.0001345770674408,132.0814889472195
6.585310208,1.0000734254536474,131.92842979102198
6.587596288,1.0000080019643511,131.77626670538547
6.58988288,0.999942348376228,131.62509072933867
6.59216896,0.9998805771787046,131.47483602199657
6.594455552,0.99982672412358,131.3254437378512
6.596742144,0.9997838554006502,131.17679315968894
6.599028224,0.9997551667009389,131.02864230569827
6.601314816,0.9997421526338851,130.88082860520848
6.603600896,0.9997457003571871,130.73309558258163
6.605887488,0.9997657479398457,130.5852361820787
6.608173568,0.9998008326626366,130.43698345378516
6.61046016,0.9998487994404269,130.28811461057887
6.612746752,0.9999066839528659,130.13852269937544
6.615032832,0.9999707983618955,129.98803227208955
6.617319424,1.0000369937258344,129.83664499972588
6.619605504,1.0001011696745707,129.6843045014752
6.621892096,1.0001592559871701,129.53109265324596
6.624178176,1.0002075081855233,129.37711250453228
6.626464768,1.000242907144049,129.2225709293291
6.628750848,1.0002632538593994,129.06761968667556
6.63103744,1.0002671115786508,128.91253046680328
6.633324032,1.0002544317932236,128.75748590006884
6.635610112,1.0002259387044452,128.602775810443
6.637896704,1.0001834160754934,128.44857877526937
6.640182784,1.00012953941181,128.29511968770518
6.642469376,1.0000676755142444,128.14251837793557
6.644755456,1.0000018941441466,127.99085571645938
6.647042048,0.9999361937076685,127.84014413450308
6.649328128,0.9998748110116519,127.69040515856098
6.65161472,0.9998215413135758,127.54150126010056
6.653901312,0.9997799187881662,127.39329251656308
6.656187392,0.999752526064007,127.24564075203769
6.658473984,0.999740922794417,127.09824487142632
6.660760064,0.9997461306613071,126.95094136640692
6.663046656,0.9997675944440626,126.80344425373539
6.665332736,0.9998042949759113,126.65551907348667
6.667619328,0.9998533608353188,126.50703670563786
6.66990592,0.9999122034691206,126.35773671745683
6.672192,0.9999768054296091,126.20758848693411
6.674478592,1.0000432079548258,126.05649345843868
6.676764672,1.0001071549470255,125.90449450939118
6.679051264,1.0001646019330281,125.75158498813765
6.681337344,1.0002120504223613,125.59795174705302
6.683623936,1.000246113782567,125.44374406063459
6.685910016,1.0002651602852326,125.28917058062298
6.688196608,1.0002674895928265,125.13444838255242
6.6904832,1.0002531614864818,124.97983374704494
6.69276928,1.0002232227117924,124.8255666673928
6.695055872,1.0001794511341073,124.67183214057995
6.697341952,1.0001244736161796,124.51884781249176
6.699628544,1.0000618760809008,124.36671113631928
6.701914624,0.9999956266573333,124.21554342113258
6.704201216,0.9999300204755517,124.0653395103449
6.706487808,0.9998690711166562,123.91606662244546
6.708773888,0.9998165335614855,123.7676593553077
6.71106048,0.9997760954494024,123.61993041024174
6.71334656,0.9997499079954385,123.47270091846686
6.715633152,0.999739943039052,123.32576853365066
6.717919232,0.9997467836328789,123.17885078722482
6.720205824,0.99976977483364,123.03174619840922
6.722491904,0.999807748300278,122.88420417093677
6.724778496,0.9998580845145312,122.73606111630644
6.727065088,0.9999177671877851,122.58709463716355
6.729351168,0.999982987430587,122.43727284481699
6.73163776,1.0000495000149394,122.28647663559678
6.73392384,1.0001132675776432,122.13478739327336
6.736210432,1.0001700683831354,121.98222968778592
6.738496512,1.0002164434169438,121.82890266537045
6.740783104,1.000249375209834,121.67504346312467
6.743069696,1.000266888402091,121.52084506919977
6.745355776,1.0002676883260004,121.36651411404647
6.747642368,1.0002518463089762,121.21232337924931
6.749928448,1.0002203912571646,121.05846304363516
6.75221504,1.0001751217499162,120.90520775704266
6.75450112,1.0001191435251064,120.75268374396053
6.756787712,1.0000559540321703,120.60105275757331
6.759073792,0.9999894052320263,120.45037472389093
6.761360384,0.9999237241487969,120.30067532162018
6.763646976,0.9998632050076981,120.15190143860194
6.765933056,0.9998116617268437,120.0039674882195
6.768219648,0.9997721749976904,119.85670843485845
6.770505728,0.9997474644180555,119.70992859380857
6.77279232,0.9997390525280037,119.56339929943546
6.7750784,0.9997474502823306,119.41692483051115
6.777364992,0.9997720010474263,119.27019374277042
6.779651584,0.9998114298208884,119.12302137070745
6.781937664,0.9998629528874301,118.97521078642089
6.784224256,0.9999235723207895,118.82658698157759
6.786510336,0.9999892023593999,118.67707646734466
6.788796928,1.0000559191519869,118.52660457024632
6.791083008,1.0001193863742608,118.37521419923986
6.7933696,1.0001755323135848,118.22298178960797
6.79565568,1.000220832635547,118.07001244272253
6.797942272,1.0002525281875132,117.91650110940317
6.800228864,1.0002684173368503,117.76266161125474
6.802514944,1.0002676481725616,117.60871863302641
6.804801536,1.000250241663607,117.45493060885684
6.807087616,1.0002173006577277,117.30154753399546
6.809374208,1.0001707727275997,117.14874021680586
6.811660288,1.0001137861636251,116.99668175017749
6.81394688,1.0000497701601463,116.84554714481565
6.81623296,0.9999829824099505,116.69536839396531
6.818519552,0.99991744872761,116.5461617860933
6.820806144,0.9998573422772598,116.39788650930497
6.823092224,0.9998066774248286,116.25043849606745
6.825378816,0.9997684304384025,116.10365442841214
6.827664896,0.9997451640642938,115.95732048481027
6.829951488,0.9997382769225429,115.81123868100119
6.832237568,0.9997482786736157,115.66513308232051
6.83452416,0.9997744103006332,115.51880766752666
6.836810752,0.9998152049426818,115.37198414289324
6.839096832,0.999867997210854,115.22450398656848
6.841383424,0.9999293953074717,115.07622743128832
6.843669504,0.999995509550852,114.92702105991452
6.845956096,1.000062325816706,114.77687724799243
6.848242176,1.0001254610362345,114.62580507918283
6.850528768,1.000180924184397,114.47388510193665
6.852814848,1.0002252131538893,114.32125913090707
6.85510144,1.0002555519677416,114.16809604728442
6.857388032,1.000270059890763,114.01462337634527
6.859674112,1.0002675024136791,113.86108915075701
6.861960704,1.000248529396404,113.70772932184475
6.864246784,1.0002140568302822,113.55476131965445
6.866533376,1.0001662282220185,113.40241639094073
6.868819456,1.0001082421995808,113.25085741180712
6.871106048,1.000043597669936,113.10018925421261
6.87339264,0.9999764531186639,112.9504969680194
6.87567872,0.9999111143684857,112.80181980294284
6.877965312,0.9998516728673004,112.65403804018597
6.880251392,0.999801739388472,112.5070629528154
6.882537984,0.9997647619329958,112.36072903964956
6.884824064,0.9997429675144662,112.21486885652617
6.887110656,0.9997376521185559,112.06919849679406
6.889396736,0.9997492574827866,111.92349802460367
6.891683328,0.999777058457764,111.77755884958879
6.89396992,0.9998192532794248,111.63110362401186
6.896256,0.9998731741057271,111.48394443093694
6.898542592,0.9999355097703678,111.33598952634547
6.900828672,1.0000021773923722,111.18710417227484
6.903115264,1.000068850021432,111.03726327848746
6.905401344,1.0001316606495343,110.8865169226053
6.907687936,1.0001863843003695,110.73489845989192
6.909974528,1.000229499939143,110.58261481443931
6.912260608,1.0002585495870537,110.42980524937089
6.9145472,1.0002713582902922,110.27670462397606
6.91683328,1.0002672764088074,110.12357344716334
6.919119872,1.0002466847451748,109.97062208503147
6.921405952,1.0002107006013266,109.81811408811285
6.923692544,1.0001616482614217,109.66622095422986
