freq,mag,phase
6.0,0.999944120058196,-115.51296032897562
6.041451008,0.9999329032764153,-117.66040458402071
6.082901504,0.9999229971331608,-119.80763003838753
6.124352512,0.9999138206605461,-121.9546359379225
6.165803008,0.9999055100601919,-124.10127557885197
6.207254016,0.9998979210323341,-126.24755203262234
6.248704512,0.9998914712460513,-128.39346964882816
6.29015552,0.9998860154158828,-130.53885413109677
6.331606016,0.9998815837776341,-132.6837593398179
6.373057024,0.9998782532911672,-134.82809799326242
6.41450752,0.9998761299797204,-136.97181617489466
6.455958528,0.9998752936176749,-139.11489301571788
6.497409536,0.9998755072726094,-141.25723881616196
6.538860032,0.9998770193757942,-143.39884422764544
6.58031104,0.9998796723344423,-145.53965385667422
6.621761536,0.9998835178716754,-147.67960617730157
6.663212544,0.9998885287624437,-149.8186728863877
6.70466304,0.9998946094304721,-151.95680711766389
6.746114048,0.9999016886389027,-154.09396863153094
6.787564544,0.9999097285708116,-156.2301203173569
6.829015552,0.9999188003060551,-158.36519522910413
6.87046656,0.9999285828187363,-160.49917688339548
6.911917056,0.9999390986457193,-162.63201714505112
6.953368064,0.9999502530239002,-164.76365112918478
6.99481856,0.9999618267024816,-166.8940583232924
7.036269568,0.9999738689451496,-169.02318585496363
7.077720064,0.999986197573093,-171.15104241960012
7.119171072,0.9999986741506093,-173.27751566358293
7.160621568,1.0000111496509019,-175.40259801293095
7.202072576,1.0000236456740978,-177.5262763866508
7.243523072,1.0000358699307128,-179.6484598204061
7.28497408,1.0000477868117663,178.23083671121188
7.326425088,1.000059121143489,176.11170403027563
7.367875584,1.0000701322119272,173.99412787578157
7.409326592,1.0000802642131763,171.87821886691745
7.450777088,1.0000897394909185,169.7639244655482
7.492228096,1.0000984063887501,167.65133750171105
7.533678592,1.000105879676971,165.54048073889774
7.5751296,1.000112454006066,163.43138205927502
7.616580096,1.000117933677245,161.32408962786477
7.658031104,1.0001222810747166,159.218623181891
7.699482112,1.0001252879158342,157.11501176059687
7.740932608,1.000127158116278,155.01330273725122
7.782383616,1.0001277559010557,152.9135211283168
7.823834112,1.0001269304015452,150.81568806542376
7.86528512,1.0001248995073166,148.71982348950445
7.906735616,1.0001216185002038,146.62597896301153
7.948186624,1.0001171360002827,144.53418569130793
7.98963712,1.0001114286248611,142.44443871730823
8.031088128,1.0001044546320377,140.35675908860767
8.072538624,1.0000965683134155,138.27117634188315
8.113989632,1.0000875721121638,136.1877280707541
8.15544064,1.0000776507667761,134.10640599428703
8.196891136,1.0000669183411934,132.02722775583945
8.238342144,1.0000553511036498,129.95023968571235
8.27979264,1.0000432911872912,127.87542842440318
8.321243648,1.0000306677327053,125.8028032531665
8.362694144,1.0000177369259926,123.73235254168459
8.404145152,1.0000045936015143,121.66413506610705
8.445595648,0.9999912256364414,119.5981002853778
8.487046656,0.9999778749485663,117.53428436671618
8.528497664,0.9999647359463492,115.47269926024035
8.56994816,0.9999518103270799,113.4133049270002
8.611398656,0.9999393120706953,111.35613810860717
8.652850176,0.9999273826355356,109.30117360171451
8.694300672,0.9999160223441721,107.24839157270958
8.735751168,0.999905624091817,105.19780093907096
8.777201664,0.9998960056244822,103.14939346076966
8.818653184,0.9998874265705523,101.10313339534754
8.86010368,0.9998799403074725,99.05904562422319
8.901554176,0.9998736385406393,97.01707478924384
8.943004672,0.9998685544591127,94.97724735008993
8.984456192,0.9998647612579454,92.93951863988066
9.025906688,0.9998622111479153,90.90386414219714
9.067357184,0.9998611697117813,88.87026158223199
9.108808704,0.9998614303706298,86.8387099312096
9.1502592,0.999863176381159,84.80918100984141
9.191709696,0.999866319186187,82.78164104619387
9.233160192,0.9998707310247669,80.75606498393184
9.274611712,0.9998765756893473,78.73244364765182
9.316062208,0.999883556980438,76.71072415274409
9.357512704,0.9998918550973032,74.69091507649173
9.398964224,0.9999012776584997,72.67295195145422
9.44041472,0.9999117176539888,70.656836238985
9.481865216,0.9999230816894578,68.64252644347697
9.523315712,0.9999352744283226,66.62998787992896
9.564767232,0.9999482279679953,64.61923792453469
9.606217728,0.9999617532660118,62.61017768933731
9.647668224,0.9999756475259045,60.60282920818209
9.68911872,0.9999898626539601,58.59714926375814
9.73057024,1.000004319232591,56.59311175149216
9.772020736,1.0000187432658212,54.590684022518104
9.813471232,1.0000329748408614,52.58985717716414
9.854922752,1.0000470200832656,50.590571421801464
9.896373248,1.000060614645086,48.592831795772874
9.937823744,1.0000735707361796,46.5965955643327
9.97927424,1.0000858331040186,44.601843743528484
10.02072576,1.0000972674023885,42.60855062544703
10.062176256,1.0001077448638602,40.616673896951376
10.103626752,1.0001170760269849,38.62619791880416
10.145077248,1.0001252696881486,36.637121216437386
10.186528768,1.0001323207894728,34.649380814703996
10.227979264,1.000137805455826,32.66296636365621
10.26942976,1.0001420427841108,30.67785746665368
10.31088128,1.0001447005496418,28.69402008709161
10.352331776,1.0001459016813974,26.711431671805773
10.393782272,1.0001455572452054,24.730050285127803
10.435232768,1.00014372182429,22.749898952148325
10.476684288,1.000140267612034,20.770895050460886
10.518134784,1.0001353794632872,18.79303980272638
10.55958528,1.0001291007759783,16.816301685365236
10.601035776,1.0001212685145797,14.840661215494746
10.642487296,1.0001122278146761,12.866068324873636
10.683937792,1.000101863560727,10.89249567038132
10.725388288,1.0000904108480924,8.91992327620534
10.766839808,1.0000779308316985,6.9483337826866665
10.808290304,1.000064529374697,4.977661223337675
10.8497408,1.0000503695116558,3.007905114912681
10.891191296,1.00003561583716,1.0389989684601824
10.932642816,1.0000203608293634,-0.9290545223608172
10.974093312,1.0000047918059451,-2.896330283439891
11.015543808,0.9999890525031646,-4.862846127613179
11.056995328,0.9999732329404841,-6.828636175002223
11.098445824,0.999957634521714,-8.7937606227912
11.13989632,0.9999423529336796,-10.758224537938402
11.181346816,0.9999276782683566,-12.722104475340814
11.222798336,0.9999136091890302,-14.685417413312758
11.264248832,0.9999002447959102,-16.64825399510117
11.305699328,0.9998879431128374,-18.61059312006956
11.347149824,0.9998765603149924,-20.572524358668012
11.388601344,0.9998665127110976,-22.53408257653956
11.43005184,0.9998576962403678,-24.49531550584465
11.471502336,0.9998503441285607,-26.456265237233257
11.512953856,0.9998445522350674,-28.41700799041831
11.554404352,0.9998401858927413,-30.377552898115464
11.595854848,0.999837531430553,-32.337983617673814
11.637305344,0.9998365156952416,-34.298331263723036
11.678756864,0.9998371957973761,-36.25863828549689
11.72020736,0.9998396368613525,-38.21897695264992
11.761657856,0.999843677792241,-40.17937762621404
11.803108352,0.9998493580480154,-42.13992036339328
11.844559872,0.9998566270880164,-44.10061661166926
11.886010368,0.9998654743647093,-46.06154108970875
11.927460864,0.9998757667689527,-48.02272817581833
11.968912384,0.9998873560487326,-49.98424061092844
12.01036288,0.9999002588270899,-51.946115526447066
12.051813376,0.9999141903270191,-53.9084084358241
12.093263872,0.9999291653307572,-55.87115343639703
12.134715392,0.9999449103902184,-57.834392295313044
12.176165888,0.9999614046567706,-59.798184562398326
12.217616384,0.9999783280676569,-61.76256521530849
12.25906688,0.9999957449097642,-63.72758825254441
12.3005184,1.0000131125809806,-65.69326946049092
12.341968896,1.0000305908010172,-67.65965178836906
12.383419392,1.0000477665947018,-69.62679653249627
12.424870912,1.0000646178551977,-71.59470516690156
12.466321408,1.0000809156517063,-73.56344041153321
12.507771904,1.0000964712269829,-75.53304095097376
12.5492224,1.000111155380822,-77.50350822263425
12.59067392,1.0001246699805704,-79.47489200972628
12.632124416,1.0001371737281224,-81.44721666538398
12.673574912,1.0001481866594513,-83.42052634668961
12.715025408,1.0001578525170935,-85.3948365702359
12.756476928,1.0001658488637675,-87.3701645719935
12.797927424,1.000172215438275,-89.34654776685169
12.83937792,1.0001769147747712,-91.32402016192732
12.88082944,1.00017977624459,-93.30257585463264
12.922279936,1.000180773734428,-95.2822735088428
12.963730432,1.0001798023494457,-97.2631045585581
13.005180928,1.0001770340893656,-99.2451077424743
13.046632448,1.0001724319088316,-101.22829131541242
13.088082944,1.0001660486283337,-103.21270068003658
13.12953344,1.0001577458457112,-105.1983215031647
13.17098496,1.0001477983090263,-107.18520389303914
13.212435456,1.000136240712362,-109.17335960231281
13.253885952,1.0001232306496002,-111.16278715511847
13.295336448,1.0001086790660467,-113.15354718892631
13.336787968,1.0000929088761812,-115.14563573743324
13.378238464,1.0000760733643428,-117.1390715619482
13.41968896,1.000058284637949,-119.13388090672484
13.461139456,1.0000397313284737,-121.13008555320184
13.502590976,1.000020505615338,-123.12768663336549
13.544041472,1.0000008932499351,-125.12674019480924
13.585491968,0.9999810357068493,-127.12724716102628
13.626943488,0.999961276267162,-129.12923834051531
13.668393984,0.999941576334499,-131.13272087462497
13.70984448,0.9999223139196967,-133.13776338611788
13.751294976,0.9999036883354008,-135.14431985420475
13.792746496,0.9998857242840511,-137.15246330443895
13.834196992,0.9998686544801928,-139.16220923364637
13.875647488,0.9998528551875171,-141.17357889455482
13.917097984,0.9998384089483261,-143.18658895924384
13.958549504,0.9998254033694058,-145.20127300478774
14.0,0.9998138673070216,-147.2176749755014
