freq,mag,phase
6.0,1.0001948766983935,116.87801169219316
6.002286592,1.000044986317688,116.71390525629596
6.004572672,0.9998929636383955,116.55195032219709
6.006859264,0.9997473184629556,116.39223559519081
6.009145344,0.9996174857954512,116.23453936288364
6.011431936,0.9995115628332699,116.07854570534414
6.013718016,0.9994362690621011,115.92395326735725
6.016004608,0.9993962847518659,115.77021532701912
6.018290688,0.9993944710172536,115.61680280487754
6.02057728,0.9994307298000864,115.46316965131285
6.022863872,0.9995027586268734,115.30880976039819
6.025149952,0.9996061987177719,115.15317003326925
6.027436544,0.9997343038597747,114.9959219243255
6.029722624,0.9998793531902526,114.83670980553028
6.032009216,1.000031803532135,114.67536243504917
6.034295296,1.000182205211919,114.51184935727701
6.036581888,1.0003211598182533,114.34627147180453
6.03886848,1.0004396545031393,114.17884943756873
6.04115456,1.0005304581393324,114.00993964946608
6.043441152,1.00058765675422,113.83997181165007
6.045727232,1.0006077128523483,113.66948073826167
6.048013824,1.0005891938953415,113.49902524700522
6.050299904,1.000533435011711,113.32910674924213
6.052586496,1.0004437663491552,113.160274670657
6.054872576,1.0003258628049843,112.99299350627021
6.057159168,1.000187169662785,112.82757224686225
6.05944576,1.000036416652317,112.6643060615315
6.06173184,0.9998831590280984,112.50327016068194
6.064018432,0.9997368858317432,112.34441263298935
6.066304512,0.9996069701323699,112.18761503430919
6.068591104,0.9995017782184942,112.03254538456169
6.070877184,0.9994277046462684,111.87880570657953
6.073163776,0.9993896401453882,111.72594031735298
6.075450368,0.9993899153578206,111.5733634032062
6.077736448,0.9994285866267485,111.42053497421148
6.08002304,0.9995033789088423,111.26690532817814
6.08230912,0.9996094150648837,111.11200554313051
6.084595712,0.9997399586679018,110.95541601870552
6.086881792,0.9998869302658748,110.79685400702537
6.089168384,1.000040961763451,110.63611758475993
6.091454464,1.0001924215131368,110.47318597063952
6.093741056,1.0003315393212162,110.30818622647888
6.096027648,1.0004497876881313,110.1413666517346
6.098313728,1.0005394672375254,109.97304744600557
6.10060032,1.0005950511666344,109.80370744720722
6.1028864,1.0006130525068153,109.63387004819847
6.105172992,1.0005920898218703,109.46405644901522
6.107459072,1.0005336479763287,109.29485017712946
6.109745664,1.0004413375490873,109.12676965678826
6.112032256,1.0003209210326711,108.96026100864013
6.114318336,1.0001799901956567,108.79566333977206
6.116604928,1.0000274015187778,108.6332054503141
6.118891008,0.9998727878181178,108.47302560690243
6.1211776,0.9997259451085905,108.31507246311449
6.12346368,0.9995962341032733,108.1591565255243
6.125750272,0.9994916231013028,108.00495180873723
6.128036352,0.9994190625921956,107.85207797739221
6.130322944,0.9993828356028027,107.70002588153565
6.132609536,0.9993855563114802,107.54822937774018
6.134895616,0.999426891642865,107.396182288726
6.137182208,0.9995043424901883,107.2432719102729
6.139468288,0.9996129528151873,107.08906729057372
6.14175488,0.9997459673579543,106.93310873858196
6.14404096,0.9998949883303762,106.77513575472297
6.146327552,1.000050639420684,106.61499493376189
6.148614144,1.0002028581072515,106.45262819870732
6.150900224,1.0003423179965305,106.28819712686516
6.153186816,1.0004600604462117,106.12191069480353
6.155472896,1.000548659958499,105.95416231022979
6.157759488,1.0006025735318047,105.78541101505009
6.160045568,1.0006183430121653,105.61617782186936
6.16233216,1.0005947871754521,105.44701423520881
6.16461824,1.000533677787408,105.27847956138179
6.166904832,1.0004386277119395,105.11113077080174
6.169191424,1.0003156147373626,104.94537140917217
6.171477504,1.0001724383137518,104.78155424404483
6.173764096,1.0000180151558817,104.61995995041661
6.176050176,0.9998621620437562,104.46058091770348
6.178336768,0.9997147572998494,104.30348388454699
6.180622848,0.9995851857191704,104.14839390190208
6.18290944,0.9994814243661375,103.99507223098809
6.18519552,0.9994102242942752,103.84301682650275
6.187482112,0.9993761281301775,103.69175019091436
6.189768704,0.999381164625381,103.54076127130293
6.192054784,0.9994253053492876,103.38940535788952
6.194341376,0.99950546817068,103.23720442567421
6.196627456,0.9996168890815353,103.08363408567169
6.198914048,0.9997523057145354,102.92829716105277
6.201200128,0.999903365040553,102.77092926887028
6.20348672,1.0000605097111115,102.61129820957967
6.205773312,1.0002137018396149,102.44947153179284
6.208059392,1.000353259115885,102.28557372663626
6.210345984,1.0004704844752093,102.11979579920433
6.212632064,1.0005580135733316,101.95259381327998
6.214918656,1.0006100897322057,101.78436671666068
6.217204736,1.0006235376576214,101.61570868120299
6.219491328,1.0005973804644832,101.44718022631709
6.221777408,1.0005334176283218,101.2792994775138
6.224064,1.0004355073087488,101.11261555560579
6.226350592,1.000309891682206,100.94759295821419
6.228636672,1.0001644066238355,100.78453298294917
6.230923264,1.0000081415675801,100.62371715045856
6.233209344,0.9998511201750531,100.46521269346754
6.235495936,0.9997032745298257,100.30891458471912
6.237782016,0.9995736706861725,100.15467151238258
6.240068608,0.999470988407117,100.0021423274775
6.2423552,0.9994013376388643,99.85089920552213
6.24464128,0.9993693012102416,99.70042428193969
6.246927872,0.9993768777021571,99.55015360690014
6.249213952,0.999423696732088,99.39950458247772
6.251500544,0.9995068884966736,99.24795438210924
6.253786624,0.9996210263061079,99.09500053725584
6.256073216,0.9997591275215468,98.9402390442541
6.258359296,0.9999121703996824,98.78339308678288
6.260645888,1.000070699763164,98.62429097064381
6.26293248,1.000224803436069,98.46295868735015
6.26521856,1.00036458717592,98.29951732295349
6.267505152,1.0004813235817462,98.13424301324616
6.269791232,1.0005674154538935,97.96752025212605
6.272077824,1.0006175897331624,97.79982627041602
6.274363904,1.0006285995151938,97.63171964365642
6.276650496,1.000599828558116,97.46377466680444
6.278937088,1.0005330269377246,97.29649454371949
6.281223168,1.0004321978860522,97.13050074437541
6.28350976,1.0003038530733677,96.96616127139862
6.28579584,1.0001559757099325,96.80389897392797
6.288082432,0.999997928986148,96.6437987725519
6.290368512,0.999839739864488,96.48608156368334
6.292655104,0.9996912189503071,96.33060392200476
6.294941184,0.999562030887269,96.17716599386395
6.297227776,0.999460200500335,96.02540903196834
6.299514368,0.9993922361358909,95.87496287249522
6.301800448,0.9993623990301075,95.72519740198335
6.30408704,0.9993726534893892,95.57564986952458
6.30637312,0.9994223939106626,95.4256650364701
6.308659712,0.9995085540767216,95.2747311261769
6.310945792,0.9996254471897428,95.12235781212746
6.313232384,0.9997660431520564,94.96812962341853
6.315518464,0.9999213283534415,94.81176825842627
6.317805056,1.0000813821548307,94.65315261748721
6.320091648,1.0002362489755527,94.49228325862786
6.322377728,1.0003761033501786,94.32929403078504
6.32466432,1.0004921435544554,94.16447666741921
6.3269504,1.000576937709339,93.99820757159354
6.329236992,1.0006251991010837,93.83101937523885
6.331523072,1.0006337629553386,93.66340608314957
6.333809664,1.0006021553748166,93.49601480046422
6.336096256,1.0005322530723688,93.32935224078167
6.338382336,1.000428587118714,93.16400209602072
6.340668928,1.000297410570153,93.00034517802578
6.342955008,1.0001471578625207,92.83875431830543
6.3452416,0.9999874137951843,92.67942387597421
6.34752768,0.9998280024060676,92.52244482029909
6.349814272,0.9996791041272841,92.36776488672221
6.352100352,0.999550203744091,92.21508087597458
6.354386944,0.9994494103580023,92.0640869814528
6.356673536,0.999383156635432,91.9143677896481
6.358959616,0.9993556599461382,91.76534849838205
6.361246208,0.9993685604974621,91.61645594237275
6.363532288,0.9994213283601413,91.467095523454
6.36581888,0.9995103619842601,91.31676729042117
6.36810496,0.999630281050704,91.16490053461521
6.370391552,0.999773450406027,91.01118307015001
6.372678144,0.9999308646152818,90.85528938050714
6.374964224,1.0000925007981498,90.69711530188756
6.377250816,1.0002480820085484,90.5366625878923
6.379536896,1.0003880101285711,90.37408624222023
6.381823488,1.0005034429100301,90.2096499106527
6.384109568,1.0005866832256602,90.04382724432409
6.38639616,1.0006328005553131,89.87708305608756
6.38868224,1.000638788930897,89.70995889231357
6.390968832,1.0006043784127427,89.5430889074728
6.393255424,1.0005313347776126,89.3769972239327
6.395541504,1.0004246501526308,89.21222582270111
6.397828096,1.0002906631530715,89.0492325984114
6.400114176,1.0001380616413027,88.88831814287855
6.402400768,0.9999764471321693,88.72974656932733
6.404686848,0.9998158588397091,88.5734956789106
6.40697344,0.9996666086600672,88.41949690856025
6.409260032,0.9995381828083645,88.26759104867317
6.411546112,0.9994384561315248,88.11737401677792
6.413832704,0.9993739686823192,87.968319398472
6.416118784,0.9993488647150247,87.81997757338723
6.418405376,0.9993646478891668,87.67170449773987
6.420691456,0.9994205262921934,87.52297203740066
6.422978048,0.9995126562095946,87.37316077161594
6.425264128,0.9996356119494553,87.2218216696646
6.42755072,0.9997813342835703,87.0685408445333
6.429837312,0.9999408363503469,86.91308448939179
6.432123392,1.000104021742827,86.75529886196873
6.434409984,1.0002604301969382,86.59523571356128
6.436696064,1.0004002407798913,86.43300656158208
6.438982656,1.000514679193288,86.26898805695669
6.441268736,1.0005965182078516,86.1035451172634
6.443555328,1.0006405477077658,85.93718339002594
6.44584192,1.0006438331433578,85.77055290064216
6.448128,1.0006062559045397,85.60415278180986
6.450414592,1.0005302200816122,85.43861442580993
6.452700672,1.0004202774883175,85.27440253915763
6.454987264,1.000283612024596,85.11204277330596
6.457273344,1.0001285161849884,84.9517846896521
6.459559936,0.9999651093762105,84.79387243493711
6.461846016,0.9998034200144482,84.63833027140369
6.464132608,0.9996538400866436,84.4850797434347
6.4664192,0.9995257808607024,84.33386533692519
6.46870528,0.9994273081019168,84.18431289394326
6.470991872,0.9993647549655205,84.0359577566334
6.473277952,0.9993421974209991,83.88824570741271
6.475564544,0.999360875909096,83.74059296337543
6.477850624,0.9994197792137829,83.59242623749687
6.480137216,0.999515138093027,83.44313365556211
6.482423296,0.9996411033806838,83.2922346453327
6.484709888,0.9997896142480458,83.13939914411833
6.48699648,0.9999511677776184,82.98432365649128
6.48928256,1.0001157268170953,82.82688883265496
6.491569152,1.0002729415287661,82.66712102942235
6.493855232,1.0004127360113433,82.50526094191106
6.496141824,1.000526318090672,82.3415663107731
6.498427904,1.0006064510150336,82.17647264957232
6.500714496,1.0006482108456936,82.01053629415857
6.503001088,1.0006488177800303,81.84427413930922
6.505287168,1.0006080893237388,81.67834529579237
6.50757376,1.0005288214003092,81.51330087540656
6.50985984,1.0004158122762914,81.34964700205191
6.512146432,1.00027615439648,81.18785513637916
6.514432512,1.0001187004043277,81.0282553550119
6.516719104,0.999953411487467,80.87098197476442
6.519005184,0.999790667774673,80.71612726727054
6.521291776,0.9996407614240571,80.56354523961011
6.523578368,0.9995132377380839,80.41303222416578
6.525864448,0.9994160448292293,80.26412950708391
6.52815104,0.9993555731878069,80.11644609111191
6.53043712,0.999335529513006,79.96933050996327
6.532723712,0.9993572383009718,79.8222551187482
6.535009792,0.9994194392763625,79.6745834511185
6.537296384,0.9995181664900635,79.52576418359568
6.539582976,0.9996471270200095,79.37528223132253
6.541869056,0.9997982137416611,79.22281134550379
6.544155648,0.9999619761699371,79.06809645924979
6.546441728,1.0001280828103736,78.91097258066556
6.54872832,1.000285849904763,78.75152060149803
6.5510144,1.000425450819142,78.58993061438467
6.553300992,1.0005381255240018,78.42652079119308
6.555587072,1.0006166025724135,78.26178009641883
6.557873664,1.0006558772238827,78.09614571927517
6.560160256,1.000653635512025,77.93030244815556
6.562446336,1.00060978977465,77.76479164165058
6.564732928,1.000527139375789,77.60020032716668
6.567019008,1.0004109572912274,77.43706340457638
6.5693056,1.0002683643879218,77.27582691869503
6.57159168,1.0001085336582574,77.11680463417746
6.573878272,0.999941438611752,76.96017996810988
6.576164864,0.9997776099263924,76.80596929269201
6.578450944,0.9996274729095389,76.65402911562187
6.580737536,0.9995005177476858,76.50414561575165
6.583023616,0.9994048364173659,76.35592946284662
6.585310208,0.9993464452713645,76.20880980487382
6.587596288,0.9993290972574467,76.06229797946787
6.58988288,0.99935386154317,75.91572654475051
6.59216896,0.9994193564554344,75.768523551206
6.594455552,0.9995212950149439,75.62014281105567
6.596742144,0.9996534428427759,75.47008058101001
6.599028224,0.9998073008838219,75.31794186870593
6.601314816,0.9999731669249605,75.1634974209544
6.603600896,1.000140682672184,75.0066366554817
6.605887488,1.0002991683096922,74.84745996390932
6.608173568,1.0004384751143898,74.68612763700904
6.61046016,1.0005501320275574,74.52297764807818
6.612746752,1.0006268043250313,74.35848874473845
6.615032832,1.0006636105196471,74.19318272148037
6.617319424,1.0006583216224219,74.02767090021663
6.619605504,1.0006111629374999,73.86255598356055
6.621892096,1.0005251955488637,73.69840872907486
6.624178176,1.0004056246602107,73.5357497729447
6.626464768,1.0002601254874934,73.37505151286103
6.628750848,1.0000977399729418,73.21659776263556
6.63103744,0.9999288631676735,73.06055494781829
6.633324032,0.999764042038756,72.90695833160777
6.635610112,0.9996137035100499,72.75565271412759
6.637896704,0.999487454458644,72.60638243385672
6.640182784,0.9993931916302744,72.4587632202909
6.642469376,0.9993369944580648,72.31222630370625
6.644755456,0.9993224373283467,72.16621366934075
6.647042048,0.999350480478444,72.02016183053735
6.649328128,0.9994193393401063,71.87340235685754
6.65161472,0.9995247182817448,71.72539615844055
6.653901312,0.9996600091569238,71.5756604108767
6.656187392,0.9998166647735565,71.42381927555621
6.658473984,0.9999846058723875,71.26964667793024
6.660760064,1.0001535113406375,71.11303301785055
6.663046656,1.0003125807281508,70.95405090055557
6.665332736,1.000451698779043,70.7929423236456
6.667619328,1.000562149943046,70.630005723847
6.66990592,1.0006368719240593,70.46574732113122
6.672192,1.0006711467814995,70.3007327760619
6.674478592,1.0006629014679727,70.135508778322
6.676764672,1.0006123680407344,69.97074908061688
6.679051264,1.0005228721660226,69.80701033438517
6.681337344,1.0004000244837112,69.6448153387873
6.683623936,1.0002515181796603,69.48461949772499
6.685910016,1.000086717150386,69.32668455964266
6.688196608,0.9999159665231002,69.17120063246213
6.6904832,0.9997502124702958,69.01819377005667
6.69276928,0.9995996698930313,68.86747367510198
6.695055872,0.9994741978568681,68.71880136220878
6.697341952,0.9993815653585271,68.57173195056838
6.699628544,0.9993277036326148,68.42573157721206
6.701914624,0.9993159730768151,68.28022881627325
6.704201216,0.9993473258254615,68.13459995474798
6.706487808,0.9994196582242599,67.98826091237922
6.708773888,0.9995285182920824,67.84060073561895
6.71106048,0.9996669876085661,67.69115062459669
6.71334656,0.9998263197210161,67.53956091033054
6.715633152,0.9999965108101246,67.38560631528293
6.717919232,1.000166827021874,67.22917951724564
6.720205824,1.000326352349752,67.07038756370201
6.722491904,1.000465058926972,66.90942655827651
6.724778496,1.0005743490388328,66.74667961110477
6.727065088,1.0006470705597499,66.58263199471591
6.729351168,1.0006787749000667,66.41784863375831
6.73163776,1.0006672417660463,66.25289983971787
6.73392384,1.000613349400059,66.08845277744481
6.736210432,1.0005202641770943,65.92508225539626
6.738496512,1.0003941105192113,65.76329884283959
6.740783104,1.000242504606867,65.60356531721642
6.743069696,1.0000752160289361,65.44613459636666
6.745355776,0.9999027333781374,65.29117926131875
6.747642368,0.9997359755423325,65.1387083124683
6.749928448,0.9995854435976826,64.98857919067679
6.75221504,0.9994608458199874,64.84044264932204
6.75450112,0.9993698665591545,64.69388869096368
6.756787712,0.9993183370563437,64.54840200882546
6.759073792,0.9993096576989764,64.40336124320685
6.761360384,0.9993444345736959,64.25814621305682
6.763646976,0.9994203459056392,64.11213619648873
6.765933056,0.9995326219860805,63.96478415512011
6.768219648,0.999674403123506,63.81561030695044
6.770505728,0.9998365293995245,63.66423879030675
6.77279232,1.0000088661573903,63.51043993685281
6.7750784,1.0001804040798117,63.3541521059466
6.777364992,1.0003404992224516,63.19547936436969
6.779651584,1.0004787816685854,63.03466692738821
6.781937664,1.0005867260321852,62.87205618748059
6.784224256,1.000657406433473,62.70816985886803
6.786510336,1.0006862482413363,62.54356592295383
6.788796928,1.000671457164851,62.37887990520523
6.791083008,1.0006140689453717,62.21470998220296
6.7933696,1.00051738619955,62.05168142121834
6.79565568,1.000387743023487,61.890286492084726
6.797942272,1.0002331746791175,61.73097481411099
6.800228864,1.0000633419966203,61.57400633798681
6.802514944,0.9998891479963593,61.41956919095587
6.804801536,0.9997215354843306,61.26763094973436
6.807087616,0.9995709547337829,61.11799192378913
6.809374208,0.9994471764097036,60.97037104596425
6.811660288,0.999358000725666,60.824322168082695
6.81394688,0.9993090628502056,60.679283871997264
6.81623296,0.9993034578227622,60.53466706986259
6.818519552,0.9993416256644636,60.38981011570348
6.820806144,0.999421233817775,60.24414199535238
6.823092224,0.9995371576261834,60.09703660399325
6.825378816,0.9996821801846736,59.94807040703382
6.827664896,0.999847141378639,59.79685921830351
6.829951488,1.0000215853511902,59.64319530426293
6.832237568,1.0001945131185452,59.48700935477092
6.83452416,1.0003549422311977,59.328419545874304
6.836810752,1.0004928198312784,59.16769236299871
6.839096832,1.0005992912415889,59.00519388654789
6.841383424,1.000667734158107,58.841415417913765
6.843669504,1.0006938463280426,58.67698355558067
6.845956096,1.0006756462004271,58.51249549426767
6.848242176,1.0006146030432437,58.348572931277275
6.850528768,1.0005142897822685,58.18583362731348
6.852814848,1.0003810673028544,58.024805081314184
6.85510144,1.0002233594335852,57.865879752482144
6.857388032,1.0000511528249916,57.70937801240709
6.859674112,0.9998752114311175,57.55538628020041
6.861960704,0.9997066247888269,57.40391696680546
6.864246784,0.9995562572729652,57.25476961096069
6.866533376,0.9994334547211168,57.107655536234084
6.868819456,0.9993460814446803,56.96203819563769
6.871106048,0.9992996944264482,56.81743381786196
6.87339264,0.9992973405413113,56.67318998474065
6.87567872,0.9993390109208143,56.52868316503703
6.877965312,0.9994223445994468,56.38327403261604
6.880251392,0.999541936723745,56.236402587295785
6.882537984,0.9996903139023283,56.08759949780054
6.884824064,0.9998580628276287,55.936502566792676
6.887110656,1.0000346556716002,55.78292938897449
6.889396736,1.0002088390841557,55.62679779796227
6.891683328,1.0003696810115958,55.46827070707962
6.89396992,1.0005069173625993,55.30756029766623
6.896256,1.0006119613542228,55.145118872278736
6.898542592,1.0006781065676138,54.98143396178955
6.900828672,1.0007011891759219,54.81711142291983
6.903115264,1.0006796340661075,54.65278883630837
6.905401344,1.0006148681267593,54.489092306017376
6.907687936,1.000510777231488,54.326612578402084
6.909974528,1.0003740899708584,54.165918518598545
6.912260608,1.0002133408554557,54.00735148524706
6.9145472,1.0000385571336876,53.8512352070049
6.91683328,0.9998609836049841,53.6976911509104
6.919119872,0.9996915611665196,53.546657477726754
6.921405952,0.9995412764441881,53.397990805536246
6.923692544,0.999419612488525,53.251300727289
6.925978624,0.9993342083283644,53.10611515106461
6.928265216,0.9992905171585977,52.96188908069804
6.930551808,0.999291393495131,52.81798451853924
6.932837888,0.999336719326572,52.67375472632104
6.93512448,0.9994238619979974,52.52859248905811
