freq,mag,phase
6.0,0.999950148609369,125.2410976185881
6.002288128,0.9996433873780255,125.09594521508079
6.004576768,0.9993591168187635,124.95513054306294
6.006864896,0.9991158160852956,124.81821859093785
6.009153536,0.9989286876317445,124.68448042095426
6.011441664,0.9988096709261338,124.5530497289551
6.013729792,0.9987665668844402,124.42282745521959
6.016018432,0.9988018462901098,124.29269743654017
6.01830656,0.9989135655358717,124.16155833932893
6.0205952,0.9990943588389551,124.0283398976244
6.022883328,0.9993331632243875,123.8921104620761
6.025171456,0.9996144711725156,123.75213533734559
6.027460096,0.9999205604149648,123.60792653480688
6.029748224,1.0002320255942099,123.45923474493927
6.032036864,1.000529162610718,123.30622166865182
6.034324992,1.000793060635531,123.14916932135507
6.03661312,1.0010070934246282,122.98869562081727
6.03890176,1.0011576174563357,122.8255923846501
6.041189888,1.0012351904867827,122.66089041193938
6.043478016,1.0012349233620519,122.495666012606
6.045766656,1.001156782784114,122.33107437543842
6.048054784,1.0010055615662905,122.16816142158694
6.050343424,1.0007908653946787,122.00792243499777
6.052631552,1.000526250292648,121.8512574961412
6.05491968,1.0002284472358458,121.69869830206466
6.05720832,0.9999161536762794,121.55060800083471
6.059496448,0.9996093933152315,121.40702562875187
6.061785088,0.9993275624630886,121.26783631971229
6.064073216,0.999088486209168,121.1324522112078
6.066361344,0.9989074536250603,121.00017373406291
6.068649984,0.9987958880554536,120.87007834728954
6.070938112,0.9987610435337834,120.74108537723919
6.073226752,0.9988050532558772,120.61211414684979
6.07551488,0.9989253142197007,120.48195729779115
6.077803008,0.9991137210331472,120.34958647210075
6.080091648,0.9993590558684841,120.2141157884196
6.082379776,0.9996452400378213,120.07483345969214
6.084668416,0.9999542432850964,119.93125084586282
6.086956544,1.0002665158271804,119.78317509850973
6.089244672,1.0005622025152114,119.63075940105854
6.091533312,1.0008226093581172,119.47429055632966
6.09382144,1.0010312619894288,119.31452352930214
6.09611008,1.0011749194880124,119.15221058819303
6.098398208,1.0012444433514425,118.98840567518589
6.100686336,1.001235600685587,118.82418521457228
6.102974976,1.0011485463008671,118.66071355458462
6.105263104,1.0009891821503925,118.49905709594552
6.107551232,1.0007673007269176,118.34020529865639
6.109839872,1.0004970035258816,118.18494994243339
6.112128,1.000195221525451,118.03391203074007
6.11441664,0.9998812968349681,117.88737595582415
6.116704768,0.999574968912353,117.74539190937493
6.118992896,0.9992956172415808,117.60773757704294
6.121281536,0.999061256654291,117.47383659556861
6.123569664,0.9988865413550686,117.34298910802437
6.125858304,0.9987826474723022,117.21421941435503
6.128146432,0.9987563287426736,117.08640273473074
6.13043456,0.9988092733535968,116.95847422645083
6.1327232,0.9989379565146952,116.82924458855518
6.135011328,0.999134386847589,116.6977154241311
6.137299968,0.9993861408315733,116.56294682524694
6.139588096,0.9996770701589601,116.42425174379014
6.141876224,0.9999889063502325,116.28122997875165
6.144164864,1.0003017567472172,116.13372158262547
6.146452992,1.0005957076302718,115.98179625458222
6.148741632,1.0008523362477355,115.82596078730491
6.15102976,1.001055278586466,115.66682997390932
6.153317888,1.001191606442198,115.50525744244581
6.155606528,1.00125299536316,115.34228032623741
6.157894656,1.0012352696313374,115.17906645614399
6.160183296,1.0011393419102124,115.01665916671482
6.162471424,1.0009716336280479,114.85623332886891
6.164759552,1.0007425617221397,114.69873605970815
6.167048192,1.0004666932372426,114.54489343743033
6.16933632,1.00016119643082,114.3953490659327
6.17162496,0.9998456889455741,114.25033494059197
6.173913088,0.9995399489802379,114.10988474233491
6.176201216,0.9992635853647399,113.97373387302194
6.178489856,0.9990340424827526,113.84128798485867
6.180777984,0.9988660507210038,113.71178722691289
6.183066112,0.9987701858302211,113.58427372641565
6.185354752,0.9987526400004301,113.45759743036622
6.18764288,0.9988144819509213,113.33065646471522
6.18993152,0.9989519441682251,113.20231297008286
6.192219648,0.9991561979100595,113.07149871684582
6.194507776,0.9994143690881959,112.93738600101744
6.196796416,0.9997099869658532,112.79928408476935
6.199084544,1.0000242850699679,112.65673788215659
6.201373184,1.000337440094899,112.50967594405743
6.203661312,1.0006295899869322,112.35831031070383
6.20594944,1.0008820097806874,112.20298452427981
6.20823808,1.0010789322521614,112.04443608470059
6.210526208,1.0012078819961563,111.88355827912395
6.212814848,1.0012605579219114,111.72142575503779
6.215102976,1.0012337377051908,111.559093442067
6.217391104,1.001128901945998,111.39778951263625
6.219679744,1.000953018076095,111.23856144676559
6.221967872,1.0007166049417278,111.08234686295333
6.224256512,1.000435113301827,110.92991063972154
6.22654464,1.0001261094353722,110.78181038520471
6.228832768,0.9998091199278452,110.63830697575864
6.231121408,0.9995044548557929,110.49935871076521
6.233409536,0.9992312814464764,110.36464652362727
6.235698176,0.9990069454464833,110.2336257811957
6.237986304,0.998845928156996,110.10541412732738
6.240274432,0.9987582965452638,109.97909566862691
6.242563072,0.9987496913821744,109.85351510627991
6.2448512,0.9988208414619142,109.7275152697086
6.24713984,0.9989670859331667,109.59997002066783
6.249427968,0.9991791296231373,109.46985322696675
6.251716096,0.9994436101794409,109.33628969721056
6.254004736,0.9997437986391347,109.19866098329192
6.256292864,1.0000605094905684,109.0565726372282
6.258580992,1.0003736669763066,108.90996241095952
6.260869632,1.000663515188174,108.75900658006003
6.26315776,1.000911646787039,108.60415383703892
6.2654464,1.001102252917262,108.44617924009117
6.267734528,1.0012232436847304,108.28595988435285
6.270022656,1.001267297443607,108.12459051962648
6.272311296,1.0012312158972132,107.96319621577133
6.274599424,1.0011172281598046,107.80291424088986
6.276888064,1.000932802184778,107.64485445562794
6.279176192,1.0006893703066657,107.48989310429064
6.28146432,1.0004023996113576,107.33882616394015
6.28375296,1.0000899560113756,107.19218199256613
6.286041088,0.9997719470786482,107.05012617748932
6.288329728,0.9994684344554854,106.91264418510806
6.290617856,0.9991987415805917,106.77935113759538
6.292905984,0.9989801002249594,106.64966970693445
6.295194624,0.9988262608397521,106.52274523287157
6.297482752,0.9987472207092283,106.39756263440222
6.299771392,0.998747950593394,106.27298209517885
6.30205952,0.9988282915280573,106.14785968631554
6.304347648,0.9989834960058503,106.02104143331884
6.306636288,0.9992034530220882,105.89155341143336
6.308924416,0.9994742957700916,105.75847803348209
6.311213056,0.9997787572844576,105.62130407812964
6.313501184,1.00009769471703,105.47960212290572
6.315789312,1.0004106617696482,105.33331229867629
6.318077952,1.0006979017088866,105.18273615408044
6.32036608,1.0009412312304278,105.02834777085936
6.322654208,1.0011252324483801,104.87086178941088
6.324942848,1.0012382092231678,104.71128323464774
6.327230976,1.0012730537520302,104.55067100089643
6.329519616,1.0012275010043628,104.39013466394815
6.331807744,1.0011043613470005,104.23086736239365
6.334095872,1.0009114383914166,104.07392577923372
6.336384512,1.000660903482918,103.92022307807488
6.33867264,1.0003685668873359,103.77050994183244
6.34096128,1.0000530107475167,103.62520437586814
6.343249408,0.9997341059795716,103.48458988204618
6.345537536,0.999432109608701,103.3485295884917
6.347826176,0.9991662752243236,103.21662708550407
6.350114304,0.9989534991937822,103.08824070344146
6.352402944,0.998807273991263,102.96252984482236
6.354691072,0.9987369831953925,102.83842105475323
6.3569792,0.998747145454451,102.71479220003097
6.35926784,0.9988371848542793,102.59048809028731
6.361555968,0.9990012338930689,102.46432863303433
6.363844608,0.9992290760503773,102.33539896989745
6.366132736,0.9995062110084181,102.20278504087561
6.368420864,0.9998148072138393,102.06593821753701
6.370709504,1.0001356314136753,101.9245693775885
6.372997632,1.0004480419064246,101.77860873051858
6.375286272,1.0007324118920902,101.62836603750073
6.3775744,1.0009706874629056,101.47433530547926
6.379862528,1.001147752588871,101.31732160622826
6.382151168,1.001252413317095,101.15831180237413
6.384439296,1.0012778513691203,100.9984123190795
6.386727936,1.0012227803154847,100.83871961242764
6.389016064,1.0010903087601948,100.68040374884517
6.391304192,1.0008889219545858,100.52459036532387
6.393592832,1.000631294571334,100.37210240585337
6.39588096,1.0003337575543039,100.22367258309256
6.398169088,1.0000151157389467,100.07975008433317
6.400457728,0.9996956370425417,99.94052352300184
6.402745856,0.9993954711968541,99.8058173429432
6.405034496,0.9991338302110078,99.67525680129047
6.407322624,0.9989272167223423,99.54814422073486
6.409610752,0.9987888895366179,99.42356523257423
6.411899392,0.9987276683300583,99.300484792996
6.41418752,0.9987474473105075,99.17775903303624
6.41647616,0.9988469675239725,99.05417504202309
6.418764288,0.9990201505170153,98.92865334108367
6.421052416,0.9992557775716702,98.80017899682716
6.423341056,0.9995389020489417,98.66794614001067
6.425629184,0.9998516327629354,98.53141381213625
6.427917824,1.0001741263789272,98.39028567965147
6.430205952,1.0004858229784752,98.24456235620649
6.43249408,1.0007669569203217,98.09459212772927
6.43478272,1.0009999538134469,97.94091198274923
6.437070848,1.0011696558990697,97.78436427263041
6.439359488,1.0012656313207415,97.62586052355192
6.441647616,1.0012816655665808,97.4666204421114
6.443935744,1.0012166709519355,97.30775951319369
6.446224384,1.0010747870931394,97.15041125409034
6.448512512,1.0008649844584196,96.99563192473315
6.450801152,1.0006003982967813,96.84433275539826
6.45308928,1.000297812563196,96.69721525042955
6.455377408,0.9999764333185308,96.55461171033633
6.457666048,0.9996565589663392,96.41671065070811
6.459954176,0.9993585601089588,96.28335039429336
6.462242816,0.999101293428689,96.15406016166966
6.464530944,0.9989013278225524,96.02815966900252
6.466819072,0.9987712503033578,95.90466248033059
6.469107712,0.9987193010694446,95.78254692297169
6.47139584,0.9987489169114987,95.66062765507866
6.473683968,0.9988583964750213,95.53772859229903
6.475972608,0.9990404679803708,95.41274521382594
6.478260736,0.9992838824753307,95.28466971791943
6.480549376,0.9995729545123168,95.15276002791092
6.482837504,0.999889519064231,95.01647578810916
6.485125632,1.000213358019729,94.87554427570262
6.487414272,1.0005240078662043,94.73004477747246
6.4897024,1.0008015623181366,94.58030958494209
6.49199104,1.0010287349149964,94.42690268396068
6.494279168,1.0011910343909802,94.27071059610593
6.496567296,1.0012779984401596,94.11275756796245
6.498855936,1.001284253863672,93.95413169016989
6.501144064,1.0012093395471295,93.7960608146843
6.503432704,1.0010579320285153,93.63961401233206
6.505720832,1.000839654035997,93.48588031180896
6.50800896,1.0005682396973334,93.33573667464034
6.5102976,1.0002607490689115,93.18984224655568
6.512585728,0.9999368682329272,93.04853034026986
6.514874368,0.9996169213882741,92.9119693074519
6.517162496,0.9993214430206315,92.77989217509617
6.519450624,0.999069070677516,92.65183225300018
6.521739264,0.9988758668265728,92.5270468129455
6.524027392,0.9987542578089654,92.40463175458584
6.526316032,0.998711853387294,92.2834177479154
6.52860416,0.9987516794883434,92.16225482789588
6.530892288,0.9988708958731375,92.03997136012227
6.533180928,0.9990620988501252,91.91544708461623
6.535469056,0.9993131912580534,91.78770775407517
6.537757184,0.9996080963448735,91.65607639530279
6.540045824,0.9999282673214415,91.51993468097753
6.542333952,1.0002532290525055,91.3791686333587
6.544622592,1.0005624273119187,91.23381036184445
6.54691072,1.00083627080086,91.08422271958463
6.549198848,1.0010573519537023,90.93105892645897
6.551487488,1.0012117337130269,90.77522571039175
6.553775616,1.0012895061808988,90.61772741508331
6.556064256,1.0012858356912335,90.4597220314796
6.558352384,1.0012009090411906,90.30237251781001
6.560640512,1.0010400498279626,90.14682089776271
6.562929152,1.0008132510667915,89.99410706581608
6.56521728,1.0005349729730502,89.8450847502189
6.56750592,1.00022288649423,89.700400866333
6.569794048,0.9998966959208903,89.56036062882738
6.572082176,0.9995771255113981,89.42504891605145
6.574370816,0.9992843254655541,89.29421087085855
6.576658944,0.9990371332229383,89.16737422387213
6.578947584,0.9988511902678177,89.04369008109177
6.581235712,0.9987383187139846,88.92221038151757
6.58352384,0.998705769285151,88.80185416423173
6.58581248,0.998755715137086,88.68137847676837
6.588100608,0.9988848613956314,88.55965140025717
6.590389248,0.9990852047455391,88.43551920626454
6.592677376,0.9993439050417332,88.30807389029312
6.594965504,0.999644593390867,88.1765871647244
6.597254144,0.9999680172264634,88.04058055501774
6.599542272,1.00029387025503,87.89987600703924
6.601830912,1.0006013385466241,87.75457889552203
6.60411904,1.000870843580553,87.60513510782903
6.606407168,1.001085665276438,87.45220891555074
6.608695808,1.0012317824306358,87.29666182543153
6.610983936,1.0013000078729604,87.13957470441856
6.613272064,1.001286222697893,86.98212695541392
6.615560704,1.0011910142741063,86.82551494472112
6.617848832,1.0010205162250425,86.67083161108224
6.620137472,1.000785369930214,86.51912107736673
6.6224256,1.0005005541848173,86.3711769299193
6.624713728,1.0001840800836554,86.22764741620713
6.627002368,0.9998558353799804,86.08883914916059
6.629290496,0.9995367789988098,85.95475700343952
6.631579136,0.9992471964881391,85.82511661355622
6.633867264,0.9990054349580083,85.69939303959927
6.636155392,0.998827015095689,85.57675444990828
6.638444032,0.9987232646436046,85.45621977427201
6.64073216,0.9987007250416532,85.33662557450262
6.6430208,0.9987609626450749,85.21677287740533
6.645308928,0.9989002143750161,85.09550567284329
6.647597056,0.9991095805920132,84.97173568650396
6.649885696,0.9993757345654999,84.84447950279666
6.652173824,0.9996818832134083,84.71310675252776
6.654462464,1.000008465349617,84.57716753097198
6.656750592,1.000334901568123,84.4364693799073
6.65903872,1.0006402567927382,84.29121521749808
6.66132736,1.000905335694468,84.14185269219708
6.663615488,1.0011132335292554,83.98906736227953
6.665904128,1.0012509111565011,83.83380509222737
6.668192256,1.00130946937212,83.6771278981409
6.670480384,1.0012852391184017,83.52022505503042
6.672769024,1.0011798495038835,83.36427930117279
6.675057152,1.0009997343957497,83.2104218191301
6.677345792,1.0007562808504018,83.05964704097923
6.67963392,1.000464992122138,82.91277829585142
6.681922048,1.0001442122183366,82.77039049802356
6.684210688,0.9998142339671284,82.63275565573817
6.686498816,0.9994961295921609,82.49985943160551
6.688786944,0.9992099606410125,82.37139464561295
6.691075584,0.9989741244335096,82.24675418912614
6.693363712,0.9988035467525936,82.12510141601663
6.695652352,0.9987089967647675,82.00541622529641
6.69794048,0.9986967326946716,81.88652506024803
6.700228608,0.9987675449922542,81.76724883344919
6.702517248,0.9989169180738127,81.64638464360294
6.704805376,0.9991352959371729,81.52285944548734
6.707094016,0.999408835414891,81.39577816315763
6.709382144,0.9997203031636478,81.26443680767773
6.711670272,1.0000497703280324,81.1284747584895
6.713958912,1.0003763484051333,80.98774456233402
6.71624704,1.0006793106090095,80.84247538645623
6.71853568,1.0009395075406413,80.69314823952651
6.720823808,1.0011404085962081,80.54046944716653
6.723111936,1.0012691848178117,80.3854350613038
6.725400576,1.0013178941592964,80.22911514815301
6.727688704,1.0012831007862493,80.07271526607634
6.729977344,1.0011672220239451,79.91744778403297
6.732265472,1.0009774878094138,79.76436812770704
6.7345536,1.0007258541697233,79.6145330955695
6.73684224,1.0004280782592363,79.46871372927627
6.739130368,1.0001034112475833,79.32740315926547
6.741419008,0.9997720375219288,79.19093370251983
6.743707136,0.999455043377621,79.05917370123633
6.745995264,0.9991728697333359,78.93179444754836
6.748283904,0.9989431331134753,78.80818857080325
6.750572032,0.9987807257877439,78.68746972709418
6.75286016,0.9986959300168915,78.56858688872988
6.7551488,0.9986940569188704,78.45034442594061
6.757436928,0.9987754575474822,78.33155514674256
6.759725568,0.9989348983328664,78.21104215901812
6.762013696,0.9991622598511221,78.08769542868738
6.764301824,0.999443172891025,77.9606902401606
6.766590464,0.9997596438069717,77.82935449295216
6.768878592,1.0000917332985868,77.69331192190172
6.771167232,1.000418135532552,77.5524892836009
6.77345536,1.0007184745193003,77.40715107688982
6.775743488,1.0009732602148014,77.25778200274065
6.778032128,1.001166869611688,77.10518329829841
6.780320256,1.0012866293913498,76.95031873152104
6.782608896,1.001324973762512,76.79434664225067
6.784897024,1.001279634600592,76.63841842962674
6.787185152,1.0011533281505773,76.48374340393892
6.789473792,1.0009539468879332,76.33147364942268
6.79176192,1.0006941241145384,76.18254334979457
6.79405056,1.0003903439010478,76.03772143397451
6.796338688,1.000061769425928,75.89748561860225
6.798626816,0.9997292899233562,75.7621158889296
6.800915456,0.9994139299594379,75.63145524081376
6.803203584,0.9991358233959153,75.50515546765473
6.805492224,0.998912712888097,75.38252530126688
6.807780352,0.9987587072373325,75.26266395850297
6.81006848,0.9986837719449051,75.1444956233196
6.81235712,0.9986925402279087,75.02684251676719
6.814645248,0.9987847468435666,74.90849099242902
6.816933888,0.9989543024869554,74.78822995694269
6.819222016,0.9991906008386087,74.66502819118772
6.821510144,0.9994785584375597,74.53803115939168
6.823798784,0.9997999705656108,74.40660488298738
6.826086912,1.0001342437810636,74.27042887305144
6.82837504,1.0004603421743186,74.12946371098558
6.83066368,1.0007574649671476,73.98397557095282
6.832951808,1.0010068327757302,73.83456045813512
6.835240448,1.0011925795591632,73.68200280287874
6.837528576,1.001302991047356,73.52729203991672
6.839816704,1.0013309754567858,73.37160831526958
6.842105344,1.001274756095247,73.21613837761984
6.844393472,1.001137928395101,73.06206932435134
6.846682112,1.0009289846515794,72.9105318248132
6.84897024,1.0006611300709314,72.76245804574506
6.851258368,1.000351455880115,72.61859810550085
6.853547008,1.0000193777077009,72.4794181172697
6.855835136,0.9996860444766484,72.34509588502733
6.858123776,0.9993726980288532,72.21552342181224
6.860411904,0.9990991729472646,72.09022638150032
6.862700032,0.9988827826540151,71.96849259465534
6.864988672,0.9987376116907151,71.84946733921154
6.8672768,0.9986728289190843,71.73196773179109
6.86956544,0.9986924064382718,71.61484140205648
6.871853568,0.998795481411976,71.49682535980855
6.874141696,0.9989751208803105,71.37675796460731
6.876430336,0.9992202555106022,71.2536193287143
6.878718464,0.9995152334225442,71.12655860437538
6.881007104,0.9998411445319919,70.99500232374662
6.883295232,1.0001774867000361,70.85861851397856
6.88558336,1.0005027728317553,70.7174557769119
6.887872,1.0007964235251887,70.57180530301574
6.890160128,1.0010398238989193,70.42227542053588
6.892448768,1.0012175353729023,70.26969716088534
6.894736896,1.0013183497422002,70.11512039923201
6.897025024,1.0013357557516962,69.9596849824733
6.899313664,1.001268516877579,69.80463972919475
6.901601792,1.0011211156360866,69.651137500174
6.90388992,1.0009026887978407,69.50031011217854
6.90617856,1.0006269511563,69.35308286254913
6.908466688,1.0003114964292352,69.21016702472122
6.910755328,0.9999761938265684,69.07197636119297
6.913043456,0.9996424354719196,68.9387027264435
6.915331584,0.9993312883925262,68.81010496599255
6.917620224,0.9990627123958036,68.6857756601179
6.919908352,0.9988536168349943,68.56493153815332
6.922196992,0.9987175098136208,68.44664776457117
6.92448512,0.9986630849519212,68.3297662228617
6.926773248,0.9986937044516967,68.21306462714932
6.929061888,0.9988076045669594,68.09533622319309
6.931350016,0.9989975282388862,67.975403189682
6.933638656,0.999251407430241,67.85226286924208
