freq,mag,phase
6.0,1.0009766276701402,-159.79073940961248
6.002285568,1.0008468911403725,-159.9529069350014
6.004571648,1.000663458271546,-160.1128245049567
6.006857216,1.0004380393094503,-160.26976799832886
6.009142784,1.0001848134978153,-160.42321694044594
6.011428352,0.9999199186464257,-160.57288323557
6.013714432,0.9996600935989932,-160.71875623850485
6.016,0.999421821297126,-160.86100536022545
6.018285568,0.9992202121378758,-161.00001608364278
6.020571648,0.9990680459095721,-161.13648576396892
6.022857216,0.9989750876358848,-161.2711151620577
6.025142784,0.9989470725653803,-161.40486861255718
6.027428352,0.9989859948836993,-161.5386872176605
6.029714432,0.9990894259252231,-161.67356438403195
6.032,0.9992505951782708,-161.81032825520944
6.034285568,0.9994596298594144,-161.94978491475638
6.036571648,0.9997028949882643,-162.09253762309467
6.038857216,0.9999652308443167,-162.23896349149953
6.041142784,1.0002298954129512,-162.38920613800155
6.043428352,1.0004802214251964,-162.54318528836055
6.045714432,1.0007002968629632,-162.7005660502797
6.048,1.0008762099215809,-162.86082867108576
6.050285568,1.0009968952251354,-163.02322777280244
6.052571648,1.0010546300696441,-163.18690849987118
6.054857216,1.0010457932544587,-163.35095439315464
6.057142784,1.0009707555973086,-163.5143890165594
6.059428352,1.0008344506340914,-163.67627602345212
6.061714432,1.0006453903950259,-163.8358137749122
6.064,1.0004154837889943,-163.9922770667352
6.066285568,1.0001592250879585,-164.14524572774587
6.068571648,0.9998929459041824,-164.29439299461322
6.070857216,0.9996334674223798,-164.4397039498441
6.073142784,0.9993970867711229,-164.5813934257137
6.075428352,0.9991990120160792,-164.7199454514078
6.077714432,0.9990517719550879,-164.85595284650057
6.08,0.9989646101837744,-164.99022650881287
6.082285568,0.9989432444660187,-165.12373848497387
6.084571648,0.9989890728167657,-165.25738702755655
6.086857216,0.9990990481809288,-165.39217216795745
6.089142784,0.9992662394769266,-165.52895546176723
6.091428352,0.9994802640965083,-165.66852545781262
6.093714432,0.9997272465786454,-165.8114260288591
6.096,0.999991784103177,-165.95804713664282
6.098285568,1.0002570093954466,-166.10851975729975
6.100571648,1.0005060730563582,-166.26271665380656
6.102857216,1.0007232760164944,-166.42029003752162
6.105142784,1.0008949316161901,-166.5806567847641
6.107428352,1.001010072991263,-166.74313736073526
6.109714432,1.0010614661469543,-166.90677223157348
6.112,1.0010457240794415,-167.07072876662392
6.114285568,1.000964071417348,-167.23391084375865
6.116571648,1.000821333006431,-167.39547802254668
6.118857216,1.0006267855637787,-167.55457508840465
6.121142784,1.0003924579117072,-167.7106152013474
6.123428352,1.0001333577549718,-167.863041500541
6.125714432,0.9998657763879746,-168.01160546492068
6.128,0.9996066454562501,-168.15633027553932
6.130285568,0.9993724571633097,-168.29750735412114
6.132571648,0.999178120423987,-168.43550556077366
6.134857216,0.9990358568179846,-168.57105541719423
6.137142784,0.998954861107761,-168.70500260112348
6.139428352,0.9989401432658874,-168.8381928507787
6.141714432,0.9989927977169007,-168.9716802719165
6.144,0.9991094249664852,-169.10635350530427
6.146285568,0.9992826789936574,-169.24316636355897
6.148571648,0.9995016193963965,-169.3827968944055
6.150857216,0.9997522357030922,-169.5258845792997
6.153142784,1.0000187454758858,-169.67268099122484
6.155428352,1.0002843548621196,-169.82334344634003
6.157714432,1.0005320197192367,-169.97772258745013
6.16,1.0007462541943966,-170.13546114667577
6.162285568,1.0009133147638576,-170.29595423933637
6.164571648,1.0010228641414038,-170.4584178113901
6.166857216,1.0010677872582192,-170.6220367363058
6.169142784,1.0010452130945895,-170.7858098157769
6.171428352,1.0009566706401056,-170.9487539637647
6.173714432,1.0008076683416494,-171.10994530185718
6.176,1.0006075613872183,-171.26866165629392
6.178285568,1.0003690753219605,-171.42414602235002
6.180571648,1.0001070498957645,-171.57599620947008
6.182857216,0.9998383074125538,-171.72396620831555
6.185142784,0.9995798572447256,-171.8681462742684
6.187428352,0.9993480202988997,-172.0086887538237
6.189714432,0.9991574157212598,-172.14618584489153
6.192,0.9990204121085865,-172.2812543778714
6.194285568,0.9989455041668448,-172.4147966750173
6.196571648,0.9989375889932797,-172.5477211322184
6.198857216,0.9989971663091008,-172.68100548672615
6.201142784,0.9991203702862268,-172.81558172117172
6.203428352,0.9992995753750022,-172.95241643056568
6.205714432,0.9995234100483488,-173.09211459263665
6.208,0.9997775317478479,-173.23529673668702
6.210285568,1.0000459971823998,-173.38228458794603
6.212571648,1.000311712064954,-173.53311719383544
6.214857216,1.0005578055903528,-173.68764648487587
6.217142784,1.0007688169587932,-173.84552027012413
6.219428352,1.0009313852096475,-174.00610353776761
6.221714432,1.00103511831849,-174.16858603944738
6.224,1.0010734816967386,-174.33212956177434
6.226285568,1.00104401643589,-174.49569210099995
6.228571648,1.0009486548972517,-174.65834793411727
6.230857216,1.0007931922270032,-174.81918239096996
6.233142784,1.0005876781151015,-174.9773881787859
6.235428352,1.0003449345754971,-175.1323550223076
6.237714432,1.000080331147607,-175.28361200601012
6.24,0.9998105847247477,-175.43098577815437
6.242285568,0.9995528633788525,-175.57452037111764
6.244571648,0.999323472084913,-175.7144693706683
6.246857216,0.9991369399696195,-175.85139232982414
6.249142784,0.9990052438196576,-175.98601063412866
6.251428352,0.998936718999379,-176.11914423389305
6.253714432,0.998935621670534,-176.25174516078044
6.256,0.9990021081170255,-176.3847780112549
6.258285568,0.9991320328892146,-176.51930227487856
6.260571648,0.9993172461086556,-176.65608782384578
6.262857216,0.9995457696866451,-176.7958696049156
6.265142784,0.9998033411409303,-176.93916540579397
6.267428352,1.0000735371099854,-177.08629367433204
6.269714432,1.000339288803814,-177.23729965667715
6.272,1.0005836653825042,-177.39201975859956
6.274285568,1.0007912723278811,-177.5499789421246
6.276571648,1.0009489179739046,-177.71060307098753
6.278857216,1.0010468019027186,-177.87308555921462
6.281142784,1.0010784534797945,-178.03648058732537
6.283428352,1.0010420588190532,-178.19981799576513
6.285714432,1.0009398733161905,-178.36218434842155
6.288,1.0007780424536905,-178.52262117300398
6.290285568,1.0005671119123205,-178.68031884759716
6.292571648,1.0003202536002935,-178.83469212769566
6.294857216,1.0000531027915749,-178.9853286437208
6.297142784,0.9997826504507245,-179.13206800188556
6.299428352,0.9995258247923535,-179.27495224025924
6.301714432,0.9992991698239307,-179.4142814098461
6.304,0.999116808638787,-179.55064635622946
6.306285568,0.9989905198410053,-179.68472734659517
6.308571648,0.9989284308965442,-179.81746032831714
6.310857216,0.9989341763394146,-179.94974698690797
6.313142784,0.9990077863768314,179.9173982953482
6.315428352,0.9991444447827265,179.78305313629923
6.317714432,0.9993354980391672,179.6462772836364
6.32,0.9995688289331991,179.5064624698849
6.322285568,0.9998296765649911,179.36307184953972
6.324571648,1.0001014275901834,179.21577607394912
6.326857216,1.0003669580694818,179.06461443096936
6.329142784,1.0006094561343766,178.90977621107288
6.331428352,1.00081353351999,178.7517129801351
6.333714432,1.0009662694205503,178.59104936480628
6.336,1.0010579730188915,178.42863417972393
6.338285568,1.0010829253525797,178.2653769875075
6.340571648,1.0010394763763177,178.102256228865
6.342857216,1.0009302937666897,177.9402770598247
6.345142784,1.0007622437739736,177.78029199099655
6.347428352,1.0005460083428264,177.62309688467332
6.349714432,1.000295172896123,177.4693282318901
6.352,1.0000256107114829,177.31932450457572
6.354285568,0.9997544273542294,177.17326137109092
6.356571648,0.9994987674307587,177.03106408371414
6.358857216,0.9992749149466407,176.89234408697368
6.361142784,0.9990969836594503,176.7565800620985
6.363428352,0.9989762839022363,176.6230001187027
6.365714432,0.9989206989969585,176.4907039062038
6.368,0.9989335682277989,176.3587720630926
6.370285568,0.9990141706167761,176.22615634221503
6.372571648,0.9991575719881425,176.09187858031194
6.374857216,0.9993545006195577,175.95516901898486
6.377142784,0.9995924207295388,175.81534177598115
6.379428352,0.9998563732547074,175.671825694822
6.381714432,1.0001297399371905,175.52442040291575
6.384,1.0003949095726739,175.37310482200238
6.386285568,1.0006351921125975,175.2181711505439
6.388571648,1.0008356010448924,175.06001219361556
6.390857216,1.0009832084580836,174.89937462758374
6.393142784,1.0010687040732829,174.7370405303624
6.395428352,1.0010868235462818,174.57392419967027
6.397714432,1.001036200554643,174.41110574731852
6.4,1.000920024952653,174.24947086874835
6.402285568,1.0007455898911297,174.08996004030553
6.404571648,1.0005241595152792,173.93334850635642
6.406857216,1.0002695046180934,173.78019283880758
6.409142784,0.9999976244828954,173.63085140308067
6.411428352,0.9997259835653246,173.48550281593958
6.413714432,0.9994716013305377,173.34398602380756
6.416,0.9992507210515994,173.205936382845
6.418285568,0.9990772629887406,173.07076854739918
6.420571648,0.998962541913574,172.93768544279257
6.422857216,0.9989135855317127,172.8058573771743
6.425142784,0.9989336498487851,172.67424447584017
6.427428352,0.9990213722365426,172.5418518389537
6.429714432,0.9991714399245105,172.40774648721364
6.432,0.9993740844601283,172.27108710198561
6.434285568,0.9996166194409429,172.13120157706263
6.436571648,0.9998836021047696,171.9876294010692
6.438857216,1.0001582236091724,171.84010061987664
6.441142784,1.0004228515125637,171.6886837392274
6.443428352,1.0006609844276944,171.53365118638237
6.445714432,1.0008573900137419,171.37545336696755
6.448,1.00099982815652,171.2147779106668
6.450285568,1.0010789254039247,171.0525521240918
6.452571648,1.0010900041332744,170.889657141192
6.454857216,1.0010321534017506,170.7271335702091
6.457142784,1.0009090238761928,170.56589752963762
6.459428352,1.0007283466721144,170.40691910153623
6.461714432,1.0005016881774864,170.2508618977472
6.464,1.0002431844462307,170.09832897884098
6.466285568,0.9999692379847154,169.9497347181476
6.468571648,0.9996972961840376,169.80507405078657
6.470857216,0.9994443848675766,169.6642608626
6.473142784,0.9992267936969063,169.5268540313354
6.475428352,0.9990579956031371,169.39230675222132
6.477714432,0.9989492254538545,169.259794641133
6.48,0.9989070916508752,169.12843530477073
6.482285568,0.998934320269946,168.9971580114478
6.484571648,0.9990292931185056,168.86500619985742
6.486857216,0.9991859985993071,168.7310381562835
6.489142784,0.9993944297640535,168.59443634733518
6.491428352,0.9996414838093274,168.4545199453877
6.493714432,0.9999113762187964,168.3108574763936
6.496,1.000187172381621,168.16324826522217
6.498285568,1.000451122006371,168.011732295909
6.500571648,1.0006867590015336,167.85658284121163
6.502857216,1.0008791599304567,167.6983515536744
6.505142784,1.0010159488657073,167.53776388690972
6.507428352,1.0010887087169322,167.37562872377043
6.509714432,1.0010926146206274,167.2129738606231
6.512,1.0010274464846725,167.05076780163063
6.514285568,1.000897376467997,166.88997989237566
6.516571648,1.0007105660405027,166.73150456449076
6.518857216,1.0004786557212337,166.57607254546986
6.521142784,1.000216511095323,166.42425207016936
6.523428352,0.9999404946438603,166.27634881273576
6.525714432,0.9996683868446504,166.13241118161372
6.528,0.9994171556030752,165.99234727308914
6.530285568,0.9992029931496892,165.85562834366354
6.532571648,0.9990392504263172,165.7217311766974
6.534857216,0.998936434249138,165.58976444256274
6.537142784,0.9989012397382319,165.45881861081907
6.539428352,0.9989357814219715,165.32790281999962
6.541714432,0.9990380098996801,165.19600246933499
6.544,0.9992014454283142,165.06218878463486
6.546285568,0.9994155471058621,164.92565315113026
6.548571648,0.9996669040212743,164.78569675071734
6.550857216,0.9999397014367187,164.64200155790073
6.553142784,1.000216356762068,164.4942758395542
6.555428352,1.000479467282949,164.34265039565173
6.557714432,1.0007124738531812,164.18747340857232
6.56,1.0009004577407667,164.02921420885767
6.562285568,1.0010317647543612,163.8686638114997
6.564571648,1.0010977008264204,163.7066884115535
6.566857216,1.001094379663506,163.54430289816057
6.569142784,1.0010218995909679,163.38241991262817
6.571428352,1.000884765017607,163.2220976131441
6.573714432,1.0006917471845431,163.06416576738368
6.576,1.0004547933451668,162.90940912779433
6.578285568,1.0001891020779927,162.75825998486476
6.580571648,0.9999113152854423,162.6110898478667
6.582857216,0.9996391643081988,162.46794878848124
6.585142784,0.9993898616329873,162.32858641342685
6.587428352,0.9991792329103062,162.192605622634
6.589714432,0.999020565169188,162.05932591283025
6.592,0.9989241102290006,161.9279219856221
6.594285568,0.9988959904612632,161.79746368321452
6.596571648,0.9989380750130677,161.66691639894816
6.598857216,0.9990474238328968,161.5352378178077
6.601142784,0.999217514960945,161.40159553886826
6.603428352,0.9994374290316727,161.26510269451475
6.605714432,0.9996930627965039,161.12517440570537
6.608,0.999968429305118,160.98136220273594
6.610285568,1.0002458641973584,160.83358435451677
6.612571648,1.0005079532501937,160.6818780216716
6.614857216,1.0007380967201096,160.52664042879914
6.617142784,1.000921661721568,160.36837853130396
6.619428352,1.001047020220048,160.20790261031544
6.621714432,1.0011062810208036,160.04610043763668
6.624,1.0010954673941612,159.88396853871086
6.626285568,1.0010155618211272,159.72249872297238
6.628571648,1.000871498004399,159.5626522129079
6.630857216,1.000672242156276,159.40531393757777
6.633142784,1.0004303498366605,159.25118374331973
6.635428352,1.000161165729664,159.10078238700603
6.637714432,0.9998817833275245,158.95438707822146
6.64,0.9996098235137738,158.81198511014298
6.642285568,0.9993624991360143,158.6733920003244
6.644571648,0.9991555322230223,158.53813328758994
6.646857216,0.9990023313045446,158.4055330583851
6.649142784,0.9989122559358079,158.27468077157772
6.651428352,0.9988913410253265,158.1446709117189
6.653714432,0.9989409813835254,158.01449532652742
6.656,0.9990577036811561,157.8830848665695
6.658285568,0.9992343682793762,157.74960981780058
6.660571648,0.9994598924361926,157.61316916938537
6.662857216,0.9997196871896343,157.47321226577984
6.665142784,0.9999974489711012,157.32936927210665
6.667428352,1.0002755557179246,157.18152256020335
6.669714432,1.0005364917483075,157.02975350359117
6.672,1.0007634960747607,156.87445691798305
6.674285568,1.0009423817052208,156.7162091637949
6.676571648,1.001061748599114,156.55586364564522
6.678857216,1.0011140177416058,156.3942288947868
6.681142784,1.0010959880502073,156.2323897754298
6.683428352,1.001008501043041,156.07131681796932
6.685714432,1.0008573418597482,155.9120009451723
6.688,1.0006519198825705,155.75523508182087
6.690285568,1.0004051176837705,155.60179183746536
6.692571648,1.0001326392043406,155.4521479565988
6.694857216,0.9998516751813356,155.30653886427385
6.697142784,0.9995801713508745,155.1649510606734
6.699428352,0.9993350609409598,155.0271275931238
6.701714432,0.9991322563455305,154.89261389366027
6.704,0.9989845277345398,154.76062623894785
6.706285568,0.9989010078466807,154.63038792891373
6.708571648,0.9988874964890475,154.50085150074602
6.710857216,0.9989446013592729,154.37101227979767
6.713142784,0.999068723096875,154.23988190721815
6.715428352,0.9992521972103862,154.10653194098202
6.717714432,0.9994831126591858,153.97016650589543
6.72,0.9997470102401611,153.83022870381075
6.722285568,1.0000271245951045,153.6863111787644
6.724571648,1.0003057362514687,153.53837803718338
6.726857216,1.0005651188795945,153.38656912154786
6.729142784,1.0007889069030562,153.23124361834698
6.731428352,1.0009628602084937,153.07303095930115
6.733714432,1.001076092112022,152.91279148918855
6.736,1.0011211644925886,152.75137058065525
6.738285568,1.0010955890139033,152.58987320710847
6.740571648,1.001000579865191,152.42921578505425
6.742857216,1.000842385745289,152.2704152388753
6.745142784,1.0006307596244517,152.11430470569093
6.747428352,1.0003792799772502,151.96158730641503
6.749714432,1.0001036237705827,151.81268791093692
6.752,0.9998213613414383,151.66786968863502
6.754285568,0.9995503793711988,151.5271046952868
6.756571648,0.9993078708984379,151.39008609276402
6.758857216,0.9991092672028574,151.2562945994867
6.761142784,0.9989671563739638,151.12497876644528
6.763428352,0.9988904156315256,150.99531741875703
6.765714432,0.9988843896030237,150.8662525671946
6.768,0.9989490210014332,150.73680235059223
6.770285568,0.9990807429546414,150.6059196952608
6.772571648,0.9992707282702452,150.47271806685967
6.774857216,0.9995072191742134,150.33640362697417
6.777142784,0.9997750682264442,150.19644161964862
6.779428352,1.0000573114289757,150.05250841364676
6.781714432,1.000336179357,149.9045282518393
6.784,1.000593930938861,149.75266569670944
6.786285568,1.000814150002845,149.59732065638866
6.788571648,1.0009831734875942,149.4391789190995
6.790857216,1.0010899002218934,149.27903136663272
6.793142784,1.0011278156967347,149.11787834210423
6.795428352,1.0010944300199531,148.95669740423074
6.797714432,1.000991923830349,148.79646559377767
6.8,1.0008266371947203,148.63825794066295
6.802285568,1.0006088199117948,148.48280299905736
6.804571648,1.0003526716619415,148.3308090917974
6.806857216,1.0000740956915701,148.18269006760488
6.809142784,0.9997906041865245,148.03871682161807
6.811428352,0.9995204339438767,147.89875462772093
6.813714432,0.9992806195233713,147.76252891537354
6.816,0.9990862212077634,147.62948528868674
6.818285568,0.9989500393060959,147.49885621406145
6.820571648,0.9988804382732471,147.36976883555388
6.822857216,0.9988818790370317,147.24119632140244
6.825142784,0.99895443509865,147.11209569326198
6.827428352,0.9990934587027761,146.9814542497305
6.829714432,0.9992901585480992,146.8483986159951
6.832,0.999532069398962,146.7121617168014
6.834285568,0.9998036923773788,146.5722155160462
6.836571648,1.0000880035281412,146.4282453686419
6.838857216,1.000366890270749,146.28019918791617
6.841142784,1.0006227802699523,146.12827638684539
6.843428352,1.0008393580211392,145.97292846716596
6.845714432,1.0010029412552188,145.8148409995799
6.848,1.0011033232728554,145.6548715859854
6.850285568,1.0011337885970426,145.49392696932549
6.852571648,1.0010926880743216,145.33311647387518
6.854857216,1.000982489754393,145.17338863000165
6.857142784,1.0008100935252169,145.015721072061
6.859428352,1.0005863923907197,144.86095265004764
6.861714432,1.0003255178973611,144.70972104467796
6.864,1.0000439851568803,144.56240270527695
6.866285568,0.999759502047054,144.4192849562608
6.868571648,0.9994903665036531,144.28013620315772
6.870857216,0.9992534142525116,144.14472670528372
6.873142784,0.9990638410876586,144.01243941372738
6.875428352,0.9989335272500117,143.8824869002215
6.877714432,0.9988710917852914,143.75398220887735
6.88,0.9988803997976743,143.62589878858412
6.882285568,0.9989607866479296,143.4971445121265
6.884571648,0.9991071585860046,143.36677617088495
6.886857216,0.9993104273145997,143.233858962225
6.889142784,0.9995576071999558,143.0977074603458
6.891428352,0.9998329805027725,142.95776812898472
6.893714432,1.0001190906554447,142.81372103166456
6.896,1.0003979542663988,142.66559702569864
6.898285568,1.0006516848688303,142.5136564320543
6.900571648,1.0008643460951316,142.35833022608506
6.902857216,1.001022498993333,142.20031628989523
6.905142784,1.001116006403298,142.04049462633614
6.907428352,1.0011390554276407,141.87983527682272
6.909714432,1.0010899606045,141.71938164027057
6.912,1.0009720581976052,141.56013927533732
6.914285568,1.000792619405591,141.40310471051873
6.916571648,1.0005628274822655,141.24903141122866
6.918857216,1.0002975918318795,141.09854848372333
6.921142784,1.00001325605226,140.95209459436725
6.923428352,0.9997281260467678,140.80978201819087
6.925714432,0.9994599983804973,140.6715158332885
6.928,0.999226267270305,140.5369290842949
6.930285568,0.9990415290923357,140.4053851521652
