freq,mag,phase
6.0,0.999892005537777,-161.84324283039888
6.002288128,0.9998951062945372,-161.99228785473576
6.004576768,0.9999051368072173,-162.1414577641293
6.006864896,0.9999213106560566,-162.29078236734173
6.009153536,0.9999425892421472,-162.44034995307635
6.011441664,0.9999678777834062,-162.59022843349766
6.013729792,0.9999953569458939,-162.74050722182045
6.016018432,1.0000232855866789,-162.89117249854928
6.01830656,1.0000499250991148,-163.04222230471683
6.0205952,1.0000736207270624,-163.1936161817052
6.022883328,1.0000927669161148,-163.3452800258684
6.025171456,1.000106339154585,-163.4972060336629
6.027460096,1.0001133518442742,-163.64925783537032
6.029748224,1.000113291439651,-163.801323965944
6.032036864,1.0001061947145022,-163.95335243990388
6.034324992,1.0000926928349787,-164.10519459233194
6.03661312,1.0000734041011041,-164.25681159011066
6.03890176,1.0000495908701048,-164.40805585285216
6.041189888,1.0000229566720695,-164.55895116612714
6.043478016,0.9999948994783906,-164.70940389006282
6.045766656,0.9999673933801392,-164.8594684653903
6.048054784,0.9999421396192391,-165.00912661796534
6.050343424,0.9999207571419765,-165.15841613950587
6.052631552,0.9999045421555212,-165.30743244939666
6.05491968,0.9998945264319654,-165.45622365898046
6.05720832,0.9998913817554416,-165.60490588775795
6.059496448,0.9998954141968377,-165.75359891268104
6.061785088,0.9999061680944742,-165.90239079604814
6.064073216,0.9999231310412543,-166.0513441916186
6.066361344,0.9999450883482423,-166.20054541442317
6.068649984,0.9999707866805072,-166.350108851125
6.070938112,0.9999984781515951,-166.50002399913453
6.073226752,1.000026458402003,-166.65035924567334
6.07551488,1.000053067943461,-166.80102659790717
6.077803008,1.0000763530294041,-166.95208349914748
6.080091648,1.000095141925816,-167.10342617607063
6.082379776,1.000107944363103,-167.2549809786006
6.084668416,1.0001141233006674,-167.40664079541384
6.086956544,1.000113329545477,-167.55832991239686
6.089244672,1.0001054968647456,-167.70992674375918
6.091533312,1.0000911533704737,-167.86138894962417
6.09382144,1.000071301330099,-168.01256016076744
6.09611008,1.0000469493883872,-168.16339022202143
6.098398208,1.000019868673007,-168.31385056892188
6.100686336,0.9999916849155838,-168.46386546894814
6.102974976,0.9999642820554208,-168.61347106589596
6.105263104,0.9999391817052612,-168.76266856353712
6.107551232,0.9999181616799308,-168.9115255048925
6.109839872,0.9999026477903361,-169.06009041914635
6.112128,0.9998933247444929,-169.20843582428174
6.11441664,0.9998910317081425,-169.35673873902994
6.116704768,0.9998957561983672,-169.50501780195341
6.118992896,0.999907363065468,-169.65336932186156
6.121281536,0.9999249878654852,-169.80195398599292
6.123569664,0.9999475581531357,-169.95079442988168
6.125858304,0.9999737216903398,-170.09998735484902
6.128146432,1.000001675685612,-170.24952429339962
6.13043456,1.0000297043601114,-170.39951128649477
6.1327232,1.000056132697289,-170.54981933212898
6.135011328,1.0000791623921266,-170.700482169572
6.137299968,1.0000972880320735,-170.85143265481156
6.139588096,1.0001095087464265,-171.00257037669152
6.141876224,1.0001149704511814,-171.15386787416745
6.144164864,1.0001132980583283,-171.30511678721015
6.146452992,1.0001046140686831,-171.4563182013425
6.148741632,1.0000895894004724,-171.60730689891955
6.15102976,1.000069016563022,-171.7580237456786
6.153317888,1.000044148748524,-171.9083888060672
6.155606528,1.0000167686713346,-172.05836967793522
6.157894656,0.9999884208298105,-172.2079293211823
6.160183296,0.9999610224131877,-172.35707315478277
6.162471424,0.9999362785881311,-172.5057934976668
6.164759552,0.9999157619105422,-172.65419345100938
6.167048192,0.9999007922974901,-172.80228026650036
6.16933632,0.999892200977315,-172.95020406042556
6.17162496,0.9998907117439615,-173.09803611200766
6.173913088,0.9998962749177894,-173.24587933495016
6.176201216,0.999908663114958,-173.39384481717582
6.178489856,0.9999269833560539,-173.54196585344386
6.180777984,0.9999502302452695,-173.69043099486169
6.183066112,0.9999767090204753,-173.83920891464024
6.185354752,1.0000049253337355,-173.98838558439138
6.18764288,1.0000330018144432,-174.13793609332248
6.18993152,1.0000592331868083,-174.28783854105507
6.192219648,1.0000818301157381,-174.438119227829
6.194507776,1.0000994780388466,-174.58866618026607
6.196796416,1.0001109542469746,-174.73940999298168
6.199084544,1.0001157033463575,-174.89026793515703
6.201373184,1.0001132684533351,-175.0410823599696
6.203661312,1.000103730621519,-175.19179844104607
6.20594944,1.0000878387845629,-175.34234690379571
6.20823808,1.0000666373638023,-175.492607592843
6.210526208,1.0000413024698833,-175.64247878210054
6.212814848,1.000013594911195,-175.7919465890289
6.215102976,0.9999850966210861,-175.94099362539913
6.217391104,0.9999578443163972,-176.0896183084098
6.219679744,0.9999333659261388,-176.2378445773675
6.221967872,0.9999132858810453,-176.3857744995823
6.224256512,0.9998989088235486,-176.53337733863316
6.22654464,0.9998910930904724,-176.68082132856154
6.228832768,0.9998905125476073,-176.82818778100795
6.231121408,0.9998968825019039,-176.9755775330945
6.233409536,0.9999101198798327,-177.12308676765346
6.235698176,0.999929090484856,-177.27080515557157
6.237986304,0.9999528217959874,-177.41879007089364
6.240274432,0.9999796974009776,-177.56717755256025
6.242563072,1.000008149037596,-177.71589978543366
6.2448512,1.0000363008361564,-177.86506911394082
6.24713984,1.0000622590022794,-178.01456699977712
6.249427968,1.000084558856463,-178.1644300043585
6.251716096,1.0001015915729086,-178.31452483835258
6.254004736,1.000112382858564,-178.46483999499944
6.256292864,1.0001162555855052,-178.6152200326912
6.258580992,1.0001130139775707,-178.7655802627227
6.260869632,1.000102627062063,-178.91583065648277
6.26315776,1.0000861235251246,-179.06586907547745
6.2654464,1.00006421342655,-179.21559934265397
6.267734528,1.000038415766381,-179.36496511039613
6.270022656,1.0000103518236125,-179.5139530153834
6.272311296,0.9999818271762536,-179.66247085901068
6.274599424,0.9999545618425876,-179.81058631419052
6.276888064,0.9999304081036656,-179.9583064805395
6.279176192,0.9999109823708454,179.89432719339837
6.28146432,0.9998971396374045,179.74719860094905
6.28375296,0.9998901058975008,179.6002550133143
6.286041088,0.9998902320996251,179.4533878154785
6.288329728,0.9998975912312768,179.3064866417879
6.290617856,0.999911505171403,179.1594261719959
6.292905984,0.9999311711810065,179.01217411525798
6.295194624,0.9999555824159374,178.86461586403274
6.297482752,0.9999828970614859,178.71669037433153
6.299771392,1.0000114460836427,178.5683753516997
6.30205952,1.0000396095507265,178.41967821412365
6.304347648,1.0000652971000104,178.27059060207696
6.306636288,1.0000870941982951,178.1211752665848
6.308924416,1.0001036091942848,177.971535049424
6.311213056,1.00011371844955,177.82169919311
6.313501184,1.000116756212799,177.67179974667835
6.315789312,1.000112559132914,177.52190278747926
6.318077952,1.0001015316060025,177.37216939423655
6.32036608,1.0000841428886271,177.2226491937285
6.322654208,1.000061548962356,177.07341466528817
6.324942848,1.000035423203374,176.9246094607421
6.327230976,1.0000070202753726,176.7761702695813
6.329519616,0.9999784320463926,176.62816049090515
6.331807744,0.9999513446805337,176.48062265204473
6.334095872,0.9999274487156061,176.33342943437225
6.336384512,0.9999085350012801,176.18659344360194
6.33867264,0.9998954596229435,176.04001016556467
6.34096128,0.9998892055192309,175.89358480756113
6.343249408,0.9998901177977387,175.74722121971894
6.345537536,0.9998982240842099,175.6008057107407
6.347826176,0.9999129940742034,175.45425367056174
6.350114304,0.9999334851333698,175.30744476373033
6.352402944,0.9999583094451346,175.16033125349466
6.354691072,0.9999860930032689,175.01290060998812
6.3569792,1.0000147992192834,174.8650293431797
6.35926784,1.0000428610762406,174.71679790404443
6.361555968,1.000068395987251,174.56817866509402
6.363844608,1.0000896998037136,174.4192519125059
6.366132736,1.0001056152791141,174.27004992293504
6.368420864,1.000114916119008,174.12070601140962
6.370709504,1.0001172706123178,173.97130936621318
6.372997632,1.0001121359710203,173.8219250051039
6.375286272,1.0001002271408679,173.67270513659798
6.3775744,1.0000820656213245,173.52370424231054
6.379862528,1.0000588927705765,173.3750314092577
6.382151168,1.0000322138410482,173.226746406637
6.384439296,1.0000035554666797,173.07889466817508
6.386727936,0.9999748152454012,172.93148610574144
6.389016064,0.999947990095554,172.78448602936186
6.391304192,0.9999245321286412,172.637865463907
6.393592832,0.999906069549381,172.4915743294047
6.39588096,0.9998937308338489,172.3455496752503
6.398169088,0.9998883331067802,172.19966290088425
6.400457728,0.9998899971750299,172.05380944382225
6.402745856,0.9998990801050948,171.9079184988189
6.405034496,0.9999145482923602,171.76185520343327
6.407322624,0.9999357688494025,171.61554856086985
6.409610752,0.9999612192062802,171.46894967167748
6.411899392,0.9999892962546423,171.32195182570177
6.41418752,1.000018218571136,171.17456485027327
6.41647616,1.0000461636886968,171.02681184468918
6.418764288,1.0000714069100465,170.8786569522696
6.421052416,1.0000922254021753,170.7301921184397
6.423341056,1.000107448185648,170.58152055820324
6.425629184,1.000116053846399,170.43268752014433
6.427917824,1.0001174667468427,170.28378798623126
6.430205952,1.000111680958823,170.13494236280772
6.43249408,1.0000987383399036,169.9862483531866
6.43478272,1.0000798763790235,169.83782223114696
6.437070848,1.0000560660927438,169.68972467228687
6.439359488,1.0000289156962128,169.54200384152114
6.441647616,1.0000000831798226,169.3947095086361
6.443935744,0.9999714738544982,169.24787003183164
6.446224384,0.9999446888140201,169.101459438295
6.448512512,0.9999216421345546,168.9554335336761
6.450801152,0.9999036843854411,168.8097036009568
6.45308928,0.9998921113696944,168.664254050989
6.455377408,0.9998875379898359,168.51890264163706
6.457666048,0.9998901238328838,168.37358640134897
6.459954176,0.9998999845540297,168.22824092158945
6.462242816,0.9999163304357442,168.0827035113236
6.464530944,0.9999382216102276,167.93689178666688
6.466819072,0.9999641598428142,167.79077774037324
6.469107712,0.9999925978231416,167.6442828627123
6.47139584,1.0000215959269498,167.4974170213242
6.473683968,1.0000495316162572,167.35013878002727
6.475972608,1.0000744479571353,167.20247657478316
6.478260736,1.0000948764333284,167.05451759219713
6.480549376,1.000109339520398,166.90634645550412
6.482837504,1.0001171599660041,166.75804209738124
6.485125632,1.0001176880953098,166.60965815625295
6.487414272,1.0001109732061797,166.46137092691038
6.4897024,1.0000972767431506,166.31324152654983
6.49199104,1.0000777115328434,166.16537330490982
6.494279168,1.000053291584874,166.01784627666729
6.496567296,1.0000256594173864,165.87074859592934
6.498855936,0.9999965296748033,165.72405264616586
6.501144064,0.9999678783346031,165.5778255363568
6.503432704,0.9999413176363071,165.43200945558047
6.505720832,0.9999187433332015,165.2865551831384
6.50800896,0.9999014689458331,165.14142240451935
6.5102976,0.9998905820491664,164.99652909126695
6.512585728,0.9998867341859744,164.85175854609477
6.514874368,0.9998903594193362,164.70703143770984
6.517162496,0.9999010920607005,164.56219380246466
6.519450624,0.9999183097561669,164.41718799032512
6.521739264,0.999940791262442,164.2719035865155
6.524027392,0.9999673041854832,164.1263106385726
6.526316032,0.9999960502139689,163.98030689659245
6.52860416,1.0000251332733732,163.83393469477838
6.530892288,1.0000529624563557,163.68714974496083
6.533180928,1.000077511915082,163.5400168203462
6.535469056,1.0000973324743996,163.39260596026912
6.537757184,1.000111202873291,163.24494054527787
6.540045824,1.0001181796329754,163.09714269997983
6.542333952,1.0001177745838141,162.94932628730538
6.544622592,1.000110254877959,162.80158825153825
6.54691072,1.0000956477435543,162.65406644096646
6.549198848,1.0000753658954218,162.50675592633786
6.551487488,1.0000503249597448,162.35985498183558
6.553775616,1.0000222933829555,162.21333670082169
6.556064256,0.9999930175127958,162.06724652834623
6.558352384,0.9999644252416356,161.92164168666912
6.560640512,0.9999380856655964,161.7764337340849
6.562929152,0.9999159241670235,161.63159560638715
6.56521728,0.9998991833553581,161.48708996611748
6.56750592,0.9998891214025624,161.34275058899024
6.569794048,0.9998862334808988,161.19858774191775
6.572082176,0.9998907535512798,161.05440284293843
6.574370816,0.9999022467655778,160.9101244494859
6.576658944,0.999920340175684,160.76567281255143
6.578947584,0.999943375100588,160.62093272433765
6.581235712,0.9999704421993197,160.47586443630345
6.58352384,0.9999995209400272,160.33039388703088
6.58581248,1.0000287194072408,160.18450811451737
6.588100608,1.000056342043535,160.03824248896208
6.590389248,1.0000806098945643,159.89165338303366
6.592677376,1.000099868099198,159.74477527637015
6.594965504,1.000112992070391,159.59762758191067
6.597254144,1.0001192515083703,159.4503725034971
6.599542272,1.0001179121724841,159.30314861487298
6.601830912,1.0001092672980791,159.1559836464272
6.60411904,1.0000939956914177,159.009009192395
6.606407168,1.0000728742073652,158.86235813086986
6.608695808,1.0000472989933316,158.71603158387921
6.610983936,1.0000188566725523,158.57015320245793
6.613272064,0.9999894458360246,158.42471561195606
6.615560704,0.9999608004975995,158.27971796737316
6.617848832,0.9999348546829874,158.13513191931276
6.620137472,0.999913160135285,157.99093048297038
6.6224256,0.9998970473792294,157.84702882665243
6.624713728,0.999887703512301,157.70329301688585
6.627002368,0.9998857746965917,157.55970392960865
6.629290496,0.9998911457921464,157.41610805980318
6.631579136,0.9999036032435195,157.27240437670207
6.633867264,0.9999223473263975,157.12847713424938
6.636155392,0.9999463090289578,156.98427544169343
6.638444032,0.9999737709443237,156.83973167875868
6.64073216,1.0000030935408573,156.69480302902141
6.6430208,1.0000323769315773,156.54947256057784
6.645308928,1.0000597878335422,156.4037480345055
6.647597056,1.0000835365342133,156.2576726932985
6.649885696,1.0001023040798684,156.1113027137857
6.652173824,1.0001146514328658,155.96474113818903
6.654462464,1.000119983263309,155.81804681615748
6.656750592,1.0001178361851433,155.67140934332048
6.65903872,1.0001083360134242,155.52482418975092
6.66132736,1.0000921724534206,155.3784951465316
6.663615488,1.0000703269706839,155.2324226245215
6.665904128,1.0000442380018524,155.08672146011853
6.668192256,1.0000154047694179,154.94148126291705
6.670480384,0.9999856723261801,154.7966683065048
6.672769024,0.9999571964292892,154.65231679878286
6.675057152,0.999931384692106,154.5083530170171
6.677345792,0.9999101480203746,154.36478761780603
6.67963392,0.9998949444523133,154.22147384799317
6.681922048,0.9998864691425365,154.07839002738245
6.684210688,0.9998853502498656,153.93539881831532
6.686498816,0.9998916699856616,153.79239094469966
6.688786944,0.999904957037283,153.6492618893215
6.691075584,0.9999245320623887,153.50590994587301
6.693363712,0.9999491465053119,153.3622696443241
6.695652352,0.9999769245159467,153.21826397502542
6.69794048,1.000006596230552,153.07388379616708
6.700228608,1.0000359701120873,152.92905766662787
6.702517248,1.0000632339535316,152.7838811109657
6.704805376,1.000086663181862,152.6383478512817
6.707094016,1.0001046572704948,152.49253317725524
6.709382144,1.0001163577462597,152.3465244572857
6.711670272,1.0001207178657994,152.20044192504716
6.713958912,1.0001176351472736,152.05435916654227
6.71624704,1.0001072811149034,151.90836236387057
6.71853568,1.0000902414460264,151.76263630166775
6.720823808,1.0000676620139528,151.61720982856306
6.723111936,1.000041003190432,151.47215742595108
6.725400576,1.0000117737177054,151.32756222208906
6.727688704,0.9999820462756451,151.18338421647474
6.729977344,0.9999535939914702,151.03969395081293
6.732265472,0.9999283194368661,150.89637990052643
6.7345536,0.9999075603292131,150.75342639857934
6.73684224,0.9998929548833072,150.61076739221681
6.739130368,0.999885345704821,150.46831548276833
6.741419008,0.9998851605568073,150.32591663544855
6.743707136,0.9998923572878332,150.1834873522206
6.745995264,0.999906523320193,150.04095504855908
6.748283904,0.999926980184365,149.89815869751413
6.750572032,0.999952196555924,149.7550912988417
6.75286016,0.9999805826334681,149.6116360650684
6.7551488,1.0000104402116707,149.4677819605807
6.757436928,1.0000396970561398,149.32353991334924
6.759725568,1.0000667884731849,149.17887740023434
6.762013696,1.000089603528474,149.03389332905817
6.764301824,1.0001071189837916,148.88865974537822
6.766590464,1.000117922035059,148.74323098047591
6.768878592,1.0001215031452497,148.59771245905503
6.771167232,1.0001174434301794,148.4522251699736
6.77345536,1.0001060793208156,148.30688925024276
6.775743488,1.0000883230567674,148.16176992324677
6.778032128,1.0000648604515574,148.01696554183883
6.780320256,1.000037629931349,147.87256815963076
6.782608896,1.000008184831063,147.72862128842777
6.784897024,0.9999782250366706,147.58509810755376
6.787185152,0.9999499563550449,147.44203569833383
6.789473792,0.9999249435398961,147.2993963111959
6.79176192,0.9999049311152746,147.15710884444735
6.79405056,0.9998910261629579,147.01507901788523
6.796338688,0.9998841894255106,146.87322748129552
6.798626816,0.9998849953065491,146.73144812658316
6.800915456,0.9998931115059035,146.5896411175525
6.803203584,0.9999083544779529,146.44768273663385
6.805492224,0.9999293720264013,146.3054775868
6.807780352,0.9999552079727492,146.1629523023997
6.81006848,0.9999839757044338,146.02004596836437
6.81235712,1.0000141559346931,145.87675168605568
6.814645248,1.0000434405114524,145.73304322470406
6.816933888,1.0000701572268083,145.58895503730787
6.819222016,1.0000926061463375,145.44454046095453
6.821510144,1.0001094096901724,145.29984836953085
6.823798784,1.000119312851849,145.15502358597038
6.826086912,1.0001219918517048,145.01009016998555
6.82837504,1.0001170208604382,144.86518078919062
6.83066368,1.0001047288387976,144.72045941606007
6.832951808,1.0000860493673513,144.57598614970334
6.835240448,1.0000619466029799,144.43183594095132
6.837528576,1.0000341608366539,144.28809160576165
6.839816704,1.00000445019779,144.14478777285044
6.842105344,0.9999744393839206,144.00192947505127
6.844393472,0.9999462466044226,143.85954760753097
6.846682112,0.9999216137822688,143.71759936467473
6.84897024,0.999902132643593,143.57593439262115
6.851258368,0.9998888855500664,143.43454207002304
6.853547008,0.9998831672669639,143.29332764915017
6.855835136,0.999884822753781,143.15218963231717
6.858123776,0.9998940868999419,143.01095270814298
6.860411904,0.9999100811354513,142.86958486147526
6.862700032,0.9999320627518347,142.7279648358337
6.864988672,0.9999584690067091,142.58601149607586
6.8672768,0.9999876825993398,142.4436871815917
6.86956544,1.000017867934562,142.30094765943747
6.871853568,1.0000471506713937,142.15778448564186
6.874141696,1.000073687699131,142.01424144242162
6.876430336,1.0000955113902892,141.87038635575323
6.878718464,1.0001116369082899,141.72627430702312
6.881007104,1.000120803905532,141.58201744438617
6.883295232,1.00012247587359,141.43769563019654
6.88558336,1.000116473762691,141.29342735329396
6.887872,1.0001031659735318,141.14931777477165
6.890160128,1.000083691875022,141.00548694354273
6.892448768,1.0000589189069464,140.8619866669434
6.894736896,1.00003060279786,140.7188981015968
6.897025024,1.0000006333109968,140.57626621465016
6.899313664,0.9999704928624611,140.43410044237552
6.901601792,0.9999426220833633,140.29235020751145
6.90388992,0.999918362856335,140.15104236641685
6.90617856,0.9998995035739277,140.010056817611
6.908466688,0.9998872602492869,139.86933068740723
6.910755328,0.999882167611527,139.7287323662497
6.913043456,0.9998848892310315,139.58817609357746
6.915331584,0.9998950110660613,139.44758135480683
6.917620224,0.9999119414487175,139.3067858916947
6.919908352,0.9999347509809886,139.1657715191512
