freq,mag,phase
6.0,1.0000918011738307,92.17304372291298
6.002287616,1.0004069012409234,92.02336707703903
6.004575232,1.0006963505836044,91.86934211914041
6.006862848,1.000941945424282,91.71145589946812
6.009150464,1.0011281530054594,91.55044997708823
6.011438592,1.0012432108172091,91.38726875203795
6.013726208,1.0012796527649301,91.22303272701963
6.016013824,1.0012353846518474,91.05883722370606
6.01830144,1.001112894046107,90.89590704980445
6.020589056,1.000920102107655,90.73528054197014
6.022876672,1.0006691150351572,90.57787591811655
6.025164288,1.0003758989079068,90.4244528072154
6.027451904,1.0000588861038981,90.27548913702202
6.029740032,0.9997381550697637,90.13119523038355
6.032027648,0.9994343033798275,89.99147479894732
6.034315264,0.9991663700445442,89.85590845287197
6.03660288,0.9989515287873121,89.72391293470106
6.038890496,0.9988035227079638,89.59460860120794
6.041178112,0.9987317456403665,89.46692231164948
6.043465728,0.9987407731104536,89.33970419213787
6.045753344,0.9988302929569154,89.21181479859595
6.04804096,0.9989942820373904,89.08207723551413
6.050329088,0.9992225449882457,88.94953339137001
6.052616704,0.9995006125048005,88.81329138325263
6.05490432,0.9998106386136688,88.67279853402353
6.057191936,1.0001331093829935,88.52774024024201
6.059479552,1.0004474351305146,88.37807034644601
6.061767168,1.0007336615329012,88.22404253007254
6.064054784,1.0009739568209508,88.06619295617529
6.0663424,1.0011525856464463,87.90535869578271
6.068630016,1.0012584813235816,87.74246212373941
6.070918144,1.0012850104231394,87.57863192871102
6.07320576,1.0012301815629623,87.4150212743403
6.075493376,1.0010977362234392,87.25278293710724
6.077780992,1.0008956849154198,87.09297885989301
6.080068608,1.0006371972861154,86.93655698993588
6.082356224,1.0003382877825366,86.78419647922634
6.08464384,1.000018093997829,86.6363419251614
6.086931456,0.9996967595607638,86.49317594549281
6.089219584,0.9993947719174968,86.35457255114257
6.0915072,0.9991313145374155,86.22013252958077
6.093794816,0.9989233187186785,86.08911965663319
6.096082432,0.9987837951660428,85.96069886348508
6.098370048,0.9987218111426028,85.83377341441668
6.100657664,0.998741340325377,85.70716534235162
6.10294528,0.9988411648612165,85.57969524473586
6.105232896,0.9990149221123773,85.45027651150878
6.107520512,0.999251569172557,85.31787118409592
6.10980864,0.9995361447241417,85.18170008793291
6.112096256,0.9998504483718947,85.04115682942015
6.114383872,1.000174714811571,84.89601747641593
6.116671488,1.0004881877507021,84.74625462299689
6.118959104,1.000770999209047,84.59217563420854
6.12124672,1.0010052934759102,84.43434685768302
6.123534336,1.0011760837047883,84.27361292890073
6.125821952,1.0012727112883972,84.11094448467085
6.128109568,1.0012888208010395,83.94746650693855
6.130397696,1.0012236970875978,83.78436696658918
6.132685312,1.001081073050996,83.62276705612312
6.134972928,1.0008700034621318,83.4637785472942
6.137260544,1.0006039488114813,83.30825770005983
6.13954816,1.0002997815275931,83.15688691725691
6.141835776,0.9999764987208285,83.01010041301174
6.144123392,0.9996549179491452,82.86803352378892
6.146411008,0.9993552181459655,82.7304981285284
6.148699136,0.999096673584131,82.59704896003797
6.150986752,0.9988956461255296,82.46698742823713
6.153274368,0.9987649591253732,82.33936293944036
6.155561984,0.9987129863273542,82.21309290704141
6.1578496,0.9987430383993108,82.08697347536463
6.160137216,0.9988533454971522,81.95988833153407
6.162424832,0.9990367843474531,81.83066862938779
6.164712448,0.9992818101429405,81.69834578215259
6.167000064,0.9995727981236505,81.5621207869065
6.169288192,0.9998912276785589,81.42149680871624
6.171575808,1.0002168369016622,81.27618402851645
6.173863424,1.0005290728678178,81.12625821333565
6.17615104,1.000808096473602,80.97204964879512
6.178438656,1.0010361894615842,80.81415609645732
6.180726272,1.0011989033552233,80.6534603044198
6.183013888,1.0012859217602068,80.49093473109447
6.185301504,1.0012917321239714,80.32777495275272
6.18758912,1.0012157822876142,80.16515295897759
6.189877248,1.0010629868828884,80.00419696542207
6.192164864,1.000842911695335,79.84591370311823
6.19445248,1.000569602540296,79.69127721993617
6.196740096,1.0002601516435492,79.5408743855406
6.199027712,0.999934246816467,79.39509334196862
6.201315328,0.9996126275500229,79.25402012928039
6.203602944,0.9993158231781989,79.11749122700911
6.20589056,0.9990624355046535,78.98500530131096
6.208178688,0.9988687825934426,78.85577263291513
6.210466304,0.9987471333243233,78.72886834167466
6.21275392,0.9987054356121107,78.60319159519285
6.215041536,0.9987463369320876,78.47750743281807
6.217329152,0.9988670590081619,78.35067206816214
6.219616768,0.9990602463307028,78.22157688496272
6.221904384,0.9993134058880088,78.08923193974906
6.224192,0.9996104905889618,77.95290633189406
6.226479616,0.9999326872986888,77.81204996840845
6.228767744,1.0002595858057586,77.6665198453967
6.23105536,1.0005702146201436,77.51636608374778
6.233342976,1.000845087431433,77.36193575115405
6.235630592,1.0010666503577152,77.20394161993723
6.237918208,1.001220930080897,77.04322677371371
6.240205824,1.0012979976223444,76.8808537978037
6.24249344,1.0012931574987425,76.71793874161067
6.244781056,1.001206553833956,76.55571684796782
6.247068672,1.0010435462654883,76.39530660129377
6.2493568,1.0008146212203366,76.2377719356735
6.251644416,1.0005341185449956,76.08390102989749
6.253932032,1.0002197880518173,75.93438382048019
6.256219648,0.9998915601711982,75.78955710253554
6.258507264,0.9995702777096599,75.64947403743723
6.26079488,0.9992764369917622,75.51388291767341
6.263082496,0.9990286157429827,75.3822328929598
6.265370112,0.9988426794106943,75.25378963205277
6.26765824,0.9987304956603444,75.12751754205321
6.269945856,0.9986992244819766,75.00231956117021
6.272233472,0.9987509517832006,74.87698297078465
6.274521088,0.9988822321196005,74.7503556687998
6.276808704,0.9990849863836929,74.62128335922793
6.27909632,0.9993461699677184,74.48883061126152
6.281383936,0.9996491715393487,74.3522881864836
6.283671552,0.9999749627064689,74.21118043181876
6.285959168,1.000302620183254,74.06532329295955
6.288247296,1.0006113028796821,73.91483564876324
6.290534912,1.0008817173556201,73.76017772958208
6.292822528,1.0010963553078789,73.60200359030149
6.295110144,1.0012419548090348,73.44119224678904
6.29739776,1.0013090222329255,73.27887055213995
6.299685376,1.0012933793582066,73.1162059833776
6.301972992,1.0011958802503056,72.95433404268216
6.304260608,1.0010227059497467,72.79444877762828
6.306548224,1.0007850554959339,72.63755417712687
6.308836352,1.0004974233505262,72.48445072323068
6.311123968,1.0001784549947121,72.33576307855773
6.313411584,0.9998482445375352,72.19184166475914
6.3156992,0.9995276515787412,72.05265158917186
6.317986816,0.9992371690313403,71.91793038752157
6.320274432,0.9989952194217712,71.78709772434047
6.322562048,0.9988173586623443,71.65933578655248
6.324849664,0.9987148451856594,71.53361291209741
6.327137792,0.9986942136130028,71.40885613634676
6.329425408,0.9987567848708578,71.28376598757937
6.331713024,0.998898745580004,71.15719964600706
6.33400064,0.9991110209315357,71.02809060224041
6.336288256,0.9993800789205731,70.89543662319068
6.338575872,0.9996889048186637,70.7586132175736
6.340863488,1.0000178269726168,70.61714229028668
6.343151104,1.0003458850974094,70.47089331635328
6.34543872,1.000652448586002,70.32004303520517
6.347726848,1.0009178456614485,70.16504338517778
6.350014464,1.0011253703232768,70.00663351024254
6.35230208,1.0012618421369497,69.84572221547977
6.354589696,1.0013186072027227,69.68341491319596
6.356877312,1.0012920646656203,69.52087008995932
6.359164928,1.0011837710288403,69.35933431160113
6.361452544,1.001000545493176,69.19990754816175
6.36374016,1.0007540138515634,69.04359390903763
6.366027776,1.0004597820668144,68.89122466070084
6.368315904,1.0001364275553497,68.74334405475366
6.37060352,0.9998044154422645,68.60023967781936
6.372891136,0.9994849172851357,68.4618813714829
6.375178752,0.9991982888469714,68.32795567465124
6.377466368,0.998962510722979,68.19783792769925
6.379753984,0.998792952521291,68.07071384037025
6.3820416,0.9987002854640091,67.94547661873972
6.384329216,0.9986904539025113,67.82101596396849
6.386617344,0.9987641004882919,67.69611553701746
6.38890496,0.9989166445153804,67.56954997529162
6.391192576,0.9991383231724217,67.44026469384686
6.393480192,0.9994150708618209,67.30738169805434
6.395767808,0.9997294119845745,67.17015951935933
6.398055424,1.0000611881489931,67.02825698249231
6.40034304,1.0003894301686025,66.88152892462217
6.402630656,1.0006932661026868,66.73027799107396
6.404918272,1.0009535635601796,66.5748762315948
6.4072064,1.0011535645502172,66.41616540983347
6.409494016,1.0012807531214196,66.25507220642824
6.411781632,1.0013270084897081,66.0927227715149
6.414069248,1.0012894063867201,65.93031193123399
6.416356864,1.001170181188705,65.7690275297354
6.41864448,1.0009769406120408,65.6100124366923
6.420932096,1.0007218892712983,65.45427201590725
6.423219712,1.0004210815141934,65.30255581600048
6.425507328,1.0000935955072094,65.15540598692719
6.427795456,0.9997603213342983,65.01307206285506
6.430083072,0.9994421435423678,64.8754922537126
6.432370688,0.9991595427800359,64.74229257276022
6.434658304,0.9989305006020994,64.61283059884755
6.43694592,0.9987695910495602,64.48620468498102
6.439233536,0.9986870113953076,64.36139619682034
6.441521152,0.9986880981597533,64.23718490013488
6.443808768,0.9987729069167598,64.11233357003486
6.446096896,0.998936033868973,63.985692781861985
6.448384512,0.9991670548178612,63.8561842922001
6.450672128,0.9994513017100434,63.72290806394769
6.452959744,0.9997708679998251,63.5852583024118
6.45524736,1.0001052221108127,63.442844012883924
6.457534976,1.0004332816627872,63.29559466347942
6.459822592,1.0007341267573693,63.14379814719415
6.462110208,1.0009887436221898,62.98797661729338
6.464397824,1.0011810446690808,62.82887084958238
6.466685952,1.001298659863742,62.667555619791166
6.468973568,1.0013342022940894,62.50512369096437
6.471261184,1.001285439982136,62.34278081330769
6.4735488,1.001155420280494,62.181724477216974
6.475836416,1.000952227369021,62.02310309141375
6.478124032,1.0006886889207458,61.86783710450123
6.480411648,1.0003816332189448,61.71673755452177
6.482699264,1.000050328283377,61.57026905495462
6.48498688,0.9997158852933206,61.42864389870627
6.487275008,0.9993996035319739,61.291774034672365
6.489562624,0.9991215173490523,61.15920812376851
6.49185024,0.9988993140179422,61.03031937613256
6.494137856,0.9987472583073391,60.90417805705761
6.496425472,0.9986750133592945,60.77966823922569
6.498713088,0.9986872253542047,60.65560044016794
6.501000704,0.9987831754834661,60.53075267392017
6.50328832,0.9989567977853026,60.403943112049376
6.505576448,0.9991970319128509,60.27411588832338
6.507864064,0.9994886179724596,60.14039447425223
6.51015168,0.9998130811257971,60.00219690930131
6.512439296,1.000149642846683,59.859205503031774
6.514726912,1.0004771361991687,59.71136052100087
6.517014528,1.0007746121425563,59.55897573212374
6.519302144,1.0010233541541835,59.40263388588796
6.52158976,1.0012074882725608,59.24313526258019
6.523877376,1.001315321858116,59.081531650620846
6.526165504,1.0013400454455064,58.918957463915795
6.52845312,1.0012800859492066,58.756611782906184
6.530740736,1.0011391110285355,58.59574845473802
6.533028352,1.0009259491155205,58.437446732110885
6.535315968,1.000654279597004,58.282623367063174
6.537603584,1.000341154396032,58.132086682246346
6.5398912,1.0000063970758315,57.98623004570818
6.542178816,0.9996712598307206,57.84526706746294
6.544466432,0.9993570949662238,57.709036103231
6.54675456,0.9990837258233705,57.577070118538174
6.549042176,0.998868853951412,57.44867199012297
6.551329792,0.9987258593323843,57.3228909780479
6.553617408,0.9986642449200035,57.198603899532564
6.555905024,0.9986876373886141,57.074617157065546
6.55819264,0.9987947396659697,56.94966238194985
6.560480256,0.9989788631930128,56.822580458534325
6.562767872,0.9992281132737061,56.69233866281831
6.565056,0.9995267522756738,56.558124839597575
6.567343616,0.9998558578851137,56.419321656783396
6.569631232,1.000194380402786,56.275643758793436
6.571918848,1.0005209767796173,56.12713797080439
6.574206464,1.0008147538863748,55.974106048950794
6.57649408,1.0010572249287955,55.81719458170144
6.578781696,1.0012330278261854,55.657237428926344
6.581069312,1.0013308032328216,55.495294645086
6.583356928,1.0013445611567473,55.3325136008231
6.585645056,1.0012732106671338,55.1701705738832
6.587932672,1.0011213907794134,55.00941483913696
6.590220288,1.00089849357888,54.8513920510084
6.592507904,1.0006187800096278,54.696998013081455
6.59479552,1.000299815702369,54.546937356351144
6.597083136,0.9999618478019445,54.40166831759095
6.599370752,0.9996264076945667,54.26128021873551
6.601658368,0.9993146252465209,54.12559231847409
6.603945984,0.9990464922383844,53.994173991431936
6.606234112,0.9988391258034972,53.866204619256166
6.608521728,0.9987056520409957,53.740696676999484
6.610809344,0.9986546066169929,53.616547560744905
6.61309696,0.9986894133249332,53.49252719059155
6.615384576,0.9988077951823492,53.36740306928978
6.617672192,0.9990022072772567,53.23997318970758
6.619959808,0.9992603367904387,53.10924733783088
6.622247424,0.9995658706076227,52.97440597793244
6.624535552,0.999899271592739,52.83490058993855
6.626823168,1.0002393912255403,52.690505749901945
6.629110784,1.0005646911944082,52.54124828677918
6.6313984,1.0008544712705425,52.38752249414508
6.633686016,1.001090343936479,52.22999040721802
6.635973632,1.0012573970936147,52.0694864942617
6.638261248,1.0013450322351831,51.907159812226894
6.640548864,1.001347627805221,51.74414250599268
6.64283648,1.001264930618415,51.58170755426089
6.645124608,1.0011022006588581,51.42104251036799
6.647412224,1.0008696962937944,51.26326075432389
6.64969984,1.0005822208053865,51.10921730307282
6.651987456,1.0002577298296007,50.959615644021476
6.654275072,0.999916913918468,50.81482052149277
6.656562688,0.9995814147528134,50.67497853092201
6.658850304,0.9992724904340602,50.53982361418783
6.66113792,0.9990099188553268,50.40880540596683
6.663426048,0.998810319809519,50.281169133267646
6.665713664,0.9986865325450892,50.155886016128306
6.66800128,0.9986463860711391,50.031812677394115
6.670288896,0.9986925546023873,49.90769427114862
6.672576512,0.9988221364159886,49.78226623651275
6.674864128,0.9990268182878659,49.6543941357598
6.677151744,0.9992937118584784,49.52310816115151
6.67943936,0.9996057762599324,49.38755468045681
6.681726976,0.9999432704932115,49.24730893131449
6.684015104,1.0002846594573485,49.102082093645194
6.68630272,1.0006083505269254,48.95202387054072
6.688590336,1.0008937267441966,48.797532580177844
6.690877952,1.0011227240350258,48.63928735293665
6.693165568,1.001280833482545,48.47823106010589
6.695453184,1.0013580976154617,48.31546314585534
6.6977408,1.0013494188699736,48.152175070799736
6.700028416,1.0012553737380556,47.989606816250465
6.702316032,1.0010819338729442,47.82898817942651
6.70460416,1.0008399395942718,47.67135475839808
6.706891776,1.0005447790568638,47.51761120342594
6.709179392,1.0002150325035453,47.36840997338117
6.711467008,0.9998717743839466,47.224079774576474
6.713754624,0.9995365310972618,47.084671567845504
6.71604224,0.9992308709045014,46.94994140168233
6.718329856,0.9989740430723887,46.819317112597226
6.720617472,0.9987825965478536,46.69193750792961
6.7229056,0.9986687169434149,46.56677372043215
6.725193216,0.9986395530098072,46.44266873742818
6.727480832,0.9986972043696598,46.31836156425099
6.729768448,0.9988379287697065,46.1925730831408
6.732056064,0.9990528413915905,46.064188795933916
6.73434368,0.9993281761826397,45.93222439576468
6.736631296,0.9996465595314055,45.795927927272125
6.738918912,0.9999877820736228,45.65482208703306
6.741206528,1.000330012757427,45.508705236209096
6.743494656,1.0006517354141615,45.35776625959225
6.745782272,1.0009324503829415,45.202450240227954
6.748069888,1.0011542095602743,45.043467602729294
6.750357504,1.00130314534766,44.88178110009164
6.75264512,1.0013697859634285,44.71851506001963
6.754932736,1.0013497315430961,44.55489956242935
6.757220352,1.0012444449576607,44.39216272931156
6.759507968,1.001060204245758,44.2315141137384
6.761795584,1.0008089924717685,44.07402007678929
6.764083712,1.0005064587331458,43.920534105368525
6.766371328,1.0001718309909595,43.77164614397038
6.768658944,0.9998263404870237,43.62768942048095
6.77094656,0.999491782887581,43.48870934622474
6.773234176,0.9991896377925419,43.354330266747674
6.775521792,0.9989390141646644,43.223967490691805
6.777809408,0.9987559099920751,43.09678217477479
6.780097024,0.9986520691729017,42.97168613715553
6.782385152,0.9986341472897111,42.847451202089665
6.784672768,0.9987033026363787,42.72284130771464
6.786960384,0.9988550548224124,42.5966314962037
6.789248,0.9990799818310337,42.467633673057136
6.791535616,0.99936371293729,42.33491177665094
6.793823232,0.9996880833494232,42.19776238379857
6.796110848,1.0000327175292492,42.055737959150285
6.798398464,1.0003755785470525,41.90868218759193
6.80068608,1.0006949531969385,41.75679184978254
6.802974208,1.0009705766832728,41.60059052018375
6.805261824,1.0011848725605992,41.44079779642071
6.80754944,1.0013243844373123,41.2784330488449
6.809837056,1.0013803073769543,41.1146204792956
6.812124672,1.0013488892688487,40.95061710689854
6.814412288,1.0012321227224898,40.78767835213571
6.816699904,1.0010373904537586,40.626982485629746
6.81898752,1.0007769768262664,40.46954883647942
6.821275136,1.0004672800448848,40.31626476405943
6.823563264,1.0001280128706123,40.167656839093695
6.82585088,0.999780595410743,40.02403651133791
6.828138496,0.9994471302680541,39.8853514188407
6.830426112,0.9991488022465457,39.751282137231115
6.832713728,0.9989046706818578,39.621131382006816
6.835001344,0.9987302461596688,39.49402945359433
6.83728896,0.9986366301894122,39.36888048575874
6.839576576,0.9986299922626035,39.244461204981754
6.841864704,0.998710566739757,39.119492814775
6.84415232,0.9988734730424058,38.9927282851715
6.846439936,0.9991082167234795,38.86303449467229
6.848727552,0.9994000466111441,38.72951442946246
6.851015168,0.9997302073683698,38.591420952436934
6.853302784,1.0000778946727884,38.44839489466643
6.8555904,1.0004209926200587,38.30033389446366
6.857878016,1.0007377054094297,38.14743553803673
6.860165632,1.001007930955198,37.9902742701604
6.86245376,1.0012144939575929,37.82962137464672
6.864741376,1.0013444677759622,37.66653233246835
6.867028992,1.0013894799038103,37.50212703888345
6.869316608,1.0013465854587986,37.337700946846674
6.871604224,1.0012185185847098,37.174482226269035
6.87389184,1.001013295166418,37.01366829868886
6.876179456,1.0007439419461093,36.856272675262545
6.878467072,1.0004273844304292,36.70310239329287
6.880754688,1.000083806125209,36.55473519347622
6.883042816,0.9997348488868294,36.41137054085836
6.885330432,0.999402761600387,36.272957709834685
6.887618048,0.9991086237986798,36.13906825154336
6.889905664,0.9988712056376494,36.00907113939468
6.89219328,0.9987056715362441,35.88199571087935
6.894480896,0.9986225492563788,35.7567172725035
6.896768512,0.9986272065222862,35.6320106766781
6.899056128,0.9987192839876499,35.50657177114457
6.901344256,0.9988931116287979,35.37918305343103
6.903631872,0.9991376141163917,35.24871033886086
6.905919488,0.9994371742310877,35.11427767122842
6.908207104,0.9997728654597235,34.97518368423952
6.91049472,1.000123367780146,34.83108978060908
6.912782336,1.000466320333639,34.68191889554093
6.915069952,1.000780011457412,34.52796243497156
6.917357568,1.001044542617077,34.36978459034202
6.919645184,1.0012431942557307,34.20822852890473
6.921933312,1.0013633308848569,34.04434334406117
6.924220928,1.001397261453147,33.87931931004097
6.926508544,1.0013428405311298,33.714406649860244
6.92879616,1.0012035188773927,33.55086542983634
6.931083776,1.0009879691490426,33.389907794527645
6.933371392,1.0007098218161434,33.232485246409965
6.935659008,1.000386808554148,33.0794047978434
