freq,mag,phase
6.0,0.9998045825898688,-118.91421875751209
6.004502016,0.9998038792910873,-119.16828145574095
6.009004032,0.9998154610156894,-119.42243860758126
6.013506048,0.999837985529174,-119.67687977659938
6.018008064,0.9998702871403424,-119.93176639892604
6.02251008,0.9999103504173025,-120.18715874773488
6.027011584,0.9999559494174758,-120.44321804103289
6.0315136,1.000004254424152,-120.69999105454485
6.036015616,1.0000525740523445,-120.95743967773168
6.040517632,1.000097763609091,-121.21563184592465
6.045019648,1.0001374854938296,-121.47443110593338
6.049521664,1.0001690493150082,-121.73377876101961
6.05402368,1.0001907945637671,-121.99354121222505
6.058525696,1.0002012297094012,-122.25355479413345
6.063027712,1.0001999394552332,-122.51368911645794
6.067529728,1.0001868910532044,-122.77377014436628
6.072031744,1.0001626943020858,-123.03359783204074
6.076533248,1.0001289563923914,-123.29307038819985
6.081035264,1.0000875486034821,-123.55207296984409
6.08553728,1.0000410809620526,-123.81047536268707
6.090039296,0.9999921340934222,-124.06825537664415
6.094541312,0.9999436349831572,-124.32542384306734
6.099043328,0.9998984139168289,-124.58192606677106
6.103545344,0.9998593399853688,-124.83786443837315
6.10804736,0.9998285828883858,-125.09336781553975
6.112549376,0.9998081053010796,-125.34853098894277
6.117051392,0.9997990085221491,-125.60356312027122
6.121553408,0.9998019808844244,-125.85852346672617
6.126054912,0.9998166613679025,-126.11365900948809
6.130556928,0.9998424665498437,-126.36915337498957
6.135058944,0.9998777113908541,-126.62507844666261
6.13956096,0.9999202698734327,-126.88160893900044
6.144062976,0.9999677869508667,-127.13879271791426
6.148564992,1.0000173163799722,-127.39668521374087
6.153067008,1.0000659799197003,-127.6553039289369
6.157569024,1.0001108469540043,-127.91459844896472
6.16207104,1.0001493529840582,-128.17458249120264
6.166573056,1.000179131126352,-128.43502835571567
6.171075072,1.0001983668541483,-128.6958703728849
6.175576576,1.0002059966439545,-128.95694757660036
6.180078592,1.0002014837718274,-129.21805987400987
6.184580608,1.0001850435094841,-129.47907536819488
6.189082624,1.000157741242236,-129.73980603419352
6.19358464,1.0001210672444645,-130.0001596625448
6.198086656,1.0000772712670303,-130.25996380186433
6.202588672,1.0000289063529946,-130.51915175909042
6.207090688,0.999978763506844,-130.77768183310255
6.211592704,0.9999299662623692,-131.03553734734382
6.21609472,0.9998852155436486,-131.29280568036742
6.220596736,0.9998474445229153,-131.54949707189277
6.22509824,0.9998186705425489,-131.80573912989513
6.229600256,0.9998006426514735,-132.06171933047136
6.234102272,0.9997945664777171,-132.31753466380115
6.238604288,0.9998006998838509,-132.57340661549188
6.243106304,0.9998187170727139,-132.82946069066662
6.24760832,0.999847619104281,-133.0858890077591
6.252110336,0.9998857489001974,-133.34280617274692
6.256612352,0.9999307259572164,-133.60033225829454
6.261114368,0.9999800417016972,-133.85858477533822
6.265616384,1.0000305915035212,-134.117533559269
6.2701184,1.0000794965013096,-134.37724848568294
6.274619904,1.000123877126162,-134.63763104982385
6.27912192,1.0001609897906885,-134.8986293546357
6.283623936,1.0001887024820626,-135.1601195379635
6.288125952,1.0002053441669703,-135.42194607836842
6.292627968,1.000209907747662,-135.68394757550712
6.297129984,1.0002021356415924,-135.94597023791908
6.301632,1.0001824204614562,-136.20781867309643
6.306134016,1.0001519698896775,-136.46937789246547
6.310636032,1.0001124637827286,-136.73046065851094
6.315138048,1.000066305630835,-136.99098989337958
6.319640064,1.0000162809629414,-137.2508656687298
6.324141568,0.9999652198433772,-137.5100307917954
6.328643584,0.9999162283242665,-137.76857412815812
6.3331456,0.9998722093382321,-138.02646828928314
6.337647616,0.9998358210666701,-138.28382633630721
6.342149632,0.9998091053072096,-138.54078022042017
6.346651648,0.9997938767195295,-138.79744626018757
6.351153664,0.9997908450705536,-139.054040379153
6.35565568,0.9998002542777813,-139.31069285094404
6.360157696,0.9998216370536864,-139.56760012257655
6.364659712,0.9998537578069973,-139.8248831243823
6.369161728,0.9998946093977709,-140.08271424594975
6.373663232,0.9999419164600286,-140.3411993241394
6.378165248,0.999992730751393,-140.60040443657132
6.382667264,1.0000441290764277,-140.8603768979853
6.38716928,1.0000931453842048,-141.12106792653518
6.391671296,1.000136723760911,-141.38241541804214
6.396173312,1.0001723005006637,-141.6443620281946
6.400675328,1.000197871200967,-141.90680543011513
6.405177344,1.0002117876876886,-142.16949427660316
6.40967936,1.0002131993350123,-142.432359967376
6.414181376,1.0002020964364375,-142.69519659341643
6.418683392,1.0001789847972342,-142.95781067438134
6.423184896,1.000145392717772,-143.22006749090372
6.427686912,1.0001031209129836,-143.48178888781715
6.432188928,1.0000547799316528,-143.74291167882558
6.436690944,1.0000032395962088,-144.00339419657593
6.44119296,0.9999514210898401,-144.26313968961693
6.445694976,0.9999024810628558,-144.52222692010133
6.450196992,0.9998593259370427,-144.78068255529686
6.454699008,0.9998245053523205,-145.03861975244968
6.459201024,0.9998001563795743,-145.29615612054425
6.46370304,0.9997876291035352,-145.55346989063017
6.468205056,0.9997878726909791,-145.81070353970003
6.47270656,0.9998007021718033,-146.06808067984812
6.477208576,0.99982544130082,-146.32572561578692
6.481710592,0.9998606334153661,-146.58383460644308
6.486212608,0.9999041915488668,-146.84251007713155
6.490714624,0.9999536678156349,-147.10186640433963
6.49521664,1.0000059331126565,-147.36194549054522
6.499718656,1.0000580469164337,-147.62281505925662
6.504220672,1.000106900237122,-147.88438994574798
6.508722688,1.000149531206422,-148.14666290154975
6.513224704,1.0001834158047127,-148.4094650315139
6.51772672,1.0002065662571733,-148.6727387858755
6.522228224,1.0002176043066553,-148.93624325434908
6.52673024,1.0002158741657488,-149.1998221007326
6.531232256,1.0002013168241828,-149.46335751119344
6.535734272,1.0001748850581111,-149.72662853194888
6.540236288,1.0001381928340354,-149.98947689887453
6.544738304,1.000093245110558,-150.25175316795088
6.54924032,1.0000428556282441,-150.51340606811743
6.553742336,0.9999898951255131,-150.77433866819024
6.558244352,0.9999375362003841,-151.034578615409
6.562746368,0.9998887606526798,-151.29412834049768
6.567248384,0.9998467878808954,-151.55306243680613
6.571749888,0.999813745502078,-151.81147016209107
6.576251904,0.9997918602478428,-152.06952572715147
6.58075392,0.9997822591717557,-152.32738750889823
6.585255936,0.9997857202447936,-152.58521235503804
6.589757952,0.9998019618568392,-152.84325034275608
6.594259968,0.9998300296818625,-153.10154990968863
6.598761984,0.9998683416896361,-153.36035594933017
6.603264,0.9999145736886011,-153.61977916245775
6.607766016,0.9999659571253612,-153.87992677360077
6.612268032,1.000019564963232,-154.14081435382926
6.616770048,1.0000721557140324,-154.40245938357384
6.621271552,1.0001206371536528,-154.66487348326098
6.625773568,1.000162105315195,-154.92792012360454
6.630275584,1.0001941319716234,-155.19151548177527
6.6347776,1.0002146802789895,-155.45550117790984
6.639279616,1.000222692973436,-155.71968970840055
6.643781632,1.000217570277324,-155.9839454132307
6.648283648,1.000199574614783,-156.24804054915688
6.652785664,1.0001698630728773,-156.5118847932322
6.65728768,1.0001300679804084,-156.77518906691284
6.661789696,1.0000825923082666,-157.03793938039829
6.666291712,1.0000302301568873,-157.3000027792088
6.670793728,0.9999759782734929,-157.56134331216072
6.675295232,0.9999232280209563,-157.8219460437131
6.679797248,0.9998750424581887,-158.08185674913835
6.684299264,0.999834091876215,-158.34116747938378
6.68880128,0.9998032436723173,-158.59998039963062
6.693303296,0.999783842165773,-158.85847371989243
6.697805312,0.9997774161849639,-159.11680508045836
6.702307328,0.9997842653910295,-159.37511203646378
6.706809344,0.9998039496502235,-159.63366268824504
6.71131136,0.9998353969395005,-159.89257954504313
6.715813376,0.999876680629531,-160.15202762398386
6.720315392,0.9999253949860238,-160.41210687397404
6.724816896,0.9999786719058319,-160.67293875969355
6.729318912,1.0000334332459697,-160.9345741669974
6.733820928,1.0000863767762365,-161.19694893737017
6.738322944,1.0001342444890196,-161.4600559557039
6.74282496,1.0001743835940433,-161.72378627538774
6.747326976,1.0002042219077354,-161.9880575962607
6.751828992,1.0002220931366743,-162.25265700714996
6.756331008,1.0002270397163062,-162.51745912823088
6.760833024,1.0002184418842985,-162.7822463242885
6.76533504,1.0001970687562796,-163.04684322841402
6.769837056,1.0001639675164316,-163.3110687317771
6.77433856,1.0001212142401985,-163.57479455179896
6.778840576,1.000071211140231,-163.8378784775014
6.783342592,1.0000170268232418,-164.10025654133187
6.787844608,0.9999618323983375,-164.36187406932763
6.792346624,0.9999088276483424,-164.62275339572176
6.79684864,0.9998611944816189,-164.88294488579032
6.801350656,0.9998218664259575,-165.14251270677283
6.805852672,0.9997930563194202,-165.40162687299892
6.810354688,0.999776597676182,-165.6604557659059
6.814856704,0.9997733152349979,-165.91918401842125
6.81935872,0.9997836227559439,-166.177933347017
6.823860224,0.9998067639720725,-166.4369084378747
6.82836224,0.9998415358834477,-166.69634989530545
6.832864256,0.9998858033678769,-166.95634063071182
6.837366272,0.999936989042832,-167.21702271316306
6.841868288,0.9999919992950329,-167.47846552643642
6.846370304,1.0000476541339525,-167.74070629998616
6.85087232,1.0001007306748761,-168.00370208942164
6.855374336,1.000147867625596,-168.26743115317157
6.859876352,1.000186376819884,-168.53176922154117
6.864378368,1.000213928871049,-168.79656735145605
6.868880384,1.0002289873297203,-169.06173546898899
6.873381888,1.000230483282407,-169.32699690834608
6.877883904,1.0002184887072791,-169.592221095714
6.88238592,1.0001935974486282,-169.85719301234292
6.886887936,1.0001571281150614,-170.12175344755698
6.891389952,1.0001114385965464,-170.38574020329895
6.895891968,1.000059168449123,-170.6490608698083
6.900393984,1.0000032299371961,-170.91164108097152
6.904896,0.9999471665538946,-171.17345060420988
6.909398016,0.9998942283041519,-171.4344943924295
6.913900032,0.9998474097475801,-171.69485115902737
6.918402048,0.9998098014299283,-171.95464099110535
6.922903552,0.9997833574198075,-172.21396892633692
6.927405568,0.9997697842268491,-172.47303400810642
6.931907584,0.999769908043806,-172.73202571841642
6.9364096,0.9997837103591551,-172.9911069136799
6.940911616,0.9998104244838402,-173.25050853094632
6.945413632,0.9998484618826481,-173.51033953902706
6.949915648,0.9998956471300189,-173.77078567532482
6.954417664,0.9999490812408672,-174.03197185075192
6.95891968,1.0000057237800948,-174.2939245869597
6.963421696,1.0000621348053313,-174.5567035847837
6.967923712,1.000115012297333,-174.82022198775365
6.972425216,1.0001612718408168,-175.08447230672695
6.976927232,1.0001980700437274,-175.3493209645756
6.981429248,1.0002231430068569,-175.614618456613
6.985931264,1.0002351787082209,-175.8801817224517
6.99043328,1.0002333403190098,-176.14583040919516
6.994935296,1.0002177754164376,-176.4113580707592
6.999437312,1.000189297640749,-176.67659860319696
7.003939328,1.0001495535496567,-176.94139198960457
7.008441344,1.000101055548072,-177.20554776110134
7.01294336,1.00004644087996,-177.46901586416453
7.017445376,0.9999891588685874,-177.73166533840327
7.02194688,0.9999323762166347,-177.9935587713175
7.026448896,0.9998795587080915,-178.2546784067178
7.030950912,0.9998339321206197,-178.51512554573915
7.035452928,0.9997981040253838,-178.77498456767594
7.039954944,0.9997742609289665,-179.03444321185162
7.04445696,0.9997638134170109,-179.29369454448226
7.048958976,0.9997673490766501,-179.55286366544564
7.053460992,0.9997847737644602,-179.81220062586075
7.057963008,0.9998150586844575,179.92812161854528
7.062465024,0.999856454905921,179.6679428247422
7.06696704,0.9999063692871867,179.40711382876594
7.071468544,0.9999619466428639,179.14553197513013
7.07597056,1.0000200591838109,178.88311659613154
7.080472576,1.000077005461516,178.61993566085835
7.084974592,1.0001296572567862,178.35593794963003
7.089476608,1.0001745905927422,178.09129831499396
7.093978624,1.000209454384406,177.82601334246925
7.09848064,1.0002320412611754,177.56036527052427
7.102982656,1.0002408747096718,177.2945034047188
7.107484672,1.0002355009246704,177.02857688108998
7.111986688,1.0002163020850288,176.76280387013108
7.116488704,1.0001841636732904,176.4974225057803
7.120990208,1.0001413105919092,176.23252906168457
7.125492224,1.000090020293115,175.9682983478108
7.12999424,1.0000332177829272,175.70482555364984
7.134496256,0.9999746147416811,175.4421365911014
7.138998272,0.9999173511171237,175.1802779492334
7.143500288,0.9998650559005373,174.91916749194348
7.148002304,0.9998206458704235,174.6587392869915
7.15250432,0.9997868608405325,174.39887146393968
7.157006336,0.9997657031909868,174.13937694504745
7.161508352,0.9997584173319934,173.88009150196885
7.166010368,0.9997655537218484,173.62077396939236
7.170511872,0.9997867279375865,173.36126860012243
7.175013888,0.9998205311147395,173.1013881673095
7.179515904,0.999865071731271,172.84094526605878
7.18401792,0.9999177424354437,172.57982784414818
7.188519936,0.9999754383283457,172.31791827843858
7.193021952,1.0000347322233853,172.0551944979093
7.197523968,1.0000921725900027,171.791619699701
7.202025984,1.0001442286861362,171.5273044629901
7.206528,1.0001878552229808,171.26229615612013
7.211030016,1.0002204107329076,170.996748891442
7.215532032,1.000240124831832,170.73082936190244
7.220033536,1.0002457830719411,170.4647410297098
7.224535552,1.0002368277423197,170.1986663017566
7.229037568,1.0002138577535928,169.93278461241587
7.233539584,1.0001781414116775,169.66733226790777
7.2380416,1.0001320750084213,169.40243747490666
7.242543616,1.0000780499486621,169.13825584882218
7.247045632,1.0000193646985727,168.87484335167073
7.251547648,0.9999595639607761,168.61228786799228
7.256049664,0.9999020897352308,168.35054948491248
7.26055168,0.9998503079453762,168.0895499004799
7.265053696,0.9998074994494481,167.8292112875479
7.2695552,0.999775890108977,167.5694386452257
7.274057216,0.9997576699983676,167.30998527336777
7.278559232,0.9997538127899396,167.05070099405455
7.283061248,0.9997646403625952,166.7913535601824
7.287563264,0.9997893744177374,166.5317722462452
7.29206528,0.9998267471211895,166.271755065548
7.296567296,0.9998746099163256,166.01114684211277
7.301069312,0.9999298801822807,165.74981813091307
7.305571328,0.999989392709974,165.48767761467752
7.310073344,1.000049846112439,165.22468019196407
7.31457536,1.0001073868874566,164.9608718960033
7.319076864,1.0001586440907255,164.69628111184244
7.32357888,1.0002007177498013,164.4310500635256
7.328080896,1.0002310374399503,164.1653043260222
7.332582912,1.000247668618069,163.8992044606569
7.337084928,1.0002497435556772,163.63298108168115
7.341586944,1.00023703961253,163.36685656118073
7.34608896,1.0002104032091237,163.10097835731838
7.350590976,1.0001713436997497,162.83555930207353
7.355092992,1.000122004306424,162.57077648657366
7.359595008,1.0000654217248544,162.30672823175618
7.364097024,1.0000049198438126,162.0435149669633
7.368598528,0.9999441220353691,161.781139165987
7.373100544,0.9998865564431734,161.51959101513367
7.37760256,0.9998356167951297,161.25882393943888
7.382104576,0.9997943869564122,160.9987126945691
7.386606592,0.9997654000799185,160.739087270334
7.391108608,0.9997501759006197,160.47978942513032
7.395610624,0.9997499393913221,160.22058642049498
7.40011264,0.9997644770179418,159.96129518526377
7.404614656,0.9997929946862181,159.7017134344096
7.409116672,0.9998340242739694,159.44164409281916
7.413618688,0.9998849022582541,159.18093423584244
7.418120192,0.9999426682163288,158.91946077243844
7.422622208,1.0000040431614814,158.65714079150868
7.427124224,1.0000651958677578,158.39399961176676
7.43162624,1.000122798142007,158.13000391337278
7.436128256,1.0001731773179996,157.8652393273156
7.440630272,1.0002133637202681,157.5998471588062
7.445132288,1.0002410652652454,157.33399011679617
7.449634304,1.0002545712650814,157.06784743810235
7.45413632,1.0002531167305693,156.8016266927469
7.458638336,1.0002366583913453,156.5355244763748
7.463140352,1.0002061769399861,156.26974800403073
7.467641856,1.0001635763596697,156.0044785766462
7.472143872,1.0001111238689004,155.73989557936355
7.476645888,1.0000520946846472,155.47609623032548
7.481147904,0.9999898231447536,155.2131536773436
7.48564992,0.9999283386209391,154.95105653010106
7.490151936,0.9998707742333761,154.68985080871005
7.494653952,0.9998209426094288,154.42936827296637
7.499155968,0.9997818368343707,154.1695324350822
7.503657984,0.9997554731127485,153.9101619715204
7.50816,0.9997435124628296,153.65107166142923
7.512662016,0.9997469029723178,153.39204439301443
7.51716352,0.9997652489786055,153.13287281090624
7.521665536,0.999797636942243,152.87333969368842
7.526167552,0.9998421931399841,152.61329634177636
7.530669568,0.9998960089202649,152.35256345750315
7.535171584,0.9999562137513219,152.09104120180285
7.5396736,1.000019117543766,151.82865283857555
7.544175616,1.0000811468413064,151.5654156610378
7.548677632,1.0001384339659922,151.30131649062713
7.553179648,1.0001875769444286,151.0364735398354
7.557681664,1.0002257679087079,150.77102738891696
7.56218368,1.0002506498840966,150.50514139456487
7.566685184,1.0002608831263222,150.23904086603798
7.5711872,1.000255627554761,149.97288580089614
7.575689216,1.0002353264708175,149.70692747166686
7.580191232,1.0002011027383133,149.44135027579065
7.584693248,1.0001548138046041,149.17632336439354
7.589195264,1.000099465926222,148.91203568622262
7.59369728,1.0000381386159924,148.648568287049
7.598199296,0.9999744387433287,148.38599307689213
7.602701312,0.9999121673245029,148.12430114913298
7.607203328,0.9998551034824701,147.86347066763136
7.611705344,0.9998065147504431,147.60338405270105
7.616206848,0.9997694235202478,147.34392084094424
7.620708864,0.999745890659148,147.08485745326539
7.62521088,0.9997375173619102,146.82606276001638
7.629712896,0.9997445986070027,146.56728260018434
7.634214912,0.9997669157921928,146.30830200267872
7.638716928,0.999803160428055,146.04893108834978
7.643218944,0.9998510623903774,145.7889677049925
7.64772096,0.9999080373510176,145.5282752893237
7.652222976,0.9999704859850145,145.26677221695016
7.656724992,1.0000349145538572,145.00438453266383
7.661227008,1.0000972087251583,144.74110459557122
7.665728512,1.0001540060777385,144.47700128180168
7.670230528,1.000201919935831,144.2121691324153
7.674732544,1.000237895864774,143.94676898270777
7.67923456,1.0002597909813704,143.68095226664383
7.683736576,1.0002664922446882,143.4149564709567
7.688238592,1.00025735553317,143.14896453175533
7.692740608,1.0002330765004839,142.88322798465703
7.697242624,1.0001949208738814,142.61793322568226
7.70174464,1.000145221745035,142.35327920143177
7.706246656,1.0000869422743188,142.08937733373452
7.710748672,1.0000234267030585,141.8263394462131
7.715250176,0.9999583225295291,141.56421801796003
7.719752192,0.9998957542040064,141.30299589794953
7.724254208,0.9998392579485876,141.0426372372239
7.728756224,0.9997922496476658,140.7830111833738
7.73325824,0.9997574538890793,140.52398241473122
7.737760256,0.9997371413758889,140.26534589984732
7.742262272,0.9997321990122362,140.006891715865
7.746764288,0.9997431996719722,139.74841028022303
7.751266304,0.9997695873818355,139.48968348592163
7.75576832,0.9998096341984535,139.2305124929834
7.760270336,0.9998610722265124,138.97072090474816
7.76477184,0.9999208378431289,138.7101597881858
7.769273856,0.9999854571243663,138.4487221536914
7.773775872,1.000051000932952,138.18640048466972
7.778277888,1.0001138318481246,137.92317494924686
7.782779904,1.0001699325897333,137.6591170646061
7.78728192,1.0002159633079546,137.39438650624587
7.791783936,1.0002494647111861,137.12908167946983
7.796285952,1.000268273922363,136.86343288482306
