freq,mag,phase
6.0,0.9999754771625833,140.6805175800273
6.040816128,0.999973561789888,138.0206717907547
6.081632768,0.9999709672728833,135.36542856678184
6.122448896,0.9999689217207286,132.7147066253373
6.163265536,0.9999672619362157,130.06843917469268
6.204081664,0.9999660290124588,127.42651469306428
6.244897792,0.999965383375593,124.7888904492672
6.285714432,0.9999651106990225,122.15547606098748
6.32653056,0.9999653342133535,119.52613853855169
6.367346688,0.9999661007114824,116.90083474340659
6.408163328,0.9999673040997786,114.27944062805962
6.448979456,0.9999688963928287,111.66184860040649
6.489796096,0.9999709073571735,109.04795290374348
6.530612224,0.9999733371510412,106.43764451385029
6.571428352,0.9999760730298342,103.83083077852405
6.612244992,0.9999791897732057,101.22739663317205
6.65306112,0.999982544228362,98.62722199570835
6.69387776,0.9999860378619773,96.03016856340354
6.734693888,0.9999897559122563,93.43612390025291
6.775510016,0.9999936511910825,90.84499298789703
6.816326656,0.9999976733786441,88.25661751930947
6.857142784,1.0000016700213452,85.6708880339866
6.897959424,1.000005708622901,83.08766128650154
6.938775552,1.0000095410550587,80.50684193968335
6.97959168,1.000013426586763,77.92825269232567
7.02040832,1.00001708066049,75.35179154410056
7.061224448,1.0000205010845329,72.77734460645821
7.102040576,1.0000236970561482,70.20470906363083
7.142857216,1.0000266331152268,67.63381285831042
7.183673344,1.0000292448794672,65.06451894690363
7.224489984,1.0000314442134164,62.496647818989615
7.265306112,1.0000332801765537,59.93010901845508
7.30612224,1.000034598557133,57.3647127209097
7.34693888,1.0000356078816848,54.80037545030347
7.387755008,1.0000361335545551,52.23691529571793
7.428571648,1.0000362072939972,49.67421151249008
7.469387776,1.0000359010280802,47.112138450470596
7.510203904,1.0000350118159056,44.55052069765947
7.551020544,1.0000336864876562,41.98926220076948
7.591836672,1.0000320281449493,39.4281747150658
7.632653312,1.0000299226571716,36.86717931189311
7.67346944,1.0000273681982927,34.3060646612538
7.714285568,1.0000245879815886,31.744728224546808
7.755102208,1.0000213324654017,29.18304610972121
7.795918336,1.0000179754668084,26.620862983421446
7.836734464,1.0000142103892555,24.058038005618517
7.877551104,1.0000104003232106,21.494425798893854
7.918367232,1.0000064608535673,18.92990856575082
7.959183872,1.0000024601034059,16.364308750173528
8.0,0.9999983713615953,13.797552194676358
8.040816128,0.9999943495111215,11.22945689289291
8.081632768,0.9999905344320372,8.659888640370873
8.122448896,0.999986818299846,6.08872728267381
8.163265536,0.9999832066066567,3.5158453972748296
8.204081664,0.999979913836497,0.941087861246129
8.244897792,0.9999770414928061,-1.6356588567451027
8.285714432,0.9999745202142963,-4.214527220110733
8.32653056,0.9999723344531526,-6.795641051090702
8.367346688,0.9999705885305206,-9.379117694389803
8.408163328,0.9999693990582565,-11.96511660216483
8.448979456,0.9999686828027302,-14.553731810025166
8.489796096,0.9999684248045079,-17.14508345026998
8.530612224,0.9999688466769752,-19.739288030786152
8.571428352,0.9999698204866632,-22.336475157276716
8.61224448,0.9999712656816923,-24.93672807339496
8.65306112,0.9999732517578926,-27.54018819793176
8.69387776,0.9999758529361287,-30.146959489222468
8.734693376,0.9999788112876643,-32.75712166612011
8.775510016,0.999982429139585,-35.37078793755884
8.816326656,0.9999863388156258,-37.98807220526132
8.857143296,0.9999906944311744,-40.60903684492513
8.897958912,0.9999954409314169,-43.23378574150934
8.938775552,1.000000387216701,-45.862394505090094
8.979592192,1.0000056224096314,-48.49496205901953
9.020407808,1.0000110107511444,-51.13155204533601
9.061224448,1.0000164070788282,-53.772239349049926
9.102041088,1.0000218250380584,-56.41707578691317
9.142856704,1.0000272613713252,-59.06615060179021
9.183673344,1.0000324035922188,-61.719488057656996
9.224489984,1.0000374462207564,-64.37717120508593
9.265306624,1.0000422379680352,-67.0392295805617
9.30612224,1.0000465925265822,-69.70572572849892
9.34693888,1.0000505442701833,-72.37665905620015
9.38775552,1.0000539164738924,-75.05210030074757
9.428571136,1.0000568100153553,-77.73203911246276
9.469387776,1.0000591355698025,-80.41650350827865
9.510204416,1.000060762828947,-83.10553345731235
9.551020032,1.000061655597773,-85.79911251552464
9.591836672,1.0000618488780741,-88.49724167488579
9.632653312,1.000061169992691,-91.19992113945165
9.673468928,1.0000599188454515,-93.90715253001083
9.714285568,1.0000577538663047,-96.61889851167673
9.755102208,1.0000548104502336,-99.33515997713036
9.795918848,1.000051189498353,-102.05589082774588
9.836734464,1.0000468549251338,-104.7810829338976
9.877551104,1.0000418737061736,-107.51066391100093
9.918367744,1.0000361760452123,-110.24462316440581
9.95918336,1.0000299062715197,-112.98287765971573
10.0,1.0000230953332638,-115.72540027890018
10.04081664,1.0000159402690667,-118.47210762757491
10.081632256,1.000008326715838,-121.22295024886051
10.122448896,1.0000004864076828,-123.97783796244086
10.163265536,0.9999924132422262,-126.7367290004006
10.204081152,0.9999843549821469,-129.4994833343546
10.244897792,0.9999761388981743,-132.26604865892696
10.285714432,0.9999681101279789,-135.03632754697767
10.326531072,0.999960334649517,-137.8102217768474
10.367346688,0.9999528487287923,-140.5876272926964
10.408163328,0.9999457676248382,-143.36842809667263
10.448979968,0.9999391937612337,-146.15250949389508
10.489795584,0.9999332117092627,-148.93975199955304
10.530612224,0.9999279009415607,-151.73006478849632
10.571428864,0.9999233740031753,-154.52329454861894
10.61224448,0.999919654929491,-157.31929917442062
10.65306112,0.9999168465242685,-160.11797644701622
10.69387776,0.9999149585999568,-162.91915048517433
10.734693376,0.9999141220077585,-165.72270751407177
10.775510016,0.9999142394063698,-168.5284810516299
10.816326656,0.9999155405252697,-171.3363432450744
10.857143296,0.9999178016426702,-174.14612229868968
10.897958912,0.9999211481636211,-176.95766461086166
10.938775552,0.9999254466576267,-179.77082121197537
10.979592192,0.9999307739566277,177.41458653461066
11.020407808,0.9999370957346218,174.59871374361364
11.061224448,0.9999443171031457,171.78172689864633
11.102041088,0.9999522255235871,168.9638048823125
11.142856704,0.9999610696096602,166.14509472477118
11.183673344,0.9999706172747109,163.32581255191286
11.224489984,0.9999805886293756,160.50609940395861
11.265306624,0.9999910066886659,157.686137775549
11.30612224,1.0000018953433487,154.8661028207911
11.34693888,1.00001287772013,152.04619559922062
11.38775552,1.0000241170506465,149.2265659930588
11.428571136,1.0000351955977331,146.40742199975975
11.469387776,1.0000462368830332,143.58890946556463
11.510204416,1.0000568726065708,140.77122399296934
11.551020032,1.0000671644658699,137.95455015526673
11.591836672,1.0000768539757214,135.13905988553643
11.632653312,1.0000859837984855,132.32493536893244
11.673468928,1.0000942916717552,129.51233504288342
11.714285568,1.000101751855302,126.70145065915293
11.755102208,1.0001082429888137,123.89241794828192
11.795918848,1.0001137033647136,121.08545492651048
11.836734464,1.000117969376279,118.2806936040287
11.877551104,1.0001210756112504,115.47831968699816
11.918367744,1.0001229003815377,112.67845316252877
11.95918336,1.0001233652628512,109.8812834334147
12.0,1.0001225969948615,107.08696277965815
12.04081664,1.000120492349179,104.29561863062249
12.081632256,1.0001170392394274,101.50740715171351
12.122448896,1.000112289823822,98.72244890066452
12.163265536,1.0001062670639866,95.94089962060384
12.204081152,1.0000989904130548,93.16287058476706
12.244897792,1.0000906999457435,90.38848965838096
12.285714432,1.0000811457430456,87.61786509481385
12.326531072,1.0000707608509285,84.85111770224104
12.367346688,1.0000593367196922,82.08834919608557
12.408163328,1.0000471755433873,79.3296559226902
12.448979968,1.0000345079007085,76.57511613523361
12.489795584,1.0000211644189678,73.82483552542163
12.530612224,1.0000075040198824,71.0788775814873
12.571428864,0.9999935661534081,68.33733114168552
12.61224448,0.999979533690371,65.60024151816803
12.65306112,0.9999655805689802,62.86766501597264
12.69387776,0.9999519148443309,60.13966754754191
12.734693376,0.9999384134329469,57.416280003044506
12.775510016,0.9999255704163736,54.697550191631294
12.816326656,0.9999132755402417,51.983509878547125
12.857143296,0.9999018256107577,49.27417075193841
12.897958912,0.9998911999891827,46.56955197490147
12.938775552,0.9998816920212731,43.86967602820967
12.979592192,0.9998731952631481,41.17454772663856
13.020407808,0.9998660147018447,38.48414542391728
13.061224448,0.9998600976083011,35.79848284704054
13.102041088,0.9998555495384845,33.11753762106633
13.142856704,0.9998525778445199,30.44129553824158
13.183673344,0.9998509385413479,27.76970853121681
13.224489984,0.9998509834806489,25.102780551692085
13.265306624,0.9998523856933021,22.440441411903
13.30612224,0.9998554520531385,19.782671159732253
13.34693888,0.9998599536182671,17.12943523478754
13.38775552,0.9998658930379556,14.4806411088274
13.428571136,0.9998732869775315,11.836283090900505
13.469387776,0.9998821621075501,9.196277446383617
13.510204416,0.999892183777463,6.560556272720324
13.551020032,0.9999034636984546,3.9290564091798794
13.591836672,0.9999158578104878,1.3017139388708574
13.632653312,0.9999290857056894,-1.3215388311132787
13.673468928,0.9999431870099045,-3.9407958226455584
13.714285568,0.999958057977111,-6.5561292581715795
13.755102208,0.9999734130120598,-9.167625167496494
13.795918848,0.9999892965463182,-11.775372508162572
13.836734464,1.0000053455745697,-14.379439060494079
13.877551104,1.0000215270641089,-16.979943015795197
13.918367744,1.0000376385830114,-19.576961926056846
13.95918336,1.000053452876026,-22.170581905796286
14.0,1.0000689336013897,-24.760931447759724
