freq,mag,phase
6.0,1.0000553006899917,-11.970812574802027
6.01839104,1.0000341823392012,-12.570801699944584
6.036781568,1.000010107659763,-13.170530302234408
6.055172608,0.9999855767630021,-13.770110805551298
6.073563136,0.9999613007934843,-14.369481929361168
6.091954176,0.9999383840214995,-14.968677114455929
6.110344704,0.9999177174106889,-15.567731510884785
6.128735744,0.9998998669745852,-16.166684548444852
6.147126272,0.9998857394936582,-16.76550532652498
6.165517312,0.9998757293276459,-17.36430172295207
6.18390784,0.9998703199981963,-17.963106595441424
6.20229888,0.9998697465306835,-18.56197110507578
6.220689408,0.9998739958101589,-19.160931471481693
6.239080448,0.999882806371066,-19.76004216343458
6.257471488,0.9998960307696232,-20.359371142279834
6.275862016,0.9999129855363881,-20.958948267955982
6.294253056,0.9999332951954656,-21.55885726086247
6.312643584,0.9999559924201743,-22.159065158070575
6.331034624,0.9999800916622034,-22.75963192857243
6.349425152,1.0000048469616591,-23.360587109588156
6.367816192,1.0000295656104037,-23.96187524465876
6.38620672,1.0000527718068726,-24.563548342456144
6.40459776,1.0000738102386895,-25.165582337657366
6.422988288,1.000092115484236,-25.767898617335298
6.441379328,1.0001066211709724,-26.370478166147713
6.459770368,1.0001169122651055,-26.97329837238813
6.478160896,1.0001226273940689,-27.576310255129723
6.496551936,1.0001236310906143,-28.179459344951955
6.514942464,1.000119740708871,-28.78266413639842
6.533333504,1.0001110478195323,-29.38589316249076
6.551724032,1.0000978773126328,-29.989093975795246
6.570115072,1.0000809140009006,-30.59221324646074
6.5885056,1.0000606552449263,-31.1951966113004
6.60689664,1.0000378256962645,-31.798072873121708
6.625287168,1.000013515562095,-32.40075482987236
6.643678208,0.9999884064933087,-33.00323004773425
6.662068736,0.9999636191822707,-33.60553646639499
6.680459776,0.9999400349282199,-34.207669538297544
6.698850816,0.9999185344172911,-34.80961773673559
6.717241344,0.9998998777455496,-35.41145941055318
6.735632384,0.999885091064603,-36.01316046825975
6.754022912,0.999874343732457,-36.61482138971394
6.772413952,0.9998682013704153,-37.21652768539552
6.79080448,0.9998670393942573,-37.81822296044645
6.80919552,0.9998707013263813,-38.4200680223057
6.827586048,0.999879118058828,-39.022027192889645
6.845977088,0.9998921637115639,-39.624181397391084
6.864367616,0.9999090695964442,-40.22668131353892
6.882758656,0.9999294402826083,-40.829399814968234
6.901149184,0.9999523944464127,-41.43248547777986
6.919540224,0.9999769044695861,-42.03594088000456
6.937931264,1.0000022692222281,-42.63971654044528
6.956321792,1.0000273996708307,-43.243928634505615
6.974712832,1.0000513261254804,-43.84844745246847
6.99310336,1.0000731815171024,-44.45340206570713
7.0114944,1.0000922174600821,-45.05859785960981
7.029884928,1.0001076617371798,-45.664083793018975
7.048275968,1.0001187774061218,-46.269835983698755
7.066666496,1.0001252704643833,-46.87577852422915
7.085057536,1.0001267390047341,-47.481843785416935
7.103448064,1.0001233639461093,-48.0880261456696
7.121839104,1.0001150130068346,-48.69420943422253
7.140229632,1.0001021870825326,-49.30035466179662
7.158620672,1.0000853639180343,-49.9064360824447
7.177011712,1.0000650462146323,-50.512411898964366
7.19540224,1.0000420182405967,-51.118210343110114
7.21379328,1.0000171837793441,-51.723848825264525
7.232183808,0.9999915410436084,-52.32929061587283
7.250574848,0.9999660568420392,-52.934535409007275
7.268965376,0.9999417074433673,-53.53957291158572
7.287356416,0.9999193170292112,-54.14446494673959
7.305746944,0.9999000194072701,-54.74917782176383
7.324137984,0.9998841567619697,-55.35382777850187
7.342528512,0.9998725760779272,-55.958377735754766
7.360919552,0.9998657837313532,-56.56293260719192
7.379310592,0.9998637899260012,-57.167526379400684
7.39770112,0.9998669363862228,-57.772196348089686
7.41609216,0.9998750595190873,-58.37704075799816
7.434482688,0.9998877129954095,-58.98207860290719
7.452873728,0.9999045985793769,-59.587390332062036
7.471264256,0.9999251001250716,-60.19297036642597
7.489655296,0.9999482000072027,-60.79888259535415
7.508045824,0.9999732559137746,-61.40520798746106
7.526436864,0.9999990330021121,-62.0118801750652
7.544827392,1.0000248920222083,-62.61893439233476
7.563218432,1.000049705197585,-63.22635105670183
7.58160896,1.000072481471515,-63.83414103728855
7.6,1.000092360492115,-64.44223832003495
7.61839104,1.0001086190539532,-65.0506599299012
7.636781568,1.000120668659912,-65.6592916229354
7.655172608,1.0001280345415375,-66.26812881725553
7.673563136,1.0001301172163202,-66.87715638405489
7.691954176,1.000127315304673,-67.48622806868622
7.710344704,1.0001195101724598,-68.09535340880393
7.728735744,1.0001069323052565,-68.7044238334852
7.747126272,1.0000901642598818,-69.31344584583583
7.765517312,1.000069678418974,-69.92232063290777
7.78390784,1.0000464655606771,-70.53105469930371
7.80229888,1.0000211908270493,-71.13960979423337
7.820689408,0.9999949670467069,-71.74795883578015
7.839080448,0.9999687810528453,-72.35612222096
7.857471488,0.999943506298688,-72.96406935874295
7.875862016,0.9999202273831433,-73.57181609772543
7.894253056,0.9998997936664987,-74.17944802390736
7.912643584,0.9998830808971642,-74.78689769418371
7.931034624,0.9998706165323947,-75.39429414116118
7.949425152,0.9998628823497345,-76.00169622893347
7.967816192,0.9998602902392306,-76.60911280129164
7.98620672,0.9998626938451539,-77.21658389511444
8.00459776,0.9998704259370246,-77.82420624860958
8.022988288,0.9998827422190463,-78.43207116398989
8.041379328,0.999899622870632,-79.0401287626629
8.059770368,0.9999200792567412,-79.6485237208862
8.078160896,0.9999434817720283,-80.25721519545041
8.096551936,0.999968859569649,-80.86631442075038
8.114942464,0.999995429309054,-81.4757298334883
8.133333504,1.000022086703321,-82.08557101567203
8.151724032,1.0000477321229282,-82.69579159083537
8.170115072,1.000071494342287,-83.30636036027744
8.1885056,1.000092397895067,-83.91728505011797
8.20689664,1.0001097051509227,-84.52850062864808
8.225287168,1.0001227071594436,-85.13996302564296
8.243678208,1.0001308544346044,-85.75165456803033
8.262068736,1.0001339378943888,-86.36349546467952
8.280459776,1.0001317364365943,-86.97540234343053
8.298850816,1.000124427889162,-87.5873733445356
8.317241344,1.0001121074438366,-88.1993066205601
8.335632384,1.0000953629653295,-88.81113064515453
8.354022912,1.0000749342662505,-89.42286676046241
8.372413952,1.0000513214091258,-90.03443611192476
8.39080448,1.000025556526221,-90.64581129989124
8.40919552,0.9999987601812138,-91.25697533268388
8.427586048,0.9999716842030166,-91.86793719868157
8.445977088,0.9999455044643891,-92.47864286897739
8.464367616,0.9999212568692368,-93.08919709105386
8.482758656,0.9998996814560142,-93.69954056302333
8.501149184,0.9998819084564285,-94.30976943672012
8.519540224,0.9998682859258144,-94.9198941222502
8.537931264,0.9998597146836498,-95.52996928597325
8.556321792,0.9998562223531906,-96.14007694240814
8.574712832,0.9998580672102992,-96.7502113667729
8.593103872,0.9998651252216387,-97.36052265163535
8.611493888,0.9998772525151153,-97.9709879956582
8.629884928,0.9998937740900493,-98.58173668326643
8.648275968,0.999914355207169,-99.19275422533485
8.666667008,0.9999381924849244,-99.80409918190898
8.685057024,0.9999641821744648,-100.41580365393929
8.703448064,0.9999913870216602,-101.02785834184753
8.721839104,1.00001885324396,-101.6403584773985
8.740230144,1.0000454236903318,-102.25321991586385
8.758621184,1.0000703372856756,-102.86644924006261
8.7770112,1.0000923645520436,-103.48001847385727
8.79540224,1.0001107758931123,-104.09388469825116
8.81379328,1.0001248422001912,-104.70804430173227
8.83218432,1.000134009229607,-105.32240681558663
8.850574336,1.0001379664838432,-105.9369117684017
8.868965376,1.0001365663697606,-106.55151896383471
8.887356416,1.0001296885348143,-107.16616773298415
8.905747456,1.0001177971388802,-107.7807679935002
8.924137472,1.0001011954716434,-108.39530201090511
8.942528512,1.0000805552798564,-109.00971272336092
8.960919552,1.0000567274395527,-109.62394921050922
8.979310592,1.0000305247523786,-110.23797078923927
8.997701632,1.0000028147603628,-110.8517690190341
9.016091648,0.9999749054885938,-111.46536315273038
9.034482688,0.9999476664186694,-112.078688979533
9.052873728,0.9999223254357197,-112.69179953927403
9.071264768,0.9998997033811167,-113.30476468191543
9.089654784,0.9998806209251755,-113.91750366839156
9.108045824,0.9998658754080362,-114.53017832193107
9.126436864,0.9998562283120309,-115.14276172035781
9.144827904,0.9998517679643061,-115.75534521176239
9.16321792,0.9998527371247474,-116.36797710519133
9.18160896,0.9998592891612754,-116.98073723997668
9.2,0.9998709380189328,-117.59367372889557
9.21839104,0.9998874524996204,-118.20683864183668
9.23678208,0.999908145117366,-118.82027665546782
9.255172096,0.999932216565572,-119.43406220402953
9.273563136,0.9999587781787509,-120.04816980982696
9.291954176,0.9999867753916365,-120.66267040462569
9.310345216,1.000015168119007,-121.27756276908987
9.328735232,1.0000430014609616,-121.8928510797647
9.347126272,1.0000689267393221,-122.50850759953842
9.365517312,1.000092167095914,-123.12454266276426
9.383908352,1.0001119210181404,-123.7408627290517
9.402298368,1.00012715373474,-124.35746094881321
9.420689408,1.0001375085777187,-124.97425941746575
9.439080448,1.0001424579915406,-125.59124407702113
9.457471488,1.0001418715148096,-126.20830837411003
9.475862528,1.0001355919697095,-126.82542001615926
9.494252544,1.0001240550523087,-127.4424935481887
9.512643584,1.0001077412994086,-128.05946284953296
9.531034624,1.0000870459635627,-128.67631394338127
9.549425664,1.0000627478691424,-129.29299049164177
9.56781568,1.0000359026919694,-129.90943588488372
9.58620672,1.000007499405167,-130.52565859056511
9.60459776,0.9999786082174728,-131.14162368744383
9.6229888,0.9999502155294506,-131.75733687475466
9.641378816,0.9999235584566409,-132.37279226600953
9.659769856,0.9998995940530407,-132.98806481683263
9.678160896,0.999879208116491,-133.60310116425993
9.696551936,0.9998632708015724,-134.21804858036973
9.714942976,0.9998523387099496,-134.83288288684057
9.733332992,0.9998467467310693,-135.4477065874333
9.751724032,0.9998469527800298,-136.06253425172014
9.770115072,0.9998527937682798,-136.67748184898556
9.788506112,0.9998640528516746,-137.29259835526776
9.806896128,0.9998803993724359,-137.907916841997
9.825287168,0.9999012229899041,-138.5235110667966
9.843678208,0.9999255716977428,-139.13945075999646
9.862069248,0.9999527322289175,-139.75571031008386
9.880459264,0.9999816459656283,-140.37235757197834
9.898850304,1.0000110410175793,-140.98939433649537
9.917241344,1.0000400344647453,-141.60681345056418
9.935632384,1.0000673755390885,-142.22462495033756
9.954023424,1.0000920268052365,-142.84279177713424
9.97241344,1.000113134045099,-143.46126806915927
9.99080448,1.0001297550582584,-144.08004251090193
10.00919552,1.0001413751400254,-144.699028463229
10.02758656,1.000147454418903,-145.3181721389099
10.045976576,1.000147745365599,-145.9373977327994
10.064367616,1.0001422776931264,-146.55669262589487
10.082758656,1.0001312040008743,-147.1759237899787
10.101149696,1.0001149862096173,-147.7950984372443
10.119540736,1.000094190292801,-148.4140944180549
10.137930752,1.0000695997132378,-149.03290295951757
10.156321792,1.0000421123602248,-149.65148620853532
10.174712832,1.000012810367395,-150.26981540574795
10.193103872,0.999982651359737,-150.88786792006516
10.211493888,0.9999531034416423,-151.50562574571072
10.229884928,0.9999250292927596,-152.12314422645156
10.248275968,0.9998995890057536,-152.74040170966356
10.266667008,0.9998777254990429,-153.35744071899452
10.285057024,0.99986031655041,-153.9743502024574
10.303448064,0.9998479860767694,-154.59109491935536
10.321839104,0.9998412783977412,-155.20783065403202
10.340230144,0.9998404318424612,-155.82454758453616
10.358621184,0.99984554425363,-156.44136263814391
10.3770112,0.9998563583622625,-157.05830220826553
10.39540224,0.9998724095279734,-157.6754418018859
10.41379328,0.999893336219413,-158.29286860693074
10.43218432,0.9999181837405376,-158.9105869303031
10.450574336,0.9999459611666494,-159.528666807975
10.468965376,0.9999758289138468,-160.14710329202663
10.487356416,1.0000064424063781,-160.76593281294865
10.505747456,1.000036757780868,-161.38515764100717
10.524137472,1.0000655962761626,-162.00477164651812
10.542528512,1.0000918892713198,-162.6247599123875
10.560919552,1.0001144837313847,-163.2450506237129
10.579310592,1.0001326863325906,-163.86563012269983
10.597701632,1.0001457453237885,-164.48642951321742
10.616091648,1.0001530327165153,-165.10742028537763
10.634482688,1.0001544507972824,-165.72850293827167
10.652873728,1.000149733053174,-166.34961072844882
10.671264768,1.0001392783920418,-166.97067776666387
10.689654784,1.0001231955446452,-167.59166326841975
10.708045824,1.0001022705370906,-168.2124772963796
10.726436864,1.0000772728225076,-168.8330783153175
10.744827904,1.000049122010768,-169.45343618547307
10.76321792,1.0000187898344424,-170.07352793407668
10.78160896,0.9999874188965648,-170.69329878991275
10.8,0.9999564226898844,-171.31277157926777
10.81839104,0.999926702821688,-171.931954329241
10.83678208,0.9998996466536054,-172.55087355136723
10.855172096,0.9998760542080752,-173.16952052798612
10.873563136,0.999856985958425,-173.78799006195356
10.891954176,0.9998432473646703,-174.40631317005315
10.910345216,0.9998351705498472,-175.02456304915466
10.928735232,0.9998332301941908,-175.64278370586734
10.947126272,0.9998374038791105,-176.26105533811165
10.965517312,0.9998476585822182,-176.87946032853753
10.983908352,0.9998635671470306,-177.49804136971835
11.002298368,0.9998845868229362,-178.11687600013303
11.020689408,0.9999099397671695,-178.7360069807611
11.039080448,0.999938573262199,-179.35547604668076
11.057471488,0.9999693964079475,-179.97531584395162
11.075862528,1.0000013301592594,179.404448585462
11.094252544,1.0000332340105667,178.78381384442673
11.112643584,1.000063711229955,178.16278740424784
11.131034624,1.0000917525765223,177.54138800316704
11.149425664,1.000116168435138,176.919666139929
11.16781568,1.000136203264349,176.29766058309713
11.18620672,1.0001508172018019,175.6754077686878
11.20459776,1.0001596248855018,175.05299360343665
11.2229888,1.0001622229560534,174.43046478474773
11.241378816,1.000158426707116,173.80791319119436
11.259769856,1.0001484555517046,173.18539565633017
11.278160896,1.00013270010778,172.56299923278706
11.296551936,1.0001116363080567,171.9407676195246
11.314942976,1.0000860821527888,171.31875654828033
11.333332992,1.0000570790107113,170.69700924396497
11.351724032,1.0000256182137086,170.07557166458616
11.370115072,0.9999928497152732,169.4544651190929
11.388506112,0.9999601383584874,168.8336776120985
11.406896128,0.9999286908613166,168.2132425559534
11.425287168,0.9998997102157937,167.5931078409723
11.443678208,0.9998742289296241,166.97324301112243
11.462069248,0.9998533482279197,166.35362117964442
11.480459264,0.999837754704364,165.7341751944723
11.498850304,0.9998281826711314,165.11483812298735
11.517241344,0.9998250877580834,164.49554699281094
11.535632384,0.999828259880006,163.87623193677294
11.554023424,0.999837868231038,163.25680609846532
11.57241344,0.999853574596357,162.63721767127817
11.59080448,0.9998747490944611,162.01740436287645
11.60919552,0.9999005072084504,161.397309186125
11.62758656,0.9999299881447723,160.7768744221497
11.645976576,0.9999621724075637,160.15607054265624
11.664367616,0.9999956374947423,159.53488007017722
11.682758656,1.0000292154563373,158.91327265950784
11.701149696,1.0000617056464816,158.29124870540033
11.719540736,1.000091812623187,157.66889751616222
11.737930752,1.0001183024437876,157.0461803585861
11.756321792,1.0001401311974933,156.42316015853436
11.774712832,1.0001567415177832,155.79990173619987
11.793103872,1.0001671145563105,155.17645213626375
11.811493888,1.000171085927431,154.55293710745175
11.829884928,1.0001682934581027,153.92936730256028
11.848275968,1.000159104922969,153.30583342730975
11.866667008,1.000143603862719,152.68241160632977
11.885057024,1.0001222992339043,152.05918955175076
11.903448064,1.0000962609504087,151.43620258094703
11.921839104,1.000066145741196,150.81349854179095
11.940230144,1.000033376784826,150.19114809222359
11.958621184,0.9999989762798887,149.56914321161668
11.9770112,0.9999645077870531,148.94750565959498
11.99540224,0.9999309099728755,148.32623834569506
12.01379328,0.9998997340796858,147.70530893071717
12.03218432,0.9998721359820865,147.08471886659885
12.050574336,0.9998491044692405,146.46436851831695
12.068965376,0.9998315795482817,145.84425562888055
12.087356416,0.9998202759027063,145.22428449373305
12.105747456,0.9998155139879547,144.60438047609608
12.124137472,0.9998177051309886,143.98450122737657
12.142528512,0.9998266825063173,143.36453729066145
12.160919552,0.9998420511539476,142.74441287222268
12.179310592,0.9998633652290814,142.12410297661876
12.197701632,0.999889858917148,141.503500896034
12.216091648,0.9999204556758512,140.8825681516724
12.234482688,0.9999539763464669,140.2612664555017
12.252873728,0.9999892671673665,139.63955916814032
12.271264768,1.0000248627073312,139.01744898784574
12.289654784,1.0000596350610407,138.39494797350906
12.308045824,1.000092036809038,137.77204440277342
12.326436864,1.000120887252859,137.1487747515901
12.344827904,1.0001450718196836,136.52522519013704
12.36321792,1.0001637517922577,135.90139877556007
12.38160896,1.0001759942307493,135.27740732095845
12.4,1.0001814884392746,134.6532806226591
12.41839104,1.0001800225449442,134.02914427048188
12.43678208,1.000171392155297,133.40504607659122
12.455172096,1.0001561230340543,132.78105679514817
12.473563136,1.0001347102260234,132.1572969605263
12.491954176,1.0001079180887287,131.5337687584666
12.510345216,1.0000767188428714,130.91056451959054
12.528735232,1.0000423702240475,130.28772518435244
12.547126272,1.000006005446516,129.66528979073283
12.565517312,0.9999691695632055,129.04323520180338
12.583908352,0.9999332179724527,128.42161650287954
12.602298368,0.9998995102281896,127.80036869471361
12.620689408,0.9998693858722372,127.17947146545087
12.639080448,0.9998438769285595,126.55891276753266
12.657471488,0.999824063846036,125.93858842805574
12.675862528,0.9998107162222308,125.31846699721379
12.694252544,0.9998043686427057,124.69846249045223
12.712643584,0.9998052628242163,124.07847916223231
12.731034624,0.9998133878336032,123.4584503067398
12.749425664,0.9998285773793124,122.83830430755911
12.76781568,0.9998501725717297,122.21795221252029
12.78620672,0.9998773778226057,121.59735035831645
12.80459776,0.9999092579036155,120.97641079519857
12.8229888,0.9999445584644,120.3550873827144
12.841378816,0.9999819907932693,119.73337976453615
12.859769856,1.0000200810005444,119.11123102836329
12.878160896,1.0000574350381215,118.4886856635093
12.896551936,1.0000926020275644,117.86572477028537
12.914942976,1.0001242108438368,117.2423865614319
12.933332992,1.0001511400470462,116.61873143052746
12.951724032,1.000172258498786,115.99482278554339
12.970115072,1.0001867241511195,115.37069996924146
12.988506112,1.0001940588451819,114.74645115856576
13.006896128,1.0001938205179115,114.12217870892495
13.025287168,1.0001860667380498,113.49795956550572
13.043678208,1.0001710486326747,112.8738549342123
13.062069248,1.000149288557672,112.24996486946246
13.080459264,1.0001215698181913,111.62634963086172
13.098850304,1.000089015075367,111.00309377174516
13.117241344,1.0000527089364621,110.38023287544225
13.135632384,1.0000140797098889,109.75778659982183
13.154023424,0.9999745406140684,109.13581244484327
13.17241344,0.9999357633593287,108.51426476465961
13.19080448,0.9998988815995965,107.89317014497729
13.20919552,0.9998656836631942,107.27247805426947
13.22758656,0.9998372238524051,106.65215216543307
13.245976576,0.9998147108495414,106.03212477836459
13.264367616,0.9997989499733058,105.41234199782892
13.282758656,0.9997906373156528,104.7927083222098
13.301149696,0.9997900951496642,104.17314263780976
