freq,mag,phase
6.0,0.9991322721559298,12.837268164410844
6.012739072,0.9989018190433051,12.480450291661546
6.025477632,0.9987226860180012,12.126136136310933
6.038216704,0.9986037181219272,11.773664122687292
6.050955264,0.998550773391216,11.422125417621567
6.063694336,0.9985661551236916,11.070741237436643
6.076432896,0.9986494835182264,10.718682094793873
6.089171968,0.9987967734580728,10.365088092709048
6.10191104,0.9990011361815989,10.009186045109637
6.1146496,0.9992529038434986,9.650299956040657
6.127388672,0.9995402966382455,9.2879697207787
6.140127232,0.9998495173326966,8.921781313332547
6.152866304,1.0001662328695429,8.551522998284295
6.165604864,1.0004753030987932,8.1773371730538
6.178343936,1.0007619448498293,7.799284889081828
6.191083008,1.0010129402185817,7.41775454810493
6.203821568,1.0012162083062282,7.033302360422829
6.21656064,1.0013621402014246,6.646538641036961
6.2292992,1.001443839995152,6.258249795855641
6.242038272,1.0014572201439291,5.869253672970326
6.254776832,1.0014018093990071,5.480402977497527
6.267515904,1.0012798349076875,5.092595661365996
6.280254976,1.0010971635076622,4.706538710269491
6.292993536,1.0008623764250042,4.322917372424467
6.305732608,1.0005862931492981,3.942484973515614
6.318471168,1.0002820628959042,3.565519450360182
6.33121024,0.9999638472657693,3.192390280735045
6.3439488,0.9996467858590613,2.8230836500542593
6.356687872,0.9993460991747091,2.4576182194515557
6.369426944,0.9990756269509606,2.095548139670887
6.382165504,0.9988484845852826,1.7365966341313726
6.394904576,0.9986754502425219,1.380011251358428
6.407643136,0.9985647581375796,1.025168784848139
6.420382208,0.9985218876705378,0.6711739798126566
6.433120768,0.9985488453737349,0.3171591398586361
6.44585984,0.998644567935629,-0.03768211888900942
6.458598912,0.9988044301277063,-0.39423102804769466
6.471337472,0.9990210694497471,-0.7532139579434017
6.484076544,0.9992841754396813,-1.1153508603995326
6.496815104,0.9995812782017542,-1.4811245133028017
6.509554176,0.9998985702453493,-1.8507793931754268
6.522293248,1.0002208446959973,-2.2246080459122664
6.535031808,1.0005329773271296,-2.6025343045065585
6.54777088,1.0008203435770433,-2.9842866807576507
6.56050944,1.0010690347170368,-3.369495481310117
6.573248512,1.001267502175961,-3.757622855390147
6.585987072,1.0014062076563006,-4.1479588130435605
6.598726144,1.001478600248365,-4.539756926704802
6.611465216,1.0014811584489458,-4.932117983464362
6.624203776,1.00141381427322,-5.324230244709757
6.636942848,1.0012793781627596,-5.715141598686409
6.649681408,1.001084192388772,-6.104178524916588
6.66242048,1.0008375253899089,-6.490578302488763
6.67515904,1.0005507377958003,-6.873706480563117
6.687898112,1.0002373213122941,-7.253193704403465
6.700637184,0.999912256629764,-7.628844323504188
6.713375744,0.9995905957680432,-8.000527022430834
6.726114816,0.9992877882904243,-8.36840220663183
6.738853376,0.9990181646180601,-8.732810419102153
6.751592448,0.9987944697198167,-9.094179116280658
6.764331008,0.9986273463196775,-9.453205694801861
6.77707008,0.998524972621784,-9.810672374254274
6.789809152,0.9984921548517817,-10.167358841876194
6.802547712,0.9985306459210876,-10.524165623868047
6.815286784,0.9986385735347519,-10.88201920339794
6.828025344,0.9988111851299044,-11.241720020880718
6.840764416,0.9990400403782762,-11.604046225952908
6.853502976,0.9993146914848844,-11.969623722439701
6.866242048,0.9996218967712152,-12.339001234232752
6.87898112,0.9999473287613289,-12.71241726864487
6.89171968,1.0002756082126034,-13.090051191538883
6.904458752,1.0005910298922847,-13.471856765219215
6.917197312,1.00087902174991,-13.857521163250574
6.929936384,1.0011257418225157,-14.246659911861768
6.942674944,1.0013195307030032,-14.638673490663255
6.955414016,1.0014513075769338,-15.032844521045387
6.968153088,1.0015145253097495,-15.42837867487675
6.980891648,1.0015063196509506,-15.82435466450283
6.99363072,1.0014269952124237,-16.2199487343505
7.00636928,1.001279961451406,-16.614237218907522
7.019108352,1.0010721755875007,-17.006446384883237
7.031846912,1.000813369987592,-17.39588877149869
7.044585984,1.0005156809372,-17.781947319905075
7.057325056,1.0001929888976713,-18.1642528409618
7.070063616,0.999860675725948,-18.542591474376362
7.082802688,0.9995341424209848,-18.91691185476057
7.095541248,0.9992291060018055,-19.287388923312776
7.10828032,0.998959840674196,-19.654354123506188
7.12101888,0.9987394072506696,-20.018370535891563
7.133757952,0.9985781925102997,-20.380098153933286
7.146497024,0.9984838452480249,-20.740319860788954
7.159235584,0.9984611180802399,-21.099912906781984
7.171974656,0.9985110285219444,-21.45979870086998
7.184713216,0.9986315038655308,-21.820817145195903
7.197452288,0.9988167513237994,-22.183911939719206
7.210190848,0.9990581624096202,-22.549754256939025
7.22292992,0.9993444622938846,-22.91903425177797
7.235668992,0.9996620580512603,-23.292225528223497
7.248407552,0.9999959310261985,-23.669637659052768
7.261146624,1.0003304474678245,-24.05131824027832
7.273885184,1.0006497150463325,-24.437251918497893
7.286624256,1.0009387083608674,-24.827067606592152
7.299362816,1.0011836839993005,-25.220371451604326
7.312101888,1.001373004953949,-25.616569979388178
7.32484096,1.0014978031173178,-26.014811668000704
7.33757952,1.0015519811468494,-26.414322789632898
7.350318592,1.0015330323884404,-26.814172088238163
7.363057152,1.0014416780880089,-27.213494657657968
7.375796224,1.0012819638926014,-27.61137298678871
7.388534784,1.0010614338678396,-28.007018236101423
7.401273856,1.000790363276918,-28.39976564249286
7.414012928,1.0004814332962402,-28.788976474489548
7.426751488,1.0001491610604336,-29.17432210161166
7.43949056,0.9998090462654485,-29.555612811440174
7.45222912,0.9994774109459986,-29.932798951587486
7.464968192,0.9991697872287015,-30.30609450600932
7.477706752,0.9989007329143478,-30.67589972813432
7.490445824,0.9986831104390866,-31.042764521147017
7.503184896,0.9985273196017388,-31.407403933243803
7.515923456,0.9984409230773432,-31.770594800817136
7.528662528,0.9984282240132426,-32.13330642256646
7.541401088,0.9984896300323001,-32.49642924212188
7.55414016,0.9986224847691475,-32.860859243416854
7.566879232,0.9988206406984041,-33.227527725499726
7.579617792,0.9990748540691511,-33.59716768298374
7.592356864,0.9993730437991675,-33.970338753595776
7.605095424,0.999701323732366,-34.347612430003664
7.617834496,1.0000441020667423,-34.729181833499595
7.630573056,1.0003852747640833,-35.115189304805355
7.643312128,1.000708637420903,-35.50545853654956
7.6560512,1.0009990343438095,-35.89970146708949
7.66878976,1.0012426990471663,-36.29744007990543
7.681528832,1.0014279250439044,-36.698008405125336
7.694267392,1.001546075379717,-37.100623243295516
7.707006464,1.0015914331867348,-37.504350324713855
7.719745024,1.0015618125775008,-37.9083553721702
7.732484096,1.0014583026986275,-38.31167529464169
7.745223168,1.0012858801149165,-38.713445318280066
7.757961728,1.0010523586593503,-39.11277930228465
7.7707008,1.0007685855505042,-39.50907215006408
7.78343936,1.0004480111939442,-39.90173357289967
7.796178432,1.000105708758764,-40.29037922418452
7.808916992,0.9997575461934284,-40.674852898170464
7.821656064,0.9994201321714163,-41.05514509167367
7.834395136,0.999109398159228,-41.431500868438114
7.847133696,0.998840068038379,-41.804342486696584
7.859872768,0.9986249514218942,-42.17428227169642
7.872611328,0.9984744868242919,-42.54203578421214
7.8853504,0.9983957982423213,-42.90847516295889
7.89808896,0.9983927666282201,-43.27450448320163
7.910828032,0.998465608884624,-43.64110841502778
7.923567104,0.9986110661028756,-44.00917007429692
7.936305664,0.9988224461269435,-44.379639307282844
7.949044736,0.9990897328509554,-44.753212539905284
7.961783296,0.9994003838482955,-45.13057134255489
7.974522368,0.9997397880460654,-45.5121071529495
7.987260928,1.0000919067849863,-45.89810439280668
8.0,1.0004402634829321,-46.288636632716866
8.012739072,1.000768345297308,-46.683536447495875
8.025477632,1.0010606780350688,-47.08247139452436
8.038216704,1.0013033145932577,-47.48490023284042
8.050955264,1.0014848701406394,-47.89011283953129
8.063694336,1.001596743177148,-48.2973108266942
8.076432896,1.0016334413662789,-48.705575731965716
8.089171968,1.0015931230851354,-49.11402360275823
8.10191104,1.0014775366525197,-49.521649224201404
8.1146496,1.001292118887138,-49.927517637958
8.127388672,1.0010452698195544,-50.330878393420626
8.140127232,1.0007486415370208,-50.73101242687111
8.152866304,1.000415884860102,-51.12735438281042
8.165604864,1.000062767575384,-51.519537237227766
8.178343936,0.9997060950104159,-51.90743843289739
8.191083008,0.9993623202511048,-52.291114589323065
8.203821568,0.9990478855107359,-52.67079162203108
8.21656064,0.9987777629890028,-53.04690523993936
8.2292992,0.9985646763851715,-53.420151345067765
8.242038272,0.9984192106312568,-53.79123911502416
8.254776832,0.9983478511598661,-54.16112163133146
8.267515904,0.9983544312935172,-54.53069156114848
8.280254976,0.9984387738902331,-54.900983235856586
8.292993536,0.9985970324995962,-55.272936112195545
8.305732608,0.9988217608411032,-55.64738537260247
8.318471168,0.9991024301029376,-56.02514850865134
8.33121024,0.9994259974540893,-56.40685213683948
8.3439488,0.9997771298717274,-56.79293363104819
8.356687872,1.0001392808455674,-57.183629471468684
8.369426944,1.0004954830894526,-57.57894742486333
8.382165504,1.0008288430033307,-57.97871973655272
8.394904576,1.0011236856434527,-58.38258444143377
8.407643136,1.0013659648489115,-58.789978653121224
8.420382208,1.0015443508389479,-59.200137862297915
8.433120768,1.0016502287524913,-59.61224520896403
8.44585984,1.0016784943916242,-60.02533494653309
8.458598912,1.0016276246079099,-60.43848785384049
8.471337472,1.001499917131413,-60.85066747910519
8.484076544,1.0013012197274882,-61.26100818974758
8.496815104,1.0010407429972616,-61.668644522348
8.509554176,1.0007306220618206,-62.07288300798212
8.522293248,1.0003852263228212,-62.4731814358198
8.535031808,1.0000208648934483,-62.86922675239694
8.54777088,0.9996545959008073,-63.26085676710808
8.56050944,0.9993038930326135,-63.64813296243931
8.573248512,0.9989850711160333,-64.03136318900079
8.585987072,0.998713362932381,-64.41099492185357
8.598725632,0.9985019741348504,-64.787775564736
8.611465216,0.9983607216932715,-65.16242592818664
8.624203776,0.9982965394576147,-65.53596100397634
8.636942336,0.9983126070968158,-65.90930887509212
8.64968192,0.9984084474778169,-66.28348553372169
8.66242048,0.9985795622473248,-66.65947551585424
8.67515904,0.9988180765732981,-67.03819393596682
8.6878976,0.9991126874530074,-67.42037956297011
8.700637184,0.9994496934237124,-67.80671493657005
8.713375744,0.9998131985648205,-68.19754077093158
8.726114304,1.0001862702486033,-68.59312145248335
8.738853888,1.000551024270023,-68.9935139748699
8.751592448,1.0008905458978805,-69.39843316045412
8.764331008,1.0011886913246588,-69.80752425097974
8.777069568,1.0014313978157285,-70.22015452406895
8.789809152,1.0016071186338364,-70.63556489434572
8.802547712,1.0017074248453715,-71.05286377676455
8.815286272,1.0017275647348343,-71.47110085514409
8.828025856,1.0016662114845065,-71.88928319270305
8.840764416,1.0015262508270792,-72.3063656467116
8.853502976,1.0013140933763236,-72.7214415840571
8.866241536,1.0010394833716372,-73.1336707050834
8.87898112,1.0007152870215212,-73.54233453423781
8.89171968,1.000356482033486,-73.9469128290411
8.90445824,0.9999798997768514,-74.34705902069938
8.917197824,0.9996034250321689,-74.74266064681929
8.929936384,0.999244662962917,-75.13382627348543
8.942674944,0.9989205939256453,-75.52084467549489
8.955413504,0.9986467009598757,-75.90425752846119
8.968153088,0.9984360319433906,-76.28478724135317
8.980891648,0.9982985703862568,-76.66323810942856
8.993630208,0.9982411273569052,-77.04064767950828
9.006369792,0.9982665038308048,-77.41799271723056
9.019108352,0.9983737908591794,-77.79626974181964
9.031846912,0.9985579029251018,-78.1765500497323
9.044586496,0.9988105226380335,-78.55971598060192
9.057325056,0.9991196825123169,-78.94655957593837
9.070063616,0.9994710438895031,-79.33768177592142
9.082802176,0.9998478439898829,-79.73353762410687
9.09554176,1.000232512788329,-80.13429974816832
9.10828032,1.000607073808671,-80.54001672675268
9.12101888,1.000953716977625,-80.95037931384223
9.133758464,1.0012560810044275,-81.36496771403525
9.146497024,1.0014999611957647,-81.78314988120424
9.159235584,1.0016736104307928,-82.20411453906918
9.171974144,1.001768854343498,-82.62695240202466
9.184713728,1.001781152854703,-83.05063896117571
9.197452288,1.001709511184961,-83.47417788041673
9.210190848,1.0015572105656274,-83.89649704802797
9.222930432,1.0013312722291803,-84.31664997808755
9.235668992,1.0010419705528595,-84.73379177933245
9.248407552,1.0007028687866781,-85.14719880349874
9.261146112,1.0003297784016019,-85.55634639686451
9.273885696,0.9999401322639002,-85.96089635956162
9.286624256,0.9995521870486437,-86.36077658310519
9.299362816,0.999184409950905,-86.75607143398614
9.3121024,0.9988539036627925,-87.14716827418881
9.32484096,0.9985768023392185,-87.53456121717278
9.33757952,0.998366045258395,-87.9190817948651
9.35031808,0.9982316798416483,-88.30158678110702
9.363057664,0.9981804171122733,-88.68306599914317
9.375796224,0.9982148925037596,-89.06458455474387
9.388534784,0.9983336024936736,-89.44722735399696
9.401274368,0.9985311650470757,-89.83197262641707
9.414012928,0.9987983303652684,-90.21982223044365
9.426751488,0.9991227825730283,-90.61152110464914
9.439490048,0.9994891615074053,-91.00772431580499
9.452229632,0.9998803720129751,-91.40883572015105
9.464968192,1.000278041133398,-91.81503594890195
9.477706752,1.0006634829925942,-92.22633427201318
9.490446336,1.0010184688101886,-92.64241022616349
9.503184896,1.0013263085413053,-93.0627949824588
9.515923456,1.0015722595062755,-93.48685254971649
9.528662016,1.0017449505834617,-93.91372293977615
9.5414016,1.0018358895759334,-94.34242691253989
9.55414016,1.0018406196321745,-94.77193614316197
9.56687872,1.001758809482734,-95.20117157270765
9.579618304,1.0015940459248405,-95.62906833148104
9.592356864,1.0013538907430928,-96.0546551874937
9.605095424,1.001049308719366,-96.47705462733347
9.617833984,1.0006944623646319,-96.89554210774158
9.630573568,1.0003058699918395,-97.30959562013891
9.643312128,0.9999018403967402,-97.71887083755897
9.656050688,0.9995013337179095,-98.1232944328583
9.668790272,0.9991230438059046,-98.52301294797999
9.681528832,0.998785036794426,-98.91843072821675
9.694267392,0.9985033267564282,-99.31010168475521
9.707005952,0.9982914248503552,-99.69885664806588
9.719745536,0.9981594190796893,-100.0855957726937
9.732484096,0.9981138640223246,-100.47138036747214
9.745222656,0.9981570746228168,-100.85729066175138
9.75796224,0.9982873402710614,-101.24445657251076
9.7707008,0.9984984755710258,-101.63391357351782
9.78343936,0.9987810296653767,-102.0266220654737
9.79617792,0.9991215161119431,-102.42342624674217
9.808917504,0.9995042382546123,-102.82492238223155
9.821656064,0.9999111320272717,-103.23153653327901
9.834394624,1.000323223702668,-103.64343612433991
9.847134208,1.0007209921870217,-104.06059810993845
9.859872768,1.0010857043030248,-104.48271338897517
9.872611328,1.001400322378775,-104.90927836222353
9.885349888,1.001649812013129,-105.33951882990392
9.898089472,1.001822278652021,-105.7726435192935
9.910828032,1.0019096775989402,-106.20756714542591
9.923566592,1.0019073774809357,-106.64326266524401
9.936306176,1.001815587737063,-107.07856018629286
9.949044736,1.00163799563522,-107.51243828820829
9.961783296,1.001383062294118,-107.9438386788108
9.974521856,1.0010622683574986,-108.37188529603272
9.98726144,1.0006905294135566,-108.79578688432446
10.0,1.0002851837032147,-109.215066149814
10.01273856,0.9998652595186971,-109.62940247095345
10.025478144,0.999450333348167,-110.03868098184611
10.038216704,0.9990600007913646,-110.4431438187569
10.050955264,0.9987127167959032,-110.84314391887965
10.063693824,0.9984250408299047,-111.23932835817635
10.076433408,0.9982106491103312,-111.6325298934726
10.089171968,0.9980800219590718,-112.02373134573284
10.101910528,0.9980394583920281,-112.4140122481194
10.114650112,0.998091099285873,-112.80451674339074
10.127388672,0.9982328229397077,-113.19640709084615
10.140127232,0.9984581010543638,-113.59078220947328
10.152865792,0.9987565660100116,-113.98858664769594
10.165605376,0.999114345785282,-114.39068822943169
10.178343936,0.9995147392698402,-114.79769731272357
10.191082496,0.9999389569673098,-115.21006677138409
10.20382208,1.0003670492774563,-115.62795975986889
10.21656064,1.0007788975863545,-116.05129895535275
10.2292992,1.0011552891343982,-116.4797581145297
10.24203776,1.0014783535290652,-116.91277057477554
10.254777344,1.0017327653873778,-117.34961317068385
10.267515904,1.0019064657178807,-117.78934652837235
10.280254464,1.0019910881864316,-118.23092094764009
10.292994048,1.001982467999502,-118.67318728004764
10.305732608,1.0018807047308207,-119.11499868255183
10.318471168,1.001690304350978,-119.55525551411041
10.331209728,1.0014199378087196,-119.99285980112379
10.343949312,1.001081941964228,-120.42691767400738
10.356687872,1.0006919516489208,-120.85664106564475
10.369426432,1.0002682452228544,-121.28153996386317
10.382166016,0.9998305188323319,-121.70125154584827
10.394904576,0.9993992406704411,-122.11574642135007
10.407643136,0.9989949094549433,-122.52520985392371
10.420381696,0.9986364527431616,-122.93008357172019
10.43312128,0.9983410332055006,-123.33101424419813
10.44585984,0.9981227380799652,-123.72892547184736
10.4585984,0.9979922855307537,-124.12479030480365
10.471337984,0.9979558166268032,-124.51978232553152
10.484076544,0.9980154699795403,-124.91508255874349
10.496815104,0.9981687296321612,-125.31189268893037
10.509553664,0.9984086240274757,-125.7113351693566
10.522293248,0.9987241096290733,-126.11443143754751
10.535031808,0.999100487845562,-126.52206055341145
10.547770368,0.9995202408404982,-126.93485523596381
10.560509952,0.9999635919754323,-127.35325111716102
10.573248512,1.0004099679896352,-127.77740976040454
10.585987072,1.0008382459311773,-128.20722045745663
10.598725632,1.0012283696294242,-128.6423779792182
10.611465216,1.0015618669636632,-129.0822499249998
10.624203776,1.0018230528222427,-129.52604944860022
10.636942336,1.0019994736108953,-129.97281520523825
10.64968192,1.0020825015040922,-130.42145298041777
10.66242048,1.0020681325093603,-130.87074421192364
10.67515904,1.001956617413132,-131.31953822654418
10.6878976,1.00175293900361,-131.766599779901
10.700637184,1.0014662235626466,-132.21087757066897
10.713375744,1.0011097335841224,-132.65139918059617
10.726114304,1.000699899617652,-133.0873773771755
10.738853888,1.0002557591646675,-133.51826963502262
10.751592448,0.9997979231150312,-133.94375011572737
10.764331008,0.9993480431611506,-134.36379882511335
10.777069568,0.9989271768686646,-134.77857011177778
10.789809152,0.9985552039678863,-135.18860110226402
10.802547712,0.9982498852768348,-135.59455280795677
10.815286272,0.9980258905497377,-135.99736650479812
10.828025856,0.9978939768873284,-136.39811708590744
10.840764416,0.9978607620336996,-136.79799971408116
10.853502976,0.9979280070079103,-137.1982910342465
10.866241536,0.9980929383186966,-137.6002195139201
10.87898112,0.9983481489109264,-138.00493792817863
10.89171968,0.9986817280409653,-138.41353190979316
10.90445824,0.99907840068818,-138.82691092336685
10.917197824,0.9995195798591395,-139.24570640126842
10.929936384,0.9999846410971894,-139.67040437479116
10.942674944,1.000451744499976,-140.10112385509237
10.955413504,1.0008991539759218,-140.53777078630964
10.968153088,1.0013057236865834,-140.97997288349492
10.980891648,1.0016522295438188,-141.42710659756486
10.993630208,1.0019223910454877,-141.87832683043823
11.006369792,1.0021032928738087,-142.33259994056945
11.019108352,1.0021861523132742,-142.78877834918467
11.031846912,1.0021668295772093,-143.24561155590632
11.044586496,1.0020458124675473,-143.70185501644949
11.057325056,1.0018284445366248,-144.15626275452075
11.070063616,1.0015244491806756,-144.6077012592402
