freq,mag,phase
6.0,0.9996372813816367,-151.83165079479744
6.002669568,0.9995766914324015,-151.9950456317863
6.005338624,0.9995426353505237,-152.15775648752043
6.008008192,0.9995372241984238,-152.32019900226442
6.010677248,0.9995608282951655,-152.48278115725606
6.013346816,0.9996118928917516,-152.6458876568126
6.016015872,0.9996874042131209,-152.80992603244124
6.01868544,0.9997823821309086,-152.97519005236188
6.021354496,0.9998910983788001,-153.14193966920635
6.024024064,1.0000066453421643,-153.31032071725545
6.02669312,1.000121720645189,-153.48038741592225
6.029362688,1.0002292769281969,-153.65200959854437
6.032032256,1.0003225326909673,-153.82515210034663
6.034701312,1.0003955786589154,-153.9994635474682
6.03737088,1.0004438561267261,-154.17464787122339
6.040039936,1.0004643917348333,-154.35034987869028
6.042709504,1.0004557829826193,-154.52616141412727
6.04537856,1.0004186594895677,-154.70161007894535
6.048048128,1.0003553186639624,-154.8763685318382
6.050717184,1.000269633344686,-155.0500667896078
6.053386752,1.000166999999849,-155.22236110708354
6.056055808,1.0000539308840657,-155.3931733569652
6.058725376,0.9999372925404834,-155.56225030009932
6.061394944,0.9998245957810811,-155.72973580408225
6.064064,0.9997228310747044,-155.8956553631952
6.066733568,0.9996383139162468,-156.0602274004823
6.069402624,0.9995764658478633,-156.2237377607059
6.072072192,0.9995410459344912,-156.38655812065926
6.074741248,0.9995343844773347,-156.54907628613114
6.077410816,0.9995569563608377,-156.71169411700592
6.080079872,0.9996072053473963,-156.87486171601714
6.08274944,0.9996821141216661,-157.03894226673586
6.085419008,0.9997769926760623,-157.20422158962137
6.088088064,0.9998857621132334,-157.37098339186363
6.090757632,1.0000017519848456,-157.5394000155978
6.093426688,1.000117725796063,-157.70947162012806
6.096096256,1.0002263518181793,-157.88119000308683
6.098765312,1.0003207719113525,-158.05437532836413
6.10143488,1.0003952311767184,-158.22877223525757
6.104103936,1.000444946042235,-158.4040556175907
6.106773504,1.0004667998976924,-158.57989350939738
6.10944256,1.0004594123286834,-158.75585009135077
6.112112128,1.0004232381973455,-158.9314600114004
6.114781696,1.000360592314145,-159.1063844396633
6.117450752,1.0002753128057207,-159.28022425695983
6.12012032,1.0001726388157404,-159.45272962312538
6.122789376,1.0000592433060245,-159.62365291080047
6.125458944,0.9999419807218619,-159.79292303459323
6.128128,0.9998283328960472,-159.96054291858013
6.130797568,0.9997253494875131,-160.12659945671317
6.133466624,0.9996394845522133,-160.29130377415638
6.136136192,0.9995762174595042,-160.45489468406814
6.138805248,0.9995395066747602,-160.61779138119766
6.141474816,0.9995315727837356,-160.7803470407878
6.144144384,0.999552995059372,-160.94299881457547
6.14681344,0.9996023237222068,-161.1061581430577
6.149483008,0.9996767121637848,-161.27024277251786
6.152152064,0.999771293463721,-161.4355378731777
6.154821632,0.9998803272994322,-161.60230843537306
6.157490688,0.9999969078142639,-161.77071912059571
6.160160256,1.0001136345147439,-161.94082326155345
6.162829312,1.0002233886581462,-162.11253172603702
6.16549888,1.0003190559893855,-162.28576798791684
6.168167936,1.000394849269834,-162.46022896873149
6.170837504,1.0004459686383786,-162.6355721782849
6.173507072,1.0004692268793083,-162.81150471814425
6.176176128,1.0004630858859984,-162.98755552400874
6.178845696,1.0004279016830304,-163.16328929828714
6.181514752,1.0003658803511033,-163.3383625548303
6.18418432,1.0002810026577347,-163.5123368130161
6.186853376,1.0001784740414985,-163.68498651340835
6.189522944,1.0000646812327256,-163.85607236759841
6.192192,0.9999468612524944,-164.02550549360728
6.194861568,0.9998321862971105,-164.19321421013947
6.197530624,0.9997280046496035,-164.35938744138537
6.200200192,0.9996408064598222,-164.52416489267762
6.20286976,0.9995760850249081,-164.68783245107508
6.205538816,0.9995379611755287,-164.8507795336236
6.208208384,0.9995287387469916,-165.01334975274506
6.21087744,0.9995490252615933,-165.17601399495024
6.213547008,0.9995974749828612,-165.33917843944374
6.216216064,0.9996712683233737,-165.50321282654207
6.218885632,0.9997656696334922,-165.66849375067824
6.221554688,0.9998748681315406,-165.8352298888971
6.224224256,0.999991916226066,-166.00360882239033
6.226893312,1.000109414611654,-166.17368035344015
6.22956288,1.0002202802272027,-166.34539903154777
6.232232448,1.0003171365104573,-166.51863183966898
6.234901504,1.000394416301923,-166.69311812627924
6.237571072,1.000446986491816,-166.86851156600804
6.240240128,1.0004715313452024,-167.0445165325093
6.242909696,1.0004666235251294,-167.22062465798368
6.245578752,1.0004324704741259,-167.39647606212
6.24824832,1.000371180154403,-167.57164038392017
6.250917376,1.000286690096553,-167.74575754638528
6.253586944,1.0001841180765878,-167.91853573049585
6.256256512,1.0000700305384163,-168.08971583291958
6.258925568,0.999951515963819,-168.25926142451553
6.261595136,0.9998359846405664,-168.42709049097726
6.264264192,0.9997306160772075,-168.59331554509328
6.26693376,0.9996420675187837,-168.7581321628934
6.269602816,0.9995759322488903,-168.92184195253995
6.272272384,0.9995363136998796,-169.0847893547273
6.27494144,0.9995256323080131,-169.24738759744332
6.277611008,0.999544910621121,-169.4100377280352
6.280280064,0.9995925567287126,-169.57314900238532
6.282949632,0.9996658250734312,-169.73715867115655
6.2856192,0.9997600386916184,-169.90237650567445
6.288288256,0.9998692310961802,-170.06904347519503
6.290957824,0.9999868250362239,-170.23736315527984
6.29362688,1.000105199686527,-170.40737964094697
6.296296448,1.0002170763726461,-170.57907009729578
6.298965504,1.0003153438326884,-170.7522722662388
6.301635072,1.0003939506444015,-170.92676214566396
6.304304128,1.0004479031728584,-171.1022031806822
6.306973696,1.0004739165329166,-171.27822818477796
6.309642752,1.0004701714265893,-171.4544348782348
6.31231232,1.0004370696846099,-171.63034433603178
6.314981888,1.000376590573678,-171.80557479311727
6.317650944,1.000292558077228,-171.97979121636092
6.320320512,1.0001900150191145,-172.15266926972214
6.322989568,1.0000756848019876,-172.3239554660972
6.325659136,0.9999563748543142,-172.49354141484434
6.328328192,0.9998398984941986,-172.66144545393823
6.33099776,0.9997333184750501,-172.82772419841925
6.333666816,0.9996433725899835,-172.9926156365525
6.336336384,0.9995758217605996,-173.15632787295047
6.33900544,0.9995347801090204,-173.3192759052276
6.341675008,0.9995228706451044,-173.4818197407717
6.344344576,0.9995408394448076,-173.6444260463146
6.347013632,0.9995875753595675,-173.8074831001275
6.3496832,0.999660271342669,-173.97139952017903
6.352352256,0.9997542822623431,-174.136521011588
6.355021824,0.9998636400712486,-174.30310274934328
6.35769088,0.9999815582701933,-174.47135338363793
6.360360448,1.000100797691365,-174.64131526474043
6.363029504,1.0002138166270294,-174.8129320608779
6.365699072,1.0003134576680452,-174.98609134401374
6.368368128,1.0003933868260804,-175.16055936402188
6.371037696,1.0004488927459505,-175.33598347519995
6.373707264,1.0004762501513893,-175.51202540282245
6.37637632,1.0004737824803815,-175.68823606518288
6.379045888,1.000441737897002,-175.86422223647577
6.381714944,1.0003819037281068,-176.0395310385903
6.384384512,1.000298334176706,-176.21378083127695
6.387053568,1.0001958667487074,-176.38672298248594
6.389723136,1.0000811613205705,-176.5580825903261
6.392392192,0.9999612513191667,-176.72774718567968
6.39506176,0.9998437815874726,-176.8956874384567
6.397730816,0.9997359250046609,-177.06199182073985
6.400400384,0.9996447532972574,-177.22688800655297
6.403069952,0.9995756029396925,-177.39059083228472
6.405739008,0.9995330727059752,-177.55348149013764
6.408408576,0.9995199053621001,-177.71597364377814
6.411077632,0.9995366997285255,-177.87851083608302
6.4137472,0.9995825121500509,-178.04147209128658
6.416416256,0.9996545950360141,-178.20529549594892
6.419085824,0.9997483160316778,-178.3703133685434
6.42175488,0.9998578834182315,-178.53680812069152
6.424424448,0.9999763664422933,-178.70493209532904
6.427094016,1.0000963630015818,-178.87475250091157
6.429763072,1.0002104323574539,-179.04632829915664
6.43243264,1.0003113441975733,-179.21940472600423
6.435101696,1.0003927575651832,-179.3938016527078
6.437771264,1.0004497993619248,-179.56923072311983
6.44044032,1.0004786212031362,-179.74523585811718
6.443109888,1.0004774195224633,-179.92145905413705
6.445778944,1.00044645517563,179.90255497386593
6.448448512,1.0003873248105384,179.72720538128428
6.451117568,1.0003040428380425,179.55288423951566
6.453787136,1.0002017466028235,179.37990716465433
6.456456704,1.0000867780826053,179.20851321636175
6.45912576,0.999966178461001,179.0388339012208
6.461795328,0.9998476690908492,178.87086093563715
6.464464384,0.9997386958032153,178.7045441869098
6.467133952,0.9996459580921684,178.53966836409913
6.469803008,0.9995754959356696,178.37600168022288
6.472472576,0.9995315739751207,178.21316088925258
6.475141632,0.9995169293037356,178.0507572280776
6.4778112,0.9995325772640933,177.8883277169292
6.480480256,0.9995775496168711,177.7254799257277
6.483149824,0.9996489587443523,177.56178099353863
6.485819392,0.9997424290279081,177.39690299275048
6.488488448,0.9998521656022852,177.23058089581727
6.491158016,0.9999711593354454,177.06256558808215
6.493827072,1.0000919744613688,176.89285903488874
6.49649664,1.0002072042973889,176.72143190470004
6.499165696,1.0003093852101812,176.54842580893384
6.501835264,1.0003923995923425,176.37408497173251
6.50450432,1.00045073085352,176.19875671458934
6.507173888,1.0004810736991392,176.0227718949186
6.509842944,1.0004810858515218,175.8465382030553
6.512512512,1.0004511290535862,175.6705643947474
6.51518208,1.000393007498789,175.49522999685973
6.517851136,1.0003100995607108,175.32088649994856
6.520520704,1.0002077125827793,175.1478673667004
6.52318976,1.0000923603456757,174.97645779740228
6.525859328,0.9999712034902678,174.8067671437147
6.528528384,0.9998517652377217,174.6387853961848
6.531197952,0.9997415781720936,174.47250472134672
6.533867008,0.9996474542250171,174.30768471350927
6.536536576,0.9995753819625017,174.14407560907574
6.539205632,0.9995300288486646,173.9812981468564
6.5418752,0.9995139250707646,173.81900560298809
6.544544768,0.9995284319261146,173.65671858732583
6.547213824,0.9995725214000949,173.49397160575654
6.549883392,0.9996432702405429,173.33044997810552
6.552552448,0.99973651574844,173.16574318625905
6.555222016,0.999846327477392,172.9995460786853
6.557891072,0.9999656204118604,172.83172214795482
6.56056064,1.0000874619400781,172.6621565202035
6.563229696,1.0002036855376542,172.49085960052568
6.565899264,1.000307300877315,172.31800103786622
6.56856832,1.0003916903585093,172.1437516098519
6.571237888,1.0004515967020715,171.9684927218924
6.573907456,1.0004833428655517,171.79256375915207
6.576576512,1.0004847343713525,171.61639895479044
6.57924608,1.0004558073385788,171.44044056866838
6.581915136,1.0003983749357495,171.2650843817851
6.584584704,1.0003160311978772,171.0907728964988
6.58725376,1.0002137461913678,170.91779201458917
6.589923328,1.0000981159931006,170.74636930002885
6.592592384,0.9999761769392425,170.57669418032202
6.595261952,0.9998557796227978,170.40873381213237
6.59793152,0.9997443106440108,170.24251757825465
6.600600576,0.9996488553781064,170.0777412752703
6.603270144,0.9995752950794329,169.9142016108326
6.6059392,0.9995283306715624,169.75156827535343
6.608608768,0.9995109754309701,169.58938074873362
6.611277824,0.9995242086557349,169.42723757446547
6.613947392,0.9995673612412556,169.26471046501376
6.616616448,0.9996375648976741,169.1013464716237
6.619286016,0.9997304744243588,168.93681264718134
6.621955072,0.9998404351365288,168.77080300970857
6.62462464,0.9999604792653023,168.60317504847282
6.627294208,1.000082945161535,168.4337635922346
6.629963264,1.0002003118719942,168.26263843897996
6.632632832,1.0003053567107816,168.08991231438904
6.635301888,1.0003910639863611,167.91582730748604
6.637971456,1.0004525060020117,167.74063555673558
6.640640512,1.0004856162093714,167.56480759739821
6.64331008,1.0004884985563622,167.38869829573378
6.645979136,1.000460652266027,167.21279834687763
6.648648704,1.0004039346051934,167.03748700500702
6.65131776,1.0003220225638403,166.8631888334643
6.653987328,1.0002198282162407,166.69023257181036
6.656656896,1.0001038908258095,166.51885285697244
6.659325952,0.9999814077218826,166.34920933761603
6.66199552,0.9998598454777887,166.18131099103908
6.664664576,0.9997472048046188,166.01509153164488
6.667334144,0.9996503297617806,165.85043517517735
6.6700032,0.9995752038075619,165.68702895522208
6.672672768,0.9995267543999321,165.52451177742392
6.675341824,0.9995079714688385,165.36249372744496
6.678011392,0.9995199853810673,165.20051233309678
6.680680448,0.9995620758333718,165.03816540279954
6.683350016,0.9996316969607932,164.87502262755228
6.686019584,0.9997243878800617,164.71067046314406
6.68868864,0.9998343720052005,164.54490617559836
6.691358208,0.9999549827899126,164.3774357269167
6.694027264,1.000078369805088,164.2082511182535
6.696696832,1.0001968106325891,164.03731438979995
6.699365888,1.0003031653758263,163.86475160940105
6.702035456,1.0003904530437824,163.69080589402822
6.704704512,1.0004534589907994,163.51577266394642
6.70737408,1.0004880344058191,163.34002506726685
6.710043136,1.000492166597721,163.16403212370545
6.712712704,1.0004654434477818,162.9881876207252
6.715382272,1.00040956041481,162.81295252742873
6.718051328,1.0003280224985478,162.63869103298217
6.720720896,1.0002259583607356,162.46579011463058
6.723389952,1.0001095889838454,162.29445244102266
6.72605952,0.9999864351158687,162.12484724379067
6.728728576,0.9998641110881519,161.95702755088394
6.731398144,0.9997500835112432,161.79094472635333
6.7340672,0.9996517058568393,161.62638172253853
6.736736768,0.9995751828772867,161.46306181051946
6.739405824,0.9995251463581359,161.30071118468896
6.742075392,0.9995050354726632,161.1388773844725
6.74474496,0.9995158114609702,160.9770864196309
6.747414016,0.9995568731867553,160.81494041232585
6.750083584,0.9996259334469084,160.65202014721487
6.75275264,0.9997184290902887,160.48791879460904
6.755422208,0.9998286107000426,160.3223694556708
6.758091264,0.999949622604571,160.1551756286304
6.760760832,1.0000737252439873,159.98618244322378
6.763429888,1.0001934646795954,159.8154679426178
6.766099456,1.0003010120527525,159.64306264491668
6.768769024,1.0003899951278092,159.46930348043756
6.77143808,1.0004544398202961,159.29443236899775
6.774107648,1.0004904416181637,159.11882807139227
6.776776704,1.0004959183205848,158.9429156406389
6.779446272,1.0004702847731006,158.76715755903757
6.782115328,1.000415167054313,158.59200550080035
6.784784896,1.0003340354334056,158.41782613220082
6.787453952,1.0002320630067523,158.2449725696492
6.79012352,1.0001155692617585,158.07371038433533
6.792792576,0.9999916237556624,157.90422348729575
6.795462144,0.9998681986950239,157.7364792947188
6.798131712,0.9997530364909452,157.57048382838136
6.800800768,0.9996532078561144,157.40605646639952
6.803470336,0.9995752073462942,157.24292853962194
6.806139392,0.9995235782076837,157.08074785851363
6.80880896,0.9995019769562913,156.9190673299054
6.811478016,0.9995115154797747,156.75749069296236
6.814147584,0.9995517379437583,156.59561691029992
6.81681664,0.9996200945186764,156.43292888743133
6.819486208,0.999712222574451,156.26909863504156
6.822155264,0.9998225808291007,156.10380499239315
6.824824832,0.999943997490049,155.9368407708439
6.8274944,1.0000690961771712,155.76809255437772
6.830163456,1.000189907755957,155.59759460502227
6.832833024,1.000298987235109,155.42543262713272
6.83550208,1.0003892336186488,155.25185434101078
6.838171648,1.0004552384882874,155.07712225398794
6.840840704,1.0004928948482688,154.9016668684214
6.843510272,1.0004994784681636,154.72590446421302
6.846179328,1.0004750498831034,154.55027659862012
6.848848896,1.0004209037236964,154.37521600124293
6.851517952,1.0003402655832356,154.20115187171695
6.85418752,1.000238333126021,154.0283589780506
6.856857088,1.000121399678612,153.85717507485444
6.859526144,0.9999968226257187,153.68778041823344
6.862195712,0.9998724654340118,153.52016801868226
6.864864768,0.9997559296185404,153.3543057024934
6.867534336,0.9996547438373653,153.19001661684322
6.870203392,0.9995750318574915,153.02705023953382
6.87287296,0.9995220009437233,152.8650584768998
6.875542016,0.9994990256712936,152.70362475842452
6.878211584,0.9995072341408165,152.54232486815343
6.88088064,0.9995464507510146,152.38065896801945
6.883550208,0.9996141699334241,152.21824500695377
6.886219776,0.9997060551448768,152.05467242007123
6.888888832,0.999816597456462,151.8896483872231
6.8915584,0.9999385741093589,151.722957695329
6.894227456,1.0000643912066192,151.55448207157778
6.896897024,1.000186330246847,151.38423537322885
6.89956608,1.000296692059112,151.2123162813849
6.902235648,1.0003885991606805,151.03892845540443
6.904904704,1.0004561773676837,150.86440151796262
6.907574272,1.0004952536713139,150.68914498509258
6.910243328,1.000503410389759,150.5135033079558
6.912912896,1.0004799037436811,150.33798809013317
6.915582464,1.0004265415303395,150.16306409148484
6.91825152,1.0003462897652884,149.98907949317456
6.920921088,1.0002444863115028,149.81644263683796
6.923590144,1.0001273257101277,149.6453858535878
6.926259712,1.0000020138209544,149.4760767611155
6.928928768,0.9998765754746035,149.30860589057593
6.931598336,0.9997588090120983,149.14288304543462
6.934267392,0.9996561362128261,148.97876166029667
6.93693696,0.9995749347315827,148.81599072986194
6.939606528,0.9995204507791529,148.6542178984606
6.942275584,0.9994958087598659,148.49300494421567
6.944945152,0.999502962490861,148.33196740788262
6.947614208,0.9995411800831984,148.17057552463248
6.950283776,0.9996082374324723,148.00843935857327
6.952952832,0.9996999101734891,147.84517756139564
6.9556224,0.9998104999072664,147.68045106114886
6.958291456,0.999933043741333,147.51406291856165
6.960961024,1.0000597460279088,147.34586473003023
6.96363008,1.000182764651874,147.17589903301243
6.966299648,1.0002946344166688,147.0042130593015
6.968969216,1.00038793546528,146.83107497974964
6.971638272,1.000457127249589,146.6567468137719
6.97430784,1.000497729957373,146.48164335529364
6.976976896,1.0005070923624555,146.30619586192353
6.979646464,1.0004848817574663,146.13086051590733
6.98231552,1.000432258527906,145.95604365458087
6.984985088,1.0003525856627853,145.78219639892572
6.987654144,1.000250659885967,145.60965046876967
6.990323712,1.0001331603465224,145.43873536896544
6.992992768,1.000007326369228,145.2695777919196
6.995662336,0.9998808150465432,145.1022314790832
6.998331904,0.9997618040190014,144.93667657390097
7.00100096,0.999657607340053,144.7727797989433
7.003670528,0.9995749149215989,144.61020575864407
7.006339584,0.999518801818721,144.44864663449079
7.009009152,0.9994927542634049,144.28771283280452
7.011678208,0.9994986275663071,144.12692496064471
7.014347776,0.9995358876060055,143.96583217534322
7.017016832,0.9996023057206561,143.80400168711532
7.0196864,0.999693629598806,143.641071613379
7.022355456,0.9998042601420101,143.4766555033228
7.025025024,0.999927355393187,143.3105796064382
7.027694592,1.0000549318588106,143.14267057797153
7.030363648,1.0001792725235172,142.97298201515076
7.033033216,1.000292413590811,142.8015688992645
7.035702272,1.0003873788554354,142.62867017409056
7.03837184,1.0004580852443525,142.4545782957214
7.041040896,1.0005001301664302,142.27971439858638
7.043710464,1.0005109448795297,142.10444359757398
7.04637952,1.0004897700128004,141.9292788057769
7.049049088,1.000437971318001,141.75460299239398
7.051718144,1.000358773298283,141.58087973214413
7.054387712,1.0002571058648626,141.40852222839473
7.05705728,1.0001391685938232,141.23772523420956
7.059726336,1.0000125729458822,141.06869379155512
7.062395904,0.9998850605369212,140.90154511075772
7.06506496,0.9997647274086576,140.73618112407695
7.067734528,0.9996590313286813,140.57246913184477
