freq,mag,phase
6.0,0.9995524399458017,123.25263552721411
6.002285568,0.9989881415623547,123.11932939927439
6.004571648,0.9984875957850737,122.99381318367166
6.006857216,0.9980829363084724,122.8749776473803
6.009142784,0.9977997940301688,122.76119437799136
6.011428352,0.9976560990534402,122.65059746610976
6.013714432,0.9976612526237035,122.54104233791956
6.016,0.9978150421226221,122.4303917512337
6.018285568,0.998107443856077,122.31650850352742
6.020571648,0.9985198986164928,122.1975344791572
6.022857216,0.9990264812401259,122.07191251038961
6.025142784,0.9995947690983807,121.93847019062275
6.027428352,1.00018891936544,121.79664378970945
6.029714432,1.000771141883885,121.64631949992494
6.032,1.001304671591886,121.48796398120342
6.034285568,1.0017558356291842,121.3224876567784
6.036571648,1.002096179228398,121.15138507841459
6.038857216,1.0023042882106237,120.97629933462906
6.041142784,1.0023670463098295,120.79932879625811
6.043428352,1.0022803284800954,120.62256869316978
6.045714432,1.0020496861214212,120.44814243389783
6.048,1.0016894537033205,120.27803784342578
6.050285568,1.0012224366480056,120.11392422901892
6.052571648,1.0006779615244046,119.9571944545615
6.054857216,1.0000904628519556,119.80869408323815
6.057142784,0.9994968695474451,119.66881616064387
6.059428352,0.9989350193019209,119.53738906197614
6.061714432,0.9984404660539234,119.41373232342012
6.064,0.9980446086433795,119.29659067720175
6.066285568,0.9977727233026997,119.18440238551742
6.068571648,0.997642277896357,119.07521681105449
6.070857216,0.9976615706368517,118.96684941707419
6.073142784,0.997829104622727,118.85718732333855
6.075428352,0.9981347061136105,118.74409873351874
6.077714432,0.9985586837230763,118.62571880304316
6.08,0.9990742340824385,118.50055829805068
6.082285568,0.999648496807953,118.36747811444283
6.084571648,1.0002450524868423,118.22593230509888
6.086857216,1.000826357057746,118.07589328938217
6.089142784,1.0013554046740258,117.91781953503026
6.091428352,1.0017987895599334,117.75276378973918
6.093714432,1.0021288156254975,117.58215843710386
6.096,1.0023243892292457,117.40779081015538
6.098285568,1.0023732193072241,117.23168760226761
6.100571648,1.0022723436816836,117.05601332603986
6.102857216,1.0020280257078507,116.88287142416313
6.105142784,1.0016554017265382,116.71421179831968
6.107428352,1.0011780640001886,116.55173221443323
6.109714432,1.0006260558371767,116.39675876331874
6.112,1.0000342884624502,116.25010538308791
6.114285568,0.9994401086104128,116.11209887166804
6.116571648,0.9988812641151736,115.98254898165025
6.118857216,0.9983929545863954,115.86069598261186
6.121142784,0.9980065959115456,115.74525136165963
6.123428352,0.9977466506450283,115.63459063304248
6.125714432,0.9976296602214694,115.52670820991027
6.128,0.9976632430335818,115.41949500878353
6.130285568,0.9978452561141548,115.31071387321222
6.132571648,0.9981641017160722,115.19837746434769
6.134857216,0.9985996868334107,115.08051111644107
6.137142784,0.9991239599048896,114.95573904197299
6.139428352,0.9997039669001382,114.82294255648189
6.141714432,1.0003028124987607,114.68160630180849
6.144,1.0008826114618186,114.53173478578472
6.146285568,1.0014066866114002,114.37394049269291
6.148571648,1.0018419085722587,114.20923407932358
6.150857216,1.002160869768353,114.03910955477023
6.153142784,1.0023436006290223,113.86538507319375
6.155428352,1.002378242822332,113.6901514149613
6.157714432,1.0022627250774396,113.51551831604486
6.16,1.002004334812547,113.34363100224553
6.162285568,1.0016192245005624,113.17639874706043
6.164571648,1.0011317613790818,113.01555364271546
6.166857216,1.0005723313402766,112.8623052872819
6.169142784,0.9999766259624512,112.71748092546645
6.171428352,0.9993821441922642,112.58133095394722
6.173714432,0.9988264859786014,112.45360985002364
6.176,0.9983451892834446,112.33348075424273
6.178285568,0.9979686154727507,112.21967420101434
6.180571648,0.99772098308187,112.11046610017567
6.182857216,0.997618050851247,112.00385819319162
6.185142784,0.9976663825915346,111.89771439770976
6.187428352,0.9978628618551524,111.78979780261461
6.189714432,0.9981952329794479,111.67807529999763
6.192,0.9986421407994842,111.5607043676467
6.194285568,0.9991753739543847,111.43620767142737
6.196571648,0.9997609258146346,111.30360093499799
6.198857216,1.0003617258961128,111.16243191596912
6.201142784,1.0009397601119454,111.01271416224917
6.203428352,1.0014584168446872,110.8551073709906
6.205714432,1.0018850385697866,110.69066936245905
6.208,1.002192608307273,110.5209870776648
6.210285568,1.0023616921085592,110.34789749668134
6.212571648,1.0023817750862858,110.17345074089458
6.214857216,1.0022514419053152,109.99984073113826
6.217142784,1.0019788752628118,109.82920061591992
6.219428352,1.0015811357835211,109.66340311053095
6.221714432,1.0010834869535792,109.50411958680402
6.224,1.0005169646809886,109.35257185870427
6.226285568,0.9999174828572918,109.20955162894427
6.228571648,0.9993230532197358,109.07523221061507
6.230857216,0.9987711027215148,108.94930382904506
6.233142784,0.9982971251629548,108.83089572630188
6.235428352,0.9979310054415835,108.71863712736506
6.237714432,0.9976961328278579,108.61086533235083
6.24,0.9976076024134546,108.50546046802313
6.242285568,0.9976710393542847,108.40030278449198
6.244571648,0.997882406201401,108.29317314254412
6.246857216,0.9982282131059169,108.18200319763324
6.249142784,0.9986867904009172,108.06498708038642
6.251428352,0.9992285179322148,107.94075425761991
6.253714432,0.9998194713126373,107.80825209794253
6.256,1.000421864615058,107.66715257527426
6.258285568,1.0009976667097265,107.5175280272777
6.260571648,1.001510375152769,107.3600275670215
6.262857216,1.0019279247004538,107.19586260103416
6.265142784,1.0022236196401708,107.02655849448026
6.267428352,1.0023788763384647,106.8540265378059
6.269714432,1.0023839137302102,106.68038373454175
6.272,1.002238615979493,106.50777141895261
6.274285568,1.001951619942878,106.33833591690592
6.276571648,1.00154133748659,106.17392415877546
6.278857216,1.0010334397946248,106.01622684685117
6.281142784,1.0004599566642414,105.86637632065663
6.283428352,0.9998570542724281,105.72509382566254
6.285714432,0.999263049747565,105.59257526703352
6.288,0.9987154674486215,105.46839112811554
6.290285568,0.9982491772885107,105.351648843994
6.292571648,0.9978939273160147,105.24093514267277
6.294857216,0.9976723053302556,105.13450695255543
6.297142784,0.9975985077356032,105.03025575413575
6.299428352,0.9976773035417231,104.92600495109856
6.301714432,0.9979036906987985,104.81956634938965
6.304,0.9982632575591492,104.70886898254419
6.306285568,0.9987331477395898,104.5921821253876
6.308571648,0.9992834965704953,104.46808117298649
6.310857216,0.9998795026937438,104.33565022056473
6.313142784,1.0004831712884972,104.19455293853794
6.315428352,1.0010563380267565,104.04492711572907
6.317714432,1.0015627958854456,103.88752740010884
6.32,1.0019705576682945,103.72354300866186
6.322285568,1.0022537975379113,103.5545963683671
6.324571648,1.002394834671396,103.38261020655585
6.326857216,1.0023847196817106,103.209715650666
6.329142784,1.0022238323673116,103.0380648790364
6.331428352,1.001922596511783,102.86980861663336
6.333714432,1.0014995549385561,102.70678581226744
6.336,1.0009816596092285,102.5506106541871
6.338285568,1.0004013882120515,102.40244570714714
6.340571648,0.999795472747202,102.26290588414462
6.342857216,0.9992022374038004,102.13212251042532
6.345142784,0.9986593468454535,102.00966190627375
6.347428352,0.9982013708738783,101.89452560765872
6.349714432,0.9978574626872418,101.78528736041739
6.352,0.9976495496015395,101.68013060320304
6.354285568,0.9975908198961523,101.57695578278597
6.356571648,0.997685329473213,101.47356879907751
6.358857216,0.9979268580610179,101.36774940865202
6.361142784,0.9983002108859563,101.25746273346691
6.363428352,0.9987815298841393,101.1410026806207
6.365714432,0.999340195316874,101.01694738833115
6.368,0.9999408433890818,100.88452599693018
6.370285568,1.0005453471881032,100.74336216923837
6.372571648,1.0011154480512456,100.59370098363648
6.374857216,1.0016150330633453,100.43630805081013
6.377142784,1.0020126924905863,100.27247729852998
6.379428352,1.0022831570759612,100.10384472631291
6.381714432,1.0024094525175082,99.93234457844122
6.384,1.0023838071194668,99.76017171653089
6.386285568,1.0022074054342067,99.58947096662612
6.388571648,1.0018913847155155,99.42237424381636
6.390857216,1.001455839423465,99.26071906766722
6.393142784,1.0009280348304839,99.10607276897385
6.395428352,1.0003412051902465,98.95952832810174
6.397714432,0.9997324929945113,98.82169551625444
6.4,0.9991406245530848,98.6926398090333
6.402285568,0.9986029127173744,98.57183976650565
6.404571648,0.9981537041301505,98.45826304313398
6.406857216,0.997821605197552,98.35045014527978
6.409142784,0.9976277522813682,98.24652198477054
6.411428352,0.9975847084741375,98.14434492801743
6.413714432,0.997695115347402,98.0417299303532
6.416,0.9979519932674175,97.93645326785584
6.418285568,0.9983390427623687,97.82649930100902
6.420571648,0.9988317252959988,97.7101885893763
6.422857216,0.9993984540660812,97.58615443163495
6.425142784,1.0000035898164334,97.45363370528214
6.427428352,1.0006085059000789,97.31233465113107
6.429714432,1.0011751320637665,97.16255233056545
6.432,1.0016674469450817,97.00513929891335
6.434285568,1.002054399601518,96.84139372908719
6.436571648,1.0023116342419907,96.67303294462457
6.438857216,1.0024229537026517,96.50200837799261
6.441142784,1.002381117358658,96.33053653204793
6.443428352,1.002188963463943,96.16076299583041
6.445714432,1.0018584047454777,95.99480324765938
6.448,1.00141019797005,95.83447525093798
6.450285568,1.000872520185552,95.68132546395469
6.452571648,1.000279535156519,95.53640077012403
6.454857216,0.99966852951812,95.40024140531129
6.457142784,0.9990783185347328,95.27284979414021
6.459428352,0.998546300402623,95.15368186433719
6.461714432,0.9981062802221972,95.04164409642779
6.464,0.9977865400253246,94.9351865576856
6.466285568,0.997607287666185,94.83240140269861
6.468571648,0.9975800797967681,94.7311777703248
6.470857216,0.9977066793817732,94.62926913291791
6.473142784,0.997979138025724,94.52446806282575
6.475428352,0.9983798428979996,94.41476788423299
6.477714432,0.9988837119011719,94.2984898800843
6.48,0.9994583689964138,94.17438986366601
6.482285568,1.0000676572788196,94.04168203309051
6.484571648,1.0006726757010265,93.90020757653588
6.486857216,1.0012352290335385,93.75026210323672
6.489142784,1.0017196522210523,93.59277378909559
6.491428352,1.0020955308917927,93.42909611569122
6.493714432,1.0023391797405194,93.26095033631282
6.496,1.0024348553030422,93.09039183646824
6.498285568,1.0023769087995544,92.91954545974194
6.500571648,1.0021687069764402,92.75071694391727
6.502857216,1.0018234654678344,92.58584957319317
6.505142784,1.0013626600505043,92.42681738168191
6.507428352,1.000815420215548,92.27517859926333
6.509714432,1.0002163783067999,92.1318217148314
6.512,0.9996034189410558,91.99728653478137
6.514285568,0.9990153263330207,91.87155222817798
6.516571648,0.9984894760281834,91.75395866111064
6.518857216,0.9980593026615484,91.64340745018356
6.521142784,0.9977522153364105,91.53824518009586
6.523428352,0.9975879518237449,91.43657697874912
6.525714432,0.9975769599879353,91.33620824345563
6.528,0.9977199933126963,91.23491106415753
6.530285568,0.9980079596157143,91.13049101098655
6.532571648,0.9984225822674672,91.02096696949891
6.534857216,0.9989374354174967,90.9046804575276
6.537142784,0.9995198020093274,90.7804342884511
6.539428352,1.0001327682987489,90.64750584209432
6.541714432,1.000737317173951,90.50576748827767
6.544,1.001295421800281,90.35561682283394
6.546285568,1.0017717087946134,90.19798533581262
6.548571648,1.0021358140458525,90.03430488622278
6.550857216,1.0023653354774573,89.86636110873069
6.553142784,1.0024452448134384,89.69621105073193
6.555428352,1.0023707978693803,89.52603628190921
6.557714432,1.0021464435890184,89.35803382137941
6.56,1.0017863418610198,89.19427147959424
6.562285568,1.0013130264793881,89.03656333918634
6.564571648,1.000756594915326,88.88633004715595
6.566857216,1.0001519367237504,88.7445420617481
6.569142784,0.9995373998189458,88.6116550465162
6.571428352,0.9989519188529677,88.48751331925092
6.573714432,0.9984327539541848,88.37146134254591
6.576,0.9980127900403233,88.26229582001335
6.578285568,0.9977190004233745,88.15836174513429
6.580571648,0.9975701798365373,88.05772810777167
6.582857216,0.9975756769952302,87.95814407404646
6.585142784,0.9977353713116209,87.85740123396414
6.587428352,0.998038901977713,87.75331658638645
6.589714432,0.9984672829247548,87.6439064289562
6.592,0.998993047335468,87.52750104060642
6.594285568,0.9995827835026538,87.40305194324219
6.596571648,1.0001991693620143,87.2697991216831
6.598857216,1.0008029085395134,87.12773885461657
6.601142784,1.0013560113852076,86.9773218103569
6.603428352,1.0018234741738612,86.81951047407381
6.605714432,1.0021756599307794,86.65582049090352
6.608,1.0023904289384362,86.48801916420979
6.610285568,1.0024542507412557,86.3182289124478
6.612571648,1.0023629528954487,86.14866159587878
6.614857216,1.002122365284276,85.98151788907067
6.617142784,1.001747394468142,85.8188437057626
6.619428352,1.0012619074504294,85.66240376911361
6.621714432,1.0006962722721473,85.51359399785721
6.624,1.0000862833743338,85.37335942679529
6.626285568,0.9994705968656662,85.24203106515957
6.628571648,0.9988882087001684,85.11946508275672
6.630857216,0.9983761331773869,85.00489518541364
6.633142784,0.9979669744591682,84.89708962682917
6.635428352,0.9976868836344059,84.79434803821026
6.637714432,0.9975537945308074,84.69465529584676
6.64,0.9975761309979322,84.59582464402214
6.642285568,0.997752558135753,84.49554508287522
6.644571648,0.9980720161183931,84.39168773523528
6.646857216,0.9985140103150919,84.2822678779546
6.649142784,0.99905036962938,84.16573510988056
6.651428352,0.9996471409499781,84.04095726145735
6.653714432,1.0002664722149877,83.90736799127193
6.656,1.000868995758598,83.7649185317807
6.658285568,1.0014166147208872,83.61415705299329
6.660571648,1.001874636122361,83.45613547695383
6.662857216,1.0022143765646727,83.2923268964368
6.665142784,1.0024142436135108,83.12467903801894
6.667428352,1.0024613883176634,82.95525935892493
6.669714432,1.002353206495593,82.78629637336176
6.672,1.0020962365886532,82.61996744118042
6.674285568,1.0017065037270525,82.45834899252998
6.676571648,1.001208816792145,82.30315972122357
6.678857216,1.0006342935388446,82.1557456118469
6.681142784,1.0000194023693,82.0170071574143
6.683428352,0.9994029173091428,81.88722188513182
6.685714432,0.9988241908884545,81.76616089505927
6.688,0.9983197837656531,81.653049926716
6.690285568,0.9979218790629278,81.54655618840144
6.692571648,0.9976559497461857,81.44491748758817
6.694857216,0.9975389164393356,81.34612535581431
6.697142784,0.9975784148994989,81.24793137939533
6.699428352,0.9977718447143842,81.14804991484031
6.701714432,0.9981070072904143,81.04432316750754
6.704,0.9985625128962355,80.93485429861548
6.706285568,0.9991094549371873,80.81809016789695
6.708571648,0.9997129064679547,80.6929593524379
6.710857216,1.0003348071240474,80.55893233680756
6.713142784,1.0009355550643024,80.4160388780891
6.715428352,1.0014772492975779,80.26489125706809
6.717714432,1.0019255474165147,80.10657966766821
6.72,1.0022522490463992,79.94271155090432
6.722285568,1.0024365694217334,79.7751340637362
6.724571648,1.0024669987055228,79.6060327075707
6.726857216,1.0023415659161232,79.43764243799832
6.729142784,1.002068026068329,79.2721426438536
6.731428352,1.0016636752055827,79.11155078429448
6.733714432,1.0011539110586707,78.95758601723807
6.736,1.0005708755949272,78.81155396762516
6.738285568,0.9999514068057117,78.67427694589941
6.740571648,0.9993347304585467,78.54600934142721
6.742857216,0.9987600281199639,78.42643550925604
6.745142784,0.9982637515760958,78.31471275694935
6.747428352,0.9978776292215358,78.20943216000569
6.749714432,0.997626301792437,78.10887801244331
6.752,0.9975257874778231,78.01090103007938
6.754285568,0.997582570096033,77.91328655708963
6.756571648,0.9977931612178207,77.81370730553346
6.758857216,0.9981440615331244,77.71007570334037
6.761142784,0.9986128840989517,77.60045049967242
6.763428352,0.9991700529373041,77.4833689020651
6.765714432,0.9997799952600689,77.35780442056418
6.768,1.0004039722292928,77.22328057767282
6.770285568,1.0010024374963757,77.07987785093718
6.772571648,1.0015376734366574,76.92828811338377
6.774857216,1.0019755723342116,76.76969809407117
6.777142784,1.0022887707092465,76.60566396336084
6.779428352,1.0024574352489646,76.4381477212246
6.781714432,1.0024707713076908,76.26935630458233
6.784,1.0023278570621519,76.10151227201885
6.786285568,1.0020379591465773,75.93677804096622
6.788571648,1.0016188442513203,75.77721100093689
6.790857216,1.0010973149480271,75.6244450758562
6.793142784,1.0005059603609747,75.47977861872866
6.795428352,0.9998823498675855,75.34395914217073
6.797714432,0.9992658762343926,75.21713622473554
6.8,0.9986957717156904,75.09900746233338
6.802285568,0.9982081800642684,74.98861234565672
6.804571648,0.9978342720302457,74.88452419334291
6.806857216,0.9975978936501865,74.78494807193778
6.809142784,0.9975141659846984,74.68773194346731
6.811428352,0.9975885993531236,74.59060727454836
6.813714432,0.9978163850111794,74.49127206776924
6.816,0.9981829872912282,74.38761342224836
6.818285568,0.9986652553106445,74.27779228842867
6.820571648,0.999232320714574,74.16033071149984
6.822857216,0.9998482117920461,74.03424702382074
6.825142784,1.0004738955885681,73.89916035915562
6.827428352,1.0010695844265862,73.75522430582298
6.829714432,1.001597842633087,73.60314703187707
6.832,1.002024942967683,73.44418734327301
6.834285568,1.002324299507687,73.27999218735499
6.836571648,1.002476605155055,73.11250494154854
6.838857216,1.0024726523489607,72.94399736997518
6.841142784,1.0023122532707995,72.77665174350098
6.843428352,1.0020056859472282,72.6127224302718
6.845714432,1.00157207319638,72.45413958467395
6.848,1.0010388943409687,72.30259108811015
6.850285568,1.0004396480742757,72.15922597407824
6.852571648,0.9998122834574475,72.02480542606537
6.854857216,0.9991965276609343,71.89943056764069
6.857142784,0.9986314434287192,71.78267118669173
6.859428352,0.9981530050332094,71.67357205673781
6.861714432,0.997791851084543,71.57060302828886
6.864,0.9975709281237722,71.47196138896466
6.866285568,0.9975044123457838,71.37540093884384
6.868571648,0.9975965468475143,71.27869072007891
6.870857216,0.9978415852711188,71.17953663240851
6.873142784,0.9982239475421171,71.07579964266749
6.875428352,0.9987191359441125,70.96568668638848
6.877714432,0.9992959229026442,70.84775585351632
6.88,0.9999174475433088,70.72111979629706
6.882285568,1.0005443479147405,70.58538909270099
6.884571648,1.0011368369123672,70.44084724816652
6.886857216,1.0016575223407456,70.2882539635006
6.889142784,1.0020734507760223,70.12888035491648
6.891428352,1.0023583816606556,69.9644678006416
6.893714432,1.0024942370103325,69.79701419190741
6.896,1.002472514697649,69.62875618538338
6.898285568,1.002294535243225,69.46192711934881
6.900571648,1.001971357453141,69.29874329359235
6.902857216,1.0015233816631026,69.14111415340494
6.905142784,1.000978787852671,68.99071869934396
6.907428352,1.000371918181408,68.84865861041625
6.909714432,0.9997412143696798,68.71560798725079
6.912,0.9991266876651472,68.59164612638182
6.914285568,0.9985671660901152,68.47625239088629
6.916571648,0.9980985276226735,68.36834810883335
6.918857216,0.9977505671188266,68.26645733938919
6.921142784,0.9975454056815888,68.1686591855546
6.923428352,0.9974963756483317,68.07270348554623
6.925714432,0.9976064334755899,67.97634809885034
6.928,0.9978689132569428,67.87728632066504
6.930285568,0.9982668532786458,67.773378763478
6.932571648,0.9987749939246207,67.66288409431277
6.934857216,0.9993611783095395,67.54442563010139
6.937142784,0.9999878865877766,67.41715223854526
6.939428352,1.0006154420569002,67.28075964097918
6.941714432,1.001204227783693,67.13554712626457
6.944,1.0017168779508943,66.98237803090649
