freq,mag,phase
6.0,0.9997938800351942,99.76579490241411
6.002285568,0.9998446210779243,99.60596166364489
6.004571648,0.9999063332712782,99.44533037668758
6.006857216,0.9999743011406229,99.2837774911597
6.009142784,1.00004420998685,99.1212672457958
6.011428352,1.0001115999247823,98.95777108796644
6.013714432,1.0001721961007908,98.79336821534397
6.016,1.0002222864533068,98.62819378116755
6.018285568,1.0002585603140386,98.46240605770444
6.020571648,1.000278879718659,98.29623202584848
6.022857216,1.0002819031604129,98.1299212924574
6.025142784,1.0002672932494925,97.96368648590031
6.027428352,1.0002361699380526,97.79781438922292
6.029714432,1.0001904168216993,97.63253287851087
6.032,1.0001328281831552,97.4680166359356
6.034285568,1.0000670217014869,97.30439640379007
6.036571648,0.9999972072523484,97.14181344780914
6.038857216,0.9999278548255528,96.98023739361841
6.041142784,0.9998631752115721,96.81965724646066
6.043428352,0.999807362343944,96.65999609660018
6.045714432,0.9997638654741954,96.50103855460725
6.048,0.9997355907020284,96.34267135116656
6.050285568,0.9997241966838566,96.18458690061765
6.052571648,0.9997304174372272,96.02656232176994
6.054857216,0.9997539252629608,95.86836025477193
6.057142784,0.9997932483590694,95.70971309056429
6.059428352,0.9998458240324746,95.55041963906434
6.061714432,0.9999084693695096,95.3903124533871
6.064,0.9999772420342642,95.2292875736569
6.066285568,1.0000476894513886,95.06728151654639
6.068571648,1.0001154154377634,94.90425640007457
6.070857216,1.0001761220260688,94.740357306217
6.073142784,1.0002261465902547,94.57564498758832
6.075428352,1.0002621015113957,94.41034634626857
6.077714432,1.0002818984435329,94.24466308162292
6.08,1.0002841306673393,94.07884808676778
6.082285568,1.0002686223813002,93.91312685941463
6.084571648,1.0002364777530939,93.74778781340245
6.086857216,1.0001897210035982,93.58303240085259
6.089142784,1.0001311064883789,93.41905873020671
6.091428352,1.000064553237175,93.25601738244956
6.093714432,0.9999940619874951,93.09399009236091
6.096,0.9999241586900401,92.9329987820033
6.098285568,0.999859249731098,92.77300177500375
6.100571648,0.9998034747684887,92.61391372568819
6.102857216,0.9997601981401626,92.45554914930668
6.105142784,0.9997324142838516,92.29774033155657
6.107428352,0.9997217117533297,92.1402185245024
6.109714432,0.9997287954837109,91.98274623239912
6.112,0.9997532185691302,91.82507664002088
6.114285568,0.9997935614196244,91.66694859026268
6.116571648,0.9998471733810365,91.50816428565791
6.118857216,0.9999107968475209,91.3485476105351
6.121142784,0.9999802198285663,91.18798587486944
6.123428352,1.0000512718263974,91.02642186737613
6.125714432,1.0001192762484947,90.8638638342052
6.128,1.0001802300600657,90.70040336540008
6.130285568,1.0002299992413148,90.5361647096278
6.132571648,1.0002656224296134,90.37131434290147
6.134857216,1.000284705184105,90.20608755163782
6.137142784,1.0002861163558476,90.04070882655371
6.139428352,1.0002697487548142,89.87547734831881
6.141714432,1.000236631836377,89.71062738607479
6.144,1.0001888218323518,89.5463809020369
6.146285568,1.0001292903723866,89.3829253614838
6.148571648,1.000061756214147,89.22040874081104
6.150857216,0.9999905824547651,89.05891929795663
6.153142784,0.9999202625821763,88.89846446560979
6.155428352,0.9998551254873128,88.73901554766354
6.157714432,0.9997993009673646,88.58047047271019
6.16,0.9997563711012735,88.42267174215203
6.162285568,0.9997290412092708,88.26537674500715
6.164571648,0.9997190845175267,88.10838828757058
6.166857216,0.9997271065699646,87.95143601613451
6.169142784,0.9997525124972231,87.79425030325802
6.171428352,0.9997939598433884,87.63659519980247
6.173714432,0.9998485595697872,87.47828808223326
6.176,0.9999131199731535,87.31912122071485
6.178285568,0.9999833420835691,87.15897099583378
6.180571648,1.000054936402533,86.99785892020228
6.182857216,1.0001233930104205,86.83571965777108
6.185142784,1.0001843980425853,86.67265845275107
6.187428352,1.0002340478158527,86.50882210105954
6.189714432,1.0002692067731331,86.34438970569946
6.192,1.0002875477425535,86.17958247973468
6.194285568,1.000288229536903,86.01463852599886
6.196571648,1.0002708328720338,85.84984843590321
6.198857216,1.0002366369876854,85.68543866005683
6.201142784,1.0001878011869785,85.5216586929409
6.203428352,1.0001272132339136,85.3586741058227
6.205714432,1.0000588537142279,85.19665961123346
6.208,0.9999870410222558,85.03566550799326
6.210285568,0.9999162314854096,84.87572729151901
6.212571648,0.999850788091217,84.7167890066188
6.214857216,0.9997950403736834,84.5587526317474
6.217142784,0.9997524419129192,84.40145133002176
6.219428352,0.9997257807122104,84.24467473374253
6.221714432,0.9997165380944566,84.08816411708045
6.224,0.9997254657072975,83.93169427242391
6.226285568,0.999751930572451,83.77497184162604
6.228571648,0.9997943756669948,83.61777545956083
6.230857216,0.9998500462692226,83.45987340854336
6.233142784,0.9999155215060864,83.30111607702418
6.235428352,0.9999865586020068,83.14138585754068
6.237714432,1.0000587841802218,82.98063448866866
6.24,1.00012755569148,82.81885618466612
6.242285568,1.0001885821290935,82.65618066285782
6.244571648,1.000238035793102,82.49273152952176
6.246857216,1.0002727476249396,82.32864623493273
6.249142784,1.000290570395954,82.16422425188875
6.251428352,1.0002903279743984,81.99968651756816
6.253714432,1.0002719555621682,81.83529628832837
6.256,1.000236692581626,81.67130402596688
6.258285568,1.0001866491926927,81.50795428670776
6.260571648,1.0001251144572143,81.34541661774088
6.262857216,1.00005594626684,81.18386300325436
6.265142784,0.9999833919524186,81.02331456725064
6.267428352,0.9999121274931952,80.86385630533508
6.269714432,0.99984651774815,80.70540477105214
6.272,0.9997909151446024,80.54784784298441
6.274285568,0.999748627112531,80.39100773088646
6.276571648,0.9997224540629471,80.23468773397204
6.278857216,0.9997140200293186,80.07865467924658
6.281142784,0.9997239038378954,79.92259849533012
6.283428352,0.9997515623597167,79.76629619580902
6.285714432,0.9997949665441428,79.60949106765278
6.288,0.9998517542193612,79.45198712693785
6.290285568,0.9999181330498021,79.29360930125318
6.292571648,0.9999900296718575,79.13422017770506
6.294857216,1.0000628528963544,78.9738224250547
6.297142784,1.0001319386826637,78.81240184700707
6.299428352,1.0001930025858878,78.65004214051615
6.301714432,1.0002422448480006,78.48690573720114
6.304,1.0002764486401512,78.32316758156936
6.306285568,1.0002935819739422,78.1590830644553
6.308571648,1.0002923929248084,77.99491191760254
6.310857216,1.0002730721900015,77.83087210904466
6.313142784,1.0002366822587996,77.66726137434796
6.315428352,1.0001855791528294,77.50431234847488
6.317714432,1.0001230964846461,77.34218500701817
6.32,1.0000529144599974,77.18103866780599
6.322285568,0.9999796399615722,77.0209338976753
6.324571648,0.9999079019534717,76.86191107880211
6.326857216,0.9998421572348704,76.70389027661895
6.329142784,0.9997866584370775,76.54677379347548
6.331428352,0.9997447311618536,76.39035679320259
6.333714432,0.9997190981575723,76.23448635975674
6.336,0.9997115482073132,76.07883653154744
6.338285568,0.9997224351626129,75.92318594985741
6.340571648,0.9997510265873346,75.76727681577908
6.342857216,0.9997957256585186,75.610848945714
6.345142784,0.9998535589885968,75.45368441738948
6.347428352,0.9999208898947419,75.29562352665234
6.349714432,0.9999935275258632,75.13656432188847
6.352,1.0000668776049066,74.97647965929117
6.354285568,1.0001363630855868,74.81535020965562
6.356571648,1.0001975359144724,74.6532954449641
6.358857216,1.0002465489768118,74.49044352224598
6.361142784,1.000280274193784,74.32700816584637
6.363428352,1.0002965733087572,74.16323012729798
6.365714432,1.0002944219672993,73.99935177999389
6.368,1.0002739636951636,73.83565632388918
6.370285568,1.000236540393178,73.67240011939495
6.372571648,1.0001843689246461,73.50978142010125
6.374857216,1.0001207485937302,73.34803530376472
6.377142784,1.0000497219125593,73.18726118547698
6.379428352,0.9999758077582962,73.02757343629149
6.381714432,0.9999035616774655,72.86892783346582
6.384,0.9998377040403088,72.71132341821763
6.386285568,0.9997822796305381,72.55461218819225
6.388571648,0.999740768118865,72.39860916656608
6.390857216,0.9997158020588552,72.24309915189014
6.393142784,0.9997090696737794,72.08783232709189
6.395428352,0.9997209588877081,71.93255446302393
6.397714432,0.9997507734710672,71.77697942376058
6.4,0.9997965159952296,71.62087046317724
6.402285568,0.9998554333821814,71.46400848699099
6.404571648,0.9999237812174557,71.30626267686019
6.406857216,0.9999972526597544,71.14746132360004
6.409142784,1.0000712031701167,70.98761772554772
6.411428352,1.0001409649156257,70.82675619385029
6.413714432,1.0002021159807974,70.66495002260496
6.416,1.000250804347587,70.50235924480916
6.418285568,1.0002840265411144,70.3391828286556
6.420571648,1.000299638409154,70.17567614476523
6.422857216,1.000296513748015,70.01206449150509
6.425142784,1.0002750134554748,69.84867007674845
6.427428352,1.0002363769812643,69.68569885698632
6.429714432,1.000183020738419,69.52341472338259
6.432,1.0001183533387163,69.36200181805731
6.434285568,1.0000465095483229,69.20157006533087
6.436571648,0.9999719107497139,69.04222429157232
6.438857216,0.9998992116093209,68.88395885187138
6.441142784,0.9998331571763104,68.7267015928817
6.443428352,0.9997777621453524,68.5703519086492
6.445714432,0.9997367337640056,68.4147105715387
6.448,0.9997125446042743,68.25955151124005
6.450285568,0.9997066708724129,68.10463356180871
6.452571648,0.9997195763123574,67.9496660804718
6.454857216,0.9997505031378827,67.79439342648675
6.457142784,0.9997974135416403,67.63856514429396
6.459428352,0.9998574668850914,67.48197592031705
6.461714432,0.999926786832235,67.32446886646314
6.464,1.000001080319529,67.16590169770038
6.466285568,1.0000755774403258,67.00630263018209
6.468571648,1.000145554398887,66.84565531352251
6.470857216,1.0002067494352085,66.68405198887102
6.473142784,1.0002552190786245,66.52168343933344
6.475428352,1.000287798102018,66.35872465747987
6.477714432,1.000302549436477,66.19543820890398
6.48,1.0002984938175123,66.03208114920065
6.482285568,1.0002758283869098,65.86891145466393
6.484571648,1.000235984312175,65.70621489706824
6.486857216,1.0001816057553676,65.5442007144922
6.489142784,1.000115886519198,65.38308799457226
6.491428352,1.0000430763373989,65.22296160488601
6.493714432,0.9999677480347273,65.0639484232825
6.496,0.9998946922313803,64.90600380339583
6.498285568,0.999828509141319,64.74908642402507
6.500571648,0.9997733293607772,64.59304840079974
6.502857216,0.9997327000885475,64.43774653384494
6.505142784,0.9997091298083536,64.28288331611365
6.507428352,0.9997042704325774,64.12825505653183
6.509714432,0.9997182939771055,63.97358044629224
6.512,0.9997503722805763,63.81856954642276
6.514285568,0.9997984174605017,63.662991846207184
6.516571648,0.9998595735230952,63.50662484002523
6.518857216,0.9999299466517663,63.34931449502002
6.521142784,1.0000049363304084,63.19096530530522
6.523428352,1.0000800345179308,63.03153846489605
6.525714432,1.0001503168053287,62.871062275640604
6.528,1.0002115157997866,62.70964474208851
6.530285568,1.0002595997701287,62.54742939585625
6.532571648,1.00029163743119,62.38465441093112
6.534857216,1.000305560625481,62.22154481086653
6.537142784,1.0003004928056756,62.058394613721404
6.539428352,1.0002766591817096,61.89543792627815
6.541714432,1.0002356187652053,61.73297095855003
6.544,1.000180008471772,61.571213701605096
6.546285568,1.0001132535802204,61.41035757604977
6.548571648,1.0000395444248515,61.25051251722927
6.550857216,0.9999635777743686,61.09174358299364
6.553142784,0.9998900790002813,60.93410065915225
6.555428352,0.9998237156183142,60.77746679828401
6.557714432,0.9997687191191454,60.62171902480456
6.56,0.9997285959414387,60.46669496535749
6.562285568,0.9997057805758641,60.312117703792865
6.564571648,0.9997017244517222,60.15774664380656
6.566857216,0.9997169223947422,60.003304958362556
6.569142784,0.9997501778661464,59.84851141935656
6.571428352,0.9997994806793139,59.69314210672151
6.573714432,0.9998617942223695,59.536961631452996
6.576,0.9999330689855349,59.37982190725306
6.578285568,1.000008960597984,59.22161693812854
6.580571648,1.0000845033621857,59.062339337754224
6.582857216,1.0001551426511075,58.90199262733339
6.585142784,1.000216262533987,58.740695014886064
6.587428352,1.0002640017708904,58.57863280987308
6.589714432,1.0002954035817122,58.41598674648237
6.592,1.0003084552639654,58.25302645801245
6.594285568,1.0003023472318342,58.09002078087583
6.596571648,1.0002773523282178,57.92726268112314
6.598857216,1.0002351104823608,57.764979799919615
6.601142784,1.0001782629340372,57.603414733098404
6.603428352,1.000110446032525,57.442769054345476
6.605714432,1.0000358254718174,57.28315817034362
6.608,0.9999591949399673,57.12465521862651
6.610285568,0.9998852999286094,56.96724554655092
6.612571648,0.9998188840278239,56.810880584376385
6.614857216,0.9997639936847319,56.65538991585666
6.617142784,0.9997243432312862,56.50057534988188
6.619428352,0.999702329803734,56.34624667919591
6.621714432,0.99969935021709,56.19208900305075
6.624,0.999715683725636,56.0378334317407
6.626285568,0.9997500849180964,55.883253240205704
6.628571648,0.9998006575909997,55.7280277401176
6.630857216,0.9998640916561334,55.572000824909644
6.633142784,0.9999364361819848,55.41499200725755
6.635428352,1.0000131189042005,55.256908644249116
6.637714432,1.0000893003848064,55.09771455641115
6.64,1.0001600690062857,54.93748401747129
6.642285568,1.0002211270959263,54.776254915454594
6.644571648,1.0002685544574692,54.6142789030547
6.646857216,1.000299344764485,54.45173945934114
6.649142784,1.0003115046398694,54.28888643428965
6.651428352,1.0003042677558627,54.12601277736086
6.653714432,1.0002780840689207,53.96336273111628
6.656,1.0002347490152101,53.80123934423958
6.658285568,1.0001766154309328,53.63985852008701
6.660571648,1.0001077030929644,53.47937438537417
6.662857216,1.000032193682589,53.319969017892916
6.665142784,0.9999548522035776,53.16166608493993
6.667428352,0.999880535658824,53.00447938419796
6.669714432,0.9998140146126561,52.848302138216994
6.672,0.9997594736854297,52.69302548824632
6.674285568,0.9997202214830176,52.5384305560436
6.676571648,0.9996989803131868,52.38428563769146
6.678857216,0.9996969832246153,52.23030120702687
6.681142784,0.9997143991623548,52.07622079385712
6.683428352,0.9997501932211212,51.92175784748376
6.685714432,0.9998018644116524,51.766669643854684
6.688,0.9998665339144993,51.61075372022222
6.690285568,0.999939826517618,51.45380128318612
6.692571648,1.0000172662118045,51.29579127306244
6.694857216,1.0000939931906163,51.13667305249146
6.697142784,1.0001650477330528,50.976471215274465
6.699428352,1.0002260154045504,50.81532522889782
6.701714432,1.0002730837780955,50.65339227315474
6.704,1.0003031719994941,50.49090275396324
6.706285568,1.0003144144198657,50.32813154972464
6.708571648,1.0003060733016962,50.16532429878587
6.710857216,1.0002787473342296,50.00277492406769
6.713142784,1.0002340152360727,49.84076547097091
6.715428352,1.0001747697380496,49.67950243471768
6.717714432,1.0001047414964497,49.519187907635725
6.72,1.0000283275431991,49.359921727617746
6.722285568,0.9999503015103417,49.20178561773205
6.724571648,0.9998755825248624,49.0447548118537
6.726857216,0.9998090047845075,48.88876686653311
6.729142784,0.9997546217731145,48.733658811960204
6.731428352,0.9997160955421118,48.579230521129816
6.733714432,0.9996956409283919,48.42523593566772
6.736,0.9996946746157251,48.271387120351235
6.738285568,0.9997131850793732,48.11743550348403
6.740571648,0.9997502342910868,47.963082215470436
6.742857216,0.9998032863838372,47.80806639238012
6.745142784,0.9998690684444791,47.652195483681616
6.747428352,0.9999433678889186,47.495320938950236
6.749714432,1.000021645311544,47.33732388107809
6.752,1.0000988889896123,47.1782238232605
6.754285568,1.0001701660724578,47.018032040375026
6.756571648,1.0002310811121422,46.85688841921831
6.758857216,1.0002777014738327,46.69497976361646
6.761142784,1.000307078019099,46.532507940729964
6.763428352,1.0003173510877463,46.369753331609154
6.765714432,1.0003079925639773,46.20698610360738
6.768,1.00027934992962,46.044484747194986
6.770285568,1.0002334455927124,45.88253857060194
6.772571648,1.0001728639929315,45.72138231851068
6.774857216,1.0001017697450114,45.561152630885175
6.777142784,1.0000243891305718,45.402022725479846
6.779428352,0.9999457477743149,45.24402837945646
6.781714432,0.9998706944201285,45.087126527680546
6.784,0.9998040031348768,44.93125784751554
6.786285568,0.9997500011724102,44.776300665653466
6.788571648,0.9997119188929148,44.62198817550626
6.790857216,0.9996922713597356,44.468103410256475
6.793142784,0.9996924086222152,44.31435519827349
6.795428352,0.9997122090526156,44.160490565212484
6.797714432,0.9997504456367012,44.0061683797238
6.8,0.9998047157214129,43.85121935465309
6.802285568,0.9998716806677609,43.69536523143302
6.804571648,0.9999470927398277,43.53850072864073
6.806857216,1.0000261526621637,43.38048320102769
6.809142784,1.0001039091287494,43.221345449024135
6.811428352,1.000175426618799,43.06115333791346
6.813714432,1.0002361384373692,42.899967853426425
6.816,1.000282370885599,42.738003588522794
6.818285568,1.0003110568808826,42.57550800050013
6.820571648,1.0003204006912443,42.412763673349104
6.822857216,1.0003098130982746,42.250004664750804
6.825142784,1.0002799130907023,42.08752388853476
6.827428352,1.0002326608042758,41.92560693000323
6.829714432,1.0001709817559472,41.76448844735506
6.832,1.0000987108698993,41.60433823383127
6.834285568,1.0000203856874699,41.44527323992478
6.836571648,0.9999410469082335,41.28735972279054
6.838857216,0.9998655961193715,41.13056020960142
6.841142784,0.9997989063484775,40.97480144059192
6.843428352,0.9997451355545934,40.819922933452546
6.845714432,0.9997076829053398,40.665693049117074
6.848,0.9996889185391565,40.511894320311434
6.850285568,0.9996901235599748,40.35821334467462
6.852571648,0.9997111682863594,40.20435952584693
6.854857216,0.9997506769890515,40.05009153441529
6.857142784,0.9998062580351708,39.895115752325296
6.859428352,0.9998744443767366,39.739262187594164
6.861714432,0.9999508654022934,39.5823366981721
6.864,1.0000306999642103,39.424280465034265
6.866285568,1.000108896259552,39.26507390537982
6.868571648,1.0001806624548024,39.10478791635697
6.870857216,1.0002412085411063,38.94355100056043
6.873142784,1.0002869967752261,38.78153039851579
6.875428352,1.0003149021384656,38.61898850242725
6.877714432,1.0003232381853935,38.45616131865898
6.88,1.0003115463954004,38.293365190012125
6.882285568,1.0002802991694852,38.13086708402995
6.884571648,1.0002318025509382,37.968945232705515
6.886857216,1.0001687729054558,37.807841474791935
6.889142784,1.000095446891161,37.64772593198337
6.891428352,1.000016156990921,37.488697057997776
6.893714432,0.9999362034882435,37.33083455487157
6.896,0.9998604075203066,37.17409600949513
6.898285568,0.9997936329662361,37.01839354662547
6.900571648,0.9997401537033959,36.86356168201811
6.902857216,0.9997033009537023,36.7093854458873
6.905142784,0.9996855086419648,36.555619459086685
6.907428352,0.9996877544308305,36.40194325692896
6.909714432,0.9997099903829063,36.24810804474977
6.912,0.9997508344711387,36.09380862146371
6.914285568,0.9998077649769661,35.938801446833025
6.916571648,0.9998771098161073,35.78285729715979
6.918857216,0.9999545659558777,35.62586075122775
6.921142784,1.0000351324854397,35.46773576849025
6.923428352,1.000113885474813,35.308425795150676
6.925714432,1.0001857985230533,35.148021894904105
6.928,1.0002463656085914,34.986673608048534
6.930285568,1.0002915837962227,34.82453533978266
6.932571648,1.000318711597114,34.66187776976852
6.934857216,1.0003261936746886,34.49897055159865
6.937142784,1.0003131478850857,34.33608272643655
6.939428352,1.0002807464401322,34.17354517606383
6.941714432,1.0002308276716154,34.01157479108885
6.944,1.0001665940576454,33.85044257053742
6.946285568,1.0000920540683835,33.690310928015926
6.948571648,1.0000119806892922,33.53129018627347
