freq,mag,phase
6.0,0.9996309370266306,72.12977145281567
6.002287104,0.9998324782948662,71.95974735878968
6.004574208,1.000044733992111,71.7867502223172
6.006861312,1.0002546449795087,71.6107046063399
6.009147904,1.0004489810089534,71.43173089048497
6.011435008,1.0006154647270393,71.25013680016164
6.013722112,1.000743589723845,71.06644037087013
6.016009216,1.0008252428265592,70.88124769685903
6.01829632,1.000855169993724,70.69523623071201
6.020583424,1.0008316498883696,70.50918813718835
6.022870016,1.000756024250313,70.32388175990954
6.02515712,1.0006330227709972,70.14002361289774
6.027444224,1.000470322716151,69.95823492232498
6.029731328,1.0002783750052249,69.77902658255881
6.032018432,1.000069072316535,69.60273785061847
6.034305536,0.9998557475622258,69.42954527769386
6.036592128,0.9996518542246984,69.25938084514844
6.038879232,0.9994701863290346,69.09203911086956
6.041166336,0.9993223108068541,68.92710425289098
6.04345344,0.9992176763130417,68.76400281937511
6.045740544,0.9991628083101558,68.60208755797701
6.048027648,0.9991613559605095,68.44060276093761
6.05031424,0.9992133009326066,68.27878127860306
6.052601344,0.9993154147154253,68.11582289072938
6.054888448,0.9994612548429025,67.95107603833965
6.057175552,0.999641554274391,67.78401196740091
6.059462656,0.9998449814794138,67.61414851530243
6.06174976,1.000058804924852,67.44124905323606
6.064036352,1.0002692784404423,67.26530365620924
6.066323456,1.0004633439621424,67.08642014400813
6.06861056,1.0006286493704222,66.9049738523152
6.070897664,1.0007546190446706,66.7213945632457
6.073184768,1.0008334342433842,66.53633605969311
6.075471872,1.0008601883699655,66.35053899585874
6.077758464,1.0008329286207884,66.16475734631011
6.080045568,1.0007535646766805,65.97975316885463
6.082332672,1.0006269862109374,65.79626301469614
6.084619776,1.0004611075513354,65.61487265311597
6.08690688,1.0002665249129452,65.43612613278556
6.089193984,1.0000552773658755,65.26030890279668
6.091481088,0.999840997669188,65.08760133660287
6.09376768,0.9996369044908666,64.91793443375754
6.096054784,0.9994560859892485,64.75109858820932
6.098341888,0.9993100092361334,64.58664843819311
6.100628992,0.9992078057797444,64.42399360690239
6.102916096,0.9991561024474771,64.26249162531762
6.1052032,0.9991581195768608,64.1013503188144
6.107489792,0.9992138550023775,63.93981022122536
6.109776896,0.9993196074616815,63.77711954345054
6.112064,0.9994688317423351,63.61257104691458
6.114351104,0.9996522644003227,63.44561445064254
6.116638208,0.9998580078635854,63.27584793794075
6.118925312,1.0000731446896152,63.10304819197674
6.121211904,1.000284283404106,62.927140258274406
6.123499008,1.0004778812799946,62.7483128196374
6.125786112,1.0006416903877915,62.56691643814186
6.128073216,1.0007656054168783,62.38345457388942
6.13036032,1.0008415479471127,62.19851965260414
6.132647424,1.0008648384176149,62.01288402619673
6.134934016,1.0008339933539865,61.82731694386738
6.13722112,1.000750813912066,61.642571355261175
6.139508224,1.0006206434156169,61.45938944130046
6.141795328,1.0004515405709289,61.27837307608733
6.144082432,1.0002543386737865,61.100020063595835
6.146369536,1.0000412957082592,60.924651202939536
6.148656128,0.999825886328323,60.752402821045145
6.150943232,0.9996218539017566,60.58321066171759
6.153230336,0.9994419482479432,60.41681776812545
6.15551744,0.9992976119622189,60.25278880220141
6.157804544,0.9991980374672338,60.09055889832309
6.160091648,0.9991495125533031,59.92939715612004
6.162378752,0.9991552329529592,59.768582787686405
6.164665344,0.9992146068580172,59.60727464282124
6.166952448,0.9993242327653491,59.44477278165123
6.169239552,0.9994769561060423,59.28037014625889
6.171526656,0.999663155906019,59.113513024579504
6.17381376,0.9998712004888887,58.94379186045042
6.176100864,1.0000878381239702,58.77099787187526
6.178387456,1.0002993751365143,58.595104047006714
6.18067456,1.0004924787419378,58.41630212013544
6.182961664,1.0006550181679665,58.23490583145387
6.185248768,1.0007766294407863,58.05145758932824
6.187535872,1.0008496803318183,57.86664210595464
6.189822976,1.000869501235812,57.681117317456255
6.192109568,1.0008348219089376,57.49570722730713
6.194396672,1.000747827899301,57.311206638808066
6.196683776,1.0006140304725593,57.12829028405454
6.19897088,1.0004417552231166,56.94758943618242
6.201257984,1.000241800877773,56.769619979924066
6.203545088,1.000026984566921,56.59464731444613
6.20583168,0.9998106963638524,56.42280624361452
6.208118784,0.999606656566261,56.25404504629353
6.210405888,0.9994276800066672,56.08806326910625
6.212692992,0.9992852608883778,55.924436279288294
6.214980096,0.999188374092071,55.762541147581366
6.2172672,0.9991430963520911,55.601686908728695
6.219553792,0.9991524179132855,55.4411292616315
6.221840896,0.9992157345556039,55.28003940436956
6.224128,0.999329050793591,55.11768376389976
6.226415104,0.9994852476099573,54.953362172675554
6.228702208,0.9996744987394572,54.78653120693356
6.230989312,0.9998847065995727,54.61681677718927
6.233275904,1.0001026743026267,54.44400269180145
6.235563008,1.0003147279751101,54.26808167689006
6.237850112,1.0005072117593568,54.089222358733274
6.240137216,1.0006682469676589,53.90780620445135
6.24242432,1.0007875835096898,53.72434888550798
6.244711424,1.000857552019916,53.53953944069478
6.246998528,1.000873907635587,53.354110854182686
6.24928512,1.0008354091681386,53.168851799577745
6.251572224,1.0007445573391747,52.98451855975771
6.253859328,1.000607066121732,52.80186266135381
6.256146432,1.000431576091871,52.62143673432918
6.258433536,1.0002290674495582,52.44377977026368
6.26072064,1.000012361420961,52.269172137393895
6.263007232,0.9997952469004748,52.09772865268177
6.265294336,0.9995912520583714,51.92929822986822
6.26758144,0.9994133432026979,51.76369422335817
6.269868544,0.9992728883525362,51.60042802743314
6.272155648,0.9991786451021383,51.438823814404465
6.274442752,0.99913678061482,51.27826936036282
6.276729344,0.9991498329893418,51.117894687744695
6.279016448,0.9992170540321297,50.95695658678744
6.281303552,0.9993342450704028,50.79468890932056
6.283590656,0.9994939043003619,50.630430397039554
6.28587776,0.999686048964955,50.46359557651965
6.288164864,0.9998984489334091,50.29382649572298
6.290451456,1.0001178010805865,50.120937963855454
6.29273856,1.000330158192563,49.9449209744275
6.295025664,1.0005221380926985,49.7659621452867
6.297312768,1.0006815875080883,49.58447421651356
6.299599872,1.000798543489537,49.40098087400505
6.301886976,1.0008655180678563,49.2161705224083
6.304173568,1.000878218434185,49.03076981245548
6.306460672,1.0008358698069986,48.845581952140016
6.308747776,1.0007410457609693,48.661396695708
6.31103488,1.0005999433880146,48.4789301161133
6.313321984,1.0004211214757488,48.29876721109566
6.315609088,1.0002160691817659,48.12138664192108
6.317896192,0.9999975667461215,47.947085917556166
6.320182784,0.9997795854855457,47.77595108129859
6.322469888,0.9995757442696996,47.60791209445882
6.324756992,0.9993989205582625,47.442617247892194
6.327044096,0.9992604439911055,47.27962744025457
6.3293312,0.9991690803044426,47.11831284683925
6.331618304,0.9991306772514258,46.95796036154291
6.333904896,0.9991474601045749,46.797760634175006
6.336192,0.9992186128381854,46.636910965784566
6.338479104,0.9993396379098818,46.47469152710547
6.340766208,0.9995027814483693,46.310411288111666
6.343053312,0.9996979590862658,46.14353246056454
6.345340416,0.9999125066824621,45.97365649267953
6.347627008,1.0001331619623106,45.80065750720867
6.349914112,1.000345875884118,45.62450250775929
6.352201216,1.000537160255837,45.44542813593098
6.35448832,1.0006949713707456,45.26381717730824
6.356775424,1.00080942475891,45.080223576548356
6.359062528,1.0008732068122503,44.895357440818245
6.36134912,1.000882298271653,44.70993820247432
6.363636224,1.0008360395787743,44.52478978526939
6.365923328,1.0007373776316888,44.34072374525137
6.368210432,1.000592442526492,44.15840515527153
6.370497536,1.0004104789159003,43.97844740969416
6.37278464,1.000202809910149,43.80130280293968
6.375071232,0.9999826249381942,43.627283134168266
6.377358336,0.999763773497209,43.4564357725068
6.37964544,0.9995601333483066,43.28868011513208
6.381932544,0.9993845773332317,43.123681748860335
6.384219648,0.9992481370957556,42.96094110399272
6.386506752,0.9991596692968255,42.799844043326424
6.388793344,0.9991246213373559,42.63965224688367
6.391080448,0.9991453520458662,42.47955945506156
6.393367552,0.9992205153876956,42.318791675489656
6.395654656,0.9993453036951442,42.156559300416895
6.39794176,0.9995120613493461,41.992220957360026
6.400228864,0.9997100408977668,41.82523697550295
6.402515968,0.9999268020842828,41.655222201498134
6.40480256,1.0001486658241243,41.4820377796714
6.407089664,1.0003615951768519,41.30570096476296
6.409376768,1.0005522284007282,41.12643915214649
6.411663872,1.000708404357484,40.944660806375495
6.413950976,1.0008203225508736,40.760932286463195
6.41623808,1.000880849830878,40.57596695829462
6.418524672,1.0008861867075247,40.390512515133906
6.420811776,1.0008360189296197,40.20538673869224
6.42309888,1.0007333275834829,40.02134233083254
6.425385984,1.0005847301151072,39.839135073255896
6.427673088,1.0003994608481863,39.659349907801904
6.429960192,1.0001892470028237,39.482407195492776
6.432246784,0.9999673351794376,39.30861709199232
6.434533888,0.999747777180023,39.13803038878137
6.436820992,0.9995443992128059,38.97050716898177
6.439108096,0.9993700608075475,38.805730523533306
6.4413952,0.9992359163766464,38.64321484724413
6.443682304,0.9991502548829886,38.48228899065122
6.445968896,0.9991187532671228,38.32221942167642
6.448256,0.9991433882278699,38.16222754315308
6.450543104,0.9992225125751275,38.001436403184435
6.452830208,0.9993512902252824,37.83916584448245
6.455117312,0.9995214542847856,37.67471427976625
6.457404416,0.9997223225349507,37.50756581987564
6.459691008,0.9999413004432613,37.33737271001512
6.461978112,1.0001643777314855,37.163959911450526
6.464265216,1.0003774699092176,36.987400247141466
6.46655232,1.0005673306633442,36.80789488459109
6.468839424,1.0007217774009753,36.62591969765411
6.471126528,1.0008310465361718,36.4420039168895
6.473413632,1.0008883634013703,36.25689374233105
6.475700224,1.0008899397041688,36.07134579818408
6.477987328,1.0008356716409188,35.886168565244866
6.480274432,1.0007290732961163,35.70216958957381
6.482561536,1.0005767529265772,35.52001725816471
6.48484864,1.0003882414535998,35.340344635710395
6.487135744,1.0001755777277406,35.16356906403421
6.489422336,0.9999519216980081,34.98998977050123
6.49170944,0.9997316394906467,34.81959505898156
6.493996544,0.9995285935724304,34.6522624069972
6.496283648,0.9993555641469305,34.48770679394814
6.498570752,0.9992236183091451,34.32534418483972
6.500857856,0.9991409789956397,34.16454726597727
6.503144448,0.999113074032843,34.004554996701735
6.505431552,0.9991415464155136,33.84456743317908
6.507718656,0.9992247591519271,33.68376106957286
6.51000576,0.9993574344734073,33.521366142926944
6.512292864,0.9995311943980715,33.35677404989368
6.514579968,0.9997349055321105,33.18941842162886
6.51686656,0.9999559363913941,33.0189781458822
6.519153664,1.0001801952086289,32.84531499175061
6.521440768,1.0003935187643203,32.66847980029591
6.523727872,1.000582452584714,32.48869759707601
6.526014976,1.00073506064456,32.30644554050414
6.52830208,1.0008416552377528,32.1223282862363
6.530588672,1.0008956673288132,31.937015336654902
6.532875776,1.000893491032431,31.751329114188533
6.53516288,1.0008351855190636,31.566089675862216
6.537449984,1.0007246177372275,31.38203372112057
6.539737088,1.0005686079898728,31.19995279028667
6.542024192,1.00037689236647,31.020342733652196
6.544310784,1.000161553936635,30.843703028099178
6.546597888,0.9999363890590128,30.67024276679791
6.548884992,0.9997154276036853,30.500005603071468
6.551172096,0.99951281535199,30.332866898606934
6.5534592,0.9993411609773861,30.168447461796966
6.555746304,0.9992114137575601,30.006202711812424
6.558033408,0.9991318912575388,29.845491762672854
6.56032,0.9991075473501118,29.68551337008184
6.562607104,0.9991400484037911,29.525494682851154
6.564894208,0.9992273176347384,29.364601465163105
6.567181312,0.9993638386466006,29.20207700969911
6.569468416,0.9995410587677108,29.037282895190586
6.57175552,0.9997477467269495,28.869672669890424
6.574042112,0.9999707291695729,28.698946746118168
6.576329216,1.0001961780446296,28.524963474199534
6.57861632,1.0004096130550553,28.34779286197708
6.580903424,1.0005976488803678,28.16769865994596
6.583190528,1.0007484292455286,27.98516249885148
6.585477632,1.0008522736084355,27.800757351033536
6.587764224,1.0009028475626565,27.615236773960017
6.590051328,1.0008967733276342,27.429382854568427
6.592338432,1.0008346290850436,27.24399499337608
6.594625536,1.0007199193620564,27.059906811324943
6.59691264,1.0005601404995268,26.877778379237608
6.599199744,1.0003652117208721,26.69821937505995
6.601486336,1.0001474960445504,26.521653896512653
6.60377344,0.9999207904912312,26.348306815099416
6.606060544,0.9996992239317374,26.17820097942662
6.608347648,0.9994968939621434,26.01118565200028
6.610634752,0.9993267306450411,25.84685095962274
6.612921856,0.9991993822709931,25.684693503374884
6.615208448,0.9991228958393096,25.52400997597228
6.617495552,0.9991023061916384,25.364015304044848
6.619782656,0.9991388166026713,25.20393109377235
6.62206976,0.9992301310027266,25.042894750469205
6.624356864,0.9993705623367134,24.88017892214848
6.626643968,0.9995512781203865,24.71512523177091
6.628931072,0.9997608178225822,24.54723297463895
6.631217664,0.9999858086615665,24.376168969341474
6.633504768,1.0002122970299554,24.201823664832695
6.635791872,1.000425804724308,24.02428270837965
6.638078976,1.0006128301328814,23.843833082750137
6.64036608,1.000761669951732,23.66093387584982
6.642653184,1.0008628134036581,23.47622509111524
6.644939776,1.0009099992227917,23.29044462503953
6.64722688,1.000900009718737,23.10435604461527
6.649513984,1.000833625608901,22.918821143029515
6.651801088,1.0007149997660436,22.734607658214728
6.654088192,1.0005514805183924,22.55246239201469
6.656375296,1.0003533484643625,22.372879081580216
6.658661888,1.0001332450823301,22.1963446548615
6.660948992,0.9999050220698704,22.02307694874787
6.663236096,0.9996828436484745,21.853060397781004
6.6655232,0.9994810812732433,21.686104599226695
6.667810304,0.9993123668813898,21.521833796946588
6.670097408,0.999187391736465,21.359705168366002
6.672384,0.9991140702589696,21.199009971806056
6.674671104,0.9990971030310244,21.038962386566237
6.676958208,0.9991376917774132,20.878747713053617
6.679245312,0.9992331182460054,20.717542023579906
6.681532416,0.9993775538453205,20.554574183111598
6.68381952,0.9995616543065037,20.389219464284327
6.686106112,0.9997739826491805,20.220985880569717
6.688393216,1.0000010968280926,20.049540582668726
6.69068032,1.0002284912870183,19.874792612867036
6.692967424,1.0004419784919873,19.696848914154888
6.695254528,1.0006280200468036,19.515984358202928
6.697541632,1.0007748720720229,19.33270277858369
6.699828224,1.0008732493699433,19.147640616642608
6.702115328,1.0009168431544957,18.961536535265832
6.704402432,1.0009030203738967,18.775209399403217
6.706689536,1.0008326049807819,18.589454304135728
6.70897664,1.0007098181096916,18.405110526511304
6.711263744,1.000542649150231,18.222858559457613
6.713550848,1.000341343926674,18.04326903204992
6.71583744,1.00011887061958,17.866714258117003
6.718124544,0.9998890675182303,17.693442852726697
6.720411648,0.9996664557552922,17.523471211222535
6.722698752,0.9994651518076244,17.356555673888387
6.724985856,0.9992979812311614,17.192292460293828
6.72727296,0.9991754819522938,17.030155786586757
6.729559552,0.9991053595135013,16.869411102357045
6.731846656,0.9990922106314126,16.709264759333152
6.73413376,0.9991367721705235,16.548894432231947
6.736420864,0.9992363047965082,16.387447188129745
6.738707968,0.9993846243881174,16.224200430222663
6.740995072,0.9995722431565248,16.0585066759272
6.743281664,0.9997873032828349,15.889869461335621
6.745568768,1.0000163807626916,15.718010874443902
6.747855872,1.0002447896729074,15.542816045746497
6.750142976,1.000458180841584,15.364402901938272
6.75243008,1.0006431576821628,15.183082860765989
6.754717184,1.0007880068357708,14.999384386929867
6.757003776,1.00088348876215,14.81394595691695
6.75929088,1.0009236815692328,14.627468214412458
6.761577984,1.0009058557019557,14.440844835671493
6.763865088,1.0008313031035805,14.254852984650443
6.766152192,1.0007045228400258,14.070328941093164
6.768439296,1.000533539550526,13.887935692121784
6.770725888,1.000329257854565,13.708247252723337
6.773012992,1.000104239467242,13.5316719249281
6.775300096,0.9998729630912635,13.358400547011334
6.7775872,0.9996499714639839,13.188403443875698
6.779874304,0.9994492922544425,13.021483836420433
6.782161408,0.9992837273649485,12.85721042106111
6.784448512,0.9991636634208214,12.695002911223504
6.786735104,0.9990967471159052,12.534147584898797
6.789022208,0.9990873762879003,12.373845673881103
6.791309312,0.9991360122763165,12.213266162833062
6.793596416,0.9992397163906535,12.051554033848653
6.79588352,0.99939191217551,11.887976681416104
6.798170624,0.9995830103888707,11.721899395521522
6.800457216,0.9998008685037075,11.552832109211812
6.80274432,1.0000317087589208,11.380489964369293
6.805031424,1.000261150896184,11.204805966029333
6.807318528,1.0004744928180769,11.025904205852347
6.809605632,1.0006583047860829,10.844101658296509
6.811892736,1.0008010381009766,10.659926783410544
6.814179328,1.000893635838001,10.474029661194134
6.816466432,1.0009302236150017,10.287185432706814
6.818753536,1.000908443582156,10.100203664931346
6.82104064,1.0008298027223943,9.913951055059972
6.823327744,1.0006989511524134,9.729200667854546
6.825614848,1.00052439258469,9.54664083289398
6.82790144,1.0003168483138665,9.366825414869458
6.830188544,1.000089574921788,9.190166271279328
6.832475648,0.9998568944057286,9.01682442444309
6.834762752,0.9996334222315555,8.846799959614806
6.837049856,0.9994334203583236,8.679808051895453
6.83933696,0.999269396542876,8.515475482952548
6.841623552,0.9991519449828978,8.3531745042583
6.843910656,0.9990882928877668,8.192209663766658
6.84619776,0.9990827249316669,8.031688461982053
6.848484864,0.9991353977821634,7.870856887758428
6.850771968,0.9992432143939136,7.708818672502731
6.853059072,0.9993993834016454,7.544872829904971
6.855345664,0.9995938171968405,7.37836102783232
6.857632768,0.9998144991077452,7.208824450433362
6.859919872,1.000047250198544,7.03597123903081
6.862206976,1.0002775239887585,6.859747787926553
6.86449408,1.0004907020413083,6.680307740560511
6.866781184,1.0006734222152793,6.497984569248202
6.869068288,1.0008139355077528,6.31328744660974
6.87135488,1.0009036164009084,6.126905711986764
6.873641984,1.0009366960961252,5.939629022363156
6.875929088,1.0009109435637766,5.752279389447943
6.878216192,1.0008280796546476,5.565718643167044
6.880503296,1.0006932858537834,5.3807061802344585
6.8827904,1.000514955614017,5.197914329940287
6.885076992,1.0003043605197928,5.01796802763857
6.887364096,1.0000748486453785,4.841175518805712
6.8896512,0.9998407454804142,4.667743840558646
6.891938304,0.9996169872787599,4.497620311295241
6.894225408,0.9994175496261783,4.330562387779298
6.896512512,0.9992552858910633,4.166112266466156
6.898799104,0.9991402875275209,4.0036780924606985
6.901086208,0.9990799800103355,3.8424854772886325
6.903373312,0.9990781791700303,3.681761484756506
6.905660416,0.9991350692288827,3.5206019865884994
6.90794752,0.9992470843932868,3.3582301065077216
6.910234624,0.9994069848108269,3.1938562520731297
6.912521216,0.9996048799841655,3.026871341215913
6.91480832,0.9998282389745227,2.8568351027359706
6.917095424,1.0000628232288307,2.6834223202417338
6.919382528,1.0002938984179632,2.506637269059686
6.921669632,1.000507002126467,2.326589404550565
6.923956736,1.0006884584343445,2.1436886367902157
6.926243328,1.000826843142266,1.9584494681208409
6.928530432,1.0009135277925751,1.7715709045055776
6.930817536,1.0009429185291856,1.583812359164258
6.93310464,1.000913302327711,1.3960739380929967
