freq,mag,phase
6.0,0.9992391105653281,3.6522863055999135
6.008015872,0.99911139174576,3.4096161887529486
6.016032256,0.9990328596463279,3.168227751315022
6.024048128,0.9990072992407563,2.92750201092782
6.032064,0.9990361015302104,2.6866590898778924
6.040080384,0.9991179118551367,2.4450050847821436
6.048096256,0.9992481169166098,2.2018316928778523
6.056112128,0.9994198199825385,1.9565344934778732
6.064128512,0.9996234305744658,1.7086922451132156
6.072144384,0.9998481733487681,1.4578510192887404
6.080160256,1.0000817465594372,1.2038514605625983
6.088176128,1.0003112890661707,0.9466430330642976
6.096192512,1.0005245478431546,0.686374653749416
6.104208384,1.0007096754127132,0.42338586653381916
6.112224256,1.0008566314686564,0.15805649463998625
6.12024064,1.0009576336108656,-0.10906662901178346
6.128256512,1.001006841421719,-0.37723176477278253
6.136272384,1.0010018726414198,-0.6457585846790487
6.144288768,1.000942510057715,-0.9140058360955924
6.15230464,1.0008324260898103,-1.1811484146080733
6.160320512,1.0006772836586386,-1.4466284575658068
6.168336896,1.0004852831610118,-1.7098432093593328
6.176352768,1.0002671879151914,-1.9704042362820626
6.18436864,1.0000345482949538,-2.2280207281353364
6.192385024,0.9998002178624054,-2.482571200110992
6.200400896,0.9995767721888915,-2.734125863909152
6.208416768,0.9993764689607444,-2.982885340549337
6.21643264,0.9992103976351788,-3.2292366562894506
6.224449024,0.9990874731717857,-3.4737539157232393
6.232464896,0.9990143836795229,-3.7169890191063386
6.240480768,0.9989952629100846,-3.9597058345993332
6.248497152,0.9990313149438703,-4.202622821451682
6.256513024,0.9991204046530865,-4.446435027430833
6.264528896,0.9992579414004268,-4.691897109635499
6.27254528,0.9994362781074515,-4.9395299700187225
6.280561152,0.9996457896120067,-5.189867810645105
6.288577024,0.999875170064078,-5.443238701720161
6.296593408,1.000111758807707,-5.699826720020939
6.30460928,1.0003428277296333,-5.959622052388657
6.312625152,1.0005559006707563,-6.2225046918504106
6.320641536,1.0007392266798776,-6.488114157469941
6.328657408,1.0008827407900829,-6.756043693501091
6.33667328,1.0009787641318737,-7.025672733144339
6.344689152,1.0010220773561844,-7.296318941947847
6.352705536,1.0010101193274024,-7.5672814112813604
6.360721408,1.0009436864382004,-7.8377564932852195
6.36873728,1.0008261331065582,-8.107133533889453
6.376753664,1.0006638244231105,-8.374690333660112
6.384769536,1.000465691229482,-8.639936573157557
6.392785408,1.000242372771635,-8.902415065979232
6.400801792,1.000005739860293,-9.161952335228825
6.408817664,0.9997690486780227,-9.418315224921079
6.416833536,0.9995450070795565,-9.671683874448314
6.42484992,0.999345908531588,-9.922326522723331
6.432865792,0.999182339462839,-10.170582867036941
6.440881664,0.9990635618191157,-10.416977444755195
6.448898048,0.9989959799530443,-10.662250942708082
6.45691392,0.9989833467724654,-10.907021973867227
6.464929792,0.9990262977659345,-11.15207450374232
6.472945664,0.9991228755568968,-11.398164244168935
6.480962048,0.9992674559914845,-11.645979224631224
6.48897792,0.9994524967233233,-11.896062598507974
6.496993792,0.9996676704279872,-12.148955397989335
6.505010176,0.9999017421438462,-12.404941398839576
6.513026048,1.0001415032797398,-12.664175996922097
6.52104192,1.0003741587037134,-12.926717728302663
6.529058304,1.0005868762522934,-13.192338382291435
6.537074176,1.0007683626710306,-13.460665468226377
6.545090048,1.0009086018964213,-13.731278114503684
6.553106432,1.0009997854700714,-14.003487839541725
6.561122304,1.001037196450075,-14.276726655901728
6.569138176,1.0010185929363162,-14.550124900273834
6.57715456,1.000944776116376,-14.82304472132993
6.585170432,1.0008199961851052,-15.094669463551883
6.593186304,1.0006508597233834,-15.364468365028811
6.601202176,1.0004463710772447,-15.631834685413848
6.60921856,1.0002178366721561,-15.896392258383036
6.617234432,0.9999773829681301,-16.157851817639976
6.625250304,0.9997383466192438,-16.41622333885605
6.633266688,0.9995135033648133,-16.671512370857794
6.64128256,0.999315269474507,-16.92406416263819
6.649298432,0.9991544165700673,-17.174301892333293
6.657314816,0.9990397716909835,-17.42272599645483
6.665330688,0.9989776202646251,-17.670051932550656
6.67334656,0.9989712603782458,-17.917020043935096
6.681362944,0.9990212333580696,-18.16433909849049
6.689378816,0.9991250951658893,-18.412781860312172
6.697394688,0.9992768402985178,-18.663064896865112
6.705411072,0.9994685852344216,-18.915694881282835
6.713426944,0.9996896017443627,-19.171209530837377
6.721442816,0.9999280951919429,-19.429903096355527
6.729458688,1.000171001405327,-19.691912239367486
6.737475072,1.0004051047019449,-19.95728457890329
6.745490944,1.0006179155728097,-20.22568737503196
6.753506816,1.0007975379059646,-20.496840322288485
6.7615232,1.0009344184251394,-20.770247378972293
6.769539072,1.0010209726047326,-21.045199918951784
6.777554944,1.0010524120149569,-21.321049932855814
6.785571328,1.001027228466732,-21.597050290174717
6.7935872,1.0009463102970244,-21.87243148128882
6.801603072,1.0008142695556372,-22.14647709504219
6.809619456,1.0006381702946912,-22.418570977593777
6.817635328,1.0004275351986864,-22.68817049035153
6.8256512,1.0001937009658113,-22.954851120070593
6.833667584,0.999949435088517,-23.21841902729555
6.841683456,0.9997078389615567,-23.47884628947784
6.849699328,0.9994822783131203,-23.73618495060755
6.8577152,0.9992850630765983,-23.99074574951505
6.865731584,0.9991265838058132,-24.243068747506165
6.873747456,0.9990158826715426,-24.493624240284447
6.881763328,0.9989591156873244,-24.743108500819794
6.889779712,0.9989589598223927,-24.99233156947052
6.897795584,0.9990160143773077,-25.242025877223927
6.905811456,0.9991269943256338,-25.492904775928377
6.91382784,0.9992858077447165,-25.745709341313415
6.921843712,0.9994840820122889,-26.00102254818202
6.929859584,0.9997108020778889,-26.259244777015613
6.937875968,0.9999539317789594,-26.5207764352124
6.94589184,1.0002000853140658,-26.785663940816033
6.953907712,1.000435954678614,-27.053853585230144
6.961924096,1.0006485615531968,-27.325202478999515
6.969939968,1.0008266100807037,-27.5992482326936
6.97795584,1.0009601132680468,-27.87548832786342
6.985971712,1.0010420607658963,-28.153291685109235
6.993988096,1.0010678396704553,-28.431896867069238
7.002003968,1.0010358363840788,-28.710584003100198
7.01001984,1.0009479720842465,-28.988561869900877
7.018036224,1.0008087934230538,-29.265109869201613
7.026052096,1.0006257618914354,-29.539606749060823
7.034067968,1.0004090627736721,-29.811488851514042
7.042084352,1.0001700869827126,-30.08043381183879
7.050100224,0.9999216716394744,-30.34621026600495
7.058116096,0.9996777535766382,-30.608772829531155
7.06613248,0.9994511580109068,-30.868268061392996
7.074148352,0.9992547234281374,-31.12501027509788
7.082164224,0.9990987970097107,-31.37944382583815
7.090180608,0.9989920462147832,-31.63217189869937
7.09819648,0.9989403433547626,-31.883960430711923
7.106212352,0.9989465034016732,-32.13555132488941
7.114228224,0.9990103162811492,-32.387644300383414
7.122244608,0.9991283581586813,-32.641081373494885
7.13026048,0.9992944087917066,-32.896523821070446
7.138276352,0.9994991863979441,-33.15455707721997
7.146292736,0.9997317642886219,-33.415640258877495
7.154308608,0.9999794743312935,-33.6800367175346
7.16232448,1.0002288596836986,-33.94788017636296
7.170340864,1.0004664829703112,-34.21908510047672
7.178356736,1.0006791489038094,-34.493421970186894
7.186372608,1.0008555680126254,-34.77044464909982
7.194388992,1.0009860956751908,-35.049653074457275
7.202404864,1.0010634922595931,-35.3303836595278
7.210420736,1.0010835130441824,-35.611841392889204
7.21843712,1.001045167358421,-35.893300874411835
7.226452992,1.0009501956424842,-36.17394242736062
7.234468864,1.0008038912292658,-36.45310390703734
7.242484736,1.0006141879568191,-36.730108602828935
7.25050112,1.000391059101233,-37.004453835297824
7.258516992,1.0001467417486256,-37.27572889390721
7.266532864,0.9998944423678082,-37.543826197017424
7.274549248,0.9996478869547261,-37.808624776702665
7.28256512,0.9994204264329264,-38.07035130883546
7.290580992,0.9992244898010051,-38.329294519560705
7.298597376,0.9990708040790857,-38.586001067969654
7.306613248,0.9989678944405362,-38.84103370203384
7.31462912,0.9989212073805356,-39.09520463986658
7.322645504,0.9989335596199685,-39.34917812812933
7.330661376,0.9990039889167319,-39.60385370405844
7.338677248,0.999129250874307,-39.85990706177742
7.346693632,0.9993022743898687,-40.11809132879487
7.354709504,0.9995136908286856,-40.37893120637492
7.362725376,0.9997521500178727,-40.642900052694046
7.370741248,1.0000044498802623,-40.9102708997076
7.378757632,1.0002573013258589,-41.18113151788115
7.386773504,1.0004967201872381,-41.45540759075987
7.394789376,1.0007096337462438,-41.73283359807665
7.40280576,1.0008847343159568,-42.012986385001376
7.410821632,1.0010122286882672,-42.29524150170652
7.418837504,1.0010852389963023,-42.57897515591882
7.426853888,1.0010997849202234,-42.86338353380663
7.43486976,1.001054945407724,-43.147717609808026
7.442885632,1.0009531088329588,-43.43115302552772
7.450902016,1.0007996855905583,-43.71300644920484
7.458917888,1.000603124853795,-43.99261012086359
7.46693376,1.0003737047119339,-44.26949467989989
7.474950144,1.0001241524185156,-44.54321309520498
7.482966016,0.9998675328753578,-44.81369450172945
7.490981888,0.9996183689111973,-45.08084579971685
7.49899776,0.999389762720518,-45.34488216059971
7.507014144,0.9991943758761658,-45.606157541244436
7.515030016,0.9990428506688621,-45.86520342159042
7.523045888,0.9989433901462408,-46.12265734738711
7.531062272,0.9989017429852394,-46.379234779362584
7.539078144,0.9989199955052531,-46.63578734206909
7.547094016,0.9989972272986507,-46.8930351949054
7.5551104,0.999129528761123,-47.151802713938224
7.563126272,0.999309442846933,-47.412776781895325
7.571142144,0.9995273497657093,-47.67651243573422
7.579158528,0.9997716605993902,-47.94347152958087
7.5871744,1.0000290104727236,-48.213913776439355
7.595190272,1.0002852999365957,-48.48788386297137
7.603206656,1.0005265946944684,-48.76534016390329
7.611222528,1.0007400192154117,-49.04595299411566
7.6192384,1.0009139292879856,-49.32923562281015
7.627254272,1.001038517531692,-49.61466553451625
7.635270656,1.0011073502791203,-49.90148042527015
7.643286528,1.0011164621361037,-50.188946128672974
7.6513024,1.0010653937515375,-50.47625961352533
7.659318784,1.000956715735384,-50.76257981493841
7.667334656,1.0007962363086087,-51.04723477626441
7.675350528,1.0005926786041806,-51.32955402120092
7.683366912,1.0003569653804316,-51.60903171333162
7.691382784,1.0001019347645226,-51.88533343397696
7.699398656,0.9998412217985746,-52.15827084814983
7.70741504,0.9995889869861159,-52.4278767405839
7.715430912,0.9993591419690661,-52.6943068858685
7.723446784,0.9991640327393376,-52.95803009318191
7.731463168,0.9990143893619096,-53.21949043448984
7.73947904,0.9989184537123368,-53.4794175565316
7.747494912,0.9988813805549983,-53.738532999692005
7.755510784,0.9989055760918558,-53.99767819476856
7.763527168,0.9989893941278742,-54.257597669533446
7.77154304,0.9991285440855372,-54.51914583505657
7.779558912,0.9993156306542436,-54.78299350201896
7.787575296,0.9995403342326046,-55.04971294840777
7.795591168,0.9997906863414217,-55.319709444750444
7.80360704,1.0000528219550466,-55.593299665085006
7.811623424,1.0003128092500537,-55.87049033635893
7.819639296,1.000556375826914,-56.15117525831848
7.827655168,1.0007703734479865,-56.435030244612506
7.835671552,1.0009430344178512,-56.72158677989466
7.843687424,1.0010652406639446,-57.010231290188834
7.851703296,1.001130087674393,-57.3002527746465
7.85971968,1.0011338957232203,-57.59084548407425
7.867735552,1.001076646028012,-57.88121365971954
7.875751424,1.0009611539077368,-58.17053204941392
7.883767296,1.0007937081244864,-58.45807610221093
7.89178368,1.0005831801190501,-58.74319981848305
7.899799552,1.0003410334051837,-59.02541435173296
7.907815424,1.000080424435301,-59.30435131134605
7.915831808,0.9998151442896791,-59.57986969314486
7.92384768,0.999560022854955,-59.851998541304596
7.931863552,0.9993285410596717,-60.120941807969366
7.939879936,0.9991336536938858,-60.38713668665259
7.947895808,0.9989856707665435,-60.65111094668833
7.95591168,0.9988928824367347,-60.913587653119436
7.963928064,0.9988604246404874,-61.175309160346835
7.971943936,0.9988902580231271,-61.43708690319507
7.979959808,0.9989806911499817,-61.699801308159486
7.987976192,0.9991268495013599,-61.96419890731884
7.995992064,0.9993209104554439,-62.23099000930084
8.004007936,0.9995523069575166,-62.50075499015383
8.012023808,0.9998087158768185,-62.77389245129479
8.020040192,1.000076125838597,-63.05067418826814
8.028056064,1.000339909321775,-63.33109717584285
8.036071936,1.000585955952568,-63.61511718519678
8.04408832,1.0008007865193722,-63.90229146552128
8.052104192,1.0009728072646513,-64.19222012557815
8.060120064,1.0010924239200774,-64.48419853108149
8.068136448,1.001153476650401,-64.77748703885317
8.07615232,1.0011523050703806,-65.071320765948
8.084168192,1.00108894080057,-65.3648281978585
8.092184576,1.0009666423585308,-65.65721836508507
8.100200448,1.0007922359184458,-65.94775330706665
8.10821632,1.0005747288800728,-66.2357738515931
8.116232704,1.0003261073758847,-66.52077643710193
8.124248576,1.0000595682113669,-66.80247330865578
8.132264448,0.9997898133425264,-67.0806420759564
8.14028032,0.9995312730800654,-67.35536400459023
8.148296704,0.9992980054692726,-67.62689594356833
8.156312576,0.9991028860595303,-67.8956601198334
8.164328448,0.9989563919164094,-68.16221858082389
8.172344832,0.9988666489172267,-68.42731508385926
8.180360704,0.9988386687761206,-68.69169992587442
8.188376576,0.9988739784061973,-68.95619891082984
8.19639296,0.9989708602297175,-69.221714878788
8.204408832,0.9991239395879988,-69.48902681391716
8.212424704,0.9993250577537592,-69.75881950456223
8.220441088,0.9995635326904893,-70.03168077072124
8.22845696,0.999826127658039,-70.30804360457597
8.236472832,1.0000988466356708,-70.58809382818484
8.244489216,1.0003668308884328,-70.87185518725488
8.252505088,1.0006155279997548,-71.15921563864586
8.26052096,1.0008315080663261,-71.449831166917
8.268536832,1.0010030338780798,-71.74313764946466
8.276553216,1.0011206490094733,-72.03852475300829
8.284569088,1.0011779201861424,-72.33520507859916
8.29258496,1.0011718886551806,-72.6323279670925
8.300601344,1.001102560581979,-72.92909733847729
8.308617216,1.0009736263409936,-73.2246698885998
8.316633088,1.000792132927916,-73.51828070946154
8.324649472,1.0005676284027816,-73.8092798164864
8.332665344,1.0003121715734078,-74.09718784224724
8.340681216,1.0000397979276623,-74.38166672932554
8.3486976,0.9997650051404084,-74.66258983393043
8.356713472,0.9995029360007561,-74.9399972828954
8.364729344,0.9992675449987044,-75.21418886135149
8.372745728,0.9990718926855483,-75.48560379185496
8.3807616,0.9989266017976685,-75.7547673787427
8.388777472,0.9988396282591192,-76.02252508814612
8.396793344,0.9988159018505245,-76.28964163831441
8.404809728,0.9988564612569114,-76.55694545550048
8.4128256,0.9989596101791061,-76.82532676112241
8.420841472,0.9991196627656254,-77.09558725361387
8.428857856,0.9993280329603731,-77.36843961180728
8.436873728,0.9995733023529936,-77.64445330281937
8.4448896,0.9998424506525792,-77.92405716862096
8.452905984,1.0001206691434703,-78.2074107773246
8.460921856,1.0003930939680918,-78.49457230902544
8.468937728,1.0006449932839754,-78.78539679784622
8.476954112,1.0008622535383485,-79.07945458198103
8.484969984,1.0010336253989964,-79.37624844956741
8.492985856,1.0011494081971477,-79.6751346990408
8.50100224,1.0012034267014207,-79.97524452472867
8.509018112,1.0011925688087577,-80.27577769304186
8.517033984,1.001117445431293,-80.57586232243732
8.525049856,1.0009819949499927,-80.87467737276957
8.53306624,1.00079331419259,-81.17142969437077
8.541082112,1.0005616474444676,-81.46549780521231
8.549097984,1.0002994041250064,-81.75637254499624
8.557114368,1.0000207846666211,-82.0437324655706
8.56513024,0.9997407907031208,-82.32746613557731
8.573146112,0.999474626168181,-82.60766050565732
8.581162496,0.9992369226278902,-82.8845564732405
8.589178368,0.9990404879043581,-83.15866393995384
8.597194752,0.9988960324479406,-83.4305386718946
8.605210624,0.9988115726734238,-83.70101108791226
8.613226496,0.9987915982449556,-83.97088894482725
8.621242368,0.9988375585535597,-84.24102013701169
8.62925824,0.9989470091227257,-84.51228006087979
8.637274112,0.9991139648692295,-84.78555127740393
8.645291008,0.9993294349505479,-85.06149702712901
8.65330688,0.9995819879262396,-85.34069548180277
8.661322752,0.9998578007635696,-85.62353805903327
8.669338624,1.0001419492924584,-85.91028661326543
8.677354496,1.0004191367402957,-86.20091457395124
8.685370368,1.000674219804964,-86.49522113799559
8.693387264,1.0008935114414554,-86.79281835057677
8.701403136,1.0010649951769688,-87.09318743094869
8.709419008,1.0011792424604045,-87.39556232639889
8.71743488,1.0012301186766448,-87.69918986541249
8.725450752,1.0012149668326007,-88.00321644429211
8.733466624,1.0011340769086443,-88.30668732469104
8.741482496,1.0009919568948822,-88.6088059113905
8.749499392,1.0007961383905575,-88.90880072894576
8.757515264,1.0005571701263072,-89.20601761210875
8.765531136,1.0002878457995035,-89.49990521593219
8.773547008,1.0000027670658018,-89.79024796399952
8.78156288,0.9997172412923665,-90.07687255336153
8.789578752,0.9994468507975588,-90.35984315436822
8.797595648,0.999206199699616,-90.6395179315686
8.80561152,0.9990084456046909,-90.91634121201326
8.813627392,0.9988646072268712,-91.19097509868864
8.821643264,0.9987821136021942,-91.46419079733342
8.829659136,0.9987660212176434,-91.7368369144172
8.837675008,0.9988169610522746,-92.00984774562473
8.84569088,0.9989324686816259,-92.28405017991126
8.853707776,0.9991064129847204,-92.56033101056916
8.861723648,0.9993293517448392,-92.83939783461608
8.86973952,0.9995891913728003,-93.12179900709006
8.877755392,0.9998720164055259,-93.40798338642172
8.885771264,1.0001623582132841,-93.69810095576199
8.893787136,1.0004446257545065,-93.99220951762912
8.901804032,1.0007036151536768,-94.2900594136368
8.909819904,1.0009252073769273,-94.59126830765706
8.917835776,1.001097180128866,-94.89518908485418
8.925851648,1.0012102745266724,-95.20120931361049
8.93386752,1.00125846434176,-95.50840447842394
8.941883392,1.001238859370835,-95.8159346926403
8.949900288,1.001152470012398,-96.12288450083523
8.95791616,1.001003759741891,-96.42838229178835
8.965932032,1.0008007448552672,-96.73168951118915
8.973947904,1.0005542322087175,-97.03208845907247
8.981963776,1.000277597934637,-97.32911923412765
8.989979648,0.9999856447205026,-97.6224451093966
8.99799552,0.9996941719680071,-97.91199494485885
9.006012416,0.9994191014518172,-98.19785301831313
9.014028288,0.9991751536246445,-98.48032556541648
9.02204416,0.9989758269312451,-98.75989934020492
9.030060032,0.9988319102849104,-99.03728930212766
9.038075904,0.9987512854973032,-99.3132981522624
9.046091776,0.9987385361209579,-99.5887576525681
9.054108672,0.9987943921251685,-99.86462531495218
9.062124544,0.9989160560481187,-100.14176594280381
9.070140416,0.999096926152195,-100.4210890828982
9.078156288,0.9993273351605054,-100.70327414722131
9.08617216,0.9995946855282923,-100.98891429137663
9.094188032,0.9998848026934528,-101.27841284306182
9.102203904,1.000181869595116,-101.57195657053158
9.1102208,1.000469788146683,-101.86956781999224
9.118236672,1.0007330399619565,-102.17098260018975
9.126252544,1.0009571608006083,-102.47579323538888
9.134268416,1.0011302904850434,-102.78339472502442
9.142284288,1.001242703561546,-103.09302616667888
9.15030016,1.0012883724256127,-103.40385351834249
9.158317056,1.0012646545563624,-103.71495741117897
9.166332928,1.0011727966050101,-104.02545283964801
9.1743488,1.0010176387294556,-104.33439877439666
9.182364672,1.0008072444174274,-104.64102618985955
9.190380544,1.0005531870467395,-104.94470927350696
9.198396416,1.000268776580969,-105.24490918962456
9.206413312,0.9999696318531724,-105.54127936154269
