freq,mag,phase
6.0,1.0000080272998215,-88.33721041153771
6.042328064,1.0000096393204785,-90.33026382491941
6.084656128,1.0000101224702116,-92.32411606624896
6.126984192,1.0000106321027602,-94.31864541687074
6.169312256,1.000010776340788,-96.31390677098294
6.21164032,1.0000110936279332,-98.30974276061875
6.253968384,1.0000112637965686,-100.3062003843356
6.296296448,1.0000113228823888,-102.30324181692991
6.338624512,1.0000113257710364,-104.30079305779178
6.380952576,1.000011184038928,-106.29885372403214
6.42328064,1.0000110484086953,-108.29733841130366
6.465608704,1.0000107413497645,-110.2962518274286
6.507936256,1.0000103933095088,-112.29555922257984
6.55026432,1.0000098711368275,-114.2951910237583
6.592592384,1.0000094749250934,-116.29509741068391
6.634920448,1.0000087821841759,-118.29525597737414
6.677248512,1.0000082634079859,-120.29564968576125
6.719576576,1.0000074852275531,-122.29620672725689
6.76190464,1.000006751184491,-124.29691580767789
6.804232704,1.0000059995956865,-126.29769246940121
6.846560768,1.0000051192880786,-128.29855126141902
6.888888832,1.0000043774000238,-130.29942085194426
6.931216896,1.000003421923541,-132.30030498242886
6.97354496,1.000002613380713,-134.3010511069454
7.015873024,1.0000017284125404,-136.30174527008344
7.058201088,1.0000008132600848,-138.30233462641695
7.100529152,1.0000000545455825,-140.30270411771153
7.142857216,0.9999992422031798,-142.3028981500408
7.18518528,0.9999984436824136,-144.3027826821213
7.227513344,0.9999976520976906,-146.30241755547866
7.269841408,0.9999970121826345,-148.30170210153855
7.312169472,0.9999964658435255,-150.30062009691403
7.354497536,0.9999958288503232,-152.29913937537816
7.3968256,0.9999953913924581,-154.297203310988
7.439153664,0.9999949607321031,-156.29480331045085
7.481481728,0.9999947053727098,-158.29189828038395
7.52380928,0.9999944578205372,-160.28843215693342
7.566137344,0.9999943025139276,-162.2843776779454
7.608465408,0.9999942633721929,-164.2796847475803
7.650793472,0.9999942312192489,-166.27435072332432
7.693121536,0.9999944050916768,-168.2683361300007
7.7354496,0.9999945917340157,-170.26157288986786
7.777777664,0.9999949204591013,-172.25408485840754
7.820105728,0.999995259242011,-174.24578813285643
7.862433792,0.9999957324760516,-176.2366433879154
7.904761856,0.999996356075244,-178.2266882075028
7.94708992,0.9999969023783254,179.78417199361127
7.989417984,0.9999976501596775,177.7959652407273
8.031746048,0.9999983924471365,175.80870520525968
8.074074112,0.9999992168483951,173.8224475419691
8.116402176,1.0000000449302628,171.8371640532745
8.15873024,1.0000008343554596,169.8529369396385
8.201058304,1.000001730229467,167.86978392049872
8.243386368,1.0000026199338823,165.8877262101738
8.285714432,1.0000036144717028,163.9067664119802
8.328042496,1.0000045176621457,161.92698617174946
8.37037056,1.0000053712475843,159.94838390465492
8.412698624,1.0000062096610531,157.97093325073035
8.455026688,1.0000071188443773,155.99476481330382
8.497354752,1.0000078565744452,154.01983875473763
8.539682304,1.0000086666620176,152.0461912777175
8.582010368,1.0000093185884842,150.07382278457038
8.624338944,1.0000098871486434,148.10279059007428
8.666667008,1.000010490693186,146.13308761190095
8.708995072,1.0000108656185873,144.16476595981527
8.751323136,1.0000112324531452,142.19783692852786
8.7936512,1.0000115524561926,140.23228015403177
8.835979264,1.0000117165536468,138.26817196745768
8.878307328,1.0000118669089608,136.3055122229722
8.920635392,1.0000118149346255,134.34429528338686
8.962963456,1.0000117054579698,132.38455470615676
9.005290496,1.0000115952517024,130.4263167559316
9.04761856,1.0000112793935372,128.4695770255654
9.089946624,1.0000109079555666,126.51436399037539
9.132274688,1.0000104942393715,124.56068188734648
9.174602752,1.0000099108256912,122.60856826084775
9.216930816,1.0000092762196104,120.65800749950073
9.25925888,1.0000085911705858,118.70900943150929
9.301586944,1.0000078449638146,116.76160748102227
9.343915008,1.0000069930056132,114.81578490565568
9.386243072,1.0000060961638204,112.87159846347564
9.428571136,1.0000052461156994,110.92900132198004
9.4708992,1.0000042863124066,108.98802111343197
9.513227264,1.0000033785406528,107.04865998052973
9.555555328,1.0000024025378047,105.11096597179301
9.597883392,1.0000013866585817,103.17486923559562
9.640211456,1.0000004225018464,101.24044605916896
9.68253952,0.9999995469722972,99.30764715951537
9.724867584,0.9999986997890046,97.3765140879279
9.767195648,0.9999978121363288,95.447028869641
9.809523712,0.9999971146038066,93.51917949509445
9.851851776,0.9999963018215099,91.59298785487184
9.89417984,0.9999957023851341,89.66844656249191
9.936507904,0.9999950869118169,87.74556712673538
9.978835968,0.999994573196327,85.82433664731008
10.021164032,0.9999941823733404,83.90474493200243
10.063492096,0.9999938646894733,81.98680031883752
10.10582016,0.9999936907986251,80.07049310170785
10.148148224,0.9999935771729487,78.15582381281624
10.190476288,0.99999359025263,76.2427852992886
10.232804352,0.9999937028348881,74.33137152861191
10.275132416,0.9999939233295181,72.42156782982609
10.31746048,0.9999942809040521,70.51338160774377
10.359788544,0.9999947410618625,68.60680189437748
10.402116608,0.9999952158423461,66.70179069603842
10.444444672,0.9999958583068692,64.79840366710887
10.486772736,0.9999966071788575,62.89656791782366
10.5291008,0.9999973686434683,60.996315153155315
10.571428864,0.9999982793336095,59.09760275791278
10.613756928,0.9999991515189623,57.20045073808676
10.656084992,1.0000001629160566,55.30482702971003
10.698413056,1.000001157558019,53.410719424196905
10.74074112,1.000002295564824,51.518122439309195
10.783069184,1.0000033450471113,49.6270311065461
10.825397248,1.0000044233518992,47.737408457755166
10.867725312,1.0000055646166823,45.84927125722144
10.910053376,1.0000066481116372,43.96258714788609
10.95238144,1.0000077070172286,42.07733183402565
10.994709504,1.0000086749833406,40.19350822398756
11.037036544,1.0000096467028219,38.311088832041264
11.079364608,1.0000104625375605,36.43006653014324
11.121692672,1.0000113755793942,34.5504174049461
11.164020736,1.000012134905582,32.67213423617101
11.2063488,1.0000127154779863,30.79519743748461
11.248676864,1.0000133808773959,28.919596065728943
11.291004928,1.0000137774920501,27.045293187374387
11.333332992,1.0000141788741888,25.17228342395341
11.375661056,1.0000143529677814,23.30054814028937
11.41798912,1.0000145164445369,21.430054461393787
11.460317184,1.0000145487828243,19.560821789366603
11.502645248,1.000014373789907,17.6927781359865
11.544973312,1.000014166925165,15.825939723495312
11.587301376,1.0000137351120484,13.96028605072254
11.62962944,1.0000132243358413,12.095771610764015
11.671957504,1.0000127505908813,10.2324023761089
11.714285568,1.0000120190091988,8.370143254514964
11.756613632,1.0000111416644135,6.508964410739178
11.798941696,1.0000102525393393,4.648881028781799
11.84126976,1.0000092135739065,2.7898238031963367
11.883597824,1.0000082026288222,0.9317982324200426
11.925925888,1.0000070621003065,-0.9252373361828614
11.968253952,1.0000059484161192,-2.7812706027843865
12.010582016,1.0000046684332462,-4.636376134256776
12.05291008,1.0000034610350006,-6.4905303470063185
12.095238144,1.0000021802367283,-8.34377207099076
12.137566208,1.0000009211521887,-10.196152128033955
12.179894272,0.9999997023465071,-12.047667614735596
12.222222336,0.999998509817317,-13.898348240505419
12.2645504,0.9999973329386048,-15.748204865449193
12.306878464,0.9999962584808355,-17.59728786913245
12.349206528,0.9999951751707684,-19.445628218436838
12.391534592,0.9999942495566209,-21.293230671110862
12.433862656,0.9999933404693553,-23.140131334056964
12.47619072,0.9999925543970305,-24.986350302708317
12.518518784,0.9999918827626053,-26.831919952810296
12.560846848,0.9999913670492502,-28.676854870774118
12.603174912,0.999990866763441,-30.52121939987099
12.645502976,0.9999906595673452,-32.36501568722503
12.68783104,0.9999905150216206,-34.20824300184614
12.730159104,0.999990463117769,-36.050984428188976
12.772487168,0.9999906520547724,-37.89321342772273
12.814815232,0.9999908614820084,-39.73500922269146
12.857143296,0.9999913293329011,-41.57637561980931
12.89947136,0.9999918191860201,-43.41732650433837
12.941799424,0.9999925387427439,-45.25790975255077
12.984127488,0.9999933051409915,-47.09813794405025
13.026454528,0.999994220257529,-48.93806983077612
13.068782592,0.9999953209025552,-50.77770416669274
13.111110656,0.9999964205790496,-52.61707405587508
13.15343872,0.9999976075487458,-54.45620884148823
13.195766784,0.9999988836067611,-56.295141344149954
13.238094848,1.000000161571781,-58.13391460004969
13.280422912,1.0000016153446643,-59.97252860692457
13.322750976,1.0000029858278598,-61.81101200037616
13.36507904,1.000004434403895,-63.64941162544954
13.407407104,1.000005923391635,-65.48774708512816
13.449735168,1.0000073389630708,-67.32605479107306
13.492063232,1.0000087902758263,-69.16434857950036
13.534391296,1.000010074409225,-71.00265207136319
13.57671936,1.0000113384494322,-72.84100916331587
13.619047424,1.000012574779344,-74.67944024056875
13.661375488,1.0000136926845717,-76.51796776500215
13.703703552,1.000014727833272,-78.35662558533643
13.746031616,1.0000156472614024,-80.19542957430309
13.78835968,1.0000163942606912,-82.03443525404055
13.830687744,1.0000171265397488,-83.8736343284135
13.873015808,1.0000175888779186,-85.71306261055283
13.915343872,1.000017920550628,-87.5527629748982
13.957671936,1.0000181384388873,-89.39274198722963
14.0,1.0000182402165665,-91.23304445564389
