freq,mag,phase
6.0,1.000108098386902,31.158369167789186
6.003014144,1.0000446284838593,31.08056370907827
6.0060288,0.9999784552574803,31.0036940088044
6.009042944,0.9999136521855886,30.92779653362024
6.012057088,0.9998543474133693,30.85272800954534
6.015071744,0.9998041847780814,30.7784786570791
6.018085888,0.9997665051199166,30.704883252220135
6.021100032,0.9997434971194288,30.631698014341428
6.024114688,0.9997367389771842,30.558752723437674
6.027128832,0.9997466117870425,30.48577976134444
6.030142976,0.9997724746537909,30.41253097098864
6.033157632,0.999812706509328,30.338815422595694
6.036171776,0.9998648712225986,30.26436679291145
6.03918592,0.9999255914282028,30.18915579776407
6.042200576,0.9999910187799596,30.11301002438787
6.04521472,1.0000572089843651,30.035901697858367
6.048228864,1.0001197609631205,29.957886007301134
6.05124352,1.0001749405180966,29.878980855175435
6.054257664,1.0002192302856212,29.799410208924872
6.057271808,1.000249787645589,29.719260056165055
6.060286464,1.0002646076905732,29.638748894257375
6.063300608,1.0002629307965272,29.558180930749472
6.066314752,1.0002447907163503,29.477735399754923
6.069329408,1.0002112545103352,29.3976497379219
6.072343552,1.0001644975184751,29.31815866499269
6.075357696,1.0001074839347925,29.239412956340605
6.078372352,1.000043708575964,29.16149419739639
6.081386496,0.999977288093871,29.08459208746869
6.084401152,0.9999122481094121,29.00860126678899
6.087415296,0.9998528219457138,28.933487441605415
6.09042944,0.9998027268691685,28.859198888978476
6.093444096,0.9997650925830512,28.78553797474214
6.09645824,0.9997422492980799,28.712321906848313
6.099472384,0.9997357347068919,28.639312113792467
6.10248704,0.9997459047909758,28.56624381157921
6.105501184,0.9997721858385876,28.492909195901742
6.108515328,0.9998127660355346,28.41911795041712
6.111529984,0.9998652732707407,28.344646695320662
6.114544128,0.9999263847866969,28.26932657118172
6.117558272,0.9999921359612002,28.19311262984763
6.120572928,1.0000585138282356,28.115902305058828
6.123587072,1.0001212405212208,28.037780120240612
6.126601216,1.00017657891484,27.958800959804982
6.129615872,1.0002207077126102,27.879119382344516
6.132630016,1.0002510785488998,27.798838186669535
6.13564416,1.0002657999470574,27.71824941256214
6.138658816,1.000263804310651,27.6375610491001
6.14167296,1.000245356806939,27.557048100389725
6.144687104,1.0002114008087224,27.476885774386922
6.14770176,1.0001642517422613,27.397314147176566
6.150715904,1.000106876229859,27.31849267008131
6.153730048,1.0000427631644677,27.240537163666744
6.156744704,0.9999760639539487,27.163527552596744
6.159758848,0.9999108431972715,27.087461123194387
6.162772992,0.9998512602407514,27.012339420767255
6.165787648,0.9998011877396861,26.937982020688406
6.168801792,0.9997635886941644,26.864278606879655
6.171815936,0.9997409864165574,26.790970070092122
6.174830592,0.999734731740349,26.717874552222263
6.177844736,0.999745204191481,26.64475106416505
6.18085888,0.999771792045433,26.571380128893487
6.183873536,0.999812838097971,26.497496231682863
6.18688768,0.9998657051587355,26.422940228924272
6.189901824,0.999927198208074,26.347547559395462
6.19291648,0.9999932523928734,26.27121971854722
6.195930624,1.0000598594597117,26.193916588793662
6.198944768,1.0001227771624746,26.115685291468655
6.201959424,1.0001780723439373,26.036616035568144
6.204973568,1.0002222269087182,25.9568163048589
6.207987712,1.0002525158021704,25.876440276021505
6.211002368,1.0002669794833852,25.795780731705737
6.214016512,1.0002646905656416,25.71499628562041
6.217030656,1.000245816876571,25.63436996123248
6.220045312,1.0002115422152633,25.554127883092125
6.223059456,1.0001640480077933,25.474476346460907
6.2260736,1.0001062468322284,25.395609559031204
6.229088256,1.0000418209174733,25.317578609675248
6.2321024,0.9999748012615712,25.240518761784003
6.235117056,0.9999094023671181,25.164389628409037
6.2381312,0.9998497502834472,25.089181000292143
6.241145344,0.999799578559811,25.014787008639225
6.24416,0.9997621271370195,24.941016442124674
6.247174144,0.9997396531316014,24.867628372525058
6.250188288,0.9997336700367717,24.794466715873064
6.253202944,0.9997444953131573,24.72129867845711
6.256217088,0.9997714692509154,24.64786519518641
6.259231232,0.9998129317377795,24.573901956619352
6.262245888,0.9998661806200837,24.49924903278659
6.265260032,0.9999280034176374,24.423753809028067
6.268274176,0.9999943782915655,24.34735723943574
6.271288832,1.0000612551635086,24.269953155474592
6.274302976,1.0001243005042515,24.191638270406305
6.27731712,1.0001796654406414,24.112437266245415
6.280331776,1.000223842140974,24.032551721901815
6.28334592,1.0002539636122083,23.952073679666164
6.286360064,1.0002682193229482,23.871308002910954
6.28937472,1.0002655384573849,23.790421938048638
6.292388864,1.0002463779812276,23.709724370000636
6.295403008,1.000211734258336,23.629394544203063
6.298417664,1.0001638223572993,23.549646395431623
6.301431808,1.000105661384234,23.47068344200258
6.304445952,1.0000408925823436,23.392571574157838
6.307460608,0.9999735642753664,23.315432769535533
6.310474752,0.9999080064093451,23.239299492032472
6.313488896,0.9998481885575122,23.16403599892091
6.316503552,0.9997980558740064,23.089581026039564
6.319517696,0.9997606324243061,23.015731861217493
6.32253184,0.9997383456239699,22.94229969221651
6.325546496,0.9997326455868247,22.869101872569374
6.32856064,0.9997437713763856,22.795850473542686
6.331574784,0.9997710955627709,22.722312393888092
6.33458944,0.9998128910675627,22.64828674382037
6.337603584,0.9998666128774482,22.57354587886247
6.340617728,0.9999287655278238,22.497976964437076
6.343632384,0.9999955130689141,22.421480028965043
6.346646528,1.000062656659913,22.343973837824766
6.349660672,1.0001258540184428,22.26555286383185
6.352675328,1.0001813022947834,22.186260501029487
6.355689472,1.0002253606997,22.106252958793114
6.358703616,1.0002554136057458,22.025677673075773
6.361718272,1.0002694011615636,21.944807880254317
6.364732416,1.000266530025275,21.86383485995608
6.36774656,1.0002470167568238,21.78302349759486
6.370761216,1.0002119710518835,21.702614137697324
6.37377536,1.0001636655332273,21.622805910135074
6.376789504,1.0001051223653674,21.543733642061873
6.37980416,1.0000399299548521,21.465608225099757
6.382818304,0.9999723595284055,21.388426119621375
6.38583296,0.9999065642372915,21.312167635827137
6.388847104,0.999846695082591,21.23684194324437
6.391861248,0.9997964654728697,21.16231898115215
6.394875904,0.9997591704205303,21.088415192160337
6.397890048,0.9997370437769235,21.01492043428366
6.400904192,0.9997315911616634,20.941647048572925
6.403918848,0.9997430378614386,20.868337428923446
6.406932992,0.9997706850717963,20.7947546612646
6.409947136,0.9998129710673598,20.720624237401395
6.412961792,0.9998670723366198,20.645804906872193
6.415975936,0.9999295754071567,20.570169447000303
6.41899008,0.9999966269026354,20.493530086531635
6.422004736,1.0000640000672194,20.415970475758282
6.42501888,1.000127400294663,20.337386676306377
6.428033024,1.000182968045664,20.257995636507093
6.43104768,1.0002269842147808,20.177889561993315
6.434061824,1.0002569103355272,20.097236267774043
6.437075968,1.0002707117097502,20.01626449516724
6.440090624,1.000267553334465,19.9351950368208
6.443104768,1.000247581108475,19.854256692630134
6.446118912,1.0002122106721167,19.77377326232876
6.449133568,1.0001634388820104,19.693873362168915
6.452147712,1.0001045703112874,19.61476630911595
6.455161856,1.0000390808494555,19.536530045225174
6.458176512,0.9999712298394704,19.459269322693732
6.461190656,0.9999052134091885,19.38296825766579
6.4642048,0.9998451622537529,19.307570181017145
6.467219456,0.9997949211797812,19.23298206484067
6.4702336,0.9997576959825473,19.159036285751178
6.473247744,0.9997357181935075,19.085517053666994
6.4762624,0.9997305106674149,19.01214046215338
6.479276544,0.999742306349647,18.938771688008114
6.482290688,0.9997703796920188,18.865060351907925
6.485305344,0.9998130181004722,18.790908505505932
6.488319488,0.9998675276177447,18.715986339264006
6.491333632,0.999930412645502,18.640217331963964
6.494348288,0.9999978278369482,18.563538046585467
6.497362432,1.000065424842365,18.485828858075674
6.500376576,1.0001289880310018,18.407216641348082
6.503391232,1.0001845689440279,18.32766873402842
6.506405376,1.0002286387314079,18.24746329093004
6.50941952,1.0002583727016927,18.16669819774234
6.512434176,1.0002719335628696,18.085579216370547
6.51544832,1.0002684535787367,18.00445278060517
6.518462464,1.0002482501525813,17.923459426287124
6.52147712,1.000212443226128,17.842862849491066
6.524491264,1.0001632981145103,17.762868030484285
6.527505408,1.0001040165715633,17.683661502781817
6.530520064,1.000038137194132,17.605370725843198
6.533534208,0.9999699976108979,17.528021933798442
6.536548352,0.9999037087224888,17.451670065009495
6.539563008,0.9998436019958908,17.37622951359951
6.542577152,0.9997933356164237,17.301570876325243
6.545591808,0.9997561759760767,17.227537204538194
6.548605952,0.9997344309998372,17.153953918973524
6.551620096,0.9997293953968676,17.080559769751165
6.554634752,0.9997415727349562,17.007081350973547
6.557648896,0.9997700175225778,16.933355045004078
6.56066304,0.999813100792434,16.859061371934654
6.563677696,0.9998679656829912,16.7840555945331
6.56669184,0.9999311954542454,16.708225240294695
6.569705984,0.9999989342472683,16.63141823704948
6.57272064,1.0000667381922925,16.553628820428035
6.575734784,1.0001305839369852,16.474858768395922
6.578748928,1.0001862422888788,16.395273989421426
6.581763584,1.0002302331987805,16.31492119546411
6.584777728,1.0002598423127895,16.23403398804541
6.587791872,1.0002732749512733,16.152859581571878
6.590806528,1.0002694861823234,16.071551833130638
6.593820672,1.0002488922447967,15.990472636386045
6.596834816,1.000212669517672,15.909807741791296
6.599849472,1.0001631391739234,15.829727998516656
6.602863616,1.0001033802143429,15.75046175332721
6.60587776,1.000037233583706,15.672069781321223
6.608892416,0.9999687566400632,15.594685041535632
6.61190656,0.9999022138373513,15.518269962365196
6.614920704,0.9998420104711863,15.442752449728887
6.61793536,0.9997917554865429,15.368023001620527
6.620949504,0.999754691619021,15.293933008696328
6.623963648,0.9997330646007513,15.220277949923283
6.626978304,0.9997283545741776,15.146779374863579
6.629992448,0.9997407587251319,15.073274952533176
6.633006592,0.9997696446289807,14.999435025069218
6.636021248,0.9998130080259789,14.925092619959473
6.639035392,0.999868358860453,14.850011879611067
6.642049536,0.9999320030545846,14.774064894086314
6.645064192,1.000000099402322,14.697155113793935
6.648078336,1.000068267450389,14.619267175252233
6.65109248,1.0001321494337787,14.540375232608785
6.654107136,1.0001879321367657,14.460667961277652
6.65712128,1.0002318854037406,14.38025899590084
6.660135424,1.0002614099435816,14.299254598648439
6.66315008,1.000274586608607,14.21795789823021
6.666164224,1.0002704926727668,14.136555307412493
6.669178368,1.0002495032037817,14.055393542116668
6.672193024,1.0002129100594856,13.974586011498598
6.675207168,1.000163039878488,13.894460402609255
6.678221312,1.0001028563583472,13.81507210446026
6.681235968,1.000036224298417,13.73664675418668
6.684250112,0.999967543336074,13.659166333927852
6.687264256,0.9999007777199674,13.582670347531423
6.690278912,0.9998403845829648,13.507083808543468
6.693293056,0.9997901045290548,13.432321007616249
6.696307712,0.9997530577461623,13.358175079375368
6.699321856,0.9997316567131026,13.284441952280694
6.702336,0.9997271961481888,13.210909818166554
6.705350656,0.9997399204136076,13.137299974595736
6.7083648,0.999769165070888,13.063375156023655
6.711378944,0.9998130161495854,12.988962077441776
6.7143936,0.9998687176332588,12.913764190693456
6.717407744,0.9999327848268593,12.837724424286641
6.720421888,1.0000012147365447,12.760729351314978
6.723436544,1.0000696150683521,12.682733413074972
6.726450688,1.0001337043126686,12.603779312793485
6.729464832,1.000189485379087,12.523951047042269
6.732479488,1.0002334960178754,12.44336112718128
6.735493632,1.0002628839397856,12.362251139938916
6.738507776,1.0002758857078087,12.280897579215416
6.741522432,1.000271489872276,12.199411218892397
6.744536576,1.0002501520378542,12.118101684446824
6.74755072,1.0002131464834085,12.037261420942574
6.750565376,1.0001628196350667,11.956986768549369
6.75357952,1.000102284611492,11.87755309760323
6.756593664,1.0000353647304807,11.799021369842617
6.75960832,0.9999662304194411,11.721467064969465
6.762622464,0.9998992949640637,11.644917858680106
6.765636608,0.9998388003172919,11.569253119885394
6.768651264,0.9997884825391438,11.494447505478897
6.771665408,0.9997515225430983,11.420214870331069
6.774679552,0.999730261582733,11.346439291232027
6.777694208,0.9997260370100101,11.272801119552827
6.780708352,0.9997391116115323,11.199118960566535
6.783722496,0.999768809792896,11.1251456789111
6.786737152,0.9998130615607439,11.050628095908422
6.789751296,0.9998692230797716,10.975351319100463
6.79276544,0.999933646484066,10.899228441750306
6.795780096,1.0000023739804782,10.822094159891456
6.79879424,1.0000710488760938,10.74400463789257
6.801808384,1.0001353278506664,10.664909361336813
6.80482304,1.000191274573057,10.584990938362097
6.807837184,1.0002352053955412,10.504307963619866
6.810851328,1.0002644907545433,10.423096673788693
6.813865984,1.0002772187988322,10.341577679498766
6.816880128,1.0002726064876275,10.260028375362877
6.819894272,1.0002508790049964,10.178612036308714
6.822908928,1.0002134915106276,10.097678732066035
6.825923072,1.0001627304448522,10.017310273694338
6.828937216,1.0001017246332526,9.93782774635544
6.831951872,1.0000344818474132,9.85919509080754
6.834966016,0.9999650188778669,9.78158023625076
6.83798016,0.9998978709142831,9.70494623417116
6.840994816,0.9998371850036383,9.629247481316607
6.84400896,0.9997867620342897,9.55432002172441
6.847023616,0.9997498455993107,9.48005320937309
6.85003776,0.9997287810613621,9.406190114857807
6.853051904,0.999724793185315,9.332475699732347
6.85606656,0.9997382854327542,9.258761794460455
6.859080704,0.9997683121885398,9.184674222214687
6.862094848,0.9998129554565921,9.110039839815258
6.865109504,0.9998695240025252,9.034726780434088
6.868123648,0.9999344047095088,8.958482089242324
6.871137792,1.0000035008779542,8.881263754721392
6.874152448,1.0000724695366618,8.8030471762949
6.877166592,1.0001370407912256,8.723877468341685
6.880180736,1.0001929786553374,8.643835154713608
6.883195392,1.0002369884562643,8.563016187541507
6.886209536,1.0002660710529956,8.481701767550627
6.88922368,1.0002786240893835,8.400093545325571
6.892238336,1.0002736781709813,8.318388853136899
6.89525248,1.0002516154493926,8.236898374383795
6.898266624,1.000213774505294,8.155822231162578
6.90128128,1.0001626259005714,8.075412898058875
6.904295424,1.0001011506604898,7.995773752891621
6.907309568,1.0000334930068828,7.917120535012589
6.910324224,0.9999637659864131,7.839415371993269
6.913338368,0.9998963674609518,7.762714293551922
6.916352512,0.9998356454291445,7.6869277073844815
6.919367168,0.9997851514678963,7.611957099756756
6.922381312,0.9997483676358565,7.537618563012469
6.925395456,0.9997273420219732,7.463672869871116
6.928410112,0.9997236934307839,7.389947562595553
6.931424256,0.9997374391537109,7.316112055664026
6.9344384,0.9997678888457798,7.241936714480248
6.937453056,0.999812988927817,7.167272733106882
6.9404672,0.9998699851561184,7.091807629025222
6.943481344,0.9999351796306074,7.015474223659766
6.946496,1.0000046920632695,6.938171614429084
6.949510144,1.0000738414493109,6.8598403139658215
6.952524288,1.000138638093957,6.78051787837416
6.955538944,1.0001946992402835,6.7003721074425915
6.958553088,1.0002386962439782,6.619445762573659
6.961567232,1.0002677582312796,6.538011113012488
6.964581888,1.0002800298871215,6.456290125560169
6.967596032,1.0002747762787152,6.374474896374205
6.970610176,1.0002523735563489,6.292877216699187
6.973624832,1.0002141288591835,6.2117158873443
6.976638976,1.000162459178505,6.131206245230707
6.97965312,1.0001007276466873,6.0515041163181875
6.982667776,1.000032687871656,5.972725866110309
6.98568192,0.999962509761932,5.894959989066784
6.988696064,0.9998948987947418,5.818197462085097
6.99171072,0.9998339237442246,5.742339984707889
6.994724864,0.9997834635739472,5.667313468138665
6.997739008,0.9997466356001125,5.592910244445044
7.000753664,0.9997258988225016,5.518912238937757
7.003767808,0.9997224918036597,5.445076227994748
7.006782464,0.9997366279544411,5.3711778406380075
7.009796608,0.9997674502603682,5.296947549405284
7.012810752,0.9998128692892525,5.222153083798593
7.015825408,0.9998702970505283,5.14661146999943
7.018839552,0.9999359101561234,5.070180126397739
7.021853696,1.0000057181948847,4.992753566569267
7.024868352,1.0000753520821175,4.914324292510947
7.027882496,1.000140193322725,4.834915921086499
7.03089664,1.0001963977324853,4.754631668876889
7.033911296,1.0002403451394857,4.673569353355595
7.03692544,1.000269333205959,4.592060178338888
7.039939584,1.0002814093354429,4.510221071020472
7.04295424,1.0002758756425387,4.428309046768256
7.045968384,1.0002530470105802,4.3465977552293955
7.048982528,1.0002144446984238,4.265344584417819
7.051997184,1.0001623435391904,4.18471564044761
7.055011328,1.000100146945693,4.104933055704439
7.058025472,1.0000316663918822,4.02608320473797
7.061040128,0.9999612936435238,3.948245849886473
7.064054272,0.9998934653560992,3.8713941399445857
7.067068416,0.9998323333817805,3.7954600358208554
7.070083072,0.9997817341695471,3.7203556764926837
7.073097216,0.9997450053844005,3.645860092284859
7.07611136,0.9997244876318717,3.5718058616462067
7.079126016,0.9997212934177718,3.497924037805662
7.08214016,0.9997357517254934,3.4239155973080933
7.085154304,0.9997668569204058,3.349609814832354
7.08816896,0.9998127883530675,3.274721254613001
7.091183104,0.9998706326299593,3.199101883837086
7.094197248,0.999936726477981,3.1225526693730927
7.097211904,1.0000069339604556,3.0450507472101003
7.100226048,1.0000767278287428,2.9664658856586357
7.103240192,1.0001419075622393,2.886954459019652
7.106254848,1.0001981642760442,2.806561451383309
7.109268992,1.0002421432803914,2.725405978414052
7.112283136,1.0002709520167579,2.6437491323175797
7.115297792,1.000282819584706,2.5617922818758805
7.118311936,1.0002769930421223,2.4797677617486515
7.12132608,1.0002538599586224,2.3979492773925766
7.124340736,1.0002147853359113,2.316597688919681
7.12735488,1.0001622486998274,2.2358972923522575
7.130369024,1.0000996449532629,2.156001364221443
7.13338368,1.00003077787159,2.0770737333069116
7.136397824,0.9999600708868815,1.9991466876112751
7.139411968,0.9998918756212157,1.9222369805333024
7.142426624,0.9998306447093851,1.8462254006642072
7.145440768,0.9997800431324646,1.7710595372516098
7.148454912,0.9997433540283062,1.6965153602384888
7.151469568,0.9997228610773691,1.6223562343851567
7.154483712,0.9997200072438496,1.5484139073451968
7.157498368,0.999734741519741,1.4743460252932152
7.160512512,0.9997663794056965,1.3999295920645989
7.163526656,0.9998127200135852,1.3249743570346726
7.166541312,0.9998709656761134,1.2492412502444763
7.169555456,0.9999375428305682,1.1725914200364402
7.1725696,1.0000080242648424,1.0949652554553309
7.175584256,1.0000782336903054,1.0163207717780012
7.1785984,1.000143534667132,0.9366557746180963
7.181612544,1.000199997413168,0.8561572388639211
7.1846272,1.000243948543998,0.7749090374633255
7.187641344,1.0002726196049574,0.693081968332074
7.190655488,1.000284328608275,0.6110086800682235
7.193670144,1.0002781723687646,0.5288823424658526
7.196684288,1.000254664195435,0.4469359344025157
7.199698432,1.0002152581570685,0.3654972987435071
7.202713088,1.0001621916508434,0.2846810124594885
7.205727232,1.0000991268103765,0.20468883880064875
7.208741376,1.0000298241924592,0.12568518662435157
7.211756032,0.9999588022044471,0.047707547278129855
7.214770176,0.9998903390777197,-0.02931033324039384
7.21778432,0.999828777568376,-0.10536607772937268
7.220798976,0.9997782305057594,-0.18059862877707264
