freq,mag,phase
6.0,1.0000705453175163,36.48217971231109
6.005204992,1.0001276813258664,36.35454768989929
6.010409984,1.0001774615298207,36.22621612000351
6.015614976,1.0002169367864917,36.09719842747686
6.020819968,1.000243576635513,35.96775473919589
6.02602496,1.0002558967189494,35.83798509483378
6.03122944,1.0002531408069046,35.70817671791483
6.036434432,1.0002354614604723,35.578493338690734
6.041639424,1.0002040021745924,35.449145310729826
6.046844416,1.0001604342301684,35.32034176678612
6.052049408,1.0001074392935267,35.19218794642768
6.0572544,1.0000481234623444,35.06485625134772
6.062459392,0.9999860824159842,34.93831262881407
6.067664384,0.9999249148181195,34.81266226186869
6.072869376,0.9998681853133691,34.68784261732432
6.078074368,0.999819480703108,34.56377587335289
6.08327936,0.9997814071802307,34.440309019491096
6.08848384,0.9997565491725242,34.31722589543769
6.093688832,0.9997460897908153,34.19444589232245
6.098893824,0.9997508387110213,34.071697728724544
6.104098816,0.9997704589374248,33.94874399268494
6.109303808,0.9998037602061126,33.825430627998976
6.1145088,0.9998488813217495,33.70153104508534
6.119713792,0.9999030656947633,33.57694747318338
6.124918784,0.9999631566951214,33.451612918433995
6.130123776,1.0000254574753293,33.32536107221677
6.135328768,1.000086414077852,33.19823980042687
6.14053376,1.0001423765048867,33.070331056727866
6.14573824,1.0001900199805827,32.941612832667616
6.150943232,1.0002264745839948,32.81235344875379
6.156148224,1.0002497189055242,32.68266521251724
6.161353216,1.0002582043627655,32.55272238801134
6.166558208,1.0002514818300623,32.4228191593197
6.1717632,1.00022989234086,32.293069715429645
6.176968192,1.0001948372037548,32.1636867168257
6.182173184,1.0001483223236765,32.03492919208677
6.187378176,1.000093070879479,31.906849242157982
6.192583168,1.0000323558017328,31.77956499138868
6.197787648,0.9999698100039371,31.653146844540153
6.20299264,0.9999091554654157,31.527591479424284
6.208197632,0.9998538469924476,31.402878837348073
6.213402624,0.9998074025842074,31.27886461591057
6.218607616,0.9997724018659342,31.155407578917817
6.223812608,0.9997510160734375,31.032326749212995
6.2290176,0.9997445241886906,30.90943393581011
6.234222592,0.999753241257635,30.786559547356504
6.239427584,0.9997766474378125,30.663444264081505
6.244632576,0.9998135450385277,30.53992021897433
6.249837568,0.9998615182805854,30.41573806686441
6.255042048,0.9999178789068321,30.290867382635142
6.26024704,0.9999792049523422,30.165162784121463
6.265452032,1.0000418985485915,30.03856664751556
6.270657024,1.00010224063079,29.9110612725859
6.275862016,1.0001567100568725,29.78281147207388
6.281067008,1.0002019125118315,29.653829835645695
6.286272,1.000235307035844,29.524275976373975
6.291476992,1.0002548965683622,29.39437987422789
6.296681984,1.0002594603527675,29.264271905641483
6.301886976,1.0002486749457669,29.134232258315738
6.307091968,1.0002233550523127,29.004409686105312
6.312296448,1.0001848470619545,28.87506061685484
6.31750144,1.00013540716956,28.74630722408663
6.322706432,1.0000781332808708,28.618284903889744
6.327911424,1.0000162593965864,28.491125835298856
6.333116416,0.9999534285722098,28.36482256496722
6.338321408,0.9998934712449619,28.23936767612731
6.3435264,0.9998398929660632,28.11471340990134
6.348731392,0.9997959348102831,27.99076981989519
6.353936384,0.9997640974109493,27.867293661318072
6.359141376,0.9997464374546132,27.744225277715984
6.364346368,0.9997439356151733,27.62123976017945
6.369550848,0.9997565888135429,27.49822448431404
6.37475584,0.9997838329662515,27.374883970021706
6.379960832,0.9998240848352955,27.251124893349438
6.385165824,0.9998748509810692,27.126667344247743
6.390370816,0.9999332150049428,27.00143360993289
6.395575808,0.9999956125871652,26.87540585125437
6.4007808,1.000058448886154,26.748431579508914
6.405985792,1.0001178908533546,26.62058558427833
6.411190784,1.0001705326032788,26.492021601691455
6.416395776,1.0002131672046397,26.362740407045052
6.421600768,1.000243304694635,26.232901623067796
6.426805248,1.0002591992420886,26.10278447762661
6.43201024,1.0002596850264485,25.972530165730436
6.437215232,1.0002449638596875,25.842381036645623
6.442420224,1.000215900719303,25.712545029034413
6.447625216,1.0001739906394649,25.583151812159823
6.452830208,1.0001219862829909,25.454453973531752
6.4580352,1.000062746241141,25.326531661727202
6.463240192,0.9999999321003082,25.19946156659601
6.468445184,0.9999370862444911,25.073236581872216
6.473650176,0.999878146111057,24.947891786207265
6.478855168,0.9998264924800531,24.82329823925137
6.484059648,0.999785204099051,24.699402947875726
6.48926464,0.9997567390069978,24.575960566150012
6.494469632,0.9997428110013624,24.452801701630023
6.499674624,0.9997442921867327,24.329739025297748
6.504879616,0.99976100184725,24.20653109803264
6.510084608,0.999792000083057,24.083018538221594
6.5152896,0.9998354819106434,23.95895205956065
6.520494592,0.9998888772644927,23.83419710471677
6.525699584,0.9999489318561549,23.708661750209487
6.530904576,1.0000121728119868,23.582230368594338
6.536109056,1.000074845107671,23.454891728312315
6.541314048,1.0001333151549439,23.326769177688355
6.54651904,1.000183919048724,23.197826539852628
6.551724032,1.0002237737725197,23.0682257541902
6.556929024,1.0002504460840869,22.93815643639507
6.562134016,1.0002624092236236,22.807828740234058
6.567339008,1.0002589391853423,22.677433799592773
6.572544,1.0002402616921444,22.547190787625787
6.577748992,1.0002074146938593,22.417293446398304
6.582953984,1.000162410435132,22.287923572799542
6.588158976,1.0001078474693128,22.159323468184333
6.593363456,1.0000469313824003,22.03146404962552
6.598568448,0.999983298136831,21.90447927845594
6.60377344,0.9999207636236714,21.778358854437585
6.608978432,0.9998630782468262,21.65312169001715
6.614183424,0.9998135189496552,21.52859912234035
6.619388416,0.9997752135462186,21.40470140099767
6.624593408,0.9997502322956402,21.281257904942798
6.6297984,0.9997402180506214,21.158041297010534
6.635003392,0.9997456478404855,21.03484599584161
6.640208384,0.9997663486786648,20.911488891489505
6.645413376,0.9998010422153517,20.787692727787586
6.650617856,0.9998476616208485,20.663372858677096
6.655822848,0.9999034148501187,20.53829173558968
6.66102784,0.9999651065729914,20.412387507161476
6.666232832,1.000028899758004,20.285594165792237
6.671437824,1.0000912432903395,20.157936204260587
6.676642816,1.0001482671782107,20.02942651014864
6.681847808,1.0001966686578254,19.90014584523028
6.6870528,1.0002334829256947,19.770269377145908
6.692257792,1.0002566297827369,19.639964682802947
6.697462784,1.0002646777777362,19.509446049809124
6.702667776,1.0002571892234802,19.378929780376296
6.707872256,1.000234596380735,19.248593950070376
6.713077248,1.0001980948996867,19.118664395059312
6.71828224,1.0001499696686693,18.989334618140788
6.723487232,1.0000930897195142,18.86074405549996
6.728692224,1.000030738402653,18.73295852247506
6.733897216,0.9999666247903174,18.606087626485188
6.739102208,0.9999046845998348,18.48010142619055
6.7443072,0.9998483798984311,18.354900113598845
6.749512192,0.9998011845841637,18.230450406966188
6.754717184,0.9997658487065914,18.106570884926683
6.759922176,0.9997445067784183,17.98310059965526
6.765126656,0.9997384402550218,17.85977919398328
6.770331648,0.9997479911115621,17.736474261527643
6.77553664,0.9997726595229659,17.612920523498058
6.780741632,0.9998109265517339,17.48889848811591
6.785946624,0.9998605427907625,17.3642768170738
6.791151616,0.9999184609543068,17.2388411052846
6.796356608,0.9999815408812398,17.112572473293767
6.8015616,1.0000457310269442,16.98543077694563
6.806766592,1.000107446735638,16.857378316935325
6.811971584,1.0001628770540676,16.72849720552201
6.817176064,1.0002087823522297,16.59891990369057
6.822381056,1.0002424422070566,16.468773305757132
6.827586048,1.0002619411113851,16.338234777254673
6.83279104,1.000266003978671,16.20755125484079
6.837996032,1.0002544172179668,16.07686729053775
6.843201024,1.0002278443649686,15.946470597146945
6.848406016,1.0001878729663598,15.816544813357234
6.853611008,1.0001368664839037,15.687236688641674
6.858816,1.000077894113839,15.558691510638512
6.864020992,1.0000142697715089,15.431021892624221
6.869225984,0.9999499499070714,15.304234502816929
6.874430464,0.9998887725158233,15.178352274546778
6.879635456,0.9998340666907657,15.053213357887403
6.884840448,0.9997894900138147,14.928842034799906
6.89004544,0.9997574034546564,14.804957163743893
6.895250432,0.9997398624961678,14.681418143250726
6.900455424,0.9997378241778128,14.558042033168135
6.905660416,0.9997513919417332,14.434559713512968
6.910865408,0.9997799050961402,14.310756210542191
6.9160704,0.9998216477876655,14.186490163374163
6.921275392,0.9998740762054227,14.061537419491563
6.926480384,0.9999341429433694,13.935789374055801
6.931684864,0.9999981535741326,13.80918134092083
6.936889856,1.0000625826712741,13.68165512144598
6.942094848,1.0001233724063618,13.553225822531573
6.94729984,1.0001770368223064,13.424029345350478
6.952504832,1.0002202793521222,13.294117042660522
6.957709824,1.0002506558982993,13.16367422328109
6.962914816,1.00026626742756,13.032921020640526
6.968119808,1.000266313160688,12.902038869514774
6.9733248,1.0002506355031398,12.77125516253904
6.978529792,1.000220135905542,12.640796263901292
6.983734784,1.0001768175026196,12.510836118592003
6.988939264,1.000123019432448,12.38158104407355
6.994144256,1.0000621231075508,12.25310385987384
6.999349248,0.9999975750144081,12.125515809396747
7.00455424,0.999933237416721,11.998833046585405
7.009759232,0.9998729495342655,11.873001552225116
7.014964224,0.9998202700731977,11.747990133420219
7.020169216,0.9997783335434489,11.623615753530038
7.025374208,0.9997496940182802,11.499731004775906
7.0305792,0.9997359659098685,11.376140699495457
7.035784192,0.999738086466031,11.252639328343596
7.040989184,0.9997557932378224,11.128981759536304
7.046193664,0.9997881484966801,11.004981160008617
7.051398656,0.9998331818804521,10.88038718787261
7.056603648,0.9998883411190339,10.755127440624968
7.06180864,0.9999501628787025,10.629068704832953
7.067013632,1.0000151671050181,10.502064318200084
7.072218624,1.0000792860173513,10.37417278525224
7.077423616,1.0001390262348655,10.245366382438771
7.082628608,1.0001906051522482,10.115773766545201
7.0878336,1.0002310049050154,9.985540500129469
7.093038592,1.0002579224620711,9.854854256306368
7.098243584,1.000269620709815,9.723878254839487
7.103448064,1.0002655223463524,9.592848968447939
7.108653056,1.0002457443117823,9.461963537226566
7.113858048,1.0002115824915472,9.331462281109085
7.11906304,1.0001649462796822,9.201517942955956
7.124268032,1.0001085838978576,9.072290361677297
7.129473024,1.0000459778291266,8.943909843442011
7.134678016,0.9999805674669507,8.816388679381808
7.139883008,0.9999164898736208,8.689799623304006
7.145088,0.9998575155034122,8.564059161048602
7.150292992,0.9998070024763608,8.439084104828197
7.155497472,0.9997679866697201,8.31470856349506
7.160702464,0.9997429639787108,8.190830587723603
7.165907456,0.9997332168933378,8.067168796986802
7.171112448,0.9997394248294401,7.943498463188123
7.17631744,0.9997611949640749,7.819685800162822
7.181522432,0.9997973225858956,7.695422337209397
7.186727424,0.9998456210912063,7.57055163408532
7.191932416,0.999903180106203,7.444957128433409
7.197137408,0.999966576095624,7.318498076096476
7.2023424,1.0000321258530658,7.191149400421567
7.207547392,1.0000960277039597,7.062854915322952
7.212751872,1.0001543336059984,6.933680957264077
7.217956864,1.0002037066512794,6.803788092002863
7.223161856,1.0002410957618024,6.6732521901465125
7.228366848,1.0002642830791884,6.542269912051507
7.23357184,1.0002719516403393,6.411083926582875
7.238776832,1.0002637451786616,6.279925995419247
7.243981824,1.000239914988354,6.148956313476126
7.249186816,1.0002020280431319,6.018412964201039
7.254391808,1.0001522836673111,5.88847474579174
7.2595968,1.00009345491892,5.759289463387399
7.264801792,1.0000293631009056,5.630967796278939
7.270006272,0.9999635988184149,5.5035666062794775
7.275211264,0.9998999524355486,5.377052609795559
7.280416256,0.9998424397880167,5.2513821518541155
7.285621248,0.9997943191041885,5.126483655181231
7.29082624,0.9997584796641656,5.002116316903177
7.296031232,0.9997371275830716,4.878199808066546
7.301236224,0.9997314334951029,4.754427197255153
7.306441216,0.9997418464528739,4.630625489491387
7.311646208,0.9997675915556782,4.506582169981463
7.3168512,0.9998074072106864,4.382053685676779
7.322056192,0.9998586911960567,4.256885287311642
7.327260672,0.9999186016475433,4.130948615661471
7.332465664,0.9999833856535287,4.004133932679597
7.337670656,1.000049381766452,3.8763413282927446
7.342875648,1.0001125353118938,3.7476853056842856
7.34808064,1.0001692325270792,3.618152104550948
7.353285632,1.0002161064440467,3.4878992179505834
7.358490624,1.0002502911848203,3.3570709018310336
7.363695616,1.0002697210505782,3.225857607425244
7.368900608,1.0002733454718167,3.094481506113015
7.3741056,1.0002608848562666,2.9631325119212675
7.379310592,1.0002330039476788,2.8320931309255206
7.384515072,1.0001914724616956,2.7015218092124598
7.389720064,1.000138794870993,2.571634564538549
7.394925056,1.000077792318758,2.442479198676616
7.400130048,1.0000123977646138,2.314254117998698
7.40533504,0.999946287099944,2.1869095639761746
7.410540032,0.9998835142619368,2.0605116212020356
7.415745024,0.9998276362451326,1.9349085344978265
7.420950016,0.9997822092417593,1.8100135726121418
7.426155008,0.9997496990994701,1.6856816704166175
7.43136,0.9997321410265957,1.5616936221200997
7.436564992,0.9997305790542587,1.4378056569557454
7.441769472,0.9997451735965429,1.3138571966469401
7.446974464,0.9997750039109561,1.1895974654645731
7.452179456,0.9998183563725395,1.0647853483274807
7.457384448,0.9998725174329696,0.9393040734662993
7.46258944,0.99993442028504,0.8129781712985108
7.467794432,1.0000005180203333,0.6857669571427207
7.472999424,1.0000665494920062,0.5575913799269775
7.478204416,1.0001289451862927,0.42854364155233654
7.483409408,1.0001837011261756,0.29867542809587816
7.4886144,1.0002278207757132,0.1680707157473745
7.49381888,1.0002586536925997,0.036945701856393606
7.499023872,1.0002742305442118,-0.09449836375041978
7.504228864,1.0002736233564922,-0.22607553844958797
7.509433856,1.000256939001191,-0.35752894406280855
7.514638848,1.000225317846858,-0.48861678234878586
7.51984384,1.0001801274173654,-0.6192440328452977
7.525048832,1.0001245832591226,-0.7491220228820569
7.530253824,1.0000616769367678,-0.8781854019366366
7.535458816,0.9999952185339309,-1.0063475766482548
7.540663808,0.9999291417327726,-1.1335704797524455
7.5458688,0.9998673525315032,-1.2599109145136826
7.55107328,0.9998134730260787,-1.3854349553158123
7.556278272,0.9997708223380536,-1.5103023898295993
7.561483264,0.9997417248844271,-1.6346593902245115
7.566688256,0.999728158556357,-1.7587409467470694
7.571893248,0.999730854148555,-1.8827275444882592
7.57709824,0.9997496729637825,-2.0068926504557605
7.582303232,0.9997834431298902,-2.1314158154427236
7.587508224,0.9998300762637603,-2.25649186316829
7.592713216,0.999887108753825,-2.3823331585172736
7.597918208,0.9999509167004098,-2.5089966199015863
7.6031232,1.0000178199536187,-2.636607381115318
7.60832768,1.00008381463477,-2.765167305461089
7.613532672,1.0001449451244881,-2.894598362746337
7.618737664,1.0001978058948249,-3.024851145834792
7.623942656,1.0002388860752456,-3.155776248062304
7.629147648,1.00026615865138,-3.287181483235791
7.63435264,1.0002776938526396,-3.4188841428736843
7.639557632,1.0002728898976123,-3.5506327732465297
7.644762624,1.0002520346409725,-3.682207040267456
7.649967616,1.0002163950742127,-3.8133859806494357
7.655172608,1.0001680589943462,-3.9439646276412597
7.6603776,1.0001097867689017,-4.073823603218495
7.66558208,1.0000450795334694,-4.202828535556411
7.670787072,0.9999778653082599,-4.330910566477233
7.675992064,0.9999120516739682,-4.458035205257533
7.681197056,0.9998514422075847,-4.584308597008438
7.686402048,0.9997997155526812,-4.709777815806599
7.69160704,0.9997600958491312,-4.834620620479514
7.696812032,0.9997347383643418,-4.9590002301466365
7.702017024,0.9997252096157625,-5.083184417210328
7.707222016,0.9997320994288439,-5.2073271704555735
7.712427008,0.9997549629895041,-5.331630728438183
7.717632,0.9997927168799362,-5.456434579963209
7.72283648,0.9998426247723895,-5.581851418162552
7.728041472,0.99990217732396,-5.708046402621584
7.733246464,0.999967697824916,-5.835087745341217
7.738451456,1.0000352683139253,-5.963104090970105
7.743656448,1.0001009822131008,-6.092027798624246
7.74886144,1.0001607146584635,-6.221872735987153
7.754066432,1.000211137165386,-6.35250775981463
7.759271424,1.0002492329744614,-6.483759306754115
7.764476416,1.0002727488608574,-6.61543133557663
7.769681408,1.0002801741874097,-6.747355195958482
7.774885888,1.0002710513660331,-6.879249009185679
7.78009088,1.0002461246333807,-7.010908785387422
7.785295872,1.0002066234929685,-7.1421474627325034
7.790500864,1.0001549529007654,-7.272752100952946
7.795705856,1.0000943005222263,-7.402550534184756
7.800910848,1.0000281320658282,-7.531475034199872
7.80611584,0.999960242006131,-7.65947234967693
7.811320832,0.9998948496211164,-7.786542443409815
7.816525824,0.9998359416860267,-7.9127358339088385
7.821730816,0.9997865588416301,-8.038177758540817
7.826935808,0.9997500946915446,-8.163004757338555
7.832140288,0.999728669110196,-8.287458324910675
7.83734528,0.9997232711802886,-8.411699918163325
7.842550272,0.999734495085125,-8.5360063931138
7.847755264,0.9997616087303336,-8.660570354104681
7.852960256,0.9998028727482579,-8.785647488325038
7.858165248,0.9998561348861823,-8.911373016479438
7.86337024,0.9999179452336004,-9.03792978666594
7.868575232,0.9999848942694398,-9.165377681760805
7.873780224,1.0000529081697598,-9.293795868706749
7.878985216,1.000117849433142,-9.423155565828626
7.884190208,1.000176101730654,-9.553361928054397
7.889394688,1.0002239945351812,-9.684349306555001
7.89459968,1.0002587684641273,-9.815918458624473
7.899804672,1.000278354795716,-9.947870501877492
7.905009664,1.0002816450352154,-10.079956869971848
7.910214656,1.0002682310842497,-10.212030386554341
7.915419648,1.0002391743571095,-10.34380439793299
7.92062464,1.0001959364616193,-10.475073717014377
7.925829632,1.0001412060724066,-10.605683926668439
7.931034624,1.0000782335650755,-10.735418001003287
7.936239616,1.0000106451139579,-10.864288195661514
7.941444608,0.9999425616205198,-10.9921993375309
7.946649088,0.9998779494741059,-11.119154867805012
7.95185408,0.99982069158733,-11.245306913961704
7.957059072,0.9997740855279353,-11.370718628235714
7.962264064,0.9997409976584629,-11.495549933703076
7.967469056,0.9997234354175099,-11.620069178146254
7.972674048,0.9997222149302677,-11.744438928465776
7.97787904,0.9997378638008467,-11.86890192604564
7.983084032,0.9997689769502828,-11.9937281020095
7.988289024,0.9998140661992355,-12.11907340254381
7.993494016,0.9998702215301565,-12.245147398029934
7.998699008,0.9999343311806881,-12.37206784185171
8.003903488,1.0000024558851746,-12.499924541305885
8.00910848,1.00007053408724,-12.628758559165354
8.014313472,1.000134709099972,-12.758523847722467
8.019518464,1.0001909764872314,-12.889125729692092
8.024723456,1.0002361481564699,-13.020450186058008
8.029928448,1.000267507346641,-13.152339849041
8.03513344,1.0002830411789279,-13.28454833017118
8.040338432,1.000281994656193,-13.416847742685212
8.045543424,1.000264330958075,-13.549059024563709
8.050748416,1.0002311920416214,-13.680926537881536
8.055953408,1.0001843567042124,-13.812209042745385
8.061157888,1.0001267146271338,-13.942773696109652
8.06636288,1.0000616730663623,-14.072510878491288
8.071567872,0.9999930245005618,-14.201261005023962
8.076772864,0.9999249366905264,-14.329090123910296
8.081977856,0.9998612720425539,-14.45601918925055
8.087182848,0.9998060699910855,-14.582064608250857
8.09238784,0.9997623371365995,-14.707458537540026
8.097592832,0.9997327962276426,-14.83234907926596
8.102797824,0.9997193179069428,-14.956907023215063
