freq,mag,phase
6.0,1.0001965374196582,-52.75701658544604
6.006843392,1.0001139227876492,-53.05170478740121
6.013686784,1.0000233329562773,-53.345229674400734
6.020530176,0.9999311968166854,-53.637674098757145
6.027373568,0.999842922581385,-53.92891728621477
6.034217472,0.9997632510390767,-54.219033539880705
6.041060864,0.9996966694984323,-54.50833180761662
6.047904256,0.9996471096632641,-54.796838018045364
6.054747648,0.9996171304285736,-55.084913955873645
6.06159104,0.9996085918917147,-55.372806764968054
6.068434432,0.9996220455939238,-55.6608059846574
6.075277824,0.9996566282586011,-55.949182854202185
6.082121216,0.9997105820509573,-56.238245468219226
6.08896512,0.9997808668426952,-56.52822647839673
6.095808512,0.999863484084402,-56.81934737873598
6.102651904,0.9999540247716134,-57.11171437701165
6.109495296,1.0000475040726242,-57.405424422354976
6.116338688,1.0001383333103344,-57.70047238886989
6.12318208,1.000221839909188,-57.996776000754124
6.130025472,1.00029307783542,-58.294210027561945
6.136868864,1.0003479958326975,-58.59258033041872
6.143712768,1.0003836566608961,-58.89169107796418
6.15055616,1.000398043868986,-59.19120137440775
6.157399552,1.0003902757927556,-59.49081161677229
6.164242944,1.0003605980415582,-59.79028448959838
6.171086336,1.0003108622719163,-60.089302414277356
6.177929728,1.0002437939708226,-60.38762497249687
6.18477312,1.0001629083182877,-60.68496027615144
6.191616512,1.0000729228112548,-60.98125671824803
6.198460416,0.9999785413540221,-61.27638504011013
6.205303808,0.9998853278061304,-61.57027911625325
6.2121472,0.9997984397721814,-61.86305189939515
6.218990592,0.9997227027496138,-62.15474092645471
6.225833984,0.9996623478197307,-62.44562951628896
6.232677376,0.9996208477069033,-62.73590526695627
6.239520768,0.9996005420618927,-63.025766496210736
6.24636416,0.9996024476870753,-63.31565918233814
6.253208064,0.9996268218699975,-63.60577305293546
6.260051456,0.9996721879654779,-63.89636096435907
6.266894848,0.9997358193021064,-64.18786787412493
6.27373824,0.9998146340332574,-64.48037563427809
6.280581632,0.9999038750242681,-64.77409729244877
6.287425024,0.9999987889416623,-65.06917978747965
6.294268416,1.0000939755158662,-65.36560137907128
6.301111808,1.0001841001493397,-65.66341249247446
6.307955712,1.0002641679089963,-65.96244465310554
6.314799104,1.0003297164594698,-66.26254320671353
6.321642496,1.0003772106790738,-66.56347201611968
6.328485888,1.0004035594214147,-66.86502369705049
6.33532928,1.000407517786319,-67.16682089674991
6.342172672,1.000388683231952,-67.46863701505397
6.349016064,1.000348267660234,-67.77017888389834
6.355859456,1.000288438386498,-68.07101818977442
6.36270336,1.0002121613262052,-68.37108537361716
6.369546752,1.0001241889588952,-68.67007828639112
6.376390144,1.0000290777840335,-68.96790100768817
6.383233536,0.9999322487136827,-69.26449885244612
6.390076928,0.9998391326474304,-69.55988402248629
6.39692032,0.9997547693762164,-69.85413384859882
6.403763712,0.9996840281160171,-70.14743170430546
6.410607104,0.9996307816180099,-70.43992264687355
6.417451008,0.9995983918517966,-70.73189146995553
6.4242944,0.9995882554253306,-71.0236486763474
6.431137792,0.9996012122483313,-71.31550994724277
6.437981184,0.9996365769736941,-71.60775865565435
6.444824576,0.9996923480598069,-71.90070800146367
6.451667968,0.9997654137271216,-72.1946239690529
6.45851136,0.9998519647740929,-72.48969368201493
6.465354752,0.9999469283182816,-72.78604393776426
6.472198656,1.0000451677860536,-73.08382883983954
6.479042048,1.0001410348128588,-73.38299583851799
6.48588544,1.0002292239379384,-73.68350188275762
6.492728832,1.0003048926158729,-73.98517814463952
6.499572224,1.0003638263120398,-74.28789794902457
6.506415616,1.0004025302249904,-74.59132909445954
6.513259008,1.0004188152821998,-74.89523326596016
6.5201024,1.000411989115506,-75.19925783967416
6.526946304,1.000382171018077,-75.50315509379926
6.533789696,1.0003308820246974,-75.80656064802156
6.540633088,1.000261106214252,-76.10922053844004
6.54747648,1.0001767093417335,-76.41087736419733
6.554319872,1.0000824293134425,-76.71144944528966
6.561163264,0.9999833681093308,-77.01076588022195
6.568006656,0.9998850099791675,-77.30878466491289
6.574850048,0.9997930175928517,-77.6056133491627
6.581693952,0.9997123281166826,-77.90136155408253
6.588537344,0.9996477078724023,-78.19614089263533
6.595380736,0.9996028743045485,-78.49026159642358
6.602224128,0.999580125032001,-78.78396329801889
6.60906752,0.999580813836461,-79.0776271888463
6.615910912,0.9996049217716343,-79.3715018299561
6.622754304,0.9996513427690576,-79.66593975150376
6.629597696,0.999717272229036,-79.9612006717891
6.6364416,0.9997993109186719,-80.25755633080638
6.643284992,0.9998927398565628,-80.55516846484294
6.650128384,0.999992400718437,-80.85421105896008
6.656971776,1.0000927345050057,-81.154658858964
6.663815168,1.0001881681064342,-81.4565193483854
6.67065856,1.0002734467897114,-81.75968282098344
6.677501952,1.0003436765477556,-82.06398055090924
6.684345344,1.000394692066744,-82.36922005430118
6.691189248,1.000424066239943,-82.67502283914504
6.69803264,1.0004297834442548,-82.98117410931943
6.704876032,1.0004116319802732,-83.28736057943124
6.711719424,1.0003704506066047,-83.59316089841887
6.718562816,1.0003086775563619,-83.89836512104058
6.725406208,1.0002296526695493,-84.20271182701929
6.7322496,1.000137581317129,-84.50593031166821
6.739092992,1.0000377343973634,-84.80795113272788
6.745936896,0.9999357208811377,-85.10865371526369
6.752780288,0.9998370814114733,-85.40805513045458
6.75962368,0.9997475060341634,-85.70623901766635
6.766467072,0.999671765629325,-86.00342468210765
6.773310464,0.9996143118848996,-86.29970395078216
6.780153856,0.9995784118483871,-86.59541820460804
6.786997248,0.9995660231730363,-86.89090729861945
6.79384064,0.9995779408099126,-87.18647944204162
6.800684544,0.9996135115652156,-87.48237826941093
6.807527936,0.999670873851521,-87.77900548499976
6.814371328,0.999746720298263,-88.0766361857047
6.82121472,0.9998368915529413,-88.37543180156338
6.828058112,0.9999363865104464,-88.67558336419822
6.834901504,1.0000398818241423,-88.97721846908348
6.841744896,1.000141242153422,-89.280324911082
6.848588288,1.0002351146040958,-89.58482202717695
6.855432192,1.0003161795406,-89.89056452487914
6.862275584,1.0003796579962625,-90.19739416803274
6.869118976,1.0004221239354143,-90.50504805633669
6.875962368,1.0004413384867186,-90.81317543880486
6.88280576,1.0004357733627447,-91.12146263576159
6.889649152,1.0004061575149226,-91.42958620745055
6.896492544,1.000353873803016,-91.73723188331884
6.903335936,1.000281755814479,-92.04412017035467
6.91017984,1.0001939091736636,-92.34998042779574
6.917023232,1.0000950471418,-92.65467933145352
6.923866624,0.9999906209307496,-92.9580269716482
6.930710016,0.9998867423705863,-93.26002252935037
6.937553408,0.9997889581060354,-93.56074256584576
6.9443968,0.9997027787471467,-93.86030327114831
6.951240192,0.9996332158047576,-94.1588101727787
6.958083584,0.9995839012566947,-94.45659354275071
6.964927488,0.9995579690460266,-94.75388153899961
6.97177088,0.9995565334350792,-95.05112445068421
6.978614272,0.9995799732648497,-95.34854909716907
6.985457664,0.999627035073764,-95.64653184753783
6.992301056,0.999695079838271,-95.94533633074786
6.999144448,0.9997802873742607,-96.24528065531761
7.00598784,0.9998780280703604,-96.5464928341845
7.012831232,0.9999828128610097,-96.84921637311686
7.019675136,1.0000888012713116,-97.15344351566033
7.026518528,1.000190241387788,-97.45910732120775
7.03336192,1.0002812475389335,-97.76617748379697
7.040205312,1.0003568000568595,-98.07445043968605
7.047048704,1.0004127068028603,-98.38368278131284
7.053892096,1.0004457111316458,-98.69359313188473
7.060735488,1.0004540810279536,-99.00388445961813
7.06757888,1.0004371024608956,-99.31419436362468
7.074422784,1.0003958570229996,-99.62416250585109
7.081266176,1.0003323998398785,-99.93351473681834
7.088109568,1.000250470240609,-100.24190878974548
7.09495296,1.0001543498042063,-100.54918652494028
7.101796352,1.0000496177124438,-100.85515537227278
7.108639744,0.999941856535312,-101.15977920145278
7.115483136,0.9998370857571371,-101.46303918095776
7.122326528,0.9997414456761986,-101.76494405993427
7.129170432,0.9996600349792716,-102.06573750576327
7.136013824,0.9995973974171605,-102.36558377317068
7.142857216,0.9995572798018654,-102.66481201271627
7.149700608,0.9995418528993305,-102.96373508712082
7.156544,0.9995520596850582,-103.26266383549904
7.163387392,0.9995872626440568,-103.56197090287323
7.170230784,0.9996457157212024,-103.86198213978746
7.177074176,0.9997240769311387,-104.16297008314872
7.18391808,0.9998181848243061,-104.46522485074935
7.190761472,0.9999225737298161,-104.7688544980348
7.197604864,1.0000315785073424,-105.07402705409223
7.204448256,1.0001391999646798,-105.3807441324224
7.211291648,1.0002392880116173,-105.688945631724
7.21813504,1.0003262842028606,-105.99849118192066
7.224978432,1.0003953308252422,-106.30917638872566
7.231821824,1.0004426294380304,-106.62072330110892
7.238665728,1.0004654296421087,-106.93278361973938
7.24550912,1.0004621754063132,-107.24508561640064
7.252352512,1.000433435533504,-107.55722073434397
7.259195904,1.000380404283385,-107.8689194377854
7.266039296,1.0003062709813946,-108.17977400575273
7.272882688,1.0002149451075284,-108.48955545027641
7.27972608,1.0001113034429472,-108.79813343191779
7.286569472,1.0000014574946678,-109.10530235568815
7.293413376,0.999891365795232,-109.41104219421366
7.300256768,0.9997871542945421,-109.71536349060956
7.30710016,0.9996947057309673,-110.01841972628837
7.313943552,0.9996190398230043,-110.32041129351082
7.320786944,0.9995646136660225,-110.62152249787573
7.327630336,0.9995344209474201,-110.9221615385295
7.334473728,0.9995302570983925,-111.22260909932662
7.34131712,0.9995522757158961,-111.52326213137518
7.348161024,0.9995994834697328,-111.82439615454905
7.355004416,0.9996692444039159,-112.12641333414572
7.361847808,0.9997576016972589,-112.42954121516884
7.3686912,0.9998596962458949,-112.73407103943889
7.375534592,0.9999700061192784,-113.04006457327161
7.382377984,1.000082202905164,-113.34767802390844
7.389221376,1.000190178331925,-113.65680688645162
7.396064768,1.0002878235041575,-113.96744330417167
7.402908672,1.0003697112336325,-114.27933375462469
7.409752064,1.0004312177397168,-114.59228720160418
7.416595456,1.0004689002040401,-114.905981914535
7.423438848,1.0004805341763314,-115.22007212649265
7.43028224,1.0004655803655678,-115.53422768031218
7.437125632,1.0004247282404592,-115.84805299685391
7.443969024,1.0003600607763568,-116.16122395833536
7.450812416,1.0002752895567568,-116.4734702911675
7.45765632,1.0001751519918163,-116.78452417509074
7.464499712,1.000065024502832,-117.0941798604755
7.471343104,0.9999511618006304,-117.40237497579677
7.478186496,0.9998397232987379,-117.70914156085603
7.485029888,0.9997371828281304,-118.01446368336151
7.49187328,0.9996490985104332,-118.31855888248995
7.498716672,0.9995803737695725,-118.62163171816799
7.505560064,0.9995351669967106,-118.92397903994173
7.512403968,0.9995157012490683,-119.2259837518737
7.51924736,0.99952339677372,-119.52792326103182
7.526090752,0.9995576831528767,-119.83020708040473
7.532934144,0.9996167896441503,-120.13316593551065
7.539777536,0.9996974820334521,-120.43713261443352
7.546620928,0.9997952785929861,-120.7423713462621
7.55346432,0.9999048027939899,-121.04911640287877
7.560307712,1.0000199692408742,-121.35740865218266
7.567151616,1.0001342011984198,-121.66734677551096
7.573995008,1.000241298838333,-121.97883660199673
7.5808384,1.000335344099819,-122.29178872241333
7.587681792,1.0004109565325747,-122.60589395265704
7.594525184,1.000463761199919,-122.9209875754156
7.601368576,1.000491054795135,-123.2366578354935
7.608211968,1.0004910082083254,-123.55260481535576
7.61505536,1.0004637650922363,-123.86842184607652
7.621899264,1.0004106071640322,-124.18377532279838
7.628742656,1.0003344442292612,-124.49830195833542
7.635586048,1.000239713426491,-124.81168853904103
7.64242944,1.000131370111795,-125.12379878244211
7.649272832,1.000015536348384,-125.43442328237626
7.656116224,0.9998986608545946,-125.74354664084008
7.662959616,0.9997873176491762,-126.05114392557361
7.669803008,0.9996875582491367,-126.35734353722411
7.676646912,0.9996050470983654,-126.66238717154592
7.683490304,0.9995444321917876,-126.96651033481753
7.690333696,0.9995091843541968,-127.27001100122504
7.697177088,0.9995012670405503,-127.57324144606277
7.70402048,0.9995213083995491,-127.87662133156685
7.710863872,0.999568046236815,-128.18051404116724
7.717707264,0.9996390732477153,-128.48526866846157
7.724550656,0.9997304557582438,-128.79115142424334
7.73139456,0.9998371178131792,-129.09844284905094
7.738237952,0.9999531701182867,-129.40730071899333
7.745081344,1.0000720565000587,-129.71781837762813
7.751924736,1.0001873895863447,-130.0299842302123
7.758768128,1.0002925152156052,-130.34371380516882
7.76561152,1.0003815925363986,-130.65877286522877
7.772454912,1.0004497433684767,-130.9750409036384
7.779298304,1.0004930466019355,-131.29211266111554
7.786142208,1.0005090692659533,-131.60958663921107
7.7929856,1.000496721549546,-131.9272167803564
7.799828992,1.0004568998898866,-132.24448396730202
7.806672384,1.0003915721146635,-132.56113436655724
7.813515776,1.000304199680593,-132.87678922659538
7.820359168,1.0001999104307235,-133.19121089039356
7.82720256,1.0000842207848766,-133.50420389054827
7.834045952,0.9999637360612198,-133.81560547075694
7.840889856,0.9998449422042051,-134.1254567689557
7.847733248,0.9997346781557154,-134.43379079996518
7.85457664,0.9996389403267195,-134.74080081366697
7.861420032,0.999563251391937,-135.04665087343304
7.868263424,0.9995117836200367,-135.3516726763915
7.875106816,0.9994874551535112,-135.65624444804087
7.881950208,0.9994916809047086,-135.96073031846933
7.8887936,0.999524398518065,-136.26545600339722
7.895637504,0.9995837701596224,-136.57091693747478
7.902480896,0.999666513676602,-136.87733572372665
7.909324288,0.9997680310197692,-137.18511116919979
7.91616768,0.9998828969219261,-137.49435510277686
7.923011072,1.0000045085116342,-137.80528384304972
7.929854464,1.0001262853453354,-138.11792147336652
7.936697856,1.0002412913041576,-138.4321905798205
7.943541248,1.0003431855675555,-138.74801326522922
7.950385152,1.0004262509262214,-139.06513109005792
7.957228544,1.000485865281223,-139.3833026665416
7.964071936,1.0005186012007485,-139.70213187743119
7.970915328,1.0005226703675107,-140.02129585894667
7.97775872,1.0004976042818967,-140.34032588587584
7.984602112,1.0004448573331854,-140.65889713782678
7.991445504,1.0003673355305014,-140.9766684592993
7.998288896,1.000269222059595,-141.29328093157298
8.0051328,1.0001559346694668,-141.60848475411737
8.011976192,1.0000337863646236,-141.9221716122704
8.018819584,0.9999094861947281,-142.2342314103417
8.025662976,0.9997901619235522,-142.54463439678588
8.032506368,0.9996822457575663,-142.85355193670142
8.03934976,0.9995917598402455,-143.1611780593561
8.046193152,0.9995239731609306,-143.46775766491078
8.053036544,0.9994825998909926,-143.77362931080145
8.059880448,0.9994700604681137,-144.07915225662242
8.06672384,0.9994871099622419,-144.3847390158505
8.073567232,0.9995327722817369,-144.69084162496355
8.080410624,0.9996047750647228,-144.99774156903712
8.087254016,0.9996989768119816,-145.3058148254103
8.094097408,0.9998101991328019,-145.6153296857939
8.1009408,0.9999323200546963,-145.9264912206077
8.107784192,1.0000586582731186,-146.2393889703822
8.114628096,1.000181965969578,-146.5539876346147
8.121471488,1.0002955341467636,-146.87028189670914
8.12831488,1.000392859325099,-147.1880554517226
8.135158272,1.0004687812280564,-147.50702333700283
8.142001664,1.000518733229481,-147.8269331489825
8.148845056,1.0005399915756974,-148.1473789140372
8.155688448,1.0005313787334065,-148.46794249416746
8.16253184,1.0004931293972872,-148.78824235275485
8.169375744,1.0004275614848672,-149.10790172774085
8.176219136,1.000337961602127,-149.42651917007944
8.183062528,1.000229458640937,-149.74387815616527
8.18990592,1.0001079685150012,-150.05970923663563
8.196749312,0.9999801997128663,-150.37385859744998
8.203592704,0.9998534297264369,-150.68633656812395
8.210436096,0.9997344370922576,-150.99717494524666
8.217279488,0.9996301053890345,-151.30654382801308
8.224123392,0.9995462326993333,-151.6146621944488
8.230966784,0.9994874715750552,-151.9218377837335
8.237810176,0.9994572354757161,-152.2284397353638
8.244653568,0.9994571916966736,-152.53486336417163
8.25149696,0.9994874877265302,-152.84153144080372
8.258340352,0.9995465189266818,-153.14881087210446
8.265183744,0.9996309304711616,-153.4571193185343
8.272027136,0.9997362246824132,-153.76675965148317
8.27887104,0.99985651499021,-154.07796019259783
8.285714432,0.9999850947908088,-154.390891743105
8.292557824,1.0001149306106987,-154.7056378487618
8.299401216,1.0002386598059352,-155.02214202136176
8.306244608,1.0003495510837488,-155.34026001727273
8.313088,1.0004412218323553,-155.6598221510783
8.319931392,1.0005086417633506,-155.9805018396572
8.326774784,1.0005479374495325,-156.30195593674156
8.333618688,1.0005569016869782,-156.6237538059818
8.34046208,1.0005349401349972,-156.94554117471077
8.347305472,1.0004833132280744,-157.26685902403105
8.354148864,1.000404644986643,-157.58736260283885
8.360992256,1.000303402837669,-157.90666858297467
8.367835648,1.0001849856079654,-158.22452632380245
8.37467904,1.0000561365197183,-158.54073790568142
8.381522432,0.9999238742339452,-158.855204943529
8.388366336,0.9997955752488259,-159.16792346889798
8.395209728,0.999678369380314,-159.4790151306691
8.40205312,0.9995789346321409,-159.7886802672916
8.408896512,0.9995028322166581,-160.0971696255412
8.415739904,0.9994542690945698,-160.4048080459869
8.422583296,0.9994360420442621,-160.7120219303276
8.429426688,0.9994492170214415,-161.01923478193387
8.43627008,0.9994931482978627,-161.3268558241783
8.443113984,0.9995655863111398,-161.63531719986202
8.449957376,0.9996624450575067,-161.944920966955
8.456800768,0.9997783591331074,-162.25604528086194
8.46364416,0.9999069745663011,-162.5688377621808
8.470487552,1.0000411227245678,-162.88345464092927
8.477330944,1.0001733166628815,-163.1998977292921
8.484174336,1.0002963595186494,-163.5181354136847
8.491017728,1.0004031481937719,-163.83794124430216
8.497861632,1.0004878107504227,-164.15911986760838
8.504705024,1.0005456668016048,-164.48129874891833
8.511548416,1.0005733575356945,-164.80410121035524
8.518391808,1.0005691816285949,-165.12708395752318
8.5252352,1.0005334948666027,-165.4498693379567
8.532078592,1.0004679886285006,-165.77197851674754
8.538921984,1.0003764489788889,-166.09306823268972
8.545765376,1.0002637627217532,-166.41280102124125
8.55260928,1.00013622896093,-166.7309474434379
8.559452672,1.0000007824716317,-167.04731679444143
8.566296064,0.9998650857586124,-167.3618786783907
8.573139456,0.9997366211830786,-167.6746849753776
8.579982848,0.9996225148032821,-167.98586327559414
8.58682624,0.9995292368913882,-168.29562668412845
8.593670144,0.9994620108346313,-168.60433390083796
8.600513536,0.9994247118531276,-168.9123457037949
8.607356928,0.9994193946540009,-169.22009668887893
8.61420032,0.9994464083788506,-169.52799814258307
8.621043712,0.9995045227110669,-169.83651323068946
8.627887104,0.9995903729890613,-170.1460313934361
8.634730496,0.9996993624395836,-170.45686168532853
8.641573888,0.9998253234054968,-170.76934101595208
8.64841728,0.9999613692883623,-171.08361866375984
8.655260672,1.000099999283518,-171.39981224057234
8.662104064,1.0002334200281535,-171.7178521066926
8.668947456,1.0003543324084854,-172.0376641466585
8.675790848,1.0004558398438315,-172.3590263617404
8.68263424,1.0005322407947268,-172.68161004177915
8.689478656,1.0005793737863338,-173.00507093101572
8.696322048,1.000594302404198,-173.32901922229541
8.70316544,1.0005764103791348,-173.6529657056165
8.710008832,1.0005264245332786,-173.97646273981434
8.716852224,1.000447085435096,-174.2991067816368
8.723695616,1.0003426910832032,-174.62057131017463
