freq,mag,phase
6.0,1.000247264524377,-42.13981418817747
6.005895168,1.0002646273063607,-42.3942694715439
6.011790848,1.0002693970567729,-42.64895865946786
6.017686016,1.0002589459669062,-42.90374097039031
6.023581184,1.0002338754046352,-43.15835393304276
6.029476864,1.000195776403891,-43.412668997497306
6.035372032,1.000146637086666,-43.66640920305469
6.041267712,1.0000892184609531,-43.91949925340503
6.04716288,1.000026829835889,-44.17192903585687
6.053058048,0.9999632291742069,-44.42350654090519
6.058953728,0.9999017881887817,-44.67435695052154
6.064848896,0.9998461296891232,-44.92450781644112
6.070744064,0.999799464159478,-45.1739927389407
6.076639744,0.9997645333027577,-45.42304517198895
6.082534912,0.9997431995889364,-45.67178050594272
6.088430592,0.999736935159522,-45.92044552105688
6.09432576,0.9997457676565108,-46.16915923890539
6.100220928,0.9997692967935493,-46.41823217016839
6.106116608,0.9998065471756711,-46.66781680765157
6.112011776,0.9998546971969992,-46.91807264302983
6.117906944,0.999911670812673,-47.169129043917735
6.123802624,0.9999737155036589,-47.421133709126806
6.129697792,1.0000376891896978,-47.67410125606026
6.135593472,1.0000995620348982,-47.927994163176415
6.14148864,1.0001561187710033,-48.18280310069647
6.147383808,1.0002039664234168,-48.43843568134247
6.153279488,1.0002402460691016,-48.69474059184614
6.159174656,1.0002633454617718,-48.951557239763744
6.165069824,1.0002713051920369,-49.208694190144634
6.170965504,1.0002640159916685,-49.46587608943895
6.176860672,1.0002417264475048,-49.72296129826263
6.18275584,1.0002059218423704,-49.979789393584106
6.18865152,1.0001586443291495,-50.23610304965282
6.194546688,1.0001024015407902,-50.49179255076733
6.200442368,1.0000403537565725,-50.74679977753997
6.206337536,0.9999764805716526,-51.00096595034316
6.212232704,0.9999139226556115,-51.254402743331724
6.218128384,0.9998564610283052,-51.507054173658084
6.224023552,0.9998074405064207,-51.75915020419779
6.22991872,0.9997694659843183,-52.010638380447794
6.2358144,0.9997451371964793,-52.261831200254726
6.241709568,0.9997355047606276,-52.51291452634859
6.247605248,0.9997411097943768,-52.76403126193978
6.253500416,0.9997617854140884,-53.015381046650646
6.259395584,0.9997962865366337,-53.26725125289945
6.265291264,0.9998427791163692,-53.519736016923616
6.271186432,0.9998984224807904,-53.773052903961066
6.2770816,0.9999601312728291,-54.02727846856729
6.28297728,1.0000242451216628,-54.28244668022152
6.288872448,1.0000873024206804,-54.53858617798917
6.294767616,1.000145665013693,-54.79566739037303
6.300663296,1.0001957478362649,-55.05354630743443
6.306558464,1.0002348744823506,-55.31220782342429
6.312454144,1.0002610631559863,-55.57139404469589
6.318349312,1.0002723303119092,-55.83086071303575
6.32424448,1.0002683859705157,-56.0905574144117
6.33014016,1.0002491004122491,-56.35015379353095
6.336035328,1.0002159212037134,-56.609477290391396
6.341930496,1.0001706778065382,-56.868309041065146
6.347826176,1.0001158015098435,-57.12660760407145
6.353721344,1.0000543191322497,-57.38417291430011
6.359617024,0.9999900723602397,-57.64097102146611
6.365512192,0.9999265806349296,-57.89700515431294
6.37140736,0.9998673993633433,-58.15221980505452
6.37730304,0.9998160484472628,-58.40681174212417
6.383198208,0.9997753524719921,-58.66088770826853
6.389093376,0.9997477411555428,-58.914532745986115
6.394989056,0.9997347070233694,-59.1679953294857
6.400884224,0.9997370181024995,-59.42147934908934
6.406779904,0.9997546951232134,-59.67522004345626
6.412675072,0.999786527174374,-59.92935005577392
6.41857024,0.9998307003674084,-60.18411588653427
6.42446592,0.999884896293835,-60.43965854970455
6.430361088,0.999945867307384,-60.696074405827645
6.436256256,1.0000103019813429,-60.95346599346556
6.442151936,1.0000743134422245,-61.21185389860233
6.448047104,1.000134281614456,-61.471164023323965
6.453942272,1.0001868424105713,-61.731354156647505
6.459837952,1.0002288786351101,-61.99224865554917
6.46573312,1.0002581774142332,-62.25374670565498
6.4716288,1.0002728397105265,-62.51565254496395
6.477523968,1.0002721305260727,-62.77776265454392
6.483419136,1.000256279808645,-63.03982591693127
6.489314816,1.0002258058274875,-63.301647544460984
6.495209984,1.000182724308367,-63.563097631477554
6.501105152,1.0001293015681503,-63.82394013358622
6.507000832,1.0000687643490815,-64.08412675582258
6.512896,1.000004355221801,-64.3435308528704
6.51879168,0.9999399463803486,-64.60210857919294
6.524686848,0.999879309547382,-64.85995113581208
6.530582016,0.9998254646260586,-65.11707983306636
6.536477696,0.9997819103781471,-65.37363417639877
6.542372864,0.9997510382819866,-65.62976327514308
6.548268032,0.9997346751387645,-65.8856336139236
6.554163712,0.9997334874553712,-66.14150789451763
6.56005888,0.999748016076109,-66.39756458824223
6.56595456,0.9997769766598416,-66.65398152980542
6.571849728,0.9998188974801362,-66.9109968440329
6.577744896,0.9998715098216278,-67.16877531999191
6.583640576,0.9999315885773693,-67.42740083559993
6.589535744,0.9999958532529514,-67.68699927651942
6.595430912,1.0000606549317879,-67.94755782374884
6.601326592,1.0001222421416778,-68.20905426080363
6.60722176,1.0001771240789445,-68.47148747940287
6.613116928,1.0002219571816156,-68.73467844965359
6.619012608,1.0002544618672418,-68.99851310458472
6.624907776,1.0002726464821854,-69.26279209368623
6.630803456,1.0002755516975386,-69.52729624975265
6.636698624,1.0002628313805235,-69.79182925675458
6.642593792,1.0002353106373492,-70.05615008517618
6.648489472,1.0001945193840185,-70.32013442627132
6.65438464,1.0001428967572086,-70.58356326820287
6.660279808,1.000083302129799,-70.84628978748758
6.666175488,1.000019095252173,-71.10828306824169
6.672070656,0.9999540330302215,-71.36946057249006
6.677966336,0.9998917349572596,-71.62986317126092
6.683861504,0.9998356645237417,-71.88953549348717
6.689756672,0.9997893606894346,-72.14859678434979
6.695652352,0.9997553176774191,-72.40716619290335
6.70154752,0.9997353364474807,-72.66548315340088
6.707442688,0.9997307416030518,-72.92370222259056
6.713338368,0.9997416313062428,-73.18206508405679
6.719233536,0.999767711856131,-73.44078390022659
6.725129216,0.999807199310209,-73.70002362518002
6.731024384,0.9998578218606269,-73.95999719665694
6.736919552,0.9999168793221787,-74.22079470302117
6.742815232,0.9999810254748113,-74.48253375535917
6.7487104,1.000046344142715,-74.74528174144953
6.754605568,1.000109489386228,-75.0089931518879
6.760501248,1.0001664202214107,-75.27360001001809
6.766396416,1.0002141836329814,-75.5390384274096
6.772291584,1.0002499009779482,-75.80514267239418
6.778187264,1.0002715886962268,-76.07172945960166
6.784082432,1.000278037541737,-76.33862325647847
6.789978112,1.000268757066488,-76.6055806971782
6.79587328,1.0002444533035264,-76.87240586916037
6.801768448,1.0002063086632627,-77.13884265332409
6.807664128,1.0001566065438745,-77.40478349052043
6.813559296,1.000098118669297,-77.67009253852004
6.819454464,1.0000342394106827,-77.9346478044794
6.825350144,0.9999686526248678,-78.19838334278549
6.831245312,0.9999050535287385,-78.46133938927815
6.837140992,0.999846939515924,-78.72354282811436
6.84303616,0.9997978259001437,-78.98508562901443
6.848931328,0.9997604498579544,-79.24611677819065
6.854827008,0.9997369553811857,-79.50681204028112
6.860722176,0.9997286061327859,-79.76739249750295
6.866617344,0.9997360643984812,-80.0280407580014
6.872513024,0.9997588058495434,-80.28899146959336
6.878408192,0.9997954782454221,-80.55043739800797
6.88430336,0.9998442254712107,-80.81255964754547
6.89019904,0.9999020606985188,-81.07551324439724
6.896094208,0.9999656865349937,-81.3393884195302
6.901989888,1.000031521378903,-81.6042374297309
6.907885056,1.000095833254099,-81.87008743380802
6.913780224,1.0001548798616835,-82.13687817480542
6.919675904,1.0002052975609286,-82.40453765279904
6.925571072,1.0002443309773512,-82.67284997981724
6.93146624,1.0002695984505214,-82.9417298646092
6.93736192,1.000279677947554,-83.21090763626617
6.943257088,1.0002742285909039,-83.48021960631888
6.949152768,1.0002530220981776,-83.74944561438684
6.955047936,1.0002178185796347,-84.01838457483584
6.960943104,1.0001702784862834,-84.28685129709937
6.966838784,1.0001131903925615,-84.5546626429315
6.972733952,1.0000498563747695,-84.8217227778731
6.97862912,0.9999837912041634,-85.08796811566096
6.9845248,0.9999188804326928,-85.35343410784901
6.990419968,0.9998589124293378,-85.61809883575549
6.996315648,0.9998069099353405,-85.88211208570038
7.002210816,0.9997662549045409,-86.14555954605827
7.008105984,0.9997392538590903,-86.40860404429212
7.014001664,0.9997271542362876,-86.67150190496525
7.019896832,0.9997309345689217,-86.93443796890446
7.025792,0.9997502946004894,-87.19755720662705
7.03168768,0.9997841193950928,-87.46119458853805
7.037582848,0.9998305028100597,-87.72543630753549
7.043478016,0.9998867248924526,-87.99048165694717
7.049373696,0.999949773809777,-88.25642101252457
7.055268864,1.0000158380550381,-88.52333886425949
7.061164544,1.000081341046961,-88.79125022513604
7.067059712,1.0001424197053612,-89.06015446979734
7.07295488,1.0001955995979495,-89.32990539995704
7.07885056,1.0002377100689068,-89.60040756635873
7.084745728,1.0002665648551905,-89.87148339996935
7.090640896,1.00028075119053,-90.14293851582262
7.096536576,1.0002787855593116,-90.41454509781653
7.102431744,1.0002612664424384,-90.68614319038551
7.108327424,1.000228947471356,-90.95747743439978
7.114222592,1.0001837744060038,-91.22836423230166
7.12011776,1.0001283488697958,-91.49862524963005
7.12601344,1.0000656757705013,-91.76816572429028
7.131908608,0.9999995790344798,-92.03691440109968
7.137803776,0.9999337086767275,-92.30483767635228
7.143699456,0.9998716844517609,-92.57194999747956
7.149594624,0.9998171369036639,-92.83833781893415
7.155490304,0.9997732646501214,-93.10416484198038
7.161385472,0.9997426029222963,-93.36953258057845
7.16728064,0.9997266279690126,-93.63468542888448
7.17317632,0.9997265960564256,-93.89981471400368
7.179071488,0.9997424066617846,-94.16512167936592
7.184966656,0.9997730972505579,-94.43082825154761
7.190862336,0.9998170625631498,-94.6971165837263
7.196757504,0.9998714789271593,-94.9641948745516
7.202652672,0.9999336947733776,-95.23215116613791
7.208548352,0.9999999073964185,-95.5010858989408
7.21444352,1.0000662708075636,-95.77102559731296
7.2203392,1.0001291080750714,-96.04192497432261
7.226234368,1.0001849108579657,-96.31371338843621
7.232129536,1.0002304460631102,-96.5863235065658
7.238025216,1.0002629212794738,-96.85951226977467
7.243920384,1.0002807254100605,-97.1331508124203
7.249815552,1.0002827412419895,-97.40700530132092
7.255711232,1.0002687498020766,-97.68087571824765
7.2616064,1.0002398714548153,-97.95452303506808
7.26750208,1.0001972631804115,-98.22777800219106
7.273397248,1.000143718384304,-98.50040372290877
7.279292416,1.0000821191455127,-98.77240221723572
7.285188096,1.0000161103876413,-99.04352581521333
7.291083264,0.9999491922590141,-99.31385988091547
7.296978432,0.9998854433099281,-99.58334459806903
7.302874112,0.9998284337492288,-99.85213371394568
7.30876928,0.9997813964679068,-100.12021362431778
7.314664448,0.9997469601155458,-100.38785307554103
7.320560128,0.9997272191745273,-100.6552021539962
7.326455296,0.9997232275327153,-100.92246336125339
7.332350976,0.9997352149029631,-101.18984379624756
7.338246144,0.9997625883711225,-101.45760768562107
7.344141312,0.9998036806607896,-101.72593423940897
7.350036992,0.9998563358528862,-101.99492207125279
7.35593216,0.9999173552737934,-102.2648384449266
7.361827328,0.9999833805222018,-102.53566946505742
7.367723008,1.000050486939402,-102.80750948802914
7.373618176,1.0001151452531216,-103.08036562350424
7.379513856,1.0001732585719822,-103.35412601363817
7.385409024,1.0002219480006913,-103.62867571609148
7.391304192,1.0002581387913276,-103.90393790274676
7.397199872,1.0002798344897987,-104.17965780370902
7.40309504,1.000285930212267,-104.45563644314996
7.408990208,1.000275742440514,-104.73168908213702
7.414885888,1.0002501921216693,-105.00759289770525
7.420781056,1.0002105285151386,-105.28307963651307
7.426676736,1.0001590745724578,-105.55805593061196
7.432571904,1.0000987858761186,-105.83233506216317
7.438467072,1.000032935826583,-106.10583968064597
7.444362752,0.9999654805017795,-106.3784696387033
7.45025792,0.9999001284657495,-106.65027015010713
7.456153088,0.9998406364656832,-106.92131205412963
7.462048768,0.9997904174023705,-107.19168643061307
7.467943936,0.9997524209509191,-107.4614930955211
7.473839104,0.9997287241252488,-107.7309241510507
7.479734784,0.999720651092671,-108.0002906047018
7.485629952,0.9997287446174428,-108.26969390360749
7.491525632,0.9997525885245142,-108.53939810869949
7.4974208,0.9997907720242961,-108.80959138922495
7.503315968,0.9998410468358472,-109.08048126951367
7.509211648,0.999900787655457,-109.35219437255876
7.515106816,0.9999662661668127,-109.62486911121808
7.521001984,1.0000340590021708,-109.89854823588897
7.526897664,1.0001001281143587,-110.17320975671652
7.532792832,1.000160683693067,-110.44883629502603
7.538688512,1.000212450262845,-110.72528125443617
7.54458368,1.0002522516114385,-111.00247173897274
7.550478848,1.0002780446022739,-111.28015148946822
7.556374528,1.0002880651532866,-111.55818503454721
7.562269696,1.0002820267453598,-111.8362807492907
7.568164864,1.0002600212652835,-112.11430575368024
7.574060544,1.0002234409569144,-112.39199185075165
7.579955712,1.000174374604369,-112.66916874640593
7.585851392,1.0001154811789525,-112.94566141600733
7.59174656,1.0000503335733204,-113.2213699738146
7.597641728,0.9999823364375977,-113.49627568582844
7.603537408,0.9999155557627089,-113.77030734642939
7.609432576,0.9998538009387166,-114.04353535981706
7.615327744,0.999800606990633,-114.31601297646202
7.621223424,0.9997589736311107,-114.587933642004
7.627118592,0.9997312526711524,-114.8594480715588
7.63301376,0.9997190408245797,-115.13071851910652
7.63890944,0.9997230021936098,-115.40209685733613
7.644804608,0.9997431442533066,-115.67364472840569
7.650700288,0.9997780698961132,-115.9456382802279
7.656595456,0.9998259479249824,-116.21830147277998
7.662490624,0.9998839328562356,-116.49175780360615
7.668386304,0.9999488511692605,-116.76616756740086
7.674281472,1.0000168646725343,-117.04150857226828
7.68017664,1.0000842785808421,-117.31789114724674
7.68607232,1.0001471213228614,-117.59523310108317
7.691967488,1.0002018791883496,-117.87343634785782
7.697863168,1.0002452262875765,-118.15242336169389
7.703758336,1.0002750776178806,-118.43198218781981
7.709653504,1.0002893165996125,-118.71188650235561
7.715549184,1.000287314944297,-118.99197593028505
7.721444352,1.0002692058716864,-119.27200000554595
7.72733952,1.0002360075893193,-119.551751097135
7.7332352,1.0001895223139947,-119.8310237043645
7.739130368,1.0001324108502834,-120.10960690841553
7.745026048,1.000067951245671,-120.3874554566586
7.750921216,0.9999998486964855,-120.66446948688383
7.756816384,0.9999319571452568,-120.94060228612824
7.762712064,0.9998679705598194,-121.21592755449629
7.768607232,0.9998117930985729,-121.49046024845902
7.7745024,0.9997665382265513,-121.76438384204003
7.78039808,0.9997347491044088,-122.03782043529226
7.786293248,0.9997183966710014,-122.3110126142045
7.792188416,0.9997182209303711,-122.58417184194273
7.798084096,0.9997342900353294,-122.85744273975094
7.803979264,0.999765813597338,-123.13115880780272
7.809874944,0.9998109213093118,-123.40549484103954
7.815770112,0.9998670100080663,-123.68054713279591
7.82166528,0.999930973888333,-123.95652203457963
7.82756096,0.9999991564753059,-124.23346768255495
7.833456128,1.0000675999022441,-124.51141577030214
7.839351296,1.0001324288343445,-124.79036643728723
7.845246976,1.0001900635566072,-125.07019980412733
7.851142144,1.0002370683222872,-125.35083874249321
7.857037824,1.0002709191990504,-125.63209181174432
7.862932992,1.000289409713426,-125.91380102864682
7.86882816,1.0002917435055032,-126.19569458514067
7.87472384,1.000277626477068,-126.47758249096711
7.880619008,1.0002479730170517,-126.75924180120037
7.886514176,1.0002043567701608,-127.04044223917748
7.892409856,1.0001493336313467,-127.32105977135515
7.898305024,1.0000859992321414,-127.60091571495389
7.904200192,1.0000179040623032,-127.87992150891866
7.910095872,0.9999489388425052,-128.15805026509454
7.91599104,0.9998830733819141,-128.43533198952173
7.92188672,0.9998240364649374,-128.711812458328
7.927781888,0.9997753277175399,-128.98759733565683
7.933677056,0.9997395973875487,-129.26288279898014
7.939572736,0.9997188015580408,-129.53783605809133
7.945467904,0.9997142516259879,-129.81266457037466
7.951363072,0.999726310001902,-130.087605658266
7.957258752,0.999754062372421,-130.3628995829512
7.96315392,0.9997962299206922,-130.63871051789633
7.9690496,0.9998501435616517,-130.91528042307064
7.974944768,0.9999129203149558,-131.19271023240736
7.980839936,0.9999808531772861,-131.47107929356704
7.986735616,1.0000502240765603,-131.75046859627037
7.992630784,1.0001169391905216,-132.03085095653452
7.998525952,1.0001772449197657,-132.31219037987879
8.004421632,1.0002277795990582,-132.59436442876805
8.0103168,1.0002655788424994,-132.87716139113857
8.01621248,1.0002884792779159,-133.1604665164234
8.022107648,1.0002951825858193,-133.44403383028057
8.028002816,1.0002853459737189,-133.72764684713897
8.033898496,1.000259404787278,-134.0110469079948
8.039793664,1.0002189393124423,-134.2941012689106
8.045688832,1.0001662590236506,-134.57652595473175
8.051584512,1.0001041968553226,-134.85822991474174
8.05747968,1.0000364380297069,-135.13913070398252
8.063374848,0.9999667216856871,-135.41913671608563
8.069270528,0.99989915212482,-135.69823625868318
8.075165696,0.9998374796000251,-135.97651230907545
8.081061376,0.9997852299480401,-136.25404389561896
8.086956544,0.9997454341349823,-136.53105184270052
8.092851712,0.999720319803507,-136.8076125773753
8.098747392,0.9997113093199979,-137.08401689062535
8.10464256,0.9997190740272528,-137.360485856536
8.110537728,0.9997429390636282,-137.63720241563706
8.116433408,0.999781820908459,-137.91443624474215
8.122328576,0.9998332976364654,-138.19228857101865
8.128224256,0.9998945439415282,-138.47104630707662
8.134119424,0.999962088067912,-138.75071669782926
8.140014592,1.0000320019287938,-139.03138302032932
8.145910272,1.000100357325388,-139.31304600255928
8.15180544,1.0001633045338458,-139.59570574384227
8.157700608,1.0002171873129675,-139.87918419045204
8.163596288,1.000259019046343,-140.16342266082233
8.169491456,1.000286296672264,-140.44818626330814
8.175387136,1.000297448621535,-140.73324217337364
8.181282304,1.0002920157408077,-141.0184105327205
8.187177472,1.0002701074087637,-141.30342305187563
8.193073152,1.00023302039819,-141.58812191152902
8.19896832,1.0001828531716062,-141.87225184051294
8.204863488,1.0001224715323238,-142.15567542642674
8.210759168,1.0000553093974898,-142.43826184363073
8.216654336,0.9999852062535176,-142.7199774910273
8.222549504,0.9999160490111576,-143.0007740495118
8.228445184,0.9998518443185532,-143.28071958529608
8.234340352,0.9997962533287073,-143.55988319984996
8.240236032,0.9997524965917545,-143.83844152660075
8.2461312,0.9997229729261052,-144.1165267502792
8.252026368,0.9997094953754005,-144.3943306533725
8.257922048,0.9997127247557049,-144.67216513716986
8.263817216,0.9997325530221629,-144.95018091102685
8.269712384,0.999767841286918,-145.2286062515526
8.275608064,0.9998165969797282,-145.50770022432536
8.281503232,0.9998759987973177,-145.7875767496339
8.287398912,0.9999428337972984,-146.06838975623054
8.29329408,1.0000130990453757,-146.35017844032888
8.299189248,1.000082922030718,-146.63298278027358
8.305084928,1.0001482317090846,-146.91676593973676
8.310980096,1.0002054547381753,-147.20142534357782
8.316875264,1.0002511239086906,-147.4868435867557
8.322770944,1.0002828569786417,-147.77287547097694
8.328666112,1.0002986779363796,-148.0592462335857
8.33456128,1.000297701598581,-148.34581376646494
8.34045696,1.0002799928812143,-148.6322641457108
8.346352128,1.0002465311269713,-148.9184304881585
8.352247808,1.0001993044574549,-149.2040819018784
