freq,mag,phase
6.0,0.9996746250955191,-58.47469484351875
6.007035904,0.9997151581295032,-58.78248782417073
6.01407232,0.9997735733839476,-59.091057157732784
6.021108224,0.9998450471677952,-59.40060889015508
6.028144128,0.9999252322601364,-59.711289153462346
6.035180544,1.0000099179680568,-60.02318707406469
6.042216448,1.0000942033530695,-60.33631843421965
6.049252352,1.000173804091579,-60.650726928863875
6.056288256,1.0002439073882288,-60.96615944457277
6.063324672,1.0003009350774843,-61.28265636688258
6.070360576,1.0003417180208498,-61.59989086831697
6.07739648,1.0003635892273999,-61.917617809363314
6.084432896,1.0003659070199513,-62.23562112811155
6.0914688,1.0003481127110132,-62.55364465192198
6.098504704,1.0003114692472495,-62.87139742198266
6.10554112,1.0002576395708194,-63.188619028154115
6.112577024,1.000190009606424,-63.50514288686282
6.119612928,1.000112159180165,-63.82075965925339
6.126648832,1.0000281876515464,-64.13539534345765
6.133685248,0.9999427776922291,-64.44901575406637
6.140721152,0.9998609653852492,-64.76159999805397
6.147757056,0.9997870270699543,-65.0731647274037
6.154793472,0.9997251212277461,-65.38398274935119
6.161829376,0.9996785293825847,-65.6941556527444
6.16886528,0.9996499302632952,-66.00389724328416
6.175901696,0.9996410819527884,-66.31350651100624
6.1829376,0.9996523344411784,-66.62322386507374
6.189973504,0.999683150582856,-66.93333398955716
6.19700992,0.999731696702024,-67.2440494499482
6.204045824,0.9997952476461858,-67.55570240755749
6.211081728,0.9998705969837401,-67.86831545523285
6.218117632,0.9999533421969653,-68.18214325532027
6.225154048,1.0000388734704266,-68.49722985815917
6.232189952,1.0001226454196848,-68.81357136658093
6.239225856,1.000199972342363,-69.1311046850582
6.246262272,1.000266496797651,-69.44968025059964
6.253298176,1.0003184884846141,-69.76917613861634
6.26033408,1.000353230000456,-70.08937771060707
6.267370496,1.000368812399069,-70.41002168670134
6.2744064,1.0003641820699811,-70.73084502484632
6.281442304,1.0003397229759485,-71.05159127544239
6.288478208,1.0002966412278,-71.37194216454404
6.295514624,1.000237613201963,-71.69174656244317
6.302550528,1.0001655759864951,-72.01073732325973
6.309586432,1.000084527702516,-72.32880443181875
6.316622848,0.9999990556655853,-72.6458421258522
6.323658752,0.9999139254530695,-72.96183713234322
6.330694656,0.9998338220551695,-73.2768078997333
6.337731072,0.9997629070407973,-73.59087002382934
6.344766976,0.9997054441078621,-73.90413469892088
6.35180288,0.9996645758589034,-74.21683082124173
6.358839296,0.9996424159692449,-74.52920986798041
6.3658752,0.9996404261870225,-74.84153552439724
6.372911104,0.9996585702401326,-75.15408238337986
6.379947008,0.9996955194404389,-75.46710775357998
6.386983424,0.9997497617164675,-75.78085144076263
6.394019328,0.9998181898769811,-76.09550561692237
6.401055232,0.9998968678899229,-76.41127752899139
6.408091648,0.9999817186725475,-76.7282255065657
6.415127552,1.000067767334805,-77.04647547751888
6.422163456,1.0001502416397619,-77.36596496083028
6.429199872,1.0002248523616057,-77.68661710130337
6.436235776,1.0002874088237423,-78.00827690362429
6.44327168,1.000334165830963,-78.33080633047405
6.450307584,1.0003628163447784,-78.65395821775286
6.457344,1.000371741507762,-78.97745312485867
6.464379904,1.000360346788759,-79.30105488922518
6.471415808,1.0003293221492935,-79.62445594120976
6.478452224,1.0002803445584423,-79.94743799757002
6.485488128,1.0002160477292314,-80.26973363454732
6.492524032,1.0001400527677757,-80.59117311193128
6.499560448,1.0000566735910128,-80.91165450024064
6.506596352,0.999970213322931,-81.23108074722349
6.513632256,0.9998857735793534,-81.54944424927886
6.520668672,0.9998077167609749,-81.86678420213828
6.527704576,0.9997405710786605,-82.1832973437163
6.53474048,0.9996878883147691,-82.49905722993864
6.541776384,0.9996527714650068,-82.81432307647849
6.5488128,0.9996370579856377,-83.12937208068567
6.555848704,0.9996416867982041,-83.44444277260574
6.562884608,0.9996662802273151,-83.75975759011358
6.569921024,0.9997097854253268,-84.07569627221338
6.576956928,0.9997693889447354,-84.39242610557223
6.583992832,0.9998422431930156,-84.7101439748066
6.591029248,0.9999238578250297,-85.02900237548397
6.598065152,1.0000101118292286,-85.34911176689343
6.605101056,1.0000960738017268,-85.67051195540425
6.61213696,1.000177029188338,-85.9930862283542
6.619173376,1.0002484541243566,-86.316833340448
6.62620928,1.0003064270974544,-86.64157746247963
6.633245184,1.0003479079120692,-86.96708657681113
6.6402816,1.0003702745488725,-87.29308990963206
6.647317504,1.0003725213547021,-87.61940583768958
6.654353408,1.0003543756415234,-87.94570406837389
6.661389824,1.0003170543722943,-88.2717378130609
6.668425728,1.0002624006056826,-88.59722648433441
6.675461632,1.0001934749212769,-88.92200151487691
6.682498048,1.0001140483435227,-89.24586225640604
6.689533952,1.0000285714537631,-89.56870045303741
6.696569856,0.999941745372504,-89.89047775969833
6.70360576,0.9998582574696854,-90.21119095378866
6.710642176,0.9997828734776969,-90.53095707406632
6.71767808,0.9997196178735416,-90.84983973717029
6.724713984,0.9996721448682153,-91.16812462279375
6.7317504,0.9996430765015175,-91.48593527472855
6.738786304,0.9996338359418243,-91.80361542098309
6.745822208,0.9996451452800297,-92.12141232287524
6.752858624,0.9996763574802079,-92.4396044869463
6.759894528,0.9997257429655931,-92.75840019336174
6.766930432,0.9997903031426181,-93.07809465838238
6.773966336,0.9998670572482948,-93.39883239064027
6.781002752,0.9999512085186734,-93.72079334852738
6.788038656,1.0000384523903834,-94.04397032150978
6.79507456,1.0001238123478569,-94.36844121736742
6.802110976,1.0002026209830974,-94.6941499150516
6.80914688,1.000270625096464,-95.02094081414297
6.816182784,1.0003239155136636,-95.3486200468894
6.8232192,1.0003595952735538,-95.67704145651747
6.830255104,1.0003756715737728,-96.00587093712316
6.837291008,1.000371277185374,-96.33490317789456
6.844327424,1.0003466602905458,-96.6638470343357
6.851363328,1.0003030193668756,-96.99240697748606
6.858399232,1.0002430455237388,-97.32039010953167
6.865435136,1.0001699046241117,-97.64755507973909
6.872471552,1.000087327492854,-97.9738051305245
6.879507456,1.0000004270010903,-98.2989587640879
6.88654336,0.9999135392016355,-98.62301761974742
6.893579776,0.9998317234305336,-98.94606518750201
6.90061568,0.9997592504923793,-99.26814439360325
6.907651584,0.9997004862857571,-99.58946239702709
6.914688,0.9996583567037952,-99.91017780658892
6.921723904,0.9996353213658551,-100.23054635771067
6.928759808,0.9996327031492349,-100.55083118864846
6.935795712,0.9996506142730394,-100.87129946905787
6.942832128,0.9996880427002705,-101.19224866583025
6.949868032,0.9997430839696955,-101.51396662337314
6.956903936,0.9998124169594312,-101.83660755210519
6.963940352,0.9998925419978273,-102.1603303367043
6.970976256,0.9999787806557311,-102.4852923633356
6.97801216,1.0000665285786539,-102.81153625301158
6.985048576,1.000151039693285,-103.13901130121606
6.99208448,1.0002273027276065,-103.46771705611506
6.999120384,1.0002913413453438,-103.7974432457142
7.0061568,1.000339597507481,-104.12804396839307
7.013192704,1.0003693590343476,-104.45926536001541
7.020228608,1.0003790864184512,-104.79085399961191
7.027264512,1.0003680227938392,-105.12253787400472
7.034300928,1.0003369760989778,-105.45400973997577
7.041336832,1.0002876552183804,-105.78506965367863
7.048372736,1.0002225535594622,-106.11540494075852
7.055409152,1.0001453548859829,-106.44493165258882
7.062445056,1.0000604612145962,-106.77340860617221
7.06948096,0.9999723371641988,-107.10081616776827
7.076517376,0.9998860232564614,-107.42715566720354
7.08355328,0.9998060215859577,-107.75247096569106
7.090589184,0.9997371291251429,-108.07684860512832
7.097625088,0.9996828758846673,-108.40050160349381
7.104661504,0.999646327255149,-108.72359850559258
7.111697408,0.9996295085214462,-109.04647574864099
7.118733312,0.9996334941376834,-109.36936220986355
7.125769728,0.9996578693031519,-109.69246516261683
7.132805632,0.999701414741257,-110.01620180311417
7.139841536,0.9997618082772008,-110.34068626606746
7.146877952,0.9998355394617059,-110.6661865633754
7.153913856,0.9999186247507695,-110.99286916819146
7.16094976,1.0000065742390762,-111.32075555898052
7.167986176,1.0000943174803623,-111.64998225874379
7.17502208,1.000177180615405,-111.98043071249806
7.182057984,1.0002505701867292,-112.31202464102314
7.189093888,1.000310411319486,-112.64463666030215
7.196130304,1.000353510745024,-112.97803531294669
7.203166208,1.0003772418093744,-113.31194391346338
7.210202112,1.0003804947412396,-113.64615853333407
7.217238528,1.0003629488361654,-113.98037982574779
7.224274432,1.0003256613581866,-114.31429247560465
7.231310336,1.0002705909120226,-114.64772530050774
7.238346752,1.0002009067602533,-114.98035518124732
7.245382656,1.0001202382279135,-115.31211038460351
7.25241856,1.0000331986141313,-115.64280660832854
7.259454464,0.999944396343628,-115.97237082749038
7.26649088,0.9998589832855406,-116.30087505960995
7.273526784,0.9997814328882573,-116.6283721775193
7.280562688,0.9997162607892328,-116.9549716610783
7.287599104,0.9996668954158718,-117.28090459630602
7.294635008,0.9996361598751896,-117.60637990552455
7.301670912,0.9996256691861339,-117.93166719682203
7.308707328,0.9996362535747269,-118.25703236807642
7.315743232,0.9996669816588691,-118.58277910704055
7.322779136,0.9997164227352048,-118.90916171427345
7.329815552,0.9997817007855749,-119.23641750714076
7.336851456,0.9998593536820939,-119.56472534789293
7.34388736,0.9999451118889198,-119.89421500376315
7.350923264,1.0000340768610683,-120.22499539161659
7.35795968,1.0001215466235667,-120.55704216113898
7.364995584,1.0002025092147737,-120.89034184717421
7.372031488,1.0002726951320895,-121.22477417821563
7.379067904,1.0003280521545117,-121.56011940534995
7.386103808,1.0003655091313874,-121.89619772486849
7.393139712,1.0003831158146579,-122.23270576135964
7.400176128,1.000379966365069,-122.56944187741188
7.407212032,1.000355923628652,-122.90608052526073
7.414247936,1.0003125923131648,-123.24232373996601
7.42128384,1.0002522064265498,-123.57797366938948
7.428320256,1.0001781028184913,-123.91280819274088
7.43535616,1.0000944090755544,-124.24665681753588
7.442392064,1.0000057041141208,-124.57944700072676
7.44942848,0.9999168476818033,-124.91109566796854
7.456464384,0.9998326689043721,-125.2416968885803
7.463500288,0.9997579853868868,-125.57128137364138
7.470536704,0.999696886435894,-125.9000010695581
7.477572608,0.9996526989905052,-126.22813446251719
7.484608512,0.9996277997532725,-126.55585618025357
7.491644928,0.9996237799279061,-126.88352831848044
7.498680832,0.9996407030098992,-127.21133919213632
7.505716736,0.9996776341316965,-127.539576101056
7.51275264,0.9997326429794875,-127.86855115942235
7.519789056,0.999802680673142,-128.1984439362265
7.52682496,0.9998838802491447,-128.52943951074298
7.533860864,0.999971761436035,-128.86168985453625
7.54089728,1.0000615259623769,-129.1952342652592
7.547933184,1.0001480706239638,-129.5300586698136
7.554969088,1.0002268206766347,-129.86608613554034
7.562005504,1.000293335276741,-130.20316222276182
7.569041408,1.0003438849263162,-130.54112779061688
7.576077312,1.0003757960163355,-130.8797417570887
7.583113216,1.0003871939119755,-131.21871716864484
7.590149632,1.0003774259916136,-131.5578155855911
7.597185536,1.0003472134481726,-131.89670987002458
7.60422144,1.0002979733468256,-132.23518056669218
7.611257856,1.00023258548781,-132.57295198253402
7.61829376,1.0001545293128873,-132.9098086513795
7.625329664,1.0000680870627376,-133.24566942361565
7.63236608,0.9999781215887836,-133.58038519603366
7.639401984,0.9998895343164813,-133.91400308535532
7.646437888,0.9998071649721983,-134.24654405602575
7.653474304,0.999735638902874,-134.57811655373024
7.660510208,0.9996788652779138,-134.9088999758343
7.667546112,0.9996400303242391,-135.2391241959226
7.674582016,0.9996212848082443,-135.5690613447796
7.681618432,0.9996235309021401,-135.89893837954799
7.688654336,0.9996468363553949,-136.22909087930557
7.69569024,0.9996898374853613,-136.55974553725136
7.702726656,0.9997502525305793,-136.8912028019704
7.70976256,0.9998246197931728,-137.2236457122779
7.716798464,0.999908946918786,-137.557239305442
7.72383488,0.9999986799786572,-137.8921074777542
7.730870784,1.0000886247856617,-138.2282761876508
7.737906688,1.0001739944893113,-138.56567560501827
7.744942592,1.0002500766622973,-138.90429309936567
7.751979008,1.0003125389303753,-139.2438983985062
7.759014912,1.0003581722692414,-139.5843539452741
7.766050816,1.0003842629242397,-139.925361810894
7.773087232,1.0003893966984676,-140.26664720474994
7.780123136,1.0003732687154507,-140.60793782417431
7.78715904,1.0003368201954141,-140.94899011836065
7.794195456,1.00028196663555,-141.28946009906647
7.80123136,1.0002118050388156,-141.6291963327892
7.808267264,1.000130131785471,-141.96796461180125
7.81530368,1.0000413972322513,-142.3056536561524
7.822339584,0.9999506225635956,-142.64222883957052
7.829375488,0.9998628004396419,-142.97766080695493
7.836411392,0.999782607244264,-143.3120280976621
7.843447808,0.9997145757085141,-143.64549719316418
7.850483712,0.9996623956475552,-143.97820730653712
7.857519616,0.9996291318261742,-144.3103822928904
7.864556032,0.9996164524067699,-144.64237397824598
7.871591936,0.9996251905694243,-144.97437988345465
7.87862784,0.9996547846764038,-145.30672471429125
7.885664256,0.9997036244224572,-145.63969987901277
7.89270016,0.9997691381905935,-145.97351986031643
7.899736064,0.9998475557005878,-146.30837791987844
7.906771968,0.9999346716025923,-146.64442425095683
7.913808384,1.0000256728780559,-146.98176124432337
7.920844288,1.000115585727248,-147.3204214314031
7.927880192,1.0001992765923744,-147.66030058863362
7.934916608,1.0002722643507476,-148.00133475591306
7.941952512,1.0003306634996028,-148.34332399601715
7.948988416,1.0003709125545246,-148.6860683660107
7.956024832,1.000391111221513,-149.0293058272086
7.963060736,1.000389875198717,-149.37274305395425
7.97009664,1.0003674255263064,-149.71606770308355
7.977133056,1.0003249147602153,-150.059031954208
7.98416896,1.0002648353074202,-150.40139225474354
7.991204864,1.0001902110227459,-150.74292000063667
7.998240768,1.0001052270197874,-151.08342796848393
8.005277184,1.000014701479394,-151.42281912572142
8.012313088,0.9999234798053367,-151.76106154121223
8.019348992,0.9998366452270748,-152.0981840310994
8.026385408,0.999758986611606,-152.43424928425284
8.033421312,0.9996947763463754,-152.7694260767606
8.040457216,0.9996475280886477,-153.1039030303823
8.047493632,0.9996198880721774,-153.43796481359917
8.054529536,0.9996135002821097,-153.7718836898796
8.06156544,0.9996286453275143,-154.10587716871999
8.068601344,0.9996643839217435,-154.44031950268126
8.07563776,0.9997189088503639,-154.775462163064
8.082673664,0.9997892733300955,-155.11146938743002
8.089709568,0.9998713644060364,-155.44862344701423
8.096745984,0.9999608681472797,-155.78696984986257
8.103781888,1.0000527865221602,-156.12664303367023
8.110817792,1.0001420578769342,-156.4675951382022
8.117854208,1.0002238486235395,-156.8098045686659
8.124890112,1.0002934414138192,-157.15307260330172
8.131926016,1.000347230691197,-157.49725611545375
8.138962432,1.0003820907114864,-157.84211384351775
8.145998336,1.0003961741279208,-158.18736734770576
8.15303424,1.0003886198680947,-158.53275677926888
8.160070144,1.0003600482610822,-158.87792901135612
8.16710656,1.0003115896593273,-159.2227088282354
8.174142464,1.0002462903621507,-159.5667396790356
8.181178368,1.0001675239665186,-159.90986340265297
8.188214784,1.0000797255081886,-160.2519384025208
8.195250688,0.9999877143319492,-160.592867374839
8.202286592,0.9998964931164893,-160.9326445834405
8.209323008,0.9998111002079131,-161.27123996625463
8.216358912,0.9997363668920553,-161.60886649244657
8.223394816,0.9996762473690696,-161.94561360963746
8.23043072,0.9996341677481715,-162.28173427151597
8.237467136,0.9996124702162862,-162.61750013765146
8.24450304,0.9996122999674651,-162.9531566092969
8.251538944,0.9996337519073246,-163.28904890772318
8.25857536,0.9996755311614153,-163.6254214213089
8.265611264,0.9997354634040576,-163.96254312340918
8.272647168,0.9998103218430411,-164.30063336538385
8.279683584,0.9998958118165848,-164.63987454290742
8.286719488,0.9999872969694743,-164.98038658756957
8.293755392,1.0000797584281684,-165.32222934301203
8.300791808,1.0001681644119411,-165.66531320815295
8.307827712,1.0002475415088048,-166.00961875997868
8.314863616,1.0003134196310761,-166.35496960463817
8.32189952,1.0003624885973204,-166.70117845732346
8.328935936,1.0003917074868525,-167.04794501351495
8.33597184,1.0003996809808426,-167.39501900220483
8.343007744,1.0003857590411165,-167.74215159596088
8.35004416,1.0003508632925708,-168.0890019022052
8.357080064,1.0002968810942834,-168.43530701495393
8.364115968,1.000226645474364,-168.78086293765585
8.371152384,1.0001441036993302,-169.1254278536383
8.378188288,1.000053785697545,-169.46889700340188
8.385224192,0.9999606917853257,-169.8111678965568
8.392260096,0.999869849663306,-170.15224687826495
8.399296512,0.9997863831115325,-170.49222499789246
8.406332416,0.9997146840357852,-170.83118074945114
8.41336832,0.9996590239707673,-171.16935454973532
8.420404736,0.9996222930657077,-171.50694838029344
8.42744064,0.9996066548940431,-171.84424416361946
8.434476544,0.9996127283125191,-172.18153704458012
8.44151296,0.9996404156505644,-172.51912095421852
8.448548864,0.9996881864695678,-172.85726018722124
8.455584768,0.9997533905831846,-173.19623626821567
8.462621184,0.9998323810332213,-173.53623161701825
8.469657088,0.999920887625273,-173.87742459458815
8.476692992,1.000014053220429,-174.21990078223612
8.483728896,1.0001065624648964,-174.5636911389543
8.490765312,1.0001936765419503,-174.9087423587495
8.497801216,1.000270235430544,-175.25495344266318
8.50483712,1.000332287872735,-175.60218892266934
8.511873536,1.0003762082862437,-175.95015264290177
8.51890944,1.000399724318989,-176.29866926738725
8.525945344,1.0004012835267835,-176.6474276630686
8.53298176,1.0003811555551776,-176.99606448417666
8.540017664,1.0003402108136135,-177.3443810641596
8.547053568,1.000280571520216,-177.6920500654812
8.554089472,1.0002057490145393,-178.03886914841726
8.561125888,1.0001197513185596,-178.38464897408232
8.568161792,1.000027234750555,-178.7293052265461
8.575197696,0.9999333000600943,-179.07272606918949
8.582234112,0.9998433260823376,-179.41496675220696
8.589270016,0.9997621171260607,-179.75608763933565
8.59630592,0.9996940297425221,179.9037387324576
8.603341824,0.9996430773705534,179.5643358107958
8.610377728,0.999611938554596,179.2254442846443
8.617414656,0.9996022875776687,178.88675293961344
8.62445056,0.9996147701293626,178.5480140712568
8.631486464,0.9996486251162513,178.20891081152607
8.638522368,0.9997022377887779,177.8691773504106
8.645558272,0.999772334105721,177.5285234122477
8.652594176,0.9998553312944074,177.18681136222494
8.659631104,0.9999464331979033,176.8438580291818
8.666667008,1.000040779484735,176.49960843342748
8.673702912,1.0001332315331324,176.1540559926884
8.680738816,1.0002184064141364,175.80724089941327
8.68777472,1.000291961673182,175.4592955947898
8.694810624,1.0003496436221953,175.11040846565464
8.701846528,1.0003884173200859,174.76084596051354
8.708883456,1.000405869154745,174.41082304813213
8.71591936,1.0004012892773815,174.06068149209167
8.722955264,1.0003748127235392,173.71068018824758
8.729991168,1.0003277701427569,173.3611410887137
8.737027072,1.0002629363324609,173.01231971701262
8.744062976,1.0001836349929418,172.66442119324603
8.75109888,1.000094443033697,172.3176207207132
8.758135808,1.0000002178819167,171.97200348658865
8.765171712,0.9999060932087112,171.62760955922982
8.772207616,0.9998171999014132,171.28443553028103
8.77924352,0.9997385013760406,170.94232894167976
8.786279424,0.9996743520913228,170.60116821455443
8.793315328,0.9996282518582422,170.26069634067696
8.800352256,0.9996028481465213,169.9206782787781
8.80738816,0.9995994235231839,169.58077257016777
