freq,mag,phase
6.0,1.0003332178004574,-117.86873954483787
6.002287104,1.0003041794706595,-118.02019101974427
6.004574208,1.000258575117179,-118.17114123576332
6.006861312,1.0001975300597536,-118.32126507999548
6.009147904,1.0001248305724757,-118.47046671703376
6.011435008,1.0000452156137283,-118.61851450547488
6.013722112,0.999963587621667,-118.76537972687828
6.016009216,0.9998852015169023,-118.91108184107466
6.01829632,0.9998149115638215,-119.05573608028382
6.020583424,0.9997573034369605,-119.1993761373843
6.022870016,0.9997159893769607,-119.34237232251735
6.02515712,0.999693662732987,-119.48482660999649
6.027444224,0.9996915458068579,-119.62714544783329
6.029731328,0.9997099253832796,-119.76956492546017
6.032018432,0.9997477576201863,-119.91237603949257
6.034305536,0.9998025121400421,-120.05586802874357
6.036592128,0.9998707411930663,-120.20016816814535
6.038879232,0.9999481399953988,-120.34560337670756
6.041166336,1.0000299408825963,-120.4921896441605
6.04345344,1.0001108717703173,-120.63992333432024
6.045740544,1.0001856221156076,-120.78877350951288
6.048027648,1.0002496954118736,-120.93862466835913
6.05031424,1.0002989396329494,-121.0892797779136
6.052601344,1.0003303841397804,-121.240554075178
6.054888448,1.0003417630470737,-121.39213091091041
6.057175552,1.0003324855433267,-121.54367418755025
6.059462656,1.0003031862770266,-121.69498718582672
6.06174976,1.0002555322707107,-121.84570609195003
6.064036352,1.0001926768046678,-121.99562775849876
6.066323456,1.0001185373861496,-122.14453024242759
6.06861056,1.0000376947405751,-122.29228482719247
6.070897664,0.9999554235948223,-122.43887549131053
6.073184768,0.9998768683100228,-122.58427153519727
6.075471872,0.999806985975368,-122.72861244117954
6.077758464,0.999750283342005,-122.8719548846874
6.080045568,0.9997102279866892,-123.01463654421414
6.082332672,0.9996896013880318,-123.15690278973861
6.084619776,0.9996894339142564,-123.29893421804745
6.08690688,0.9997099762591519,-123.44115036327449
6.089193984,0.9997497248613657,-123.58374488381246
6.091481088,0.999806369432189,-123.72707994640035
6.09376768,0.9998762280948313,-123.87126150058918
6.096054784,0.9999550434020625,-124.01656066528373
6.098341888,1.0000375661620902,-124.1630231384451
6.100628992,1.0001187179741635,-124.3106748524777
6.102916096,1.0001934623107076,-124.45941499625546
6.1052032,1.0002568947537398,-124.60920633922125
6.107489792,1.0003050910103672,-124.75974279229108
6.109776896,1.0003348442354754,-124.91084392744007
6.112064,1.0003444598845674,-125.0622316992762
6.114351104,1.0003331453785023,-125.2135822519487
6.116638208,1.000301761421513,-125.3646574484692
6.118925312,1.0002521295264253,-125.51509358035995
6.121211904,1.0001874184483173,-125.66473232454156
6.123499008,1.000111804769122,-125.81330308179854
6.125786112,1.0000299554944896,-125.96073800499792
6.128073216,0.9999471532196645,-126.1069866671888
6.13036032,0.9998684866535563,-126.25196939610062
6.132647424,0.9997990328633235,-126.39592597700415
6.134934016,0.9997431952237543,-126.53899198218383
6.13722112,0.9997045677616108,-126.68129353054209
6.139508224,0.9996856073912334,-126.82321364701515
6.141795328,0.999687367085341,-126.96497086081453
6.144082432,0.9997098974379751,-127.1068967755848
6.146369536,0.9997517883792314,-127.24928181981622
6.148656128,0.9998103249573895,-127.39236045838338
6.150943232,0.9998818490994044,-127.53639043945277
6.153230336,0.9999619565597128,-127.68151122768207
6.15551744,1.0000453653920478,-127.82783148352473
6.157804544,1.0001268408349098,-127.9752928176822
6.160091648,1.000201339682558,-128.12386570003514
6.162378752,1.0002640510738003,-128.2734912520675
6.164665344,1.000311076495156,-128.42384509073042
6.166952448,1.0003392918854952,-128.57476377808388
6.169239552,1.0003470479561276,-128.72594235724966
6.171526656,1.0003337881740846,-128.8770063197393
6.17381376,1.000300192092022,-129.02777136260974
6.176100864,1.0002485524375322,-129.17793615089096
6.178387456,1.0001820621350739,-129.32718387662834
6.18067456,1.000104920118125,-129.47539318240138
6.182961664,1.0000220160091433,-129.62239298416165
6.185248768,0.9999386344751977,-129.7682199634933
6.187535872,0.9998599811191925,-129.91282720891698
6.189822976,0.9997909877887436,-130.05636950750417
6.192109568,0.9997362087885577,-130.19898721078832
6.194396672,0.9996989836435617,-130.34088747048332
6.196683776,0.9996816613672174,-130.48243815627853
6.19897088,0.9996854772510877,-130.6238117208943
6.201257984,0.9997100734755926,-130.76542252087924
6.203545088,0.9997540598452677,-130.9074867930161
6.20583168,0.9998145662907483,-131.05032442649184
6.208118784,0.9998878203468469,-131.19410067268007
6.210405888,0.9999691043931899,-131.33898654087943
6.212692992,1.0000532761183685,-131.48506941221234
6.214980096,1.0001350767787434,-131.6323642230502
6.2172672,1.0002093286232094,-131.7807248673011
6.219553792,1.0002712741626318,-131.9301186054892
6.221840896,1.0003170160834904,-132.08025471100464
6.224128,1.0003436816628428,-132.23091804351097
6.226415104,1.0003494095037662,-132.3817941572704
6.228702208,1.0003340663616165,-132.53255004823643
6.230989312,1.0002984028533712,-132.68294678863552
6.233275904,1.0002447508852772,-132.8327097984094
6.235563008,1.0001765015994128,-132.98154105250458
6.237850112,1.0000978685971427,-133.12930383167247
6.240137216,1.0000139271134019,-133.27585788765006
6.24242432,0.9999299088812574,-133.4212099335534
6.244711424,0.9998513070142496,-133.56534945769602
6.246998528,0.9997828904708281,-133.70838745244708
6.24928512,0.9997291141820137,-133.85054538753297
6.251572224,0.9996933414794045,-133.99201939196993
6.253859328,0.9996778933524807,-134.13309221251265
6.256146432,0.999683692392596,-134.2741119226074
6.258433536,0.9997105605967755,-134.41531910074457
6.26072064,0.9997565783018293,-134.55705504189325
6.263007232,0.9998190529502186,-134.6995506665585
6.265294336,0.9998938588953948,-134.84302118149463
6.26758144,0.9999764038251628,-134.98766472379586
6.269868544,1.0000613662832403,-135.13350824018607
6.272155648,1.0001434653770849,-135.2804876113398
6.274442752,1.0002173765009301,-135.42860710068507
6.276729344,1.0002785024274148,-135.5776854796836
6.279016448,1.0003229765592274,-135.72756317999185
6.281303552,1.000347861790035,-135.87788428581374
6.283590656,1.0003517148489618,-136.02842838354368
6.28587776,1.0003341326410393,-136.17881776975705
6.288164864,1.0002963350825915,-136.32879587158135
6.290451456,1.0002405985012364,-136.47812299151363
6.29273856,1.0001706020396668,-136.62650003415803
6.295025664,1.0000905214253206,-136.77378641662958
6.297312768,1.0000055942449964,-136.9198223590901
6.299599872,0.9999212058416751,-137.06458951357286
6.301886976,0.9998425502788468,-137.2082238726788
6.304173568,0.9997747567614843,-137.3507329696095
6.306460672,0.9997220785555181,-137.49235331571444
6.308747776,0.9996878924385415,-137.6333311890405
6.31103488,0.9996743073291394,-137.7739074207055
6.313321984,0.9996822558468872,-137.9144703779564
6.315609088,0.9997113045170654,-138.05522843238927
6.317896192,0.9997595260901699,-138.19659584608877
6.320182784,0.9998238454326636,-138.33870159347384
6.322469888,0.9999003116383537,-138.48186333407804
6.324756992,0.9999840751213956,-138.6261478206437
6.327044096,1.0000698060856559,-138.77163610644723
6.3293312,1.0001520259918644,-138.9183452170999
6.331618304,1.0002256370394957,-139.0661559521378
6.333904896,1.0002858263792793,-139.21492676016942
6.336192,1.0003288754358537,-139.36443915778747
6.338479104,1.0003520564170947,-139.51436583501862
6.340766208,1.0003538517116157,-139.66450124847515
6.343053312,1.0003340788581478,-139.81451064389938
6.345340416,1.0002940888591352,-139.96405142340313
6.347627008,1.0002363203519702,-140.11283962968653
6.349914112,1.0001644361485849,-140.2606726819438
6.352201216,1.0000829431347444,-140.4073918251767
6.35448832,0.9999970945234382,-140.55286758191383
6.356775424,0.9999121628919524,-140.6970884025607
6.359062528,0.9998336768100506,-140.8400648379268
6.36134912,0.9997666148600172,-140.98201159242265
6.363636224,0.9997150584715251,-141.12307105551392
6.365923328,0.9996823953360354,-141.26349483104832
6.368210432,0.9996708006579962,-141.40354077475985
6.370497536,0.999680929303453,-141.5435949955968
6.37278464,0.9997121570130042,-141.6839038995988
6.375071232,0.999762562954958,-141.82478419116072
6.377358336,0.9998288406383707,-141.96651496993243
6.37964544,0.9999070226838629,-142.1092458629492
6.381932544,0.9999919422664167,-142.25316926364013
6.384219648,1.0000782992504875,-142.39827474052694
6.386506752,1.000160733783953,-142.5446211750202
6.388793344,1.000233853105253,-142.69207120665607
6.391080448,1.0002931019823371,-142.84045963569454
6.393367552,1.0003347907051907,-142.9896071793167
6.395654656,1.0003561143452173,-143.13910748383356
6.39794176,1.000355768044625,-143.28882339887934
6.400228864,1.0003338221068727,-143.43830408421954
6.402515968,1.0002916055000424,-143.58731651849152
6.40480256,1.0002317629398638,-143.73556109653055
6.407089664,1.0001580739912652,-143.88282847410747
6.409376768,1.0000751839403828,-144.02894025034087
6.411663872,0.9999883862250907,-144.17378958031148
6.413950976,0.9999030915592049,-144.31734347439433
6.41623808,0.9998248099882269,-144.4597337331825
6.418524672,0.9997583393199657,-144.60104229045922
6.420811776,0.9997080622573521,-144.74141882206288
6.42309888,0.9996772230564288,-144.88121840938638
6.425385984,0.9996675743017204,-145.02070710077166
6.427673088,0.9996798335734505,-145.16021509490486
6.429960192,0.9997133579859254,-145.30000345888098
6.432246784,0.9997659279857172,-145.44040226175997
6.434533888,0.9998342405561103,-145.581668915778
6.436820992,0.9999139835597789,-145.72395111731606
6.439108096,1.000000072590411,-145.8674421436219
6.4413952,1.0000871089621803,-146.0121845693442
6.443682304,1.0001696099056883,-146.15809718977994
6.445968896,1.0002422283719627,-146.30514470775458
6.448256,1.0003004469254042,-146.45310558358955
6.450543104,1.0003405514204566,-146.60175614493616
6.452830208,1.0003599735957884,-146.75084615027603
6.455117312,1.0003575965595106,-146.89999544747727
6.457404416,1.0003333560373218,-147.04896391142603
6.459691008,1.0002888857681755,-147.19741328262498
6.461978112,1.0002268731891446,-147.34508167490915
6.464265216,1.000151407510976,-147.49168953546703
6.46655232,1.0000670693408262,-147.63714820915334
6.468839424,0.9999794147763438,-147.78128897695842
6.471126528,0.9998937388694806,-147.9241732745744
6.473413632,0.9998156968853438,-148.0658920431434
6.475700224,0.9997500157349293,-148.2064713204547
6.477987328,0.9997010804607493,-148.34622723366593
6.480274432,0.9996719806853378,-148.48535797674995
6.482561536,0.9996643708720224,-148.62420478804134
6.48484864,0.9996790107907001,-148.7631388110582
6.487135744,0.9997147689063086,-148.90233948566168
6.489422336,0.9997695231446343,-149.0422305371685
6.49170944,0.9998398516678929,-149.18293525156915
6.493996544,0.999921136126498,-149.3247835263485
6.496283648,1.0000083760194876,-149.46778753693326
6.498570752,1.0000960424160392,-149.61207505667107
6.500857856,1.0001785309449451,-149.75755632136085
6.503144448,1.0002506002034124,-149.90414167534672
6.505431552,1.0003077464438177,-150.05164932936822
6.507718656,1.0003462634291447,-150.1998036051929
6.51000576,1.0003637701956407,-150.34833083921274
6.512292864,1.0003591100726927,-150.49699626465937
6.514579968,1.0003325390650266,-150.64537577799652
6.51686656,1.0002857533858882,-150.7931484330107
6.519153664,1.0002216669700086,-150.94019097124345
6.521440768,1.0001443377981483,-151.08610898771056
6.523727872,1.0000587034111716,-151.23083921735062
6.526014976,0.999970128583214,-151.3742979651898
6.52830208,0.9998842130620289,-151.51642939168974
6.530588672,0.9998064166695653,-151.6573682740282
6.532875776,0.999741716431317,-151.79722106326963
6.53516288,0.9996941557302139,-151.93628108830342
6.537449984,0.9996667639749145,-152.07470664859963
6.539737088,0.9996614052927894,-152.21288677807587
6.542024192,0.9996783256030887,-152.3511435044358
6.544310784,0.9997165135534357,-152.48977300157546
6.546597888,0.9997734935313086,-152.62905389612783
6.548884992,0.9998457479054597,-152.76925312862755
6.551172096,0.9999286642970305,-152.9105273720649
6.5534592,1.0000170303276694,-153.05305389849087
6.555746304,1.0001052510926816,-153.1968554824763
6.558033408,1.0001876209983815,-153.34183444452225
6.56032,1.0002591259201101,-153.48795298008054
6.562607104,1.0003150620467662,-153.63489381230588
6.564894208,1.0003520090114222,-153.78253453145606
6.567181312,1.0003673987838235,-153.93054375019372
6.569468416,1.000360449815905,-154.07856151444466
6.57175552,1.000331528896238,-154.22628847535523
6.574042112,1.000282353821852,-154.37344659879312
6.576329216,1.0002161807865864,-154.51972445031603
6.57861632,1.00013706401273,-154.66495256138464
6.580903424,1.0000501032323739,-154.80891621417106
6.583190528,0.9999606296192742,-154.95157440058514
6.585477632,0.9998744896512509,-155.09296462800938
6.587764224,0.9997971087640601,-155.23309280370967
6.590051328,0.9997333050523347,-155.37219379523566
6.592338432,0.9996872675872635,-155.51045234987953
6.594625536,0.9996618350987533,-155.64817635768074
6.59691264,0.9996586473473704,-155.78565681213752
6.599199744,0.9996778982272443,-155.923199788115
6.601486336,0.9997184424069371,-156.06120663932336
6.60377344,0.9997777397492513,-156.19986305850742
6.606060544,0.9998520272990075,-156.33946064309782
6.608347648,0.9999365050844458,-156.4802136654854
6.610634752,1.0000259809622678,-156.62219810447428
6.612921856,1.0001146603231643,-156.76541077871192
6.615208448,1.0001969815302372,-156.9098816532672
6.617495552,1.0002677229710626,-157.0554499983396
6.619782656,1.0003224037059282,-157.20187123452638
6.62206976,1.0003575174131099,-157.34890571827844
6.624356864,1.0003708728425058,-157.496279879142
6.626643968,1.0003616860193671,-157.64368018360364
6.628931072,1.0003302600789898,-157.79075949865296
6.631217664,1.0002787265953708,-157.93718489004388
6.633504768,1.0002104266214207,-158.08271569890834
6.635791872,1.000129510924545,-158.2271525576466
6.638078976,1.0000411811419057,-158.370312673673
6.64036608,0.9999509882895956,-158.5121691727604
6.642653184,0.9998646586089308,-158.6527032801289
6.644939776,0.9997876744661023,-158.79202314499443
6.64722688,0.9997249426863658,-158.93029396889358
6.649513984,0.9996804298039188,-159.06773752897547
6.651801088,0.9996569838723088,-159.2046999857189
6.654088192,0.9996560359412023,-159.34142109861645
6.656375296,0.9996778034497518,-159.47827345568902
6.658661888,0.9997207668970297,-159.61556381843658
6.660948992,0.9997823199068592,-159.75357925118863
6.663236096,0.999858552674473,-159.8925615593927
6.6655232,0.9999446096196416,-160.03271039698566
6.667810304,1.0000351569424049,-160.17412847281204
6.670097408,1.0001242940547104,-160.31680247093416
6.672384,1.0002064341655317,-160.46071257728934
6.674671104,1.0002764158736328,-160.60566992663738
6.676958208,1.000329784935773,-160.75147106274818
6.679245312,1.000363059755912,-160.89791542709318
6.681532416,1.0003741708819052,-161.04464723540744
6.68381952,1.0003625355986758,-161.1913476807088
6.686106112,1.0003286083123526,-161.3376726470607
6.688393216,1.0002746917664267,-161.48338093741825
6.69068032,1.0002042585865887,-161.62810725757444
6.692967424,1.0001214950384412,-161.77171987226447
6.695254528,1.0000318690795482,-161.91403164241248
6.697541632,0.9999409319724518,-162.05505351919993
6.699828224,0.9998544625995321,-162.19468617451872
6.702115328,0.9997781234222811,-162.33316033831517
6.704402432,0.9997164867653258,-162.4705345436129
6.706689536,0.9996735832058453,-162.60717176334833
6.70897664,0.9996521480931085,-162.74330318687117
6.711263744,0.9996536278069924,-162.87923164275963
6.713550848,0.9996779189854771,-163.01534904522055
6.71583744,0.9997234658983012,-163.15191031251248
6.718124544,0.999787265791969,-163.28924177625598
6.720411648,0.9998655497350561,-163.4276020188737
6.722698752,0.999953199948193,-163.56709982168846
6.724985856,1.0000446796574733,-163.7078963167568
6.72727296,1.0001342318002484,-163.84995958295906
6.729559552,1.0002161042008846,-163.99323453103543
6.731846656,1.0002852388992522,-164.13760282372036
6.73413376,1.0003370488114967,-164.2828241120853
6.736420864,1.000368503871701,-164.42861199421077
6.738707968,1.0003773907636377,-164.57463018281774
6.740995072,1.0003631445907464,-164.72061297178882
6.743281664,1.0003267792809019,-164.8661858007063
6.745568768,1.0002704296623437,-165.011088849845
6.747855872,1.0001976952552476,-165.15500085466505
6.750142976,1.000113209671282,-165.29770998303906
6.75243008,1.0000222774235514,-165.4391444006563
6.754717184,0.9999306942210563,-165.57922684886242
6.757003776,0.9998442848321292,-165.71800597014507
6.75929088,0.9997683813384651,-165.85552959653495
6.761577984,0.9997079838814669,-165.99204814368906
6.763865088,0.9996668804670168,-166.12778723346315
6.766152192,0.9996475973704698,-166.26305956949207
6.768439296,0.9996514953017287,-166.39820359731635
6.770725888,0.999678296163102,-166.53349337038622
6.773012992,0.9997263304889921,-166.66934326267665
6.775300096,0.9997925824319602,-166.80596082184942
6.7775872,0.9998727683569243,-166.94362019821736
6.779874304,0.9999619165725139,-167.08247595924686
6.782161408,1.0000543575619136,-167.22262163662595
6.784448512,1.0001442160814418,-167.3640705516952
6.786735104,1.0002258621943345,-167.50672967534263
6.789022208,1.0002939603402807,-167.65042844014457
6.791309312,1.0003443316613112,-167.79496006446556
6.793596416,1.0003737501788659,-167.9400512923774
6.79588352,1.0003802832350261,-168.08538080989828
6.798170624,1.000363548290891,-168.23060497355092
6.800457216,1.0003244889093088,-168.37538363610545
6.80274432,1.0002657235265175,-168.51943539328093
6.805031424,1.0001907968571266,-168.66245878769004
6.807318528,1.0001045559090853,-168.8042855818292
6.809605632,1.000012475254278,-168.94480153588913
6.811892736,0.9999202125190284,-169.08393750553503
6.814179328,0.9998337888828854,-169.2217460127722
6.816466432,0.9997586635383174,-169.35832136125705
6.818753536,0.9996995638694347,-169.4939302341443
6.82104064,0.9996602460468824,-169.6287567330115
6.823327744,0.9996432221348828,-169.76317637620974
6.825614848,0.9996495742100019,-169.89743971282996
6.82790144,0.9996791192903977,-170.03194657889804
6.830188544,0.999729684373675,-170.16699667086348
6.832475648,0.9997983553248517,-170.30289252584828
6.834762752,0.9998804695296214,-170.43983068907173
6.837049856,0.9999711388574293,-170.57799554753723
6.83933696,1.000064532278375,-170.71747152481768
6.841623552,1.0001546598230022,-170.8582581949554
6.843910656,1.0002358642195872,-171.00023884632432
6.84619776,1.0003029366922762,-171.1432835569071
6.848484864,1.0003517103383497,-171.2871384592218
6.850771968,1.0003790223927873,-171.431497443791
6.853059072,1.0003830622373011,-171.57604845291627
6.855345664,1.000363668723775,-171.72047319412394
6.857632768,1.0003219893513822,-171.86443704383922
6.859919872,1.0002606964823344,-172.0075966709991
6.862206976,1.0001836951228749,-172.1497197876101
6.86449408,1.0000956330455628,-172.29059671505806
6.866781184,1.0000023251689467,-172.43017053166577
6.869068288,0.9999095430998162,-172.56831696862574
6.87135488,0.9998232546827889,-172.7051347401104
6.873641984,0.9997488096357476,-172.84076293131443
6.875929088,0.999691116063942,-172.97541495617241
6.878216192,0.999653717928768,-173.10928252061512
6.880503296,0.9996390096922037,-173.24277885078098
6.8827904,0.9996479586328825,-173.37619508519307
6.885076992,0.9996801379618678,-173.5098532705352
6.887364096,0.9997333869092606,-173.64410029602615
6.8896512,0.9998043642325417,-173.7792415568207
6.891938304,0.9998885955322283,-173.9154476236211
6.894225408,0.9999806568743146,-174.05290270962544
6.896512512,1.0000748537694792,-174.19169474567292
6.898799104,1.0001651729529744,-174.3317627739613
6.901086208,1.000245880266694,-174.47309161793407
6.903373312,1.0003117834290356,-174.6154121952961
