freq,mag,phase
6.0,1.0000672860758588,-64.05242470100421
6.006908416,1.0000185789359992,-64.33894782983829
6.013816832,0.9999693634673334,-64.62482089786977
6.020725248,0.9999215736478709,-64.91005138394756
6.027633664,0.9998781611628563,-65.19467324199749
6.03454208,0.999841072235262,-65.47875422017775
6.041451008,0.9998126911223666,-65.76239857351429
6.048359424,0.9997945126958979,-66.04575150634494
6.05526784,0.9997875577161898,-66.32890600212112
6.062176256,0.9997919940946522,-66.6121142593653
6.069084672,0.9998079943706277,-66.89544794840467
6.075993088,0.9998345169660603,-67.17908574952823
6.082901504,0.999869891356217,-67.4631337290431
6.08980992,0.9999124246788583,-67.74773534575164
6.096718336,0.9999595922810736,-68.03297876852322
6.103626752,1.0000087652809944,-68.31887298111853
6.110535168,1.0000572121257842,-68.60546434405943
6.117444096,1.0001024236771274,-68.8926770484668
6.124352512,1.000141644397162,-69.1804810057913
6.131260928,1.0001728116646276,-69.46878066394515
6.138169344,1.0001942065063378,-69.75746367913857
6.14507776,1.0002044958133924,-70.04633242733992
6.151986176,1.0002032328110606,-70.33530117428026
6.158894592,1.000190405432056,-70.6241674762091
6.165803008,1.0001668780932356,-70.91283266142263
6.172711424,1.0001337685783398,-71.20112694726186
6.17961984,1.0000929614269283,-71.48890949844423
6.186528256,1.000046774849838,-71.7761056870204
6.193437184,0.9999977494214024,-72.06267146890221
6.2003456,0.9999485485335055,-72.34859099257628
6.207254016,0.9999020851549297,-72.63387847226336
6.214162432,0.9998608254436749,-72.91854748052214
6.221070848,0.9998269507393229,-73.20274641154595
6.227979264,0.9998026774014207,-73.48652820563015
6.23488768,0.9997890309984652,-73.77010805712575
6.241796096,0.9997868503255054,-74.05356599556428
6.248704512,0.9997965452023342,-74.33708724398075
6.255612928,0.9998173240011883,-74.62082416379779
6.262521344,0.9998479918113067,-74.9049353085423
6.269430272,0.9998869882618783,-75.18949823176162
6.276338688,0.9999319082847412,-75.47467634719469
6.283247104,0.9999805959437446,-75.76052320980136
6.29015552,1.0000302105649352,-76.04697403469127
6.297063936,1.0000778520855271,-76.33414962718012
6.303972352,1.0001210470976079,-76.62196356616492
6.310880768,1.0001572976043842,-76.91031585118417
6.317789184,1.0001847208866979,-77.19913023307359
6.3246976,1.0002015639724042,-77.48824470493078
6.331606016,1.0002069706575154,-77.77752086422312
6.338514432,1.0002006757110873,-78.06679598830614
6.34542336,1.000183147394447,-78.35592403179153
6.352331776,1.0001550455459949,-78.64475774073904
6.359240192,1.0001181559095949,-78.93314139900738
6.366148608,1.0000745281190717,-79.22102145717993
6.373057024,1.0000265401080464,-79.5082527068497
6.37996544,0.9999768398405934,-79.79485437727375
6.386873856,0.9999282375410184,-80.08079125082335
6.393782272,0.9998832676218246,-80.36613396331093
6.400690688,0.9998446243966502,-80.65090299266895
6.407599104,0.9998145178903003,-80.93518382226078
6.41450752,0.999794414654037,-81.21914497427996
6.421416448,0.9997856749130094,-81.50292421246314
6.428324864,0.999788659782775,-81.78666717431945
6.43523328,0.9998031327158956,-82.0705880239584
6.442141696,0.999828434826624,-82.35472846137762
6.449050112,0.9998631405153674,-82.63931801142022
6.455958528,0.9999050417478754,-82.92445947241268
6.462866944,0.9999522612015671,-83.21020343642566
6.46977536,1.0000020433123744,-83.49660113081207
6.476683776,1.0000515282178823,-83.78367703935945
6.483592192,1.0000978672923095,-84.07145774677376
6.490500608,1.0001386429752193,-84.35979804330485
6.497409536,1.000171575385323,-84.64865956306663
6.504317952,1.0001947028736133,-84.93794625039418
6.511226368,1.0002068170309402,-85.22743372969151
6.518134784,1.0002073490223098,-85.5170714703561
6.5250432,1.000196091927067,-85.80660455228134
6.531951616,1.0001737374494775,-86.0959494655396
6.538860032,1.0001416047724048,-86.38491135030482
6.545768448,1.000101303824324,-86.67340805466426
6.552676864,1.000055083350278,-86.9613412721265
6.55958528,1.0000056931281907,-87.24860977092209
6.566494208,0.9999558131584642,-87.53523245194053
6.573402624,0.9999081504511047,-87.82119304313672
6.58031104,0.9998653171819569,-88.10652253300505
6.587219456,0.9998298111222587,-88.39138255014488
6.594127872,0.999803649551765,-88.67578461514306
6.601036288,0.9997881945669325,-88.9599386802587
6.607944704,0.9997843592054203,-89.24399255131479
6.61485312,0.9997923360640132,-89.52807664064474
6.621761536,0.9998117686329874,-89.81230871618355
6.628669952,0.9998413914056725,-90.09689948086722
6.635578368,0.9998795913183659,-90.38202144859682
6.642487296,0.9999245407498323,-90.66766578944586
6.649395712,0.9999734387088398,-90.9539706448304
6.656304128,1.0000236672484637,-91.24095859897643
6.663212544,1.0000724293646852,-91.52863677200871
6.67012096,1.0001170770463603,-91.81695672848672
6.677029376,1.0001549233604932,-92.10583952027532
6.683937792,1.000184137462377,-92.3951954654702
6.690846208,1.0002028252837736,-92.6849001433818
6.697754624,1.000210123950522,-92.974768402699
6.70466304,1.0002056531273942,-93.26468897729107
6.711571456,1.000189451604858,-93.55448037667821
6.718480384,1.0001625010922883,-93.84400680415162
6.7253888,1.0001264365008016,-94.13307316736213
6.732297216,1.0000830515472305,-94.42165263518868
6.739205632,1.0000349816102005,-94.7095607730259
6.746114048,0.999984654038234,-94.99686995689933
6.753022464,0.9999349760425406,-95.28348690820232
6.75993088,0.999888823611289,-95.56945688289191
6.766839296,0.9998485994481798,-95.8548499522399
6.773747712,0.9998166839473969,-96.13977230938255
6.780656128,0.9997947514839273,-96.42431541662808
6.787564544,0.9997840874646362,-96.70865589090485
6.794473472,0.9997851811571673,-96.99296068199538
6.801381888,0.9997982095708822,-97.27736443052724
6.808290304,0.9998222731481506,-97.56198340204054
6.81519872,0.9998560290622854,-97.84705851443152
6.822107136,0.9998976197268804,-98.13266415429386
6.829015552,0.9999448849591632,-98.41884253872136
6.835923968,0.9999950834992535,-98.70570842160987
6.842832384,1.000045383496096,-98.99328845153889
6.8497408,1.000093040718871,-99.2815340478898
6.856649216,1.000135317962787,-99.57038756941093
6.863557632,1.0001700547252441,-99.85977225817217
6.87046656,1.0001950711838183,-100.14959742203641
6.877374976,1.0002091257921515,-100.43968143635541
6.884283392,1.0002114477817046,-100.7299148501173
6.891191808,1.0002018139919138,-101.02007650576543
6.898100224,1.0001808236262537,-101.31003007318526
6.90500864,1.0001495762830261,-101.59969040841085
6.911917056,1.0001098574376148,-101.88886815672535
6.918825472,1.00006387763586,-102.17743819365168
6.925733888,1.000014115969631,-102.46540165317535
6.932642304,0.999963370971851,-102.75266763512346
6.93955072,0.9999145820471732,-103.03926055490624
6.946459648,0.9998702952336604,-103.32525243768981
6.953368064,0.9998331097802263,-103.61068996001926
6.96027648,0.9998049989484749,-103.89568129332385
6.967184896,0.9997876043127654,-104.18038786641094
6.974093312,0.9997818795110012,-104.46496785684364
6.981001728,0.9997881497601648,-104.74952329840491
6.987910144,0.9998060429162465,-105.03426262108894
6.99481856,0.9998346264617695,-105.31932667925024
7.001726976,0.99987222091743,-105.60484619705676
7.008635392,0.9999168173217308,-105.89092799289901
7.015543808,0.9999660194339272,-106.17768294518872
7.022452736,1.000016943064022,-106.46509833274962
7.029361152,1.0000667811904396,-106.75322764104196
7.036269568,1.000112756283958,-107.0420364214239
7.043177984,1.000152470335831,-107.3313935576711
7.0500864,1.0001834515945804,-107.62127882471044
7.056994816,1.0002041664218353,-107.91153186317607
7.063903232,1.0002133182190607,-108.20194732350618
7.070811648,1.0002104899489632,-108.49246338210023
7.077720064,1.000195800445712,-108.78287979387954
7.08462848,1.0001702604592317,-109.07296803712538
7.091536896,1.0001348189880053,-109.36270786376362
7.098445824,1.0000919212641401,-109.6518929448728
7.10535424,1.0000436299674855,-109.94048570811441
7.112262656,0.9999927700900708,-110.22841876265906
7.119171072,0.9999421831825043,-110.51565692717014
7.126079488,0.9998945823026807,-110.8022500199757
7.132987904,0.9998528108228301,-111.08823300398187
7.13989632,0.999819016117219,-111.3737212546877
7.146804736,0.9997950219284644,-111.65880284562131
7.153713152,0.9997824994984588,-111.9436655556813
7.160621568,0.9997817971285976,-112.22845394378402
7.167529984,0.9997932438997275,-112.51329347744615
7.174438912,0.9998159000110531,-112.79839459015851
7.181347328,0.9998487625388427,-113.08387186204357
7.188255744,0.9998899482632138,-113.36988243316966
7.19516416,0.9999371376067644,-113.65647863763463
7.202072576,0.9999877819580272,-113.94375920029536
7.208980992,1.0000389318029308,-114.23174532254568
7.215889408,1.0000877949613964,-114.52041463024561
7.222797824,1.0001317544344894,-114.80973008040736
7.22970624,1.0001682770463558,-115.09958919248436
7.236614656,1.000195227860591,-115.38990529598324
7.243523072,1.0002112858285048,-115.68052176957929
7.250432,1.0002154420787184,-115.97130371031187
7.257340416,1.000207497161264,-116.26204747924122
7.264248832,1.0001879231793898,-116.55259704840307
7.271157248,1.0001577771630312,-116.8428307659832
7.278065664,1.0001186800380861,-117.13260397134296
7.28497408,1.0000727327272216,-117.42182151095878
7.291882496,1.000022708586723,-117.71038946577579
7.298790912,0.9999712638994152,-117.99829627284564
7.305699328,0.9999212640954575,-118.28547793202068
7.312607744,0.9998754877511632,-118.57204599435937
7.31951616,0.9998364613436908,-118.85803602971949
7.326425088,0.9998064109899201,-119.14357473246609
7.333333504,0.9997870123579499,-119.4287466081467
7.34024192,0.9997793784177281,-119.7137814198222
7.347150336,0.9997837918164443,-119.99878985066948
7.354058752,0.9998002385299252,-120.28395084539201
7.360967168,0.9998276763290398,-120.56942474276794
7.367875584,0.9998645957076758,-120.85530943920163
7.374784,0.9999089502421086,-121.14180219011982
7.381692416,0.9999582860803432,-121.42890717663715
7.388600832,1.000009776440125,-121.71673308159758
7.395509248,1.000060772395594,-122.0052500004357
7.402418176,1.0001082569097113,-122.29445628100812
7.409326592,1.0001495970260015,-122.58424253302294
7.416235008,1.0001825465725525,-122.87458436581218
7.423143424,1.000205222474013,-123.16529931989956
7.43005184,1.000216400917624,-123.45623300135071
7.436960256,1.0002154801571803,-123.74729688753817
7.443868672,1.0002024177255409,-124.03822780523801
7.450777088,1.0001780176683757,-124.32893251882126
7.457685504,1.0001434911613403,-124.61924537159803
7.46459392,1.0001009445478064,-124.90903595699129
7.471502336,1.0000526591194805,-125.19822499487316
7.478411264,1.000001246946259,-125.48672411870538
7.48531968,0.9999497044715443,-125.77455090749666
7.492228096,0.9999007747733979,-126.06170482693739
7.499136512,0.9998572329976513,-126.3482019235901
7.506044928,0.9998215030478995,-126.63421065343582
7.512953344,0.9997956608825638,-126.91978598571879
7.51986176,0.9997808860728454,-127.20511468169352
7.526770176,0.9997783527812167,-127.49032066690741
7.533678592,0.9997880755022572,-127.77557131453943
7.540587008,0.9998093608419752,-128.06105536150784
7.547495936,0.9998413199510839,-128.34688274092468
7.554404352,0.9998819114497408,-128.63323210899733
7.561312768,0.9999290578966346,-128.92020126558995
7.568221184,0.9999801070180249,-129.20780435207155
7.5751296,1.0000320990553098,-129.4961442378876
7.582038016,1.000082287376099,-129.78518998469352
7.588946432,1.000127828448504,-130.07488687094946
7.595854848,1.0001661520309706,-130.36515589887136
7.602763264,1.0001952665935605,-130.65590931071404
7.60967168,1.0002133215713702,-130.94698988817024
7.616580096,1.0002194740260741,-131.23823460116117
7.623489024,1.000213270887884,-131.52949513842876
7.63039744,1.0001951975637862,-131.82060031472716
7.637305856,1.0001660970687547,-132.11137958947296
7.644214272,1.0001276586583279,-132.4017386802048
7.651122688,1.0000820921969564,-132.6915100468177
7.658031104,1.000031745707951,-132.98061086435945
7.66493952,0.9999794218410017,-133.2690746919789
7.671847936,0.9999281944813967,-133.55681858004783
7.678756352,0.9998808916197001,-133.84389095492926
7.685664768,0.9998400521584594,-134.13037770127778
7.692573184,0.9998079905893378,-134.41637123455737
7.699482112,0.9997865029063472,-134.70199733143932
7.706390528,0.9997768815098985,-134.98743521678563
7.713298944,0.9997795101023006,-135.27283146357016
7.72020736,0.9997943244982422,-135.55836627104406
7.727115776,0.9998205559194198,-135.84418188017756
7.734024192,0.9998566369868127,-136.130403028543
7.740932608,0.9999006446275135,-136.41720512794842
7.747841024,0.9999501450474486,-136.70463630389193
7.75474944,1.000002309957001,-136.99276285335304
7.761657856,1.0000542510821147,-137.28159417393155
7.768566272,1.0001032120764166,-137.571145188633
7.7754752,1.0001464208331523,-137.8613133122456
7.782383616,1.0001813228948622,-138.1520444706588
7.789292032,1.0002061719911775,-138.44315180890203
7.796200448,1.0002194493069405,-138.73452454501526
7.803108864,1.0002203727476708,-139.02603367932775
7.81001728,1.000209031818508,-139.31747941508593
7.816925696,1.0001859167663394,-139.60869844060772
7.823834112,1.0001523811533926,-139.8995223086687
7.830742528,1.0001102581293866,-140.18985569270524
7.837650944,1.0000619380401292,-140.4795759485932
7.84455936,1.0000100562978453,-140.7686019807388
7.851468288,0.9999574604772065,-141.05695733253793
7.858376704,0.9999071078517264,-141.34460561202252
7.86528512,0.9998619054785126,-141.63161415093336
7.872193536,0.9998241817227558,-141.91806321213704
7.879101952,0.9997962211998149,-142.20407466820805
7.886010368,0.9997794102983649,-142.48976507277644
7.892918784,0.9997748089092915,-142.77534486857925
7.8998272,0.9997827659942673,-143.06094667547293
7.906735616,0.9998026192322045,-143.34673844181398
7.913644032,0.9998334528059021,-143.63286714133216
7.920552448,0.9998735135423498,-143.9194985615046
7.927461376,0.9999205723456834,-144.20673206372453
7.934369792,0.9999719644913326,-144.49462514736078
7.941278208,1.0000248659428936,-144.78323531966342
7.948186624,1.000076350965385,-145.07259769461749
7.95509504,1.000123564295695,-145.36260790534558
7.962003456,1.0001637849634637,-145.65321725416808
7.968911872,1.0001949561749608,-145.94434081488734
7.975820288,1.0002151241328798,-146.23579866408852
7.982728704,1.00022338163988,-146.5274840661834
7.98963712,1.0002190787834628,-146.81918426153143
7.996545536,1.0002024975838675,-147.11076130953245
8.003454464,1.0001745929697798,-147.40201836706603
8.01036288,1.0001369067963903,-147.6928701979152
8.017271296,1.000091466720919,-147.98314354938378
8.024179712,1.0000408536551173,-148.2727809022933
8.031088128,0.999987852653508,-148.5617135342971
8.037996544,0.9999354762272581,-148.8499180436731
8.04490496,0.9998865775798174,-149.13746176277428
8.051813376,0.9998438466400814,-149.4243864623826
8.058721792,0.9998097343577297,-149.71078950399266
8.065630208,0.9997860714944921,-149.99681668886555
8.072538624,0.999774244815595,-150.28258563194524
8.079447552,0.9997750479235826,-150.56829768615486
8.086355968,0.999788081731762,-150.85411482095844
8.093264384,0.9998130064662392,-151.1401780336215
8.1001728,0.9998482486921513,-151.42665667909137
8.107081216,0.9998919219259552,-151.71369680386647
8.113989632,0.9999414506055209,-152.00137375125615
8.120898048,0.9999943224359682,-152.2897399425637
8.127806464,1.0000474564201551,-152.57885637016142
8.13471488,1.0000979751432246,-152.86866254626642
8.141623296,1.0001428715979894,-153.15912127895206
8.148531712,1.000179857996714,-153.45015318285877
8.15544064,1.0002067595452573,-153.74163429933077
8.162349056,1.0002222268658487,-154.03339548372261
8.169257472,1.0002251511103404,-154.32530413285298
8.176165888,1.000215599526637,-154.61715272024023
8.183074304,1.0001938418347873,-154.90882032447644
8.18998272,1.000161368275177,-155.2001101190351
8.196891136,1.000119814766414,-155.4908948488204
8.203799552,1.000071479412706,-155.78110472923808
8.210707968,1.0000190992230755,-156.07061551482877
8.217616384,0.9999655089495975,-156.35940017919526
8.2245248,0.9999137095776279,-156.64749963256122
8.231433728,0.9998667768034422,-156.93490816145533
8.238342144,0.9998270491246317,-157.22174321554647
8.24525056,0.9997968988963667,-157.50810267602955
8.252158976,0.999777926775244,-157.7941587132148
8.259067392,0.9997712986073903,-158.0800149585076
8.265975808,0.9997773264466533,-158.36588387980044
8.272884224,0.9997956114570833,-158.65189575858489
8.27979264,0.9998253665251314,-158.93826504713763
8.286701056,0.9998647171449103,-159.22513245406114
8.293609472,0.999911551631753,-159.51255810958799
8.300517888,0.9999633483807996,-159.80067191558283
8.307426816,1.000017054361993,-160.08948756521602
8.314335232,1.0000699812129439,-160.3790460166462
8.321243648,1.0001188316624194,-160.66932824326827
8.328152064,1.0001611123514331,-160.96021600599406
8.33506048,1.0001943235386095,-161.2516092557256
8.341968896,1.0002167580654138,-161.5434088554099
8.348877312,1.0002271243176561,-161.83540590852581
8.355785728,1.000224855851357,-162.12750659332124
8.362694144,1.0002099089918655,-162.41948287857275
8.36960256,1.000183222353836,-162.71116335245932
8.376510976,1.000146304205392,-163.0024436813372
8.383419904,1.000101154427573,-163.2931519577443
8.39032832,1.0000502505194266,-163.58322620532178
8.397236736,0.9999966279293566,-163.87259686569044
8.404145152,0.9999430108310238,-164.16122337698212
8.411053568,0.9998924075064969,-164.4491659484948
8.417961984,0.999847792224008,-164.73645381600838
8.4248704,0.9998115954179913,-165.0232049915345
8.431778816,0.9997856323287332,-165.30953006332638
8.438687232,0.9997716616933741,-165.59558633620355
8.445595648,0.999770330295035,-165.88154304775443
8.452504064,0.9997816727737752,-166.16756796702452
8.459412992,0.9998051817017413,-166.45384068464347
8.466321408,0.9998394992157998,-166.74049565762243
8.473229824,0.9998827206718298,-167.0276952070824
8.48013824,0.9999324145043148,-167.3155350277088
8.487046656,0.9999858851714509,-167.60408016293462
8.493955072,1.0000401291094825,-167.8933572051927
8.500863488,1.0000920662152057,-168.18336998592278
8.507771904,1.0001388709988022,-168.47405493015404
8.51468032,1.0001780040152548,-168.76531537672338
8.521588736,1.0002071020279744,-169.0570670702832
8.528497664,1.0002248045577282,-169.3491538016784
8.53540608,1.0002298569649342,-169.64136985404582
8.542314496,1.0002220586497705,-169.93357629674603
8.549222912,1.0002019351403444,-170.22561702171535
8.556131328,1.000170463440785,-170.51730555305656
8.563039744,1.0001294798997133,-170.80851038261554
8.56994816,1.0000812083616524,-171.09911464597556
8.576856576,1.0000283195682251,-171.38901857142517
8.583764992,0.999973746800624,-171.67819069803377
8.59067392,0.9999205987644655,-171.96666654739204
8.597581824,0.9998717501535898,-172.25442949684077
8.604490752,0.9998299132767691,-172.54158063617587
8.611398656,0.9997974957490541,-172.82823606724048
8.618307584,0.9997763206219911,-173.11452108679563
8.625215488,0.9997674774708483,-173.40061731498494
8.632124416,0.999771619002952,-173.68668515120962
8.63903232,0.9997883653820014,-173.97289007234122
8.645941248,0.9998168262939549,-174.25941527656016
8.652850176,0.9998554267896798,-174.5463919580937
8.65975808,0.999902104909407,-174.83395034712387
8.666667008,0.9999542096087704,-175.1221681020847
8.673574912,1.0000088680732513,-175.4111338257691
8.68048384,1.0000630546179345,-175.70085266682366
8.687391744,1.0001136592253703,-175.9913065153459
8.694300672,1.0001579347808933,-176.282366042443
8.701208576,1.0001933576132973,-176.5739897979471
8.708117504,1.0002180845281703,-176.86603537345604
8.715025408,1.0002306758057198,-177.15831865351353
8.721934336,1.0002304578480492,-177.4507359101449
8.728843264,1.0002171182204145,-177.74303545678663
8.735751168,1.0001919218357274,-178.03506600106388
8.742660096,1.0001558889248292,-178.32669277893459
8.749568,1.0001111217545162,-178.6177807902609
