freq,mag,phase
6.0,0.9993964789610952,26.6840475363848
6.005586432,0.9993929955187544,26.54551766863111
6.011173376,0.9994247678503977,26.406741678378907
6.016759808,0.9994900024626518,26.267274501261536
6.02234624,0.9995848515999258,26.12666172040622
6.027933184,0.999703831165318,25.98458053994174
6.033519616,0.9998399572254689,25.840701188179096
6.039106048,0.9999852523975732,25.694848136914764
6.044692992,1.0001311851723798,25.546936995276173
6.050279424,1.0002692713952153,25.397024982846208
6.055865856,1.0003913460832656,25.24531566939594
6.061452288,1.0004903432755656,25.091976942482127
6.067039232,1.0005604088183655,24.93751913534938
6.072625664,1.0005974535577047,24.782239588817422
6.078212096,1.0005992170654474,24.626717500104753
6.08379904,1.0005657587065757,24.471399670136943
6.089385472,1.0004987341055134,24.316788714696894
6.094971904,1.0004022892324282,24.163226650827735
6.100558848,1.0002819239148875,24.01122400136572
6.10614528,1.0001447540533157,23.860984830204103
6.111731712,0.999998675794031,23.712730879823074
6.117318656,0.9998522833181764,23.566512150568762
6.122905088,0.9997142758614432,23.422226574156216
6.12849152,0.9995925404251628,23.27976973215442
6.134078464,0.9994943869678813,23.13882214966052
6.139664896,0.9994254622848825,22.99905441603889
6.145251328,0.9993899584626322,22.860013439960706
6.15083776,0.9993898443245052,22.721172021445526
6.156424704,0.9994252933111222,22.582126689587383
6.162011136,0.9994941250731715,22.442307876010513
6.167597568,0.9995923558647266,22.30130240986913
6.173184512,0.9997142340161143,22.158762152661723
6.178770944,0.9998527481071139,22.014412742726023
6.184357376,0.9999995445302308,21.8679970817761
6.18994432,1.0001463126361354,21.71954760389837
6.195530752,1.0002843393707033,21.569126519317514
6.201117184,1.000405404736464,21.416863704965778
6.206704128,1.0005026418457097,21.263076531886696
6.21229056,1.0005701554327024,21.10807876514537
6.217876992,1.0006041716620722,20.952439339672253
6.223463936,1.0006025156229907,20.79646288128869
6.229050368,1.0005653759409894,20.640801479314494
6.2346368,1.0004947260653843,20.485844290007734
6.240223232,1.0003949552838463,20.332081973348338
6.245810176,1.0002716765262272,20.179876918858213
6.251396608,1.0001321756203032,20.029450010566073
6.25698304,0.9999844430977846,19.881024195669205
6.262569984,0.9998373313146061,19.7347182828995
6.268156416,0.9996993649891764,19.590311041388937
6.273742848,0.999578761162656,19.447703655314406
6.279329792,0.9994823401805707,19.30661128936245
6.284916224,0.9994159735967347,19.16666050692518
6.290502656,0.9993835081636155,19.02738488978422
6.2960896,0.9993869435717216,18.88828196144638
6.301676032,0.9994259177133549,18.748872705919897
6.307262464,0.9994983160880715,18.60872966565933
6.312849408,0.9996000148040509,18.46730404090772
6.31843584,0.9997248100310678,18.324320323206624
6.324022272,0.9998656133901584,18.179413121344293
6.329608704,1.000014028796444,18.032522676934622
6.335195648,1.0001614976262927,17.8835194959589
6.34078208,1.0002993474478705,17.732535054445297
6.346368512,1.0004194487470235,17.579740637700734
6.351955456,1.0005148220194815,17.4253919442386
6.357541888,1.000579868637028,17.26996833551747
6.36312832,1.0006107441640477,17.113835986768503
6.368715264,1.0006056225642792,16.957493215770963
6.374301696,1.000564806898223,16.801493094400904
6.379888128,1.0004906140111482,16.64623510991138
6.385475072,1.0003874001925217,16.49219314032741
6.391061504,1.0002612230644337,16.339757159416035
6.396647936,1.0001193416431189,16.189156115749714
6.40223488,0.9999700631454612,16.040605785334343
6.407821312,0.9998222678517639,15.894113051245318
6.413407744,0.9996844846682637,15.749580468019385
6.418994176,0.9995648384043665,15.606828266080083
6.42458112,0.9994703364992299,15.465609009647725
6.430167552,0.9994065189688105,15.325452962902709
6.435753984,0.9993771695979631,15.185948401359406
6.441340928,0.9993840214271167,15.046601491449081
6.44692736,0.9994267239245737,14.906837516644147
6.452513792,0.9995028807344359,14.76628550794689
6.458100736,0.9996078234967466,14.624438863783046
6.463687168,0.9997355836788488,14.48095836315003
6.4692736,0.9998786608434912,14.335613194926683
6.474860544,1.0000286648944474,14.188123865642673
6.480446976,1.0001768308340386,14.0386144203212
6.486033408,1.0003144433191715,13.887062763696061
6.491620352,1.0004334996225972,13.733678357872765
6.497206784,1.0005269378980297,13.57883886149135
6.502793216,1.0005894093128478,13.422874335914823
6.508379648,1.0006171763417813,13.266279655166757
6.513966592,1.0006085259402644,13.109541595828494
6.519553024,1.0005640082507046,12.95315412547929
6.525139456,1.0004862017988057,12.797577036251848
6.5307264,1.0003796632343591,12.64330056190792
6.536312832,1.0002504754199277,12.490605312424108
6.541899264,1.000106320134222,12.339856713275637
6.547486208,0.9999555580819545,12.19113742377488
6.55307264,0.9998070486427117,12.04449240346258
6.558659072,0.9996694835259318,11.899811555661074
6.564246016,0.9995508270624229,11.75695071227265
6.569832448,0.9994582965825426,11.61553678500939
6.57541888,0.999397111759567,11.47516698348874
6.581005824,0.9993708916823477,11.33543253322306
6.586592256,0.999381281667069,11.19573898331962
6.592178688,0.9994277616075019,11.05568271865073
6.59776512,0.9995074451707064,10.914731178801485
6.603352064,0.9996158074490189,10.772450226532055
6.608938496,0.9997464847868918,10.628484956974523
6.614524928,0.99989183532617,10.482567831516247
6.620111872,1.0000433829522617,10.334605617028872
6.625698304,1.0001922279609115,10.184493458284937
6.631284736,1.0003295392859948,10.032351241317594
6.63687168,1.000447576264232,9.878419027803165
6.642458112,1.0005390670836862,9.723041858942917
6.648044544,1.0005989017202424,9.566597189330633
6.653631488,1.0006234482098173,9.409514254726922
6.65921792,1.0006113197599178,9.25235883591511
6.664804352,1.0005631241933926,9.095584881981562
6.670391296,1.0004816349418066,8.939676648114663
6.675977728,1.0003716419400992,8.785142343482716
6.68156416,1.0002396506614388,8.632267196216464
6.687150592,1.000093213934662,8.481277072344305
6.692737536,0.999940913767002,8.332373103054302
6.698323968,0.999791704669988,8.185587665883961
6.7039104,0.9996544701789928,8.040783961453995
6.709497344,0.9995370028412053,7.897740831291443
6.715083776,0.9994462269295982,7.756111395553333
6.720670208,0.9993877508628699,7.615554371710491
6.726257152,0.9993647371392117,7.4755555217518275
6.731843584,0.9993787594817666,7.335604278215069
6.737430016,0.9994288494057788,7.195169532849573
6.74301696,0.9995121993970161,7.053798926639352
6.748603392,0.9996239954947203,6.911074383428338
6.754189824,0.9997576046464202,6.7666171435638525
6.759776768,0.9999051668033229,6.620145172230142
6.7653632,1.0000581792159262,6.47162582183519
6.770949632,1.000207627828956,6.320906660077241
6.776536064,1.0003447432451993,6.168228119432945
6.782123008,1.00046155747769,6.013728899619052
6.78770944,1.0005511870070132,5.857792830073222
6.793295872,1.0006083583031884,5.700801389542154
6.798882816,1.0006296330045927,5.5432687896329345
6.804469248,1.000613931851869,5.385672988814157
6.81005568,1.0005619894528281,5.228523635377711
6.815642624,1.0004769148921677,5.072344121339928
6.821229056,1.0003635459115985,4.917484076092985
6.826815488,1.0002286519608523,4.764354235129106
6.832402432,1.0000798790096503,4.613196849327684
6.837988864,0.9999260988617965,4.4640929376271785
6.843575296,0.9997763540000761,4.317131247987491
6.84916224,0.9996393832635068,4.172176828898401
6.854748672,0.9995228955342464,4.028968239145913
6.860335104,0.9994343342255656,3.8871843729927433
6.865921536,0.9993784531396945,3.746403240338768
6.87150848,0.9993587428265083,3.6060748659065833
6.877094912,0.9993762151705937,3.4658145264658
6.882681344,0.9994301523260092,3.3250558026814114
6.888268288,0.9995172162412239,3.183260200744255
6.89385472,0.9996323348753294,3.040039505313659
6.899441152,0.9997688843722563,2.8950581196689087
6.905028096,0.9999187193484989,2.748080060815922
6.910614528,1.0000732680254965,2.5989455226713702
6.91620096,1.000223246546169,2.447689313684437
6.921787904,1.0003601076595316,2.294372757452661
6.927374336,1.0004756990189922,2.139302745524476
6.932960768,1.000563331199751,1.9828254803088146
6.938547712,1.0006177503865297,1.8252994406565592
6.944134144,1.0006358233643948,1.6672806457407074
6.949720576,1.0006164020628276,1.5092071781966665
6.955307008,1.0005608305008842,1.3516960618611373
6.960893952,1.0004720329431758,1.1951232745863605
6.966480384,1.0003551745252903,1.0400195753867045
6.972066816,1.0002173902198643,0.8866387110926635
6.97765376,1.000066370376517,0.7352639778678624
6.983240192,0.999911215270352,0.5860132350422856
6.988826624,0.9997608095661648,0.4388695971442183
6.994413568,0.9996239771777709,0.29373097598182696
7.0,0.9995089004856886,0.15032726081734524
7.005586432,0.9994222628254288,0.008363375077008095
7.011173376,0.9993692018510544,-0.1326915960419603
7.016759808,0.9993527317793263,-0.2732292137216979
7.02234624,0.9993738734556711,-0.4138320220186403
7.027933184,0.999431589156634,-0.5550002831533764
7.033519616,0.9995224213966657,-0.697217140202592
7.039106048,0.9996408362439347,-0.8409038906029417
7.044692992,0.9997802755094858,-0.9863917252036002
7.050279424,0.9999324268682358,-1.1339337609501863
7.055865856,1.0000883798334836,-1.2836546804106548
7.061452288,1.0002389581275322,-1.4355587386695259
7.067039232,1.0003754969083283,-1.5894692736017348
7.072625664,1.0004897774663093,-1.7450999438990908
7.078212096,1.00057533073388,-1.9021909667119725
7.08379904,1.0006269808937827,-2.060249159049838
7.089385472,1.0006418773641665,-2.2187475030623047
7.094971904,1.0006188523543604,-2.37723788477511
7.100558848,1.0005594059804521,-2.5352108677478773
7.10614528,1.0004669097155523,-2.6920856424709845
7.111731712,1.0003467347285409,-2.847511484782297
7.117318656,1.0002060335717746,-3.0011311147274498
7.122905088,1.0000528183463995,-3.152737414884858
7.12849152,0.999896128541839,-3.302165833390696
7.134078464,0.9997451299465953,-3.4495048488344824
7.139664896,0.9996088007802381,-3.5948117484231665
7.145251328,0.9994949171052023,-3.738381647508438
7.15083776,0.9994103240303625,-3.8805807918903654
7.156424704,0.9993600766769218,-4.021866019753652
7.162011136,0.9993468276110385,-4.162712621162661
7.167597568,0.9993717170356134,-4.303654076337746
7.173184512,0.9994331902212995,-4.445195317705044
7.178770944,0.9995277135033356,-4.587860015678107
7.184357376,0.999649682753094,-4.732041915952447
7.18994432,0.9997919882468118,-4.878082324261751
7.195530752,0.9999463908723861,-5.026211060194227
7.201117184,1.0001036777562624,-5.1765474355112975
7.206704128,1.0002548443080868,-5.329033523552789
7.21229056,1.000391063328885,-5.483547886198076
7.217876992,1.0005041755990858,-5.639817469421234
7.223463936,1.0005874958575165,-5.7974539751145455
7.229050368,1.0006364663812861,-5.956031889647116
7.2346368,1.0006478627782578,-6.115084655606176
7.240223232,1.0006212439044009,-6.274021289738962
7.245810176,1.0005578602857308,-6.432377226109701
7.251396608,1.0004616525530994,-6.589637999230485
7.25698304,1.00033811396321,-6.745359724077322
7.262569984,1.000194434702352,-6.899227129796695
7.268156416,1.0000389758371584,-7.051071772177111
7.273742848,0.9998808321261085,-7.2007112443652685
7.279329792,0.99972942693752,-7.3482234330005305
7.284916224,0.9995933679921764,-7.493736484593915
7.290502656,0.9994808858914118,-7.63750949906129
7.2960896,0.999398382342544,-7.779917863727636
7.301676032,0.9993507906283081,-7.921469218513166
7.307262464,0.999341099315022,-8.062600610294462
7.312849408,0.9993696599167963,-8.203865740385526
7.31843584,0.9994349479451995,-8.345847578200337
7.324022272,0.9995331710176399,-8.488959969805816
7.329608704,0.9996584778017632,-8.633655296646834
7.335195648,0.999803686835109,-8.780245003019814
7.34078208,0.9999603125017291,-8.928965048099707
7.346368512,1.000119128618775,-9.07990347236755
7.351955456,1.0002707702051388,-9.232991035495298
7.357541888,1.0004064594125979,-9.388161374819056
7.36312832,1.000518344932056,-9.54503421520444
7.368715264,1.0005996036065778,-9.703278484332817
7.374301696,1.0006456985806642,-9.86244488834389
7.379888128,1.0006537117225236,-10.021993009513473
7.385475072,1.0006233149902484,-10.18141396881495
7.391061504,1.0005562224703464,-10.340168007864463
7.396647936,1.0004562151357863,-10.497767347493273
7.40223488,1.0003291630055946,-10.653850728449669
7.407821312,1.0001825566981644,-10.807976928157833
7.413407744,1.000024944609191,-10.960036499428805
7.418994176,0.9998654465696397,-11.109891314932993
7.42458112,0.9997134473134436,-11.257584975617261
7.430167552,0.999577846819979,-11.40325624684022
7.435753984,0.9994665318793783,-11.547258568144649
7.441340928,0.9993862774041039,-11.689918462437912
7.44692736,0.9993416339701297,-11.83173381684202
7.452513792,0.9993352935721452,-11.973184539982444
7.458100736,0.9993675373205173,-12.114847967197207
7.463687168,0.9994367684712729,-12.257229660600276
7.4692736,0.999538772279806,-12.400798239504626
7.474860544,0.9996675691833158,-12.545988454119156
7.480446976,0.9998156425872802,-12.693153052252198
7.486033408,0.9999744809274925,-12.842489307512611
7.491620352,1.0001347938282015,-12.994026215760458
7.497206784,1.0002868616092464,-13.147780631166436
7.502793216,1.000422207533622,-13.303570264399307
7.508379648,1.0005326723765373,-13.461067173730985
7.513966592,1.0006116988606664,-13.619921579750702
7.519553024,1.0006549532314002,-13.779663913539192
7.525139456,1.0006595484018441,-13.939743456668277
7.5307264,1.0006253660065483,-14.09965106504318
7.536312832,1.000554260682825,-14.258818386817692
7.541899264,1.0004505719298706,-14.416815366785677
7.547486208,1.0003201647973063,-14.573169840598736
7.55307264,1.0001706447167142,-14.727616186603818
7.558659072,1.000010681945415,-14.879910847493543
7.564246016,0.9998497779364698,-15.029990964503664
7.569832448,0.9996973253333413,-15.177870773878702
7.57541888,0.999562239611013,-15.323780868075007
7.581005824,0.9994523502032165,-15.467955922211184
7.586592256,0.9993742697520869,-15.610875423757422
7.592178688,0.999332489983219,-15.752957004397095
7.59776512,0.9993296185331205,-15.89472077486529
7.603352064,0.9993656873696874,-16.0367596186088
7.608938496,0.9994387619379499,-16.179563737129655
7.614524928,0.9995445209502747,-16.323614070081323
7.620111872,0.9996768293942169,-16.469386665576852
7.625698304,0.9998279059731944,-16.617087350697425
7.631284736,0.999988885695867,-16.767043762318814
7.63687168,1.0001504885513317,-16.919240013764437
7.642458112,1.0003031961637097,-17.073632654229478
7.648044544,1.0004379641923002,-17.230065033329
7.653631488,1.0005468676518552,-17.388253321141107
7.65921792,1.000623944284892,-17.547718032251144
7.664804352,1.0006641200191926,-17.708025158073454
7.670391296,1.0006653173322082,-17.868635400978945
7.675977728,1.0006273774691945,-18.02901447791152
7.68156416,1.0005523716048321,-18.18864166457291
7.687150592,1.0004449068161918,-18.346994858478276
7.692737536,1.0003109619541213,-18.503693134349145
7.698323968,1.0001585596050935,-18.658422098158205
7.7039104,0.9999963820462991,-18.810950724072935
7.709497344,0.9998341634178736,-18.961266397550286
7.715083776,0.9996811522342557,-19.109363797006022
7.720670208,0.9995465867047073,-19.255478482322378
7.726257152,0.9994380705901066,-19.39992729076239
7.731843584,0.9993621681233094,-19.543090655999126
7.737430016,0.9993233486261872,-19.685455272375197
7.74301696,0.9993239709713074,-19.82754911016008
7.748603392,0.9993638945982274,-19.969980137922942
7.754189824,0.99944084471091,-20.113214085273324
7.759776768,0.9995505417097285,-20.257778263435092
7.7653632,0.9996861853548293,-20.404053681251717
7.770949632,0.9998402587461266,-20.5523725284766
7.776536064,1.000003504016894,-20.702942233066565
7.782123008,1.0001664864890178,-20.855779424207434
7.78770944,1.0003195938573557,-21.01089783451038
7.793295872,1.0004537479433329,-21.16799817653281
7.798882816,1.000561467953126,-21.32677606602646
7.804469248,1.0006360828936725,-21.48689997820766
7.81005568,1.0006733824257688,-21.647787462027754
7.815642624,1.0006710781283406,-21.80893929020671
7.821229056,1.0006291941483652,-21.96984445014076
7.826815488,1.000550432874935,-22.129903132677516
7.832402432,1.0004389397287172,-22.288668645802897
7.837988864,1.0003015438008758,-22.445708754829823
7.843575296,1.0001461905556566,-22.600689105219278
7.84916224,0.9999817790127411,-22.753523273324287
7.854748672,0.9998182486945296,-22.904024994415014
7.860335104,0.9996648045819833,-23.05236053298452
7.865921536,0.9995305845392756,-23.198737890076117
7.87150848,0.9994235605528221,-23.343406542610023
7.877094912,0.9993501093516544,-23.4867978830834
7.882681344,0.9993142268511314,-23.629478115492297
7.888268288,0.999318350215915,-23.771922581829838
7.89385472,0.9993621238437216,-23.91474757918557
7.899441152,0.999443142196487,-24.05842636121338
7.905028096,0.9995565293493576,-24.203499096195248
7.910614528,0.999695795324178,-24.35035775055496
7.91620096,0.9998527789094823,-24.499309984131656
7.921787904,1.0000182662710841,-24.65049620014052
7.927374336,1.0001825624173355,-24.804023117554735
7.932960768,1.0003360595438684,-24.959768287554034
7.938547712,1.0004698440423325,-25.11754172957486
7.944134144,1.0005760834823563,-25.277038787870147
7.949720576,1.0006483585506858,-25.43775586471718
7.955307008,1.0006826205568924,-25.599275739755484
7.960893952,1.0006767429728645,-25.76099799793519
7.966480384,1.0006310009715267,-25.922378770921966
7.972066816,1.0005481791564759,-26.08292400354645
7.97765376,1.0004329434722927,-26.242066417019277
7.983240192,1.0002919975670457,-26.39945239421899
7.988826624,1.0001336174007542,-26.554758707126744
7.994413568,0.9999669875124528,-26.707835030736756
8.0,0.9998020737951947,-26.858593584100767
8.005586432,0.9996482105241753,-27.00718666001999
8.011173376,0.9995145234205084,-27.15375665653198
8.016759808,0.999409082987759,-27.298655574728446
8.02234624,0.9993377535629887,-27.442358398386865
8.027933184,0.9993049552713463,-27.585346266037146
8.033519616,0.9993127200193773,-27.728151314672104
8.039106048,0.9993604883693892,-27.871356981874687
8.044692992,0.999445462436136,-28.01552732060096
8.050279424,0.999562691535222,-28.16111659787066
8.055865856,0.9997054917714129,-28.30852508771585
8.061452288,0.9998655034203603,-28.45807886610503
8.067039232,1.0000332134530003,-28.60995218686317
8.072625664,1.0001988816030425,-28.764148229089432
8.078212096,1.0003527244716566,-28.920607611676214
8.08379904,1.0004859407574074,-29.079070090627404
8.089385472,1.000590643855,-29.239233048733524
8.094971904,1.0006606089132875,-29.40062644908713
8.100558848,1.0006918205317612,-29.562747291376755
8.10614528,1.0006822629160117,-29.725058296728097
8.111731712,1.00063270026952,-29.88696202463724
8.117318656,1.0005457856213422,-30.047916090294223
8.122905088,1.0004266864440559,-30.20746436956484
8.12849152,1.0002822530833493,-30.36521211250739
8.134078464,1.0001209063438061,-30.520838889737625
8.139664896,0.9999520946916041,-30.674223826765896
8.145251328,0.9997857289908126,-30.825219500993402
8.15083776,0.999631443209329,-30.974019739394752
8.156424704,0.9994984943649501,-31.12085912448325
8.162011136,0.9993943516045891,-31.266030898742088
8.167597568,0.9993253970944447,-31.4099924147801
8.173184512,0.9992957435115417,-31.5533045603466
8.178770944,0.9993071185999897,-31.69647747877186
8.184357376,0.9993587896304874,-31.84011518794181
8.18994432,0.9994478569525217,-31.984774430360794
8.195530752,0.9995691214886561,-32.130877741411595
8.201117184,0.9997154069088218,-32.27890043253144
8.206704128,0.999878331702289,-32.42907735245439
8.21229056,1.0000481392627114,-32.58160291196258
8.217876992,1.0002153117750818,-32.73651173559062
8.223463936,1.0003695877405345,-32.89368946338049
8.229050368,1.000502291577499,-33.05286288152856
8.2346368,1.0006054345431283,-33.213704545359874
8.240223232,1.0006729943154546,-33.375771194547994
