freq,mag,phase
6.0,1.0001721456759591,-160.50763867497977
6.00307712,1.0001214833726544,-160.7055173570627
6.006153728,1.0000631843604086,-160.90262267594903
6.009230848,1.000000812499995,-161.09888967452324
6.012307456,0.9999381549365339,-161.29421006593398
6.015384576,0.9998792312206193,-161.4887295907046
6.018461696,0.9998274680550666,-161.68242781042815
6.021538304,0.9997863733170784,-161.87548627128555
6.024615424,0.9997582365982136,-162.0680299000441
6.027692544,0.9997449758723553,-162.26028747598724
6.030769152,0.9997473579533629,-162.45248953597488
6.033846272,0.9997652053837126,-162.6448087500996
6.03692288,0.9997975826783726,-162.83751993722927
6.04,0.9998424324483317,-163.03079389181784
6.04307712,0.9998970139939544,-163.2247868666744
6.046153728,0.9999579148490355,-163.41960232826676
6.049230848,1.0000214640699308,-163.61532914243617
6.052307456,1.000083619710727,-163.81195295761773
6.055384576,1.0001406648647588,-164.00945916624136
6.058461696,1.0001889886370887,-164.2077137559562
6.061538304,1.0002256101869098,-164.40657679552925
6.064615424,1.000248215731047,-164.6058935734458
6.067692544,1.00025548148117,-164.80542472190015
6.070769152,1.0002468798081623,-165.00497340308937
6.073846272,1.0002229212743226,-165.20426785595322
6.07692288,1.0001850504526892,-165.4031407901597
6.08,1.0001356791489606,-165.60141826375505
6.08307712,1.0000777262110092,-165.79891116143693
6.086153728,1.0000146692339245,-165.995557130153
6.089230848,0.9999506830565787,-166.19129661624422
6.092307456,0.9998895460476512,-166.386128173637
6.095384576,0.99983509592291,-166.58015087737792
6.098461696,0.9997906074219933,-166.77345465321713
6.101538304,0.9997589648399587,-166.96624413876953
6.104615424,0.9997420847944684,-167.1586699391904
6.107692544,0.9997410377192419,-167.35096611724674
6.110769152,0.9997558799956784,-167.54337422283254
6.113846272,0.9997858189855093,-167.73611744567904
6.11692288,0.9998289774445848,-167.92934883258215
6.12,0.9998826069827013,-168.12332096124373
6.12307712,0.9999434662813117,-168.31812148348195
6.126153728,1.0000079350363436,-168.51379930460604
6.129230848,1.000071847734218,-168.71042678767498
6.132307456,1.0001313817439994,-168.90794928707973
6.135384576,1.0001827432591106,-169.10624879569363
6.138461696,1.000222847260357,-169.3052444732
6.141538304,1.0002491388761847,-169.50470676183397
6.144615424,1.0002599558092344,-169.70441466805602
6.147692544,1.00025466962753,-169.9042073906105
6.150769152,1.000233636426302,-170.1038066676627
6.153846272,1.0001978800487357,-170.3030112895953
6.15692288,1.0001499566233185,-170.50163606163963
6.16,1.0000925432667105,-170.6994986843945
6.16307712,1.0000292468480376,-170.89649792113445
6.166153728,0.999963980029274,-171.09258526439277
6.169230848,0.999900741985776,-171.2877626007187
6.172307456,0.9998434157889874,-171.4820733914875
6.175384576,0.9997957847349167,-171.67564860246137
6.178461696,0.9997605342475715,-171.8686104712178
6.181538304,0.999739958764534,-172.0612025608115
6.184615424,0.9997353142587533,-172.25357107903994
6.187692544,0.9997469820186267,-172.44602061393772
6.190769152,0.999774239373213,-172.6387640541163
6.193846272,0.9998154669670138,-172.83198129113535
6.19692288,0.9998679926790679,-173.02588874690173
6.2,0.9999286800147583,-173.22060675045978
6.20307712,0.999993847021754,-173.4162159976181
6.206153728,1.0000593525452968,-173.6127999996462
6.209230848,1.0001212064794753,-173.8102819240706
6.212307456,1.0001756140507734,-174.00860277703632
6.215384576,1.0002191241497331,-174.2076401249205
6.218461696,1.0002491193270886,-174.40722479255354
6.221538304,1.00026367603412,-174.6071067730933
6.224615424,1.0002618436734736,-174.80710221613373
6.227692544,1.0002437910537916,-175.00697007303344
6.230769152,1.0002105415318023,-175.20645727112773
6.233846272,1.000164252348011,-175.40539458234232
6.23692288,1.0001074917751096,-175.6035851363442
6.24,1.0000440635726429,-175.80094744186263
6.24307712,0.9999777206754727,-175.99737323392603
6.246153728,0.9999126042329936,-176.19285759768925
6.249230848,0.9998526816697099,-176.38744088237465
6.252307456,0.9998017463259303,-176.58122255777178
6.255384576,0.9997628704584101,-176.77438932801968
6.258461696,0.9997385621184298,-176.96707408553408
6.261538304,0.9997302270244786,-177.15954629885454
6.264615424,0.9997386108836268,-177.3520104510825
6.267692544,0.9997629822023668,-177.5447166854401
6.270769152,0.999802041033642,-177.73787514254488
6.273846272,0.9998532315994978,-177.9316877998678
6.27692288,0.9999135395512573,-178.12630741452392
6.28,0.9999791828921336,-178.32183111011759
6.28307712,1.0000461876141369,-178.5183101760138
6.286153728,1.0001103204405049,-178.71573423906875
6.289230848,1.0001675506611818,-178.914019942305
6.292307456,1.0002146052116043,-179.113078702024
6.295384576,1.0002482715058885,-179.31271823162027
6.298461696,1.0002666046854467,-179.5127250435532
6.301538304,1.0002683804037802,-179.71290382731047
6.304615424,1.000253519666251,-179.91298175848002
6.307692544,1.0002229501835547,179.8872646815217
6.310769152,1.000178499475804,179.6880402694939
6.313846272,1.000122782318811,179.48952815053386
6.31692288,1.0000593333335048,179.29186170277197
6.32,0.9999921395264261,179.0951480564617
6.32307712,0.999925270439575,178.89935269376727
6.326153728,0.9998627799867719,178.7045056542314
6.329230848,0.9998085889513403,178.51052505667514
6.332307456,0.9997662196604908,178.31721817121024
6.335384576,0.9997380507268774,178.12439018117547
6.338461696,0.9997259529313528,177.93187621217086
6.341538304,0.999730708300842,177.7394189304331
6.344615424,0.9997521396052371,177.54677012216698
6.347692544,0.9997888177974323,177.35367950208845
6.350769152,0.9998384649402628,177.15998057976552
6.353846272,0.9998981906895438,176.96550124412403
6.35692288,0.9999640814149919,176.77011847149907
6.36,1.0000323507143438,176.5737852152629
6.36307712,1.0000985016651978,176.37645714317486
6.366153728,1.000158662550573,176.17822619135347
6.369230848,1.000209077984703,175.9792148185467
6.372307456,1.000246500518444,175.77954270641527
6.375384576,1.000268724389778,175.57946339713507
6.378461696,1.000274186376415,175.37915260320784
6.381538304,1.0002627594060904,175.17891693043532
6.384615424,1.00023499631915,174.9789210079949
6.387692544,1.000192525183856,174.7794553644825
6.390769152,1.0001381260918139,174.580651366915
6.393846272,1.000075089499434,174.38271010168313
6.39692288,1.0000070951741995,174.18568992054176
6.4,0.9999385700443861,173.98966192891203
6.40307712,0.9998735983756752,173.79455661746604
6.406153728,0.9998163371693642,173.60037122160278
6.409230848,0.9997702563719723,173.40691212113697
6.412307456,0.9997382330802804,173.21400722781777
6.415384576,0.9997223381494758,173.02146178410425
6.418461696,0.9997234446049917,172.82899273612608
6.421538304,0.9997416667859361,172.63641751479486
6.424615424,0.9997756652167397,172.44347336531297
6.427692544,0.9998235885870379,172.24991060669035
6.430769152,0.9998824722489857,172.05561408692762
6.433846272,0.9999484910316383,171.86041252449772
6.43692288,1.0000178379308036,171.6642117374262
6.44,1.000086037861632,171.4670406774488
6.44307712,1.0001489634049787,171.26892780006494
6.446153728,1.0002027485370248,171.0699766375312
6.449230848,1.0002439538144956,170.8703418096225
6.452307456,1.0002700785451157,170.67021364945887
6.455384576,1.0002794434606783,170.46983458948097
6.458461696,1.000271525935677,170.26942294641916
6.461538304,1.0002468732909613,170.06926419437647
6.464615424,1.0002066189116208,169.8695694964116
6.467692544,1.0001536537546998,169.67051524077556
6.470769152,1.0000910471799531,169.4723051733595
6.473846272,1.0000225445135555,169.27503618459252
6.47692288,0.9999526287060264,169.07874448444878
6.48,0.9998853111050464,168.88344553705753
6.48307712,0.9998250266776496,168.6890531717572
6.486153728,0.9997753238178144,168.49546625579268
6.489230848,0.9997394408746241,168.30247690510055
6.492307456,0.9997194994897216,168.10991538599478
6.495384576,0.9997167709087509,167.9175257977528
6.498461696,0.9997315377763812,167.72502440571313
6.501538304,0.9997628392313732,167.5321985767591
6.504615424,0.9998087703369201,167.3388239247791
6.507692544,0.9998665226050504,167.14471555978284
6.510769152,0.9999325214630003,166.94970549720145
6.513846272,1.0000027898365773,166.7537310459645
6.51692288,1.0000728270318981,166.55673830085712
6.52,1.0001382724210386,166.35878483447917
6.52307712,1.0001953782956767,166.15993613081602
6.526153728,1.0002403850167183,165.9603663601018
6.529230848,1.0002705313227844,165.76024758106925
6.532307456,1.0002839988820154,165.55981781404566
6.535384576,1.000279781590408,165.35931156767728
6.538461696,1.0002581635279155,165.15900416756358
6.541538304,1.0002205217669948,164.9591077541788
6.544615424,1.0001691709981744,164.75983517925297
6.547692544,1.0001073460222922,164.5613918499733
6.550769152,1.000038531856287,164.36387367925423
6.553846272,0.9999672378044828,164.1673680839636
6.55692288,0.9998978242071098,163.9718556431425
6.56,0.9998345754152633,163.7773119432402
6.56307712,0.9997812736494982,163.58360942473632
6.566153728,0.9997415538583416,163.39057406739815
6.569230848,0.9997175210542559,163.19800208581594
6.572307456,0.9997108366907841,163.00564338297656
6.575384576,0.9997220295252169,162.81326197628488
6.578461696,0.999750376342278,162.6205988473904
6.581538304,0.999794066591282,162.42743273604844
6.584615424,0.999850496019686,162.2335470153751
6.587692544,0.9999161400051843,162.03877325460695
6.590769152,0.9999870621562521,161.84304143003456
6.593846272,1.0000587785008006,161.64626767944674
6.59692288,1.0001269535032384,161.4485038942926
6.6,1.000187208282507,161.24983567659794
6.60307712,1.0002359187604921,161.05033138176964
6.606153728,1.0002701265595813,160.85025603970783
6.609230848,1.0002875148510797,160.6498393301885
6.612307456,1.0002872120785404,160.4492706943535
6.615384576,1.0002690742754832,160.24882731760488
6.618461696,1.0002342579242285,160.04876026996752
6.621538304,1.0001847783689684,159.8493264360055
6.624615424,1.0001237125613673,159.65064991120224
6.627692544,1.000054919530372,159.45292770056554
6.630769152,0.9999826060895272,159.25621339129177
6.633846272,0.9999111735467487,159.0605520797569
6.63692288,0.999845038688669,158.86584648651095
6.64,0.9997882952849597,158.672053711505
6.64307712,0.9997445451622115,158.47894642004206
6.646153728,0.9997163731466489,158.2863803752601
6.649230848,0.9997057604840285,158.0941028702532
6.652307456,0.9997132542079932,157.90186481125002
6.655384576,0.9997382926614554,157.70938271845134
6.658461696,0.9997795309172548,157.5164190944146
6.661538304,0.999834446674276,157.32279845892594
6.664615424,0.9998994161139757,157.12828797828573
6.667692544,0.9999708433421406,156.93281284255636
6.670769152,1.0000441103398179,156.73632182237617
6.673846272,1.0001145843685761,156.53877235039607
6.67692288,1.0001779669058148,156.34027161926755
6.68,1.0002304494541834,156.1409493908792
6.68307712,1.0002687660675655,155.94096748362398
6.686153728,1.000290358817305,155.74058103162108
6.689230848,1.0002940276267465,155.53997125077709
6.692307456,1.0002795105783449,155.33947380619358
6.695384576,1.000247593890374,155.13929237478067
6.698461696,1.000200324618381,154.9396721136654
6.701538304,1.0001404762536177,154.74082834577388
6.704615424,1.0000718710753056,154.54292558915938
6.707692544,0.9999985497173206,154.346006049544
6.710769152,0.9999252337095335,154.15016667089836
6.713846272,0.9998564084559504,153.955338754116
6.71692288,0.9997962417418553,153.76144197033662
6.72,0.9997485455022275,153.56833512422094
6.72307712,0.9997161813471792,153.37578670251705
6.726153728,0.9997014238174986,153.18360234903284
6.729230848,0.9997049279219289,152.9914909287448
6.732307456,0.9997265670387276,152.799219342474
6.735384576,0.9997652039138643,152.60650160462438
6.738461696,0.9998181901358189,152.4131577880006
6.741538304,0.9998826327008101,152.21895673970585
6.744615424,0.9999541939168801,152.02377607794514
6.747692544,1.0000286101067535,151.8275649939892
6.750769152,1.0001013904645821,151.63029484586
6.753846272,1.0001679298111097,151.43202481520814
6.75692288,1.0002241197350268,151.2328847814145
6.76,1.000266397523367,151.03303314901507
6.76307712,1.0002922098530247,150.8326998871459
6.766153728,1.0003001234235434,150.63212525820904
6.769230848,1.0002892601175235,150.43157613286476
6.772307456,1.0002606491927373,150.2313066353578
6.775384576,1.0002156634185622,150.031565497885
6.778461696,1.0001573117072255,149.83256440491957
6.781538304,1.0000889963867912,149.6344672346567
6.784615424,1.000015162947615,149.4373960575587
6.787692544,0.9999400634003298,149.2413855414738
6.790769152,0.9998685960854128,149.04646440923952
6.793846272,0.9998051223771252,148.8524712754749
6.79692288,0.999753469038663,148.65934810384147
6.8,0.9997169971698069,148.46686260396703
6.80307712,0.9996978513592748,148.27476005469762
6.806153728,0.9996973403634424,148.08281170777454
6.809230848,0.9997153564177527,147.8907570842549
6.812307456,0.9997510610726894,147.69829885345416
6.815384576,0.9998020950698698,147.50526325360462
6.818461696,0.9998653417209853,147.3114007154913
6.821538304,0.9999370419392917,147.11655937711916
6.824615424,1.0000125482962332,146.92067219973652
6.827692544,1.000087399116537,146.72369115061065
6.830769152,1.0001568570174721,146.52570106401174
6.833846272,1.0002166115611841,146.3267999340631
6.83692288,1.0002630720155183,146.12709841493032
6.84,1.000293211841889,145.92687954988102
6.84307712,1.000305501441373,145.72635275054034
6.846153728,1.0002984915846038,145.52579344888932
6.849230848,1.0002730994683924,145.32546028162426
6.852307456,1.0002307540032467,145.12561901831788
6.855384576,1.0001741132959325,144.92648446367915
6.858461696,1.000106507443711,144.7282445051104
6.861538304,1.0000321616739973,144.53103180333267
6.864615424,0.999955667456956,144.33489798701177
6.867692544,0.9998817200512933,144.13984840769953
6.870769152,0.9998149621178993,143.94582660625764
6.873846272,0.9997593999661138,143.75268040934793
6.87692288,0.9997186555644132,143.56023016263518
6.88,0.9996951750113184,143.36825553864807
6.88307712,0.9996903953817259,143.1764882408193
6.886153728,0.999704757262965,142.98464520837976
6.889230848,0.9997372371250646,142.79249721014185
6.892307456,0.99978602793214,142.59976464850914
6.895384576,0.9998480154377419,142.40623531125073
6.898461696,0.9999194123515356,142.211770502501
6.901538304,0.9999958641456127,142.01624503310097
6.904615424,1.0000726320204834,141.81961585539264
6.907692544,1.0001448933051116,141.6219145654763
6.910769152,1.0002082398909695,141.42325358908735
6.913846272,1.000258774852274,141.22380147978805
6.91692288,1.0002932684278245,141.02371680960556
6.92,1.0003097145326674,140.82329364109512
6.92307712,1.000307055179071,140.62275305743037
6.926153728,1.0002851894951859,140.42238976331464
6.929230848,1.0002457515121745,140.22246468988112
6.932307456,1.0001910202662823,140.02323416096075
6.935384576,1.0001242810123974,139.82487859019298
6.938461696,1.0000496377004113,139.62753354616478
6.941538304,0.9999718139504545,139.43128907263554
6.944615424,0.9998956724853842,139.23613423613463
6.947692544,0.9998257310808039,139.042053699442
6.950769152,0.9997663763339515,138.8489199979613
6.953846272,0.9997213349739105,138.65651960493054
6.95692288,0.9996934108995468,138.46467909186336
6.96,0.9996843399125108,138.27308804241054
6.96307712,0.9996945548393185,138.0814996716642
6.966153728,0.9997238440100498,137.8896357239936
6.969230848,0.9997701972506414,137.69725914714968
6.972307456,0.9998305920963819,137.5041123399068
6.975384576,0.9999015466295543,137.31003334710934
6.978461696,0.999978542477567,137.11488884439405
6.981538304,1.0000569741627399,136.91862438280003
6.984615424,1.0001319720118993,136.7212934591084
6.987692544,1.0001988642532949,136.52294288446905
6.990769152,1.000253515091545,136.32371633481284
6.993846272,1.0002924547318732,136.12383050249917
6.99692288,1.000313300033239,135.9235053309689
7.0,1.0003148518362686,135.72303267655346
7.00307712,1.0002968034101318,135.5226763043835
7.006153728,1.0002605126736699,135.32272573687368
7.009230848,1.0002078105678893,135.1233967477955
7.012307456,1.0001422862006972,134.9249285624623
7.015384576,1.000067729678904,134.72748139299938
7.018461696,0.9999888744071395,134.53112971765805
7.021538304,0.9999105282770372,134.33591328265473
7.024615424,0.9998375143680315,134.14178391716854
7.027692544,0.999774472105194,133.94865113276222
7.030769152,0.9997251353619032,133.75631815189988
7.033846272,0.9996927733724438,133.56460480381435
7.03692288,0.9996791984448435,133.37321254257702
7.04,0.9996854243948092,133.18189095242724
7.04307712,0.9997109852818615,132.99035589307232
7.046153728,0.999754509178811,132.79832802805782
7.049230848,0.9998131396924682,132.60557168228524
7.052307456,0.9998833503865376,132.41191487662084
7.055384576,0.9999608192204837,132.21717579739985
7.058461696,1.0000408276977686,132.0213300056124
7.061538304,1.000118309470059,131.82436754275466
7.064615424,1.000188612672506,131.62632655598935
7.067692544,1.000247190421643,131.42740869203402
7.070769152,1.000290635007361,131.2277340206243
7.073846272,1.0003160791666568,131.02757687607445
7.07692288,1.000321912431527,130.8271977413787
7.08,1.0003079917979922,130.62687938619277
7.08307712,1.0002748531638814,130.42691273137714
7.086153728,1.0002246612136538,130.2275246464817
7.089230848,1.0001603821497094,130.0289917452185
7.092307456,1.0000861493662228,129.83142743251227
7.095384576,1.000006455237482,129.6349966994899
7.098461696,0.9999262146255532,129.43969610265523
7.101538304,0.9998501799656866,129.24554703369847
7.104615424,0.9997834655581216,129.0524432642674
7.107692544,0.9997299209838642,128.86017981709372
7.110769152,0.9996928587150624,128.66859466378145
7.113846272,0.9996747713276375,128.47740595172291
7.11692288,0.9996766891308098,128.28635501822188
7.12,0.9996984256965402,128.09514592751088
7.12307712,0.9997389395934287,127.90349795621752
7.126153728,0.9997955242368984,127.71116323252896
7.129230848,0.9998647543065614,127.51793475510608
7.132307456,0.9999424514899119,127.32365523635876
7.135384576,1.0000236828606217,127.12822859901996
7.138461696,1.000103626170574,126.9316921719432
7.141538304,1.0001770844817264,126.7340226719362
7.144615424,1.000239728351537,126.53540253187147
7.147692544,1.0002875942012432,126.33598482844774
7.150769152,1.0003176225219916,126.13602788994015
7.153846272,1.0003280618004466,125.93578530674478
7.15692288,1.0003182078103796,125.73553911094666
7.16,1.0002886301525507,125.53557868239129
7.16307712,1.0002411028674518,125.33616717301777
7.166153728,1.0001785893499346,125.13756460637019
7.169230848,1.000104918064815,124.93995468665874
7.172307456,1.000024549748948,124.74341845600786
7.175384576,0.9999424327625299,124.5480828049778
7.178461696,0.9998638446235799,124.35389081150488
7.181538304,0.9997933691298245,124.16080899111697
7.184615424,0.9997355845357465,123.96863499750972
7.187692544,0.9996939444131007,123.77718618394847
7.190769152,0.9996711878084636,123.58621705949884
7.193846272,0.9996687105940005,123.39544304323647
7.19692288,0.9996863909813589,123.20456658696035
7.2,0.9997236453232505,123.01330583810244
7.20307712,0.9997779163242625,122.82140522513453
7.206153728,0.9998459770544629,122.6286179012658
7.209230848,0.9999235525554966,122.43482399227032
7.212307456,1.000005966006891,122.23986751158365
7.215384576,1.000088101186716,122.04375103271512
7.218461696,1.0001646894339482,121.84651066147221
7.221538304,1.0002312636248565,121.64823389111005
7.224615424,1.0002835685818587,121.44912443554902
7.227692544,1.0003183223446217,121.24938682166348
7.230769152,1.000333451958695,121.0493028970375
7.233846272,1.000327887787837,120.8491557814035
7.23692288,1.000302094406073,120.64922878310969
7.24,1.0002575385272392,120.44980909338871
7.24307712,1.0001969284822974,120.2511650335488
7.246153728,1.00012394128555,120.05348560108779
7.249230848,1.0000432038839742,119.85690452743756
7.252307456,0.9999596078363369,119.66152019071885
