freq,mag,phase
6.0,0.9999868740281737,-96.22488503135315
6.002285056,1.0000081322496461,-96.35210819116692
6.004570112,1.0000302024860976,-96.47966874053172
6.006855168,1.000050406920276,-96.607528712899
6.009140224,1.0000676728513758,-96.73570510002816
6.01142528,1.0000809242756514,-96.86406974976127
6.013710336,1.0000892943730602,-96.99263022890435
6.015995392,1.0000922298806554,-97.12128994468175
6.018280448,1.0000894943383625,-97.2499127456627
6.020565504,1.0000812067508813,-97.37852939241083
6.02285056,1.0000681657603565,-97.50696743493982
6.025135616,1.000050951011521,-97.63522904074888
6.027420672,1.0000306745975989,-97.76321110022336
6.029705728,1.0000087162129774,-97.8908774794771
6.031990784,0.9999863169035758,-98.01825965106136
6.03427584,0.9999650046080015,-98.1453085084596
6.036560896,0.9999462480851098,-98.27209624188536
6.038845952,0.9999310322555965,-98.39861907889217
6.041131008,0.9999202927232339,-98.52499231175837
6.043416064,0.9999151005089411,-98.6512615052775
6.04570112,0.9999153376455251,-98.77749781695974
6.047986176,0.9999210946693581,-98.90377846804788
6.050271232,0.9999321817467128,-99.03020577069583
6.052556288,0.9999477364715267,-99.15683053988205
6.054841344,0.9999668792800183,-99.28371637054991
6.0571264,0.9999884371781732,-99.41090594836118
6.059411456,1.0000107811232037,-99.53844960767937
6.061696512,1.0000327736946684,-99.66629679907787
6.063981568,1.000052910921119,-99.79445916455818
6.066266624,1.0000698815735962,-99.92291254769356
6.06855168,1.0000826433025303,-100.05162377717066
6.070836736,1.000090381527289,-100.18046069461448
6.073121792,1.0000926740735743,-100.3093644982673
6.075406848,1.0000891630341449,-100.43831836933639
6.077691904,1.0000804090283055,-100.56716035458783
6.07997696,1.0000665534717665,-100.69584801842014
6.082262016,1.0000488379226218,-100.82434323138114
6.084547072,1.000028186379064,-100.95251501255864
6.086832128,1.0000058443823274,-101.08043858518538
6.089117184,0.9999834306060569,-101.20802949484612
6.09140224,0.9999622561239575,-101.33529203642651
6.093687296,0.9999437113454042,-101.46228641504933
6.095972352,0.9999288921516385,-101.58907221207018
6.098257408,0.9999188068960903,-101.71568169877801
6.100542464,0.9999141338230845,-101.84218817658183
6.10282752,0.9999150409095979,-101.96867181271959
6.105112576,0.9999215171240179,-102.0951940809609
6.107397632,0.9999333049039878,-102.22189389498588
6.1096832,0.9999494596920809,-102.34880467786307
6.111968256,0.9999690937838933,-102.47597366754836
6.114253312,0.9999908807675454,-102.60344376797964
6.116538368,1.0000133923252839,-102.73127747175431
6.118823424,1.000035379900615,-102.85942719278799
6.12110848,1.0000553351147459,-102.98788963981409
6.123393536,1.0000719587945301,-103.1166235706327
6.125678592,1.000084143281662,-103.24560680846736
6.127963648,1.0000913323108944,-103.37470051767524
6.130248704,1.0000930035392295,-103.50386724243525
6.13253376,1.0000888917676096,-103.63301607477402
6.134818816,1.0000793683256448,-103.76209369445307
6.137103872,1.0000648872573843,-103.89102506502377
6.139388928,1.000046638877716,-104.0197092432777
6.141673984,1.0000256020016907,-104.14813992939455
6.14395904,1.000003112561723,-104.27626632287011
6.146244096,0.9999806139767545,-104.40403522449724
6.148529152,0.9999595316349603,-104.53156746897594
6.150814208,0.9999413807688117,-104.65872880667783
6.153099264,0.999926899008423,-104.78574182001609
6.15538432,0.999917478435155,-104.91252413698612
6.157669376,0.999913409213656,-105.03926054189083
6.159954432,0.9999150592932963,-105.16596328329021
6.162239488,0.9999222510941409,-105.29276276452453
6.164524544,0.9999345817249906,-105.41968706744909
6.1668096,0.9999514155508211,-105.54683029468138
6.169094656,0.9999713856370079,-105.67429885809983
6.171379712,0.999993411789342,-105.80201624192192
6.173664768,1.000016081771991,-105.93011593983132
6.175949824,1.000038013974731,-106.0585365526657
6.17823488,1.000057681555023,-106.18726411484529
6.180519936,1.0000739378194177,-106.31626303834081
6.182804992,1.0000857325828012,-106.44546991367898
6.185090048,1.0000922596257094,-106.57482290445869
6.187375104,1.0000931338723638,-106.70424784684153
6.18966016,1.0000882714256263,-106.83364752036321
6.191945216,1.000078176767525,-106.96294454249788
6.194230272,1.0000631096820825,-107.09207607477512
6.196515328,1.0000443623299813,-107.22096419738723
6.198800384,1.0000229104267762,-107.3495661628794
6.20108544,1.0000002851438985,-107.47785004549384
6.203370496,0.9999776780389729,-107.60580174349369
6.205655552,0.9999568163777781,-107.73349169709054
6.207940608,0.9999388883990821,-107.86084711659866
6.210225664,0.9999249913127607,-107.98803487745334
6.21251072,0.9999160313639924,-108.11502951998756
6.214795776,0.9999125531012131,-108.2419611214858
6.217080832,0.999914924744507,-108.36889304535462
6.219365888,0.9999228646455895,-108.49588310565034
6.221650944,0.9999358304460461,-108.62305032781474
6.223936,0.9999532155281093,-108.75043626842353
6.226221056,0.9999736621598013,-108.87812470557154
6.228506112,0.999996032155607,-109.00614004582307
6.230791168,1.0000188246993955,-109.13446757698969
6.233076224,1.0000407012377426,-109.26310997087138
6.23536128,1.0000601676559833,-109.39211718891806
6.237646336,1.0000760112710236,-109.52136956619162
6.239931392,1.0000872951875877,-109.65080551687375
6.242216448,1.0000931937377076,-109.78038323602443
6.244501504,1.000093339190637,-109.91000450226036
6.24678656,1.0000878731973746,-110.0396039387183
6.249071616,1.0000768914824092,-110.16912047858011
6.251356672,1.000061420691312,-110.29837293743482
6.253641728,1.0000420875416747,-110.42748449876598
6.255926784,1.0000202320901739,-110.55623667516558
6.25821184,0.999997446008658,-110.68467603266004
6.260496896,0.9999749230802276,-110.81279684948892
6.262781952,0.9999541888269565,-110.94063302710046
6.265067008,0.9999365659973174,-111.06815822605168
6.267352064,0.9999231131251228,-111.1954959038176
6.26963712,0.9999147183100023,-111.3227035619751
6.271922176,0.9999119824519791,-111.44981372791929
6.274207232,0.9999149645271,-111.57692794804395
6.276492288,0.9999236520302348,-111.70410745339294
6.278777344,0.9999372348134361,-111.83149087468209
6.2810624,0.9999551736764094,-111.95910653683273
6.283347456,0.9999759734657084,-112.08701089929986
6.285632512,0.9999986197840226,-112.2152280099887
6.287917568,1.000021563704348,-112.34380619610556
6.290202624,1.000043275640742,-112.47268898508995
6.29248768,1.0000624575244672,-112.60189820649411
6.294772736,1.0000779625580571,-112.73135285992723
6.297057792,1.0000886400511686,-112.86100013903385
6.299342848,1.0000938430211093,-112.99079580319412
6.301627904,1.0000934476605314,-113.12061058458461
6.30391296,1.0000872324644863,-113.25039151689049
6.306198016,1.000075717057391,-113.38005601811882
6.308483072,1.0000594671114444,-113.50948623601425
6.310768128,1.0000397244669788,-113.63869755719458
6.313053184,1.0000176161326035,-113.76763863708737
6.31533824,0.9999945524008409,-113.89621091613347
6.317623296,0.99997200440885,-114.02450944480289
6.319908352,0.9999514840466422,-114.15244819001579
6.322193408,0.9999342499867983,-114.28015073090857
6.324478976,0.99992126596575,-114.40760940548891
6.326764032,0.9999135181065463,-114.53495060270066
6.329049088,0.9999113940666322,-114.66223943031311
6.331334144,0.9999151791652502,-114.78950239404513
6.3336192,0.9999245474576969,-114.91687638418051
6.335904256,0.9999387422355507,-115.0444672017127
6.338189312,0.9999571386310312,-115.17226660062049
6.340474368,0.9999784571253136,-115.30037123918395
6.342759424,1.0000012167621208,-115.42877277410338
6.34504448,1.000024309441789,-115.55754801726678
6.347329536,1.0000458635344611,-115.68663467762265
6.349614592,1.0000647928890523,-115.81604993789018
6.351899648,1.0000799241942255,-115.94572291967133
6.354184704,1.0000901310136663,-116.07555133123019
6.35646976,1.0000946867499436,-116.20552831767353
6.358754816,1.0000934993770232,-116.33551316875452
6.361039872,1.0000865855816812,-116.46543396403331
6.363324928,1.0000743371012994,-116.59523250486352
6.365609984,1.0000575759451966,-116.72484725702998
6.36789504,1.0000373922317303,-116.85419478654764
6.370180096,1.0000149980300086,-116.98320629496767
6.372465152,0.9999917850986915,-117.11191609609529
6.374750208,0.999969210915722,-117.24032718793313
6.377035264,0.9999488673344916,-117.36838976840137
6.37932032,0.999931922677929,-117.49618497010802
6.381605376,0.9999194800308846,-117.62379952098996
6.383890432,0.9999123758540306,-117.75124505967412
6.386175488,0.999910967503983,-117.87866329457005
6.388460544,0.9999154257367262,-118.0061150714804
6.3907456,0.9999254187885142,-118.13364972599932
6.393030656,0.9999402749485853,-118.2613662465832
6.395315712,0.9999591722840945,-118.38935356177102
6.397600768,0.9999809387243085,-118.51762684252951
6.399885824,1.0000039819080908,-118.64625011942222
6.40217088,1.0000270299338174,-118.77521419299944
6.404455936,1.0000485970423232,-118.90447434464966
6.406740992,1.0000671900728828,-119.03405695676912
6.409026048,1.000081768032932,-119.16388102160329
6.411311104,1.0000914026424599,-119.29392078973561
6.41359616,1.0000953466367375,-119.42399604720066
6.415881216,1.0000934620190292,-119.55414375239896
6.418166272,1.0000858341412704,-119.68422284731722
6.420451328,1.0000729563673925,-119.81417648682539
6.422736384,1.000055678916023,-119.94388818891531
6.42502144,1.000034936707799,-120.07331256569326
6.427306496,1.0000122570942858,-120.20246275783798
6.429591552,0.9999888875998958,-120.33122206713743
6.431876608,0.9999664558910185,-120.45974101036676
6.434161664,0.9999462695389708,-120.58786748898201
6.43644672,0.9999297406148319,-120.71578203263573
6.438731776,0.9999177630118361,-120.84351209529083
6.441016832,0.9999113474149424,-120.97106885802596
6.443301888,0.9999106225620888,-121.09859723938995
6.445586944,0.9999157551507475,-121.22617765326419
6.447872,0.9999264107840935,-121.35386836653561
6.450157056,0.9999419561622999,-121.48171860006428
6.452442112,0.9999612621595143,-121.60986783819135
6.454727168,0.9999833961980493,-121.73832947396141
6.457012224,1.0000066837029404,-121.86708759477962
6.45929728,1.0000297445315198,-121.99619304312174
6.461582336,1.0000511233118488,-122.12566408534781
6.463867392,1.00006950122651,-122.25536551713277
6.466152448,1.0000836059121976,-122.38536661219494
6.468437504,1.000092639103538,-122.51550577320639
6.47072256,1.0000959485835168,-122.64575747574897
6.473007616,1.0000932925551766,-122.776032512849
6.475292672,1.0000849358806012,-122.90620622423224
6.477577728,1.0000713910594785,-123.03622123169649
6.479862784,1.0000534854231788,-123.16606077841355
6.48214784,1.0000324256012632,-123.29555437663802
6.484432896,1.0000094061451843,-123.42475537484087
6.486717952,0.9999859310667875,-123.55363128710162
6.489003008,0.9999635984068935,-123.68216967815026
6.491288064,0.9999436757991667,-123.81041510205807
6.49357312,0.9999275035486264,-123.93840481194745
6.495858176,0.9999161635927614,-124.06617736708391
6.498143232,0.9999102446270864,-124.19385628190851
6.500428288,0.9999101880674606,-124.321472037407
6.502713344,0.999916030357612,-124.44914140759593
6.5049984,0.999927334111719,-124.57693421015131
6.507283456,0.9999435147200348,-124.70494337846948
6.509568512,0.9999634469249046,-124.83323434941259
6.511853568,0.9999858411154047,-124.96176345275767
6.514138624,1.0000094020097703,-125.09068381062514
6.51642368,1.000032500378918,-125.21998393979068
6.518708736,1.0000536703777911,-125.34955439616114
6.520993792,1.000071786755806,-125.47942706750904
6.523278848,1.0000853737774653,-125.60953561834496
6.525563904,1.000093761728033,-125.73979766348437
6.52784896,1.0000963940151488,-125.87014701958825
6.530134016,1.000093075945483,-126.00050651564014
6.532419072,1.0000840909286566,-126.13079125226365
6.534704128,1.0000698816499092,-126.26088349986074
6.536989184,1.000051465638206,-126.39076324043499
6.53927424,1.0000299707812554,-126.52034984932273
6.541559808,1.000006654452569,-126.64957305881904
6.543844864,0.9999831048947092,-126.77849652043005
6.54612992,0.9999607647265832,-126.90712568914918
6.548414976,0.9999410982341506,-127.0354044742734
6.550700032,0.9999253977951812,-127.16345025834147
6.552985088,0.999914543403593,-127.29127406482779
6.555270144,0.9999092558032098,-127.41899243756282
6.5575552,0.9999099834197153,-127.54669988786539
6.559840256,0.9999164908133911,-127.67446119895733
6.562125312,0.9999285211033138,-127.80235564645844
6.564410368,0.9999453750203299,-127.93045696480763
6.566695424,0.999965707944124,-128.0588687148487
6.56898048,0.999988467923222,-128.18752192291822
6.571265536,1.0000121508773585,-128.31656402418974
6.573550592,1.0000352518391549,-128.44594374768482
6.575835648,1.0000563222368382,-128.57564262299624
6.578120704,1.0000740036789995,-128.70563867557007
6.58040576,1.000087117676631,-128.83585835802202
6.582690816,1.0000949108661565,-128.96622168991513
6.584975872,1.0000969148458176,-129.09664843565017
6.587260928,1.000092891403613,-129.22706487496586
6.589545984,1.000083207116236,-129.35740818395837
6.59183104,1.000068237145427,-129.4875790592346
6.594116096,1.0000492559499834,-129.61748778181584
6.596401152,1.0000273012591256,-129.7471034057151
6.598686208,1.0000037567121531,-129.8763865353562
6.600971264,0.999980192916687,-130.00533679634577
6.60325632,0.9999579570671875,-130.13393251384235
6.605541376,0.9999386250820137,-130.26228326825196
6.607826432,0.9999232506813369,-130.39034027627793
6.610111488,0.9999129601463547,-130.51821203001808
6.612396544,0.999908327637242,-130.64598943066403
6.6146816,0.9999097593962639,-130.7737405188592
6.616966656,0.9999170356561972,-130.9015692507321
6.619251712,0.9999297474214089,-131.0295401377436
6.621536768,0.9999470584564295,-131.15773073404938
6.623821824,0.9999679700195158,-131.28618690507523
6.62610688,0.9999910490034021,-131.4149727969511
6.628391936,1.0000149386111916,-131.5440906201111
6.630676992,1.0000379958594148,-131.6735762017896
6.632962048,1.0000588903177943,-131.80336805212806
6.635247104,1.0000761887044067,-131.9334147787336
6.63753216,1.0000888014141158,-132.06374415668577
6.639817216,1.0000959890065988,-132.19417760809
6.642102272,1.0000972864969782,-132.32468280681925
6.644387328,1.0000925650963661,-132.4551681207449
6.646672384,1.0000821236398627,-132.58551405411905
6.64895744,1.0000666159885394,-132.71572988246137
6.651242496,1.000047067221775,-132.84564651405617
6.653527552,1.0000247022842148,-132.97527356731118
6.655812608,1.0000009874497904,-133.1045697269004
6.658097664,0.9999772547709845,-133.23349509371596
6.66038272,0.9999551502085229,-133.3621279724271
6.662667776,0.9999360394031077,-133.49044874241562
6.664952832,0.9999211971649822,-133.61854566291586
6.667237888,0.9999115166425975,-133.7464382069659
6.669522944,0.9999075751687385,-133.87421508161742
6.671808,0.9999096477591488,-134.0020344294398
6.674093056,0.9999176627044069,-134.12986552858547
6.676378112,0.9999310260410912,-134.25791641669443
6.678663168,0.9999490158407683,-134.38612724347107
6.680948224,0.9999703602615999,-134.51467494196905
6.68323328,0.9999937949911886,-134.6435366373207
6.685518336,1.000017755782567,-134.77271177994652
6.687803392,1.00004076044245,-134.90227791589984
6.690088448,1.0000614215509591,-135.03212018445876
6.692373504,1.0000783409694511,-135.16227417904375
6.69465856,1.0000904936803385,-135.29264331936517
6.696943616,1.0000970059672076,-135.42311702291596
6.699228672,1.0000976311859875,-135.5536596775159
6.701513728,1.0000921463960295,-135.68417541645925
6.703798784,1.0000809838901064,-135.81455345503676
6.70608384,1.0000648318441818,-135.9447549667304
6.708368896,1.0000448126980894,-136.07467024215666
6.710653952,1.0000220739092893,-136.20430485332682
6.712939008,0.999998022386919,-136.3335740452241
6.715224064,0.9999743107445305,-136.46250064282358
6.71750912,0.9999524196701803,-136.59109239312554
6.719794176,0.9999336394721523,-136.71939284520877
6.722079232,0.9999191505081401,-136.8474620134144
6.724364288,0.9999100467514537,-136.97534016473995
6.726649344,0.9999068103675,-137.10315530839696
6.7289344,0.9999095848093825,-137.23094174758555
6.731219456,0.9999183426787359,-137.35884047877352
6.733504512,0.9999324343910209,-137.4868659907542
6.735789568,0.9999509242508048,-137.6151474796598
6.738074624,0.9999727842333109,-137.74373029977664
6.74035968,0.9999964316087728,-137.8726450217506
6.742644736,1.0000206076949727,-138.0019027304239
6.744929792,1.000043607238877,-138.13148755404114
6.747214848,1.0000640038397253,-138.26141262303764
6.749499904,1.0000805059887792,-138.3915752653739
6.75178496,1.000092106827079,-138.52195711550158
6.754070016,1.0000979897877875,-138.65248641131163
6.756355072,1.0000978150666247,-138.78303916463418
6.75864064,1.0000916732911955,-138.91355031427742
6.760925696,1.0000798220412697,-139.04392740451115
6.763210752,1.0000630719339958,-139.17409241013885
6.765495808,1.0000424786171913,-139.3040020824241
6.767780864,1.0000193682780574,-139.43356777886103
6.77006592,0.9999951232481528,-139.56281126419742
6.772350976,0.9999713894740219,-139.69169904651474
6.774636032,0.9999495496097739,-139.82025133714555
6.776921088,0.9999311482512693,-139.94850865906608
6.779206144,0.9999171859860715,-140.07653778786434
6.7814912,0.9999087044501095,-140.20439755250752
6.783776256,0.9999060920967069,-140.33218132471066
6.786061312,0.9999096900564627,-140.45997048550214
6.788346368,0.999919097240918,-140.5878504708029
6.790631424,0.9999338631170891,-140.71589514118213
6.79291648,0.9999529757210781,-140.84421350064633
6.795201536,0.9999751659731033,-140.9727880182193
6.797486592,0.9999992006746957,-141.10171330006838
6.799771648,1.0000234540189796,-141.23102640369603
6.802056704,1.000046389174188,-141.3606335000197
6.80434176,1.0000664520712286,-141.49058984133865
6.806626816,1.0000825867461387,-141.62079509926284
6.808911872,1.0000935395291237,-141.75118479288955
6.811196928,1.0000988832757955,-141.88168932584858
6.813481984,1.0000979594926325,-142.0122554851245
6.81576704,1.000091098938781,-142.14272347043325
6.818052096,1.0000785132697565,-142.27306300436197
6.820337152,1.0000611798735257,-142.4032087333591
6.822622208,1.0000400780093837,-142.5330264866478
6.824907264,1.0000166039471041,-142.6625682345087
6.82719232,0.9999921550656236,-142.79172196482696
6.829477376,0.9999683263640404,-142.9205511931895
6.831762432,0.9999467481449615,-143.04905986602563
6.834047488,0.9999286342201826,-143.17725452036973
6.836332544,0.9999151901029352,-143.30518751834603
6.8386176,0.9999072947451916,-143.4330281981842
6.840902656,0.9999053790258531,-143.5607810255797
6.843187712,0.9999097068941707,-143.6885152357568
6.845472768,0.999919865934079,-143.81637690745484
6.847757824,0.9999352747099286,-143.94441137243103
6.85004288,0.9999548959916217,-144.07271251212973
6.852327936,0.9999776233121461,-144.20129967410395
6.854612992,1.0000018320795108,-144.3302343911127
6.856898048,1.0000262540242286,-144.45955124393598
6.859183104,1.000049004462496,-144.5891470084641
6.86146816,1.0000689036507524,-144.71910347199398
6.863753216,1.0000846054445227,-144.84927445485056
6.866038272,1.0000950076934776,-144.97967117275937
6.868323328,1.0000996255228376,-145.11015933752464
6.870608384,1.0000980673618147,-145.2407092496342
6.87289344,1.0000903854171765,-145.37110997489194
6.875178496,1.0000772128966446,-145.50140678727766
6.877463552,1.0000591919604025,-145.63147507881027
6.879748608,1.000037592934798,-145.76126886288233
6.882033664,1.000013751886021,-145.89068657033906
6.88431872,0.9999892239797468,-146.01977090764325
6.886603776,0.9999654588296553,-146.14849365593975
6.888888832,0.9999440828750291,-146.27689025561315
6.891173888,0.9999262994439866,-146.4050322904338
6.893458944,0.9999134184119997,-146.53293292255694
6.895744,0.9999061110676416,-146.66064181212735
6.898029056,0.9999049920081794,-146.78833240383108
6.900314112,0.9999099787766341,-146.91601627249347
6.902599168,0.9999208766192358,-147.043859533075
6.904884224,0.9999368947759134,-147.17186313850002
