freq,mag,phase
6.0,0.9997481992303026,-39.13252339091493
6.013490688,0.9996874099121904,-39.65033074678979
6.026981376,0.9996425257230958,-40.16771415059859
6.040472064,0.999613541664828,-40.684762332957256
6.053962752,0.9996020583578835,-41.20175859057862
6.06745344,0.999608758468464,-41.71885570893686
6.080944128,0.9996332822921743,-42.23635662945144
6.094435328,0.9996745559719007,-42.75447348994913
6.107926016,0.9997312026340688,-43.27329430834241
6.121416704,0.9998003996398656,-43.793101623665486
6.134907392,0.9998791670607575,-44.31398813303266
6.14839808,0.9999641205244582,-44.83606996065797
6.161888768,1.0000514798536795,-45.35941536969129
6.175379456,1.000136998562887,-45.88393491633279
6.188870144,1.0002172604175519,-46.40975761926282
6.202360832,1.0002881115184927,-46.93664018815994
6.21585152,1.0003466791617375,-47.4645314183761
6.229342208,1.0003901369133412,-47.993253607445496
6.242832896,1.0004163058356625,-48.522570093963054
6.256323584,1.0004241604304023,-49.052360203267966
6.269814272,1.0004129642760413,-49.58229582489735
6.283305472,1.0003831533238496,-50.112188975102
6.29679616,1.0003361320432234,-50.641854286498635
6.310286848,1.0002737219223563,-51.17101496710212
6.323777536,1.0001989181269897,-51.69956088214438
6.337268224,1.0001147437424807,-52.22735008129835
6.350758912,1.0000250070824768,-52.75426833605724
6.3642496,0.9999337080279831,-53.28025164897528
6.377740288,0.9998451216912353,-53.80536354390501
6.391230976,0.9997630182848978,-54.329589729377375
6.404721664,0.9996915517342818,-54.853053172938665
6.418212352,0.9996336250641042,-55.375935684903496
6.43170304,0.9995920435355543,-55.89838794463521
6.445193728,0.9995687851996947,-56.42064652951529
6.458684416,0.9995650581518927,-56.94288076337232
6.472175616,0.9995812271982908,-57.46536836997021
6.485666304,0.9996165730978667,-57.98837316796476
6.499156992,0.9996695740365245,-58.51211426673587
6.51264768,0.9997379825146269,-59.036784195836624
6.526138368,0.9998187277899306,-59.56252467343059
6.539629056,0.9999085209575993,-60.08950152161869
6.553119744,1.0000029298138744,-60.61780638067305
6.566610432,1.000098071810222,-61.14746856756407
6.58010112,1.0001894861297844,-61.67846719234673
6.593591808,1.0002730723717437,-62.21074317847288
6.607082496,1.0003450296140832,-62.744193768607936
6.620573184,1.000402098531618,-63.27863209216248
6.634063872,1.00044132658537,-63.813881928264074
6.64755456,1.000461113574069,-64.34968415422108
6.66104576,1.0004603831456518,-64.88584982374057
6.674536448,1.0004391374661208,-65.42204820956422
6.688027136,1.0003981014963785,-65.95815272015155
6.701517824,1.0003389094548836,-66.49381656273412
6.715008512,1.000264363480133,-67.02885714188928
6.7284992,1.0001776904893063,-67.56315979226977
6.741989888,1.0000825936982678,-68.09653095567708
6.755480576,0.9999833582580536,-68.6289535707472
6.768971264,0.9998844319277009,-69.16035380489915
6.782461952,0.9997903423409816,-69.69075455753672
6.79595264,0.9997052151098389,-70.2202944805806
6.809443328,0.9996333212956553,-70.749010153333
6.822934016,0.9995774900490357,-71.2771654591807
6.836424704,0.9995407521818003,-71.80494662374696
6.849915904,0.9995245958400121,-72.33259608717009
6.863406592,0.9995299970761687,-72.86032679927968
6.87689728,0.9995569734651533,-73.38847693207833
6.890387968,0.9996041155351799,-73.91725595065172
6.903878656,0.9996695558453463,-74.44694840657131
6.917369344,0.9997505133555953,-74.97768274209453
6.930860032,0.9998435412931248,-75.50965127073276
6.94435072,0.999944283722536,-76.04308058405248
6.957841408,1.0000481600044473,-76.57792894328286
6.971332096,1.0001507609585651,-77.11423783807068
6.984822784,1.0002474126625565,-77.65197494354993
6.998313472,1.0003335444117107,-78.19101662581336
7.01180416,1.0004053534308597,-78.73131810699557
7.02529536,1.0004595685380278,-79.27254240135491
7.038786048,1.0004934211456302,-79.81451119321392
7.052276736,1.0005054962726776,-80.35699979497564
7.065767424,1.000495062174663,-80.8997422185689
7.079258112,1.0004622691000684,-81.44245439015778
7.0927488,1.000408733851972,-81.98483197981216
7.106239488,1.0003366577193136,-82.52668765034993
7.119730176,1.0002492108552163,-83.06778606340048
7.133220864,1.0001500783943866,-83.60796206828704
7.146711552,1.0000438621227028,-84.147096220002
7.16020224,0.9999351631495271,-84.68514952843343
7.173692928,0.9998291063600901,-85.22205719212121
7.187183616,0.9997300551790617,-85.75792219073581
7.200674304,0.999642920740902,-86.2928299811507
7.214165504,0.9995715879725806,-86.82698205271463
7.227656192,0.9995192887073424,-87.36058000297164
7.24114688,0.9994885714096114,-87.89387973114282
7.254637568,0.9994810270361121,-88.42711652185434
7.268128256,0.9994969024322072,-88.96055363230388
7.281618944,0.9995357662021267,-89.49457897384767
7.295109632,0.9995960116492655,-90.02934907125085
7.30860032,0.9996749841080007,-90.56523868563215
7.322091008,0.9997693372623034,-91.10231019594416
7.335581696,0.9998747496219414,-91.64085893265157
7.349072384,0.9999867214895111,-92.18089450941949
7.362563072,1.0001000112888272,-92.72254035868879
7.37605376,1.0002096545554442,-93.26576942531679
7.389544448,1.0003107056737581,-93.81049820871836
7.403035648,1.0003985318793989,-94.35657716653647
7.416526336,1.0004690923861033,-94.90385673993593
7.430017024,1.000519099487847,-95.45210585789235
7.443507712,1.0005462075758764,-96.00105453120081
7.4569984,1.0005491710066095,-96.55039834125118
7.470489088,1.000527547953325,-97.09989459681046
7.483979776,1.0004821945303937,-97.64919016646283
7.497470464,1.0004150081514545,-98.19801597362267
7.510961152,1.0003291006114472,-98.74615434599315
7.52445184,1.0002279133265342,-99.29336367544036
7.537942528,1.0001161624856743,-99.83949509096597
7.551433216,0.999998631787973,-100.38446499008586
7.564923904,0.9998807719767732,-100.92818096227184
7.578414592,0.9997677408326694,-101.47068178740795
7.591905792,0.9996647642926934,-102.01210641795612
7.60539648,0.9995763399424376,-102.55254504906192
7.618887168,0.9995067536885792,-103.09220751891358
7.632377856,0.9994592268152435,-103.63137221982595
7.645868544,0.9994360217811973,-104.17027393122103
7.659359232,0.999438193277656,-104.70923439295251
7.67284992,0.9994659272793973,-105.24859159288278
7.686340608,0.9995181747100014,-105.78862504760777
7.699831296,0.999592511311293,-106.32963839580447
7.713321984,0.9996858876560779,-106.87186583885682
7.726812672,0.9997941336675371,-107.41548557810832
7.74030336,0.999912523279118,-107.96075357732613
7.753794048,1.0000357351018259,-108.50768666258594
7.767284736,1.0001581710324743,-109.05632890274886
7.780775936,1.0002744148543699,-109.60664017988773
7.794266624,1.0003792508410592,-110.158550276894
7.807757312,1.0004677418194536,-110.71183013436365
7.821248,1.0005359297676328,-111.2662995319558
7.834738688,1.0005806156649775,-111.82170500316249
7.848229376,1.0005997139747473,-112.37772240534393
7.861720064,1.0005919752619445,-112.9340736022344
7.875210752,1.0005578306890373,-113.49037336438592
7.88870144,1.0004986575951311,-114.04635192071822
7.902192128,1.0004168076031759,-114.60167912278989
7.915682816,1.0003160751914997,-115.15612095974453
7.929173504,1.0002006269375705,-115.70951590815054
7.942664192,1.0000756807563775,-116.26162116385062
7.956155392,0.9999467976396811,-116.81239993464732
7.96964608,0.9998198349475167,-117.36186170095652
7.983136768,0.9997004046018073,-117.90999805881478
7.996627456,0.9995940120063406,-118.45697121916304
8.010118144,0.9995054503394386,-119.00294494359319
8.023608832,0.9994388534929789,-119.54816762999981
8.03709952,0.9993972622943746,-120.09292400722349
8.050590208,0.9993828633270022,-120.63753133658965
8.064080896,0.9993963221963317,-121.18232215436562
8.077571584,0.9994372364873685,-121.72766322771712
8.091062272,0.9995040064524879,-122.27382904779599
8.10455296,0.9995936763057348,-122.82113043728192
8.118043648,0.9997022970066743,-123.36989771275773
8.131534336,0.9998252875072046,-123.92023159566888
8.145025536,0.9999569752133591,-124.47235146269158
8.158516224,1.000091514705278,-125.02630270526855
8.172006912,1.0002229598794499,-125.58208705964714
8.1854976,1.0003453307225738,-126.13965429028525
8.198988288,1.0004532096433103,-126.69884930389087
8.212478976,1.0005414276766362,-127.25948451420818
8.225969664,1.0006060456255488,-127.82126369305286
8.239460352,1.000644048585862,-128.38390093877655
8.25295104,1.000653559577077,-128.94707290934636
8.266441728,1.000633919343868,-129.51039651962475
8.279932416,1.000585919024949,-130.07357185369543
8.293423104,1.0005114680008933,-130.63623544111766
8.306913792,1.0004138433870604,-131.19805946620022
8.32040448,1.0002972416959959,-131.7588499092713
8.33389568,1.000166906094803,-132.3183261461959
8.347386368,1.0000284614080406,-132.87638717304452
8.360877056,0.9998880871650694,-133.43299203005373
8.374367744,0.9997520954374537,-133.98807080580363
8.387858432,0.9996267474859,-134.54180204800647
8.40134912,0.9995176162561871,-135.09426519176165
8.414839808,0.9994297806308623,-135.64575419449963
8.428330496,0.9993672770420556,-136.19650197797867
8.441821184,0.999333106838226,-136.7468647741862
8.455311872,0.9993289014745456,-137.29717620496706
8.46880256,0.999355110252986,-137.84784023628183
8.482293248,0.9994106735442547,-138.39916407796915
8.495783936,0.9994932912811924,-138.9515114481134
8.509274624,0.9995994356423542,-139.50521910135117
8.522765824,0.9997243843187743,-140.06052751320493
8.536256512,0.9998626168156105,-140.617691114911
8.5497472,1.000008115113027,-141.17673123727747
8.563237888,1.0001542428248509,-141.7378070699555
8.576728576,1.0002945915038333,-142.30086155968107
8.590219264,1.0004226971197174,-142.86572433709617
8.60370944,1.0005327848387573,-143.43227562180937
8.61720064,1.000619794705963,-144.00027076639446
8.63069184,1.0006797389819864,-144.56938262472784
8.644182016,1.0007097116531094,-145.13932240962598
8.657673216,1.000708202833388,-145.7096243527284
8.671163392,1.0006751359235184,-146.27998117779242
8.684654592,1.000611778085703,-146.84997825061726
8.698144768,1.0005207551346733,-147.4192634095044
8.711635968,1.000406094648379,-147.98755017724397
8.725126144,1.000272656485708,-148.5545152876061
8.738617344,1.0001264597971435,-149.1200348951901
8.75210752,0.9999738611186308,-149.68393397915813
8.76559872,0.999821805024556,-150.24619735947857
8.779088896,0.9996770318900811,-150.806853943652
8.792580096,0.9995460650879455,-151.36602621891123
8.806071296,0.9994350130537101,-151.9239107156205
8.819561472,0.9993488454985399,-152.48080000928192
8.833052672,0.9992916650548802,-153.0369898954149
8.846542848,0.9992661718572359,-153.5928677214516
8.860034048,0.9992736971603559,-154.1488202166022
8.873524224,0.9993141458188166,-154.70522081247168
8.887015424,0.9993858175279862,-155.2625366215104
8.9005056,0.9994857894633079,-155.82106931874975
8.9139968,0.9996096518282884,-156.3811628876224
8.927486976,0.9997519948968342,-156.94306868564368
8.940978176,0.9999064810809729,-157.50700780188436
8.954468352,1.000066340943352,-158.07303523354233
8.967959552,1.0002243823466057,-158.64122480384862
8.981450752,1.0003734431507816,-159.21152682259904
8.994940928,1.0005069197309315,-159.78374736966114
9.008432128,1.0006185972004555,-160.35769476486706
9.021922304,1.0007033961192728,-160.93308492431876
9.035413504,1.00075736841812,-161.50951264156504
9.04890368,1.0007779874730145,-162.08667608520736
9.06239488,1.0007639506539512,-162.66409184204056
9.075885056,1.0007158071176818,-163.24136657081493
9.089376256,1.0006354420141266,-163.81812428555907
9.102866432,1.0005264197172263,-164.3939221419968
9.116357632,1.0003932288444095,-164.96849942933466
9.129847808,1.0002418701468996,-165.541543606179
9.143339008,1.00007888777264,-166.11291522680338
9.156829184,0.9999115758024681,-166.68247138919966
9.170320384,0.9997475027366254,-167.25023157050796
9.183811584,0.9995938811751266,-167.8162274792032
9.19730176,0.9994578031536748,-168.38068119596608
9.21079296,0.999345429695509,-168.94379452797094
9.224283136,0.9992619638701542,-169.50588815259198
9.237774336,0.999211309503132,-170.0673531879177
9.251264512,0.9991959722524306,-170.6285859915973
9.264755712,0.9992168695863639,-171.19004333558766
9.278245888,0.9992732254891799,-171.75211971431108
9.291737088,0.9993628441321661,-172.31529546992633
9.305227264,0.9994817072413715,-172.8799189186487
9.318718464,0.9996248384691364,-173.4463228931709
9.33220864,0.9997857754965441,-174.01478051093392
9.34569984,0.9999575650586462,-174.58545465937485
9.35919104,1.0001324970884016,-175.1584308168258
9.372681216,1.0003027289735582,-175.7337346100619
9.386172416,1.0004607205406708,-176.31126425126476
9.399662592,1.0005990918595349,-176.89081258834491
9.413153792,1.000711683234315,-177.47210686740812
9.426643968,1.0007933027177234,-178.0548143525444
9.440135168,1.0008400836740874,-178.6385337593844
9.453625344,1.0008497601531465,-179.2228480574479
9.467116544,1.0008215309716024,-179.80726205502913
9.48060672,1.000756719097296,179.60865692820087
9.49409792,1.0006576181535123,179.0253378867605
9.507588096,1.0005287185070089,178.44314972419022
9.521079296,1.0003754548170873,177.86249470621092
9.534569472,1.000204682912424,177.28356817786917
9.548060672,1.0000237680684856,176.70656792878867
9.561551872,0.999840956276971,176.13158903292944
9.575042048,0.9996643069615601,175.55860437981
9.588533248,0.9995017913183383,174.98747527628623
9.602023424,0.9993607184070575,174.4180329959212
9.615514624,0.9992477630558103,173.8499519875164
9.6290048,0.9991680367427128,173.28288941893655
9.642496,0.9991252475151011,172.7163910062892
9.655986176,0.999121676442364,172.15001348123505
9.669477376,0.9991576943833546,171.58327171128465
9.682967552,0.9992318667164853,171.0156967788536
9.696458752,0.9993413260325419,170.4468229842549
9.709948928,0.9994810324588699,169.87624530204783
9.723440128,0.9996451017431222,169.30363549650315
9.736931328,0.9998263766318783,168.72875511754935
9.750421504,1.0000166480768546,168.15140173649394
9.763912704,1.0002075855173482,167.57153478537393
9.77740288,1.0003907476845462,166.98918912157788
9.79089408,1.0005575456412346,166.40449419612543
9.804384256,1.0007007484743573,165.81770089101113
9.817875456,1.0008136843752393,165.2291186554403
9.831365632,1.0008909790350782,164.63915644008745
9.844856832,1.0009291358860886,164.04825276635594
9.858347008,1.0009261448368458,163.4569264730148
9.871838208,1.0008818920037306,162.86563325312005
9.885328384,1.0007981253887743,162.2748886485019
9.898819584,1.0006781138144176,161.6851609798313
9.912310784,1.0005273830701793,161.09685583407682
9.92580096,1.0003521142204177,160.51030587932703
9.93929216,1.0001601383351686,159.9257779582209
9.952782336,0.9999599616462658,159.34344288415247
9.966273536,0.9997604871057718,158.76332885256866
9.979763712,0.9995706075359209,158.18542779582677
9.993254912,0.9993988910946433,157.6095204430715
10.006745088,0.9992532463080597,157.0353867967856
10.020236288,0.999140340043611,156.46268476502254
10.033726464,0.9990653414759328,155.89095179906852
10.047217664,0.9990320316343123,155.31971502998715
10.06070784,0.9990420875343171,154.74846347129875
10.07419904,0.9990952871736143,154.17667676815788
10.087689216,0.9991896279922665,153.60383779045472
10.101180416,0.9993210564284563,153.02945001319813
10.114671616,0.999483919639251,152.4531126820133
10.128161792,0.9996712671646611,151.8744596994999
10.141652992,0.9998745676186385,151.2932526575886
10.155143168,1.0000850647705817,150.70933676115396
10.168634368,1.0002932880869193,150.12267340553424
10.182124544,1.0004898593007368,149.5333625061057
10.195615744,1.0006660547712856,148.94156274729056
10.20910592,1.00081377849192,148.34758084657526
10.22259712,1.0009261688880071,147.75181777404268
10.236087296,1.0009981365058418,147.15467226523327
10.249578496,1.0010260856930808,146.55669995859958
10.263068672,1.0010085411781293,145.95845497060472
10.276559872,1.0009458446305006,145.36044381363533
10.290051072,1.0008406332783193,144.76322042002042
10.303541248,1.0006974186332727,144.16728976025803
10.317032448,1.000522117977659,143.57307962824265
10.330522624,1.0003224895119076,142.98093524573707
10.344013824,1.0001073255070683,142.39110738684693
10.357504,0.9998859489669012,141.80373296129054
10.3709952,0.9996684936054996,141.21885739164594
10.384485376,0.999464396311974,140.63634390258545
10.397976576,0.9992832568746617,140.05604235308732
10.411466752,0.999133076295105,139.47759857046915
10.424957952,0.9990209030323075,138.90058565738858
10.438448128,0.9989520612681143,138.32454482445786
10.451939328,0.9989297954511277,137.7489182186234
10.465430528,0.998955581530413,137.17311959477087
10.478920704,0.999028497800616,136.5965638191371
10.492411904,0.9991454979131529,136.01871735393652
10.50590208,0.9993017815590157,135.43903834060134
10.51939328,0.9994905854453543,134.85710879847935
10.532883456,0.9997035933266833,134.27256096958445
10.546374656,0.9999315685752885,133.68516244861163
10.559864832,1.0001642526791268,133.09476925623898
10.573356032,1.0003912736749418,132.501399542126
10.586846208,1.000602517949675,131.9051640759395
10.600337408,1.0007882873796523,131.30630380047427
10.613827584,1.0009404794593468,130.70518916669423
10.627318784,1.0010516527349134,130.10223866579614
10.64080896,1.0011167107240044,129.49799377934863
10.65430016,1.001132545564482,128.89302326643465
10.66779136,1.001098021167504,128.28794226905333
10.681281536,1.0010142467394287,127.6833705048233
10.694772736,1.0008848135757484,127.07982265068647
10.708262912,1.000715075059406,126.47788299007425
10.721754112,1.0005122259161494,125.87799523654508
10.735244288,1.000285311633794,125.28051153698802
10.748735488,1.0000440750970152,124.68567308790861
10.762225664,0.9997993167847105,124.0936027571129
10.775716864,0.9995619073065881,123.50429274600498
10.78920704,0.9993426700582093,122.91760147592596
10.80269824,0.9991513371119203,122.33325524118135
10.816188416,0.9989968265937851,121.75087141269765
10.829679616,0.9988862028127671,121.16995936940836
10.843170816,0.9988249471860422,120.58996460625788
10.856660992,0.9988158745738431,120.0102662037687
10.870152192,0.9988599904826027,119.43022162147459
10.883642368,0.998955593644413,118.84919995505278
10.897133568,0.9990987189738577,118.26659281630438
10.910623744,0.9992833495063184,117.68181774587495
10.924114944,0.9995015084739425,117.09444457188803
10.93760512,0.9997436160287153,116.50412316687662
10.95109632,0.999999009784613,115.91059363780074
10.964586496,1.0002563545811687,115.31377456423176
10.978077696,1.0005041754525834,114.71369262676396
10.991567872,1.0007313649754155,114.11051053736259
11.005059072,1.000927623815889,113.50457828017494
11.018549248,1.0010839072620952,112.89624952811414
11.032040448,1.0011930038821888,112.2861131347826
11.045531648,1.0012497103713536,111.67473457828002
11.059021824,1.0012510830925874,111.06276545640347
11.072513024,1.0011967450238934,110.45087551588153
11.0860032,1.0010886355458894,109.83973551891263
11.0994944,1.0009312139018176,109.22997622485784
11.112984576,1.0007310560605935,108.62217511523068
11.126475776,1.0004969021136252,108.0167957184044
11.139965952,1.0002389173621125,107.41418688401498
11.153457152,0.9999683064244089,106.8145979059543
11.166947328,0.9996972836336865,106.21813057026235
11.180438528,0.9994377834274664,105.62471355302162
11.193928704,0.9992016136876325,105.03416334500358
11.207419904,0.9989994816208283,104.44616058939069
11.220911104,0.9988406048920128,103.86019644998113
11.23440128,0.9987326556225611,103.27573424838512
11.24789248,0.998680654012313,102.6921324248539
11.261382656,0.9986874979420268,102.10868623557822
11.274873856,0.9987531154316632,101.52467374674964
11.288364032,0.998875155257467,100.93938378333799
11.301855232,0.9990485332397337,100.35215871945377
11.315345408,0.9992659210176807,99.76244306632474
11.328836608,0.9995177022441188,99.16970733774282
11.342326784,0.9997930487755975,98.57360722915091
11.355817984,1.0000797851836016,97.97389582931517
11.36930816,1.0003651678290255,97.37054037756627
