freq,mag,phase
6.0,0.999436535633028,26.532405567927757
6.007851008,0.9995654831001345,26.33527273528633
6.015701504,0.999718381487577,26.13620455251596
6.023552512,0.9998866961467726,25.934939468834845
6.03140352,1.0000612278057093,25.73137367335101
6.039254016,1.0002323354970386,25.52541831775109
6.047105024,1.0003906282170416,25.317234844457783
6.054956032,1.0005274789620144,25.107066185936436
6.062806528,1.0006352074757625,24.895214819473672
6.070657536,1.0007079088220079,24.682141487158432
6.078508544,1.0007415801217212,24.468267405924916
6.08635904,1.0007344418849629,24.25427351472603
6.094210048,1.0006866401534018,24.040598435614815
6.102061056,1.0006009742157673,23.82784599920198
6.109911552,1.0004819853717808,23.616437337935167
6.11776256,1.0003364033913824,23.40676697617207
6.125613568,1.0001719679953778,23.199219544189713
6.133464064,0.9999978041081969,22.99396708296046
6.141315072,0.9998235594502177,22.791037090064986
6.14916608,0.9996587604593005,22.590386561774515
6.157016576,0.9995125462415516,22.391834508048643
6.164867584,0.9993929729551666,22.195093294157516
6.172718592,0.999306621751646,21.99971637197294
6.180569088,0.9992583022448339,21.805240795075285
6.188420096,0.9992507617420783,21.611115030707737
6.196271104,0.9992844184920044,21.416832139673378
6.2041216,0.9993574096840931,21.221832813314975
6.211972608,0.9994657273093683,21.025606844674172
6.219823104,0.9996034544796751,20.827671036515625
6.227674112,0.9997629783247928,20.62769763613495
6.23552512,0.9999355107230398,20.425482122658458
6.243375616,1.0001117122717944,20.22085682940541
6.251226624,1.0002816323791663,20.013921869548838
6.259077632,1.0004361601562428,19.80479464426705
6.266928128,1.0005666166014822,19.593678446980828
6.274779136,1.000665866186893,19.38099710059608
6.282630144,1.0007284460458514,19.167253303009133
6.29048064,1.0007509176762932,18.95287329738468
6.298331648,1.0007318945282913,18.738465021023707
6.306182656,1.000672568622972,18.524577157436568
6.314033152,1.0005760415802294,18.311713444480205
6.32188416,1.000447666853333,18.100370140861656
6.329735168,1.0002943844126895,17.89093079422955
6.337585664,1.000124769707428,17.683624717864703
6.345436672,0.9999479799078468,17.478634396304184
6.35328768,0.9997738433164114,17.276051683098967
6.361138176,0.9996119133330318,17.075754221099615
6.368989184,0.9994711514115658,16.877438236198227
6.376840192,0.999359383790756,16.680836612837307
6.384690688,0.9992825821105166,16.48549623543248
6.392541696,0.9992453490945219,16.290982502264484
6.400392704,0.9992493616995008,16.096631586890837
6.4082432,0.9992948662235817,15.901947303198542
6.416094208,0.9993790260947649,15.706348790627755
6.423945216,0.9994974772721963,15.50936852488337
6.431795712,0.9996435581336203,15.310612810537673
6.43964672,0.9998092360531422,15.109737697013312
6.447497728,0.9999854735432332,14.906489369150165
6.455348224,1.000162557143144,14.700888133027235
6.463199232,1.0003305807019582,14.492903202272325
6.47105024,1.0004805485615653,14.282793956972277
6.478900736,1.000604045719786,14.070776055111505
6.486751744,1.000694237432698,13.857322618674557
6.494602752,1.0007462847576536,13.642864718150083
6.502453248,1.00075717695305,13.428015390242416
6.510304256,1.0007263246196567,13.213238770395206
6.518155264,1.0006554314925584,12.999158281043846
6.52600576,1.0005482682588687,12.786268562916252
6.533856768,1.0004108167262542,12.574963705337707
6.541707776,1.0002505112072713,12.365699053265448
6.549558272,1.0000761694839508,12.158686939204811
6.55740928,0.9998973972143157,11.954044829653373
6.565260288,0.9997241521008412,11.751750862410422
6.573110784,0.9995657368685217,11.551690189483578
6.580961792,0.9994311438063452,11.353639944551238
6.5888128,0.9993277039608722,11.157166772284763
6.596663296,0.9992609828375484,10.961845298223654
6.604514304,0.9992350397555639,10.767134388190014
6.612365312,0.999251011479388,10.572507748398838
6.620215808,0.9993082947567892,10.377367535718905
6.628066816,0.9994036364303197,10.18115139073501
6.635917312,0.9995317717285498,9.983442248169357
6.64376832,0.9996857234223319,9.78379826592758
6.651619328,0.9998570208314448,9.581924866858655
6.659469824,1.000036180103632,9.377687043491642
6.667320832,1.00021345968961,9.17098638480147
6.67517184,1.0003789276666797,8.96196457857136
6.683022336,1.0005236752019273,8.750854962629974
6.690873344,1.0006395964885402,8.537980673355168
6.698724352,1.0007203225604742,8.323732628468502
6.706574848,1.000761353606077,8.108658872593697
6.714425856,1.0007604972267368,7.893272463662627
6.722276864,1.0007176644077471,7.678167792492949
6.73012736,1.000635253405193,7.4639400486040985
6.737978368,1.0005177074268623,7.250961752141979
6.745829376,1.0003715983243782,7.039835147084332
6.753679872,1.000204803251796,6.830747802983873
6.76153088,1.000026430720944,6.624021719269656
6.769381888,0.9998464586685613,6.419675418640527
6.777232384,0.9996746157711887,6.2176996039513694
6.785083392,0.9995205930373509,6.0179381862725725
6.7929344,0.9993927607366992,5.820048456866233
6.800784896,0.9992981156734775,5.623680413993665
6.808635904,0.9992420352325674,5.428290010195759
6.816486912,0.9992277247512669,5.233393015354231
6.824337408,0.9992556752645909,5.0384168413687505
6.832188416,0.9993247281632711,4.842753041560498
6.840039424,0.9994309758359247,4.645900334342009
6.84788992,0.9995684930998121,4.447362605180291
6.855740928,0.9997298882607049,4.246749067831998
6.863591936,0.9999062648165093,4.043911342259559
6.871442432,1.0000877655631448,3.8386020476287004
6.87929344,1.0002644412453485,3.630852087407082
6.887144448,1.0004267153814859,3.4208136015540265
6.894994944,1.0005655302168373,3.2087068746230343
6.902845952,1.0006732281857817,2.994897853346216
6.91069696,1.0007438592980282,2.7798993676909896
6.918547456,1.0007736546508976,2.564204924338811
6.926398464,1.0007607846847844,2.348364858927295
6.934249472,1.0007059857377891,2.1329740907130086
6.942099968,1.0006121661413716,1.9185367823882196
6.949950976,1.0004846286080535,1.7056078606324936
6.957801984,1.0003301701651284,1.4945523067103517
6.96565248,1.0001573264450354,1.2857018780917702
6.973503488,0.9999756252423323,1.079220521541841
6.981354496,0.9997950703245394,0.8751958315544129
6.989204992,0.9996254885696352,0.6735264862012579
6.997056,0.999476362175115,0.47400033175086753
7.004907008,0.99935596754271,0.2762838534527148
7.012757504,0.9992708759666534,0.07996696270318507
7.020608512,0.9992257387957709,-0.11548369775685488
7.02845952,0.9992232553121384,-0.3106386466551716
7.036310016,0.9992633389408558,-0.5060431803031717
7.044161024,0.9993441973592624,-0.7022869559438109
7.052012032,0.9994611206349318,-0.8998817266039673
7.059862528,0.9996076513321239,-1.0992624855414304
7.067713536,0.9997759297703511,-1.300811875852567
7.075564032,0.9999565525041733,-1.5047140670832941
7.08341504,1.0001397122708466,-1.7110860166422766
7.091266048,1.000315217792431,-1.9199462018237483
7.099116544,1.0004735292907874,-2.1310224570470795
7.106967552,1.000605756194643,-2.344132824310363
7.11481856,1.0007046893666192,-2.55879194663004
7.122669056,1.0007649140522754,-2.774534375995012
7.130520064,1.0007829443931215,-2.9908599785357004
7.138371072,1.0007579570854044,-3.207141225557872
7.146221568,1.0006911286157842,-3.42282704111365
7.154072576,1.0005862061225317,-3.6373398085029325
7.161923584,1.0004488232292217,-3.850258612441723
7.16977408,1.0002866130213544,-4.061172289381865
7.177625088,1.0001083414477772,-4.269787156048736
7.185476096,0.9999239330682504,-4.476002483567078
7.193326592,0.9997434799998225,-4.679715789814859
7.2011776,0.9995769834625939,-4.881130211916503
7.209028608,0.999433516270141,-5.080424055236133
7.216879104,0.9993210682586586,-5.27799506970064
7.224730112,0.9992459237939834,-5.474336776773701
7.23258112,0.9992120863947326,-5.669934137602718
7.240431616,0.9992217842874942,-5.8653825296807724
7.248282624,0.9992741599862627,-6.061246707063809
7.256133632,0.9993665498998942,-6.258141501421278
7.263984128,0.9994939096880914,-6.456494825595568
7.271835136,0.999649148663664,-6.656770621219282
7.279686144,0.9998237580728783,-6.85933506401449
7.28753664,1.0000081967903196,-7.064316337873179
7.295387648,1.0001922444435938,-7.27182461071235
7.303238656,1.0003658639098312,-7.4817549589032675
7.311089152,1.000519379390222,-7.693918322163914
7.31894016,1.0006443730898162,-7.907976733263129
7.326791168,1.0007339853043216,-8.123510824735991
7.334641664,1.000783249623059,-8.339996120445525
7.342492672,1.0007893657308207,-8.5569189591068
7.35034368,1.000752104981966,-8.77358817247605
7.358194176,1.0006733340548524,-8.989527028578296
7.366045184,1.00055732061239,-9.204169438223897
7.373896192,1.0004105931266873,-9.41704761688736
7.381746688,1.000241020638398,-9.627793663235055
7.389597696,1.0000579703389973,-9.836198499044144
7.397448704,0.9998715460168468,-10.04210347668094
7.4052992,0.9996919457022927,-10.245536021099669
7.413150208,0.9995291335375166,-10.446683625872435
7.421001216,0.999391986963757,-10.645804206589155
7.428851712,0.9992881543755266,-10.843287492136762
7.43670272,0.9992234789983677,-11.039636286733005
7.444553728,0.9992014801705744,-11.235431854476271
7.452404224,0.9992233225845306,-11.431234711120203
7.460255232,0.9992880125840641,-11.627626245640299
7.46810624,0.9993918746162361,-11.825182110703333
7.475956736,0.9995293148356327,-12.024385060268155
7.483807744,0.9996927335194675,-12.225626760291991
7.49165824,0.9998732228154369,-12.42922353179347
7.499509248,1.000060729973999,-12.635340292126038
7.507360256,1.0002450551689333,-12.843962725512343
7.515210752,1.0004158738240885,-13.05499318904708
7.52306176,1.000563991179809,-13.268235595301507
7.530912768,1.0006811018297068,-13.483286752580574
7.538763264,1.000760875029946,-13.69967752790985
7.546614272,1.0007987563961658,-13.916859047653734
7.55446528,1.000792718142129,-14.134279956622361
7.562315776,1.0007429788847582,-14.351390088025115
7.570166784,1.0006523863294061,-14.567545621402855
7.578017792,1.0005255590935433,-14.782240803655464
7.585868288,1.0003698975139699,-14.995074300570561
7.593719296,1.0001933947011419,-15.205667627374527
7.601570304,1.0000062797623264,-15.413798179285985
7.6094208,0.9998185194774772,-15.619445125664576
7.617271808,0.9996404729096382,-15.822583435405694
7.625122816,0.999482113377343,-16.023511159520925
7.632973312,0.9993518651415739,-16.222442479172027
7.64082432,0.9992573379293499,-16.419899135947574
7.648675328,0.9992036151553475,-16.61634101818506
7.656525824,0.9991935820411556,-16.812400001635712
7.664376832,0.9992279012472612,-17.008599145522506
7.67222784,0.9993048074003933,-17.205565294203033
7.680078336,0.9994201030890163,-17.403876120929688
7.687929344,0.999567385199677,-17.603936213287973
7.695780352,0.9997385617373158,-17.80621471442192
7.703630848,0.9999241479593776,-18.010875627568097
7.711481856,1.0001141108932559,-18.218128722008622
7.719332864,1.000297922505254,-18.427902103438022
7.72718336,1.0004653418972866,-18.64008760856923
7.735034368,1.0006072887606803,-18.85440440785495
7.742885376,1.0007159607689748,-19.070385534650015
7.750735872,1.0007853958163813,-19.28761352180949
7.75858688,1.0008115632671997,-19.50549585339258
7.766437888,1.0007931418668485,-19.723477466275998
7.774288384,1.0007308497248624,-19.940930009714215
7.782139392,1.0006283079681837,-20.15727785106858
7.7899904,1.0004911680170971,-20.3720336269225
7.797840896,1.0003267557786086,-20.5847659462564
7.805691904,1.0001441130049975,-20.795177487630195
7.813542912,0.9999533850163088,-21.003081257081586
7.821393408,0.9997649862510131,-21.20845025122195
7.829244416,0.9995893196546803,-21.411331462154717
7.837095424,0.9994359929881003,-21.612035466469187
7.84494592,0.9993135001705916,-21.81085967396975
7.852796928,0.999228742488846,-22.008295938032678
7.860647936,0.9991862514893773,-22.204905949357855
7.868498432,0.9991886249413905,-22.40123787725661
7.87634944,0.9992356438388167,-22.597902762768147
7.884200448,0.9993247754732717,-22.795493140362897
7.892050944,0.9994512123343374,-22.994582250129817
7.899901952,0.9996079036264164,-23.19560082039847
7.907752448,0.9997862461027816,-23.39891061135286
7.915603456,0.9999765107101932,-23.604711148771962
7.923454464,1.0001681884333233,-23.81312643385283
7.93130496,1.0003505817612899,-24.02410069534457
7.939155968,1.00051406129606,-24.237425030844133
7.947006976,1.0006493525368658,-24.452768830971745
7.954857472,1.0007488853814102,-24.669738737989753
7.96270848,1.0008073158035775,-24.887773927369825
7.970559488,1.0008212513582686,-25.106358513341817
7.978409984,1.0007901892887778,-25.324827957241318
7.986260992,1.0007155856016674,-25.54262415759735
7.994112,1.0006013800485902,-25.759146838966547
8.001962496,1.0004540335971328,-25.973920038487854
8.009813504,1.0002814297141012,-26.186556787568456
8.017664512,1.0000931725659203,-26.396772936793816
8.025515008,0.9998994910590033,-26.60442374969824
8.033366016,0.9997110989311474,-26.809497506712617
8.041217024,0.9995384084548999,-27.012187569699982
8.04906752,0.9993908707755719,-27.212670446978553
8.056918528,0.999276875035231,-27.411408171594346
8.064769536,0.9992024489086253,-27.608901877631975
8.072620032,0.9991718322670514,-27.805667450179275
8.08047104,0.9991867247495574,-28.00233766285971
8.088322048,0.9992465440939609,-28.19955097154813
8.096172544,0.9993477212415013,-28.397856992662824
8.104023552,0.9994850685645289,-28.597794499710666
8.11187456,0.9996507292618467,-28.799762294497235
8.119725056,0.9998357756267866,-29.00416330616618
8.127576064,1.0000299572127103,-29.211155770800083
8.135427072,1.0002227468507152,-29.42074820895187
8.143277568,1.0004033322412331,-29.63292845582224
8.151128576,1.0005618925603232,-29.84737413833252
8.158979584,1.000689625470966,-30.063812492054637
8.16683008,1.000779482863287,-30.28173828624378
8.174681088,1.0008266994459183,-30.500585501291003
8.182532096,1.0008282178410992,-30.719785070838505
8.190382592,1.000784372349772,-30.938744606190088
8.1982336,1.0006970513517628,-31.15685581204345
8.206084608,1.000571433243704,-31.37351163002496
8.213935104,1.0004141841485064,-31.588286180135547
8.221786112,1.0002339755126282,-31.800832609791918
8.22963712,1.0000406096663497,-32.01086908473427
8.237487616,0.9998446822908524,-32.21824737089153
8.245338624,0.9996571777104837,-32.42309014708137
8.253189632,0.9994882351112497,-32.625527158863704
8.261040128,0.9993473126139278,-32.82583677551554
8.268891136,0.9992420705174663,-33.02455141599365
8.276742144,0.9991785856848735,-33.22206617979192
8.28459264,0.9991601630596709,-33.41910550859628
8.292443648,0.9991878758332808,-33.616183594204976
8.300294656,0.9992604498736819,-33.81397041985025
8.308145152,0.9993737229620556,-34.01302389037509
8.31599616,0.999521553048492,-34.21388405433062
8.323846656,0.9996959581017104,-34.416899652085434
8.331697664,0.9998871267431132,-34.62241017323854
8.339548672,1.0000847292913844,-34.83057497232377
8.347399168,1.0002777695906904,-35.04143217001287
8.355250176,1.0004557104093055,-35.25481083028066
8.363101184,1.0006086577114677,-35.47043372256937
8.37095168,1.000728270959832,-35.68789889895847
8.378802688,1.0008079344078686,-35.90675342803936
8.386653696,1.000843198297669,-36.12640033017108
8.394504192,1.0008320338154564,-36.3462695176916
8.4023552,1.0007751386272572,-36.56568317169894
8.410206208,1.0006755138706875,-36.78405640957658
8.418056704,1.000538553856207,-37.000836417750584
8.425907712,1.0003717968337091,-37.21560964210783
8.43375872,1.0001844079755993,-37.42799530093231
8.441609216,0.9999866053896795,-37.6378292840149
8.449460224,0.9997891697733304,-37.844993815585205
8.457311232,0.999603151539021,-38.049582922066925
8.465161728,0.9994387431064408,-38.25178259049796
8.473012736,0.9993049917257083,-38.45200853369153
8.480863744,0.9992095436397169,-38.650659968469995
8.48871424,0.9991572540486654,-38.84833858344106
8.496565248,0.9991512412791845,-39.045677402182356
8.504416256,0.9991922265947385,-39.24319271545292
8.512266752,0.9992775513652089,-39.44164520072993
8.52011776,0.9994027699830563,-39.64145167000996
8.527968768,0.9995609891534255,-39.84328323071763
8.535819264,0.9997434271312899,-40.047415265317795
8.543670272,0.9999401108617721,-40.25412873316687
8.55152128,1.0001405337081766,-40.463513556134444
8.559371776,1.0003330100367633,-40.67562449275803
8.567222784,1.0005076110789004,-40.89018755300912
8.575073792,1.000654262954121,-41.1069690428272
8.582924288,1.0007651961070645,-41.325521245664156
8.590775296,1.0008340306639492,-41.54529561428719
8.598626304,1.000857060352528,-41.7657565728818
8.606477312,1.0008329661368465,-41.98618655957203
8.614327296,1.0007630472917508,-42.2060317284528
8.622178304,1.0006509241860952,-42.4246489999431
8.630029312,1.000502916141596,-42.641560176590914
8.63788032,1.0003269800617047,-42.8562894717793
8.645731328,1.0001328863795012,-43.068572187816365
8.653582336,0.9999312230371643,-43.27813858459825
8.66143232,0.999733029679334,-43.48505335944491
8.669283328,0.9995492291753861,-43.68940312670353
8.677134336,0.9993901236438277,-43.89143887206516
8.684985344,0.9992643507893201,-44.091571116668234
8.692836352,0.9991788255585536,-44.29027747987484
8.70068736,0.9991385040236407,-44.48811881185849
8.708537344,0.9991455188774634,-44.68577703012503
8.716388352,0.9991996444821863,-44.8838450815107
8.72423936,0.9992978106433349,-45.08297653648032
8.732090368,0.9994346954651744,-45.283689902603214
8.739941376,0.9996029187939074,-45.48651813243348
8.747792384,0.9997930856910534,-45.691783618180025
8.755642368,0.9999948424051822,-45.899686549867916
8.763493376,1.000196983881912,-46.11036167036154
8.771344384,1.0003885896062399,-46.32371624829137
8.779195392,1.0005589617144155,-46.539548606087216
8.7870464,1.0006986636256041,-46.7575125312587
8.794897408,1.0008000494014104,-46.977100511332495
8.802747392,1.0008574841016404,-47.197805401739714
8.8105984,1.000867954829072,-47.41897888653495
8.818449408,1.0008305386485736,-47.64001555218604
8.826300416,1.0007474390348374,-47.860265126311475
8.834151424,1.000623087267221,-48.07912078888004
8.842002432,1.0004642562878012,-48.296112818458646
8.849852416,1.0002796833185756,-48.510784099236
8.857703424,1.0000794886727102,-48.722912796840866
8.865554432,0.999874557717166,-48.93228156078903
8.87340544,0.9996763428492432,-49.1389514782716
8.881256448,0.9994955861599781,-49.34305960336406
8.889107456,0.9993423880352528,-49.54494346636481
8.89695744,0.9992250826809879,-49.74499495232567
8.904808448,0.9991504901245046,-49.94376293388404
8.912659456,0.9991224298773896,-50.14186808211269
8.920510464,0.9991426613131789,-50.33992067743682
8.928361472,0.9992101063851823,-50.538565602171175
8.93621248,0.999321112120537,-50.738434905537595
8.944062464,0.9994695403519092,-50.94008406501811
8.951913472,0.9996473901096399,-51.143975919011545
8.95976448,0.999844817807936,-51.35041921752121
8.967615488,1.0000508281919913,-51.559600033245964
8.975466496,1.000254267572672,-51.771569072256554
8.98331648,1.000443957331517,-51.98624593271349
8.991167488,1.0006093838730123,-52.20330966164593
8.999018496,1.0007414001969894,-52.422431096978706
9.006869504,1.0008327844976088,-52.64307723260883
9.014720512,1.0008784390042307,-52.86469210156791
9.02257152,1.0008758448586115,-53.086607550980574
9.030421504,1.0008250781488062,-53.30819563385882
9.038272512,1.0007286729426887,-53.52880806181934
9.04612352,1.0005922341953573,-53.747892186990214
9.053974528,1.0004229518863506,-53.96491560992385
9.061825536,1.0002300743135601,-54.17954345210435
9.069676544,1.0000243499807275,-54.391463580674376
9.077526528,0.9998169056884622,-54.60062399075323
9.085377536,0.9996192709400599,-54.80704229957532
9.093228544,0.999442385994519,-55.0109901852595
9.101079552,0.9992958781871805,-55.21272530803791
9.10893056,0.9991879458006223,-55.412779056050454
9.116781568,0.9991244778415633,-55.61166361040838
9.124631552,0.9991092057561808,-55.81002501432043
9.13248256,0.9991430096795207,-56.008530230264995
9.140333568,0.9992238768560103,-56.20781854427792
9.148184576,0.9993476554437173,-56.40852501311176
