freq,mag,phase
6.0,1.0007411043484864,-17.144195942409397
6.014337024,1.0005959207183548,-17.659891157665623
6.028674048,1.000423579685887,-18.173983795541
6.04301056,1.0002323868102427,-18.68613407561841
6.057347584,1.000030553375806,-19.19612049673142
6.071684608,0.9998268121294019,-19.70395280637443
6.086021632,0.9996305414966705,-20.209633719464716
6.100358656,0.999450422775599,-20.713272473331077
6.114695168,0.9992943152825426,-21.21516859092866
6.129032192,0.9991695784505276,-21.715626406631518
6.143369216,0.9990814911576721,-22.214995657824176
6.15770624,0.9990340376066064,-22.713894300376392
6.172043264,0.9990297868756024,-23.212656420089484
6.186379776,0.9990688179707393,-23.711929042850137
6.2007168,0.9991491732624148,-24.21221371087037
6.215053824,0.999267601721144,-24.713945389195462
6.229390848,0.9994191382954348,-25.21761932561763
6.24372736,0.9995965082147146,-25.723545955869564
6.258064384,0.9997923552944862,-26.232001746377733
6.272401408,0.9999978129355,-26.74323006619213
6.286738432,1.0002038317547375,-27.25717885841798
6.301075456,1.0004011883260233,-27.77391697577525
6.315411968,1.000580799902639,-28.293205219326524
6.329748992,1.0007353604481806,-28.814799363132334
6.344086016,1.0008575200208754,-29.338345090324726
6.35842304,1.0009416401775382,-29.86348047608584
6.372760064,1.0009844200190545,-30.389671238218313
6.387096576,1.0009833779614445,-30.916378535565627
6.4014336,1.000938914522252,-31.44309962357353
6.415770624,1.0008524737209914,-31.969381933328023
6.430107648,1.0007282192653078,-32.49468721323828
6.444444672,1.0005713158841425,-33.01853887274133
6.458781184,1.0003888213201129,-33.54064674496266
6.473118208,1.0001887496960142,-34.06075451451902
6.487455232,0.9999799402854309,-34.57863533687589
6.501792256,0.9997714815436057,-35.09433121588629
6.51612928,0.999572950484573,-35.60779036920228
6.530465792,0.9993929987849557,-36.119235582853165
6.544802816,0.9992397682314814,-36.62895847766742
6.55913984,0.9991199721411494,-37.13732071074001
6.573476864,0.9990391286633545,-37.64473724767761
6.587813376,0.9990009532063535,-38.151687311164025
6.6021504,0.999007067236637,-38.65878747883058
6.616487424,0.9990575188674927,-39.166447226699766
6.630824448,0.9991500440806481,-39.67528283337
6.645161472,0.9992804094213849,-40.18577006088669
6.659497984,0.999443225199142,-40.69835295164698
6.673835008,0.9996312298147724,-41.21331379776545
6.688172032,0.9998358604186828,-41.7309671237495
6.702509056,1.000048198764712,-42.25146771367002
6.71684608,1.000259004985232,-42.774817433060115
6.731182592,1.0004586541311373,-43.30098510680614
6.745519616,1.000638503363659,-43.82975984748764
6.75985664,1.0007903785370078,-44.3608596538137
6.774193664,1.000907436303847,-44.89385311237549
6.788530688,1.000984738156646,-45.42839673535446
6.8028672,1.0010183622063327,-45.963863588184616
6.817204224,1.0010070363277495,-46.49983695799117
6.831541248,1.0009511785197016,-47.035716077969475
6.845878272,1.0008528417753384,-47.57094259062129
6.860215296,1.0007167129432069,-48.10507698098907
6.874551808,1.0005482758934487,-48.63772058081735
6.888888832,1.0003554195277273,-49.16845076741759
6.903225856,1.000146263918767,-49.697076326259534
6.91756288,0.9999303617608541,-50.22347142519357
6.931899392,0.9997169757985769,-50.74749721722542
6.946236416,0.9995158521081694,-51.26936240015167
6.96057344,0.9993358468827083,-51.789212638919125
6.974910464,0.9991848281718948,-52.307355321728046
6.989247488,0.9990697472117294,-52.82416533760676
7.003584,0.9989958546273369,-53.34015833586752
7.017921024,0.998966424020465,-53.85578845122508
7.032258048,0.9989828333490268,-54.37166071743416
7.046595072,0.9990445926623205,-54.88829409491945
7.060932096,0.9991488186605451,-55.40623710440526
7.075268608,0.999291181992367,-55.925965582138495
7.089605632,0.9994654567133793,-56.447957955732434
7.103942656,0.9996637651230285,-56.97250992941327
7.11827968,0.9998775674313816,-57.49986607850476
7.132616704,1.0000971867089377,-58.03019062830005
7.146953216,1.0003131631479065,-58.563476869486855
7.16129024,1.0005156482965407,-59.09959118347908
7.175627264,1.000695752064519,-59.6383749110053
7.189964288,1.0008456114107533,-60.17947413184557
7.204301312,1.0009581943894021,-60.72247908551398
7.218637824,1.0010287513442937,-61.266920366433745
7.232974848,1.00105385926794,-61.812321905082
7.247311872,1.0010324813149196,-62.358057527721755
7.261648896,1.0009654022269618,-62.90355717437086
7.275985408,1.0008553533836448,-63.448352956555006
7.290322432,1.0007072987568637,-63.99191733618392
7.304659456,1.000527545940137,-64.53384513564828
7.31899648,1.000323951647414,-65.07380494367312
7.333333504,1.0001058166342902,-65.61147388421334
7.347670016,0.9998822308190337,-66.14686838972104
7.36200704,0.9996634941346461,-66.67983170876731
7.376344064,0.999459133053383,-67.21059215330172
7.390681088,0.9992783943153649,-67.73931725226718
7.405018112,0.9991291017819591,-68.26638401207595
7.419354624,0.9990183187390014,-68.79214085715132
7.433691648,0.9989507710900786,-69.31717582363305
7.448028672,0.9989296794784295,-69.84195572146332
7.462365696,0.9989559638029649,-70.36707554997857
7.47670272,0.9990288868284668,-70.89312340090069
7.491039232,0.9991448385469359,-71.42061301098329
7.505376256,0.9992992329404049,-71.9501001001199
7.51971328,0.9994849980569644,-72.48195484673845
7.534050304,0.99969413638969,-73.01652770779474
7.548387328,0.9999172770074275,-73.55406675889591
7.56272384,1.0001447334929385,-74.09466618772481
7.577060864,1.0003663053093401,-74.63826861712016
7.591397888,1.0005722408381574,-75.18485672931192
7.605734912,1.0007534567922602,-75.73407571866582
7.620071936,1.0009017589810902,-76.2856870544871
7.634408448,1.0010106352451633,-76.83916790107621
7.648745472,1.0010751030498573,-77.39404071867233
7.663082496,1.00109212357659,-77.94976496982498
7.67741952,1.0010610040044083,-78.50575476420728
7.691756032,1.0009829466952302,-79.06143828809192
7.706093056,1.000861341702832,-79.61627719895985
7.72043008,1.0007012274279106,-80.16976797622621
7.734767104,1.0005098590731119,-80.7214399497379
7.749104128,1.000295350813058,-81.27103068966113
7.76344064,1.0000672797968941,-81.81829194881674
7.777777664,0.9998357566631919,-82.36310921534115
7.792114688,0.9996109657140209,-82.9054914848227
7.806451712,0.9994026533089658,-83.44558311328596
7.820788736,0.99922046197879,-83.98361423116575
7.835125248,0.9990722976948923,-84.51999327910575
7.849462272,0.9989649833706464,-85.05513866857213
7.863799296,0.9989031278754913,-85.58957724526006
7.87813632,0.9988898758175732,-86.1239003197643
7.892473344,0.9989256950887457,-86.65866488315885
7.906809856,0.9990093045192212,-87.19447430132745
7.92114688,0.9991369924178324,-87.73190523960895
7.935483904,0.9993032882394989,-88.27144735111635
7.949820928,0.9995010644735259,-88.81352548691947
7.964157952,0.9997213063740623,-89.35849040537974
7.978494464,0.999954541485682,-89.90651152315075
7.992831488,1.0001904646201434,-90.45772376508056
8.007168512,1.0004185768090395,-91.01209943823827
8.021505536,1.0006288283777198,-91.56947976878246
8.035842048,1.0008119815623777,-92.1295867246569
8.050179072,1.0009595850611013,-92.69205647069818
8.064516096,1.0010652897236292,-93.25640590776698
8.07885312,1.0011245132079685,-93.82209367536765
8.093190144,1.0011340421016137,-94.38861955315325
8.107526656,1.0010936273731434,-94.95525116731335
8.12186368,1.0010049048705705,-95.52149028394179
8.136200704,1.0008714798644995,-96.08674634688275
8.150537728,1.0006993690090016,-96.65055557116624
8.164874752,1.0004958664636423,-97.21241649441731
8.179211264,1.0002699026945792,-97.77204730545273
8.193548288,1.0000314758617972,-98.32924636592581
8.207885312,0.9997909850108581,-98.88385915053384
8.222222336,0.9995589882055372,-99.43596790929509
8.23655936,0.9993459843023523,-99.98571284763227
8.250895872,0.9991612985383176,-100.53341727730722
8.265232896,0.9990131503929977,-101.07942162244122
8.27956992,0.998908289647244,-101.62421701351712
8.293906944,0.9988516511972404,-102.16833919882335
8.308243968,0.9988454308154917,-102.71243884784063
8.32258048,0.998890415775714,-103.25708202297041
8.336917504,0.9989846966202048,-103.8028991638126
8.351254528,0.9991241259791344,-104.35048972316544
8.365591552,0.9993027564134352,-104.90032880676478
8.379928064,0.9995127080937576,-105.45288217620444
8.394265088,0.9997448975872294,-106.00843736545784
8.408602112,0.9999889427539237,-106.56720307915731
8.422939136,1.000234312595757,-107.12930888979467
8.43727616,1.0004699694380446,-107.69467712719738
8.451612672,1.000685729843116,-108.26313060766391
8.465949696,1.0008718409960586,-108.83435729215286
8.48028672,1.001019983667459,-109.40794973404068
8.494623744,1.0011236789009537,-109.98345027978174
8.508960768,1.0011781996443065,-110.5602823134634
8.52329728,1.0011808653390861,-111.13785261038173
8.537634304,1.0011316630834037,-111.71547115342398
8.551971328,1.0010323223222164,-112.29260359199209
8.566308352,1.0008872147387005,-112.86859126575891
8.580645376,1.0007026148973115,-113.44297088026538
8.594981888,1.000486506328409,-114.01531149969755
8.609318912,1.0002482536032056,-114.5852619110805
8.623655936,0.999998351428323,-115.15263453842755
8.63799296,0.9997477761409189,-115.71730683052357
8.652329984,0.9995075198910185,-116.27938186872413
8.666667008,0.9992884080893282,-116.83902374882548
8.681004032,0.9990999049202974,-117.39649772537304
8.695340032,0.9989506737541389,-117.95229765592431
8.709677056,0.9988474069818654,-118.50686063165982
8.72401408,0.9987946692223769,-119.06084249923126
8.738351104,0.9987950770978496,-119.6148116307014
8.752688128,0.9988487674346839,-120.16945398086561
8.767025152,0.9989534026481051,-120.72537665881812
8.781362176,0.9991047743949376,-121.28319795110973
8.7956992,0.9992960562853896,-121.84343104541838
8.810036224,0.999519070631468,-122.40649325345922
8.824373248,0.9997640138282261,-122.97275016081574
8.838709248,1.0000201579262684,-123.54239410718759
8.853046272,1.0002762098267175,-124.11547311995307
8.867383296,1.0005208997425137,-124.6919352354859
8.88172032,1.0007434964035806,-125.27156653429878
8.896057344,1.0009340453128146,-125.85406218193589
8.910394368,1.0010840257679572,-126.43901373258386
8.924731392,1.001186823116273,-127.02580721261761
8.939068416,1.001237698808437,-127.61393704962042
8.95340544,1.0012343073177825,-128.20271113453768
8.96774144,1.0011765499962395,-128.7915173423922
8.982078464,1.0010668653589587,-129.37968617908214
8.996415488,1.0009098170683426,-129.9666064188858
9.010752512,1.000712240234938,-130.5517448998382
9.025089536,1.000482655876327,-131.13469942976664
9.03942656,1.0002310241096726,-131.71510267957675
9.053763584,0.999968367039901,-132.2927688874729
9.068100608,0.9997061463302235,-132.8676166051331
9.082437632,0.9994560940835491,-133.4397107324867
9.096774656,0.9992290925948618,-134.00924637943112
9.111110656,0.9990353795991784,-134.57657595980967
9.12544768,0.9988835523470244,-135.1421464035204
9.139784704,0.9987804487819715,-135.70651648626372
9.154121728,0.9987307856493831,-136.27025151184776
9.168458752,0.9987369569539079,-136.83407758649378
9.182795776,0.9987989053446104,-137.39863250502856
9.1971328,0.9989140089442962,-137.96456760077652
9.211469824,0.9990773879109721,-138.53255185495655
9.225806848,0.9992820377060231,-139.10306743484298
9.240143872,0.9995189945143332,-139.676616229632
9.254479872,0.9997781096609546,-140.25348672679445
9.268816896,1.0000477451950733,-140.83388537975716
9.28315392,1.000316201522633,-141.41791015751008
9.297490944,1.0005717454073733,-142.005436331369
9.311827968,1.0008029660872364,-142.5962884024618
9.326164992,1.0009996646453265,-143.1900415597402
9.340502016,1.0011531345035605,-143.78630674325467
9.35483904,1.0012563914825852,-144.38447445682434
9.369176064,1.001304786751575,-144.98390911241955
9.383512064,1.001295993113501,-145.58398751392238
9.397849088,1.0012302759204508,-146.18399439714543
9.412186112,1.0011102244641956,-146.78324137603838
9.426523136,1.0009408471909946,-147.38112212276582
9.44086016,1.0007295626640906,-147.9770928822466
9.455197184,1.0004853323477458,-148.57067985468848
9.469534208,1.0002187892468548,-149.16153552276086
9.483871232,0.9999417258097061,-149.74945557845348
9.498208256,0.9996660912995875,-150.33440107394415
9.51254528,0.9994041164538645,-150.91642475197892
9.52688128,0.9991673881625431,-151.49577113271366
9.541218304,0.9989663756448004,-152.07281839022036
9.555555328,0.9988101524521444,-152.6479931112417
9.569892352,0.9987056917607249,-153.22191378778047
9.584229376,0.998657917280574,-153.79524127909036
9.5985664,0.9986690299414134,-154.3686520677626
9.612903424,0.9987388162406479,-154.94286736174917
9.627240448,0.9988643222208419,-155.5185830381827
9.641577472,0.9990404391054409,-156.09643347000903
9.655913472,0.9992593188474552,-156.67700001385165
9.670250496,0.999511635434812,-157.26073801492976
9.68458752,0.9997863797499164,-157.84800386316505
9.698924544,1.0000715358956687,-158.43898646923333
9.713261568,1.000354616349594,-159.03374117214338
9.727598592,1.0006231552186429,-159.63215440422886
9.741935616,1.0008652716770932,-160.23399940399
9.75627264,1.0010703496395592,-160.8388966778879
9.770609664,1.0012291221125893,-161.44636546268543
9.784946688,1.0013345433260576,-162.0557785055736
9.799282688,1.0013817808825785,-162.66647705920522
9.813619712,1.0013684928505495,-163.27776153546762
9.827956736,1.0012951488086257,-163.8888835296088
9.84229376,1.001164554720964,-164.49916196570675
9.856630784,1.0009822996776776,-165.10791874441924
9.870967808,1.0007561005327124,-165.71459064273884
9.885304832,1.0004956959517592,-166.31867320634018
9.899641856,1.0002124630943412,-166.91985525958103
9.91397888,0.9999187027316085,-167.51788509385034
9.928315904,0.9996271385365345,-168.1127231829855
9.942651904,0.999350738791756,-168.7044427725349
9.956988928,0.99910181928363,-169.29331606918785
9.971325952,0.9988911477801212,-169.87973794093887
9.985662976,0.9987284006120969,-170.46419876305285
10.0,0.9986207905499835,-171.04731643383664
10.014337024,0.9985735099033216,-171.62978881269163
10.028674048,0.9985886483398555,-172.21238137453508
10.043011072,0.9986658872623011,-172.79584201296927
10.057348096,0.9988021160222607,-173.38088487265608
10.071684096,0.9989915530480744,-173.96818394268925
10.08602112,0.9992260527056185,-174.55835668924823
10.100358144,0.999495530989853,-175.15189260678991
10.114695168,0.9997882200055103,-175.74914954456253
10.129032192,1.0000914361203173,-176.35030875168366
10.143369216,1.0003917069364656,-176.95544381676896
10.15770624,1.000676095790759,-177.56443784287296
10.172043264,1.000931915415336,-178.1770436390674
10.186380288,1.0011478677848396,-178.79280881759598
10.200717312,1.001314453480386,-179.41125894285096
10.215053312,1.0014239891613472,179.9682859897689
10.229390336,1.0014715645868983,179.34653473144226
10.24372736,1.0014546488958882,178.72421831878603
10.258064384,1.0013738823450848,178.10211988450868
10.272401408,1.001232488642451,177.48100344419566
10.286738432,1.001036423662962,176.8615506845834
10.301075456,1.0007938514087615,176.2443801384537
10.31541248,1.0005153548320265,175.62999471524202
10.329749504,1.0002128602471765,175.01879084101327
10.344086528,0.9998995555164737,174.41093346740007
10.358422528,0.9995891274836276,173.80653653225355
10.372759552,0.9992951336725329,173.20547743062093
10.387096576,0.9990307273477442,172.6074874524754
10.4014336,0.9988076431368788,172.01213234063192
10.415770624,0.9986357382880947,171.41890575918907
10.430107648,0.9985229196128504,170.8271039770999
10.444444672,0.9984745088277329,170.23597205095896
10.458781696,0.9984927499590358,169.64479088391832
10.47311872,0.998577301640837,169.05269584166163
10.48745472,0.9987247072426428,168.45890716706228
10.501791744,0.9989286483788998,167.86271458000192
10.516128768,0.9991805328421932,167.26348965431225
10.530465792,0.9994694670688794,166.6607113199271
10.544802816,0.9997830592509898,166.05396197843277
10.55913984,1.0001074592859682,165.4430809258337
10.573476864,1.0004285854401318,164.82799031571236
10.587813888,1.0007322965254002,164.20882807257945
10.602150912,1.0010052792798838,163.58583990634367
10.616487936,1.0012354362791598,162.95950711750172
10.630823936,1.001412505010602,162.3303832399432
10.64516096,1.00152838184608,161.69911522003892
10.659497984,1.00157786929234,161.06651820293052
10.673835008,1.0015584319986526,160.4333926516186
10.688172032,1.0014705871052896,159.80053336940747
10.702509056,1.0013178252311545,159.1687718326399
10.71684608,1.0011064631367674,158.53885446859243
10.731183104,1.0008454384053878,157.91140377792752
10.745520128,1.00054596614924,157.28700132524
10.759856128,1.0002208852764434,156.6660311683576
10.774193152,0.9998843806532766,156.0487307357812
10.788530176,0.9995510966543073,155.43514493223088
10.8028672,0.9992355974665754,154.82517698960405
10.817204224,0.998952066396584,154.21854661570464
10.831541248,0.998712745736194,153.61481282834666
10.845878272,0.9985287396963872,153.01334770882806
10.860215296,0.9984081785090851,152.41347251903656
10.87455232,0.9983567954746932,151.8143633674964
10.888889344,0.998377209489698,151.21522545981094
10.903225344,0.9984689400298796,150.6151333736088
10.917562368,0.9986281808824254,150.01326854824794
10.931899392,0.9988484350271479,149.40883802878176
10.946236416,0.9991202150646202,148.80117793365454
10.96057344,0.9994318522415078,148.18971604196358
10.974910464,0.9997699564149547,147.5740548033834
10.989247488,1.0001198037682832,146.95394059331124
11.003584512,1.0004661829647974,146.3293452851275
11.017921536,1.0007936782289295,145.70037174271118
11.03225856,1.0010881811318635,145.06733085981347
11.04659456,1.0013364939090361,144.43070001396393
11.060931584,1.0015274953946696,143.79108931789546
11.075268608,1.001652570831588,143.14924374602592
11.089605632,1.0017059309920953,142.50594383167757
11.103942656,1.0016848442071495,141.8621112312179
11.11827968,1.0015898651775599,141.21861888537765
11.132616704,1.0014247288096911,140.57634062441684
11.146953728,1.0011960764357943,139.9360652451893
11.161290752,1.0009137282018508,139.29851627265572
11.175626752,1.0005896041297628,138.664273232805
11.189963776,1.0002376655297702,138.033772456852
11.2043008,0.9998731454338363,137.40725557833377
11.218637824,0.9995119509936295,136.78484239395434
11.232974848,0.9991698153049552,136.16636921620756
11.247311872,0.9988621458549847,135.55153998451897
11.261648896,0.9986022263517461,134.93989521391742
11.27598592,0.9984020604692805,134.33079055301414
11.290322944,0.9982706451661382,133.72342113255888
11.304659968,0.9982143413753483,133.11695503716254
11.318995968,0.9982358113473113,132.5104664125692
11.333332992,0.9983348014581743,131.90299875333955
11.347670016,0.9985072435202527,131.29367099424036
11.36200704,0.998745945388548,130.6816055488151
11.376344064,0.999041031232969,130.06607561288118
11.390681088,0.9993797401621283,129.4464323275824
11.405018112,0.9997474677865408,128.82226681541977
11.419355136,1.0001281602453547,128.19330484226373
11.43369216,1.0005054200425125,127.55948795913805
11.448029184,1.0008626972863233,126.92092295762069
11.462365184,1.0011840470156963,126.27795910982479
11.476702208,1.0014554984860213,125.63109690903698
11.491039232,1.001664721121257,124.98101704161859
11.505376256,1.0018024018554494,124.32848281032952
11.51971328,1.0018618885854638,123.67442182716837
11.534050304,1.0018402652414489,123.01975917335982
11.548387328,1.001737867915654,122.365452675631
11.562724352,1.0015586470576814,121.71247134606948
11.577061376,1.0013101446368078,121.0617021955121
11.591397376,1.0010024287960442,120.41391161452859
11.6057344,1.0006486663179723,119.76975046363613
11.620071424,1.000264065928458,119.12969154107275
11.634408448,0.9998652074174906,118.49400899899328
11.648745472,0.9994694703263517,117.86284302172737
11.663082496,0.999094136817629,117.23601744042328
11.67741952,0.9987557986941492,116.61322339017268
11.691756544,0.9984695124897187,115.99395433010213
11.706093568,0.9982483575297225,115.37751017696097
