freq,mag,phase
6.0,1.0003089459733998,-97.40417044095463
6.002285568,1.0001925431819536,-97.53365160250976
6.004571648,1.0000620438264658,-97.66133507755454
6.006857216,0.9999274474459335,-97.7871186458024
6.009142784,0.9997970536297819,-97.91094364746442
6.011428352,0.9996794839625671,-98.03300248421704
6.013714432,0.9995820009705929,-98.1534811040006
6.016,0.9995108203761798,-98.27275497953472
6.018285568,0.9994706727831792,-98.39120645242618
6.020571648,0.9994638681375391,-98.50935193906263
6.022857216,0.9994910457521201,-98.62761662398566
6.025142784,0.9995504418302678,-98.74651794114139
6.027428352,0.9996382276546834,-98.86651875239599
6.029714432,0.999748980192648,-98.98798353029062
6.032,0.9998754934204708,-99.11116104648276
6.034285568,1.0000098030392797,-99.2362346832979
6.036571648,1.0001436169481936,-99.36328775437856
6.038857216,1.0002682025617051,-99.49223041662242
6.041142784,1.0003755681277058,-99.62286373567073
6.043428352,1.0004591339077997,-99.75488900647309
6.045714432,1.000513521791894,-99.8879443146149
6.048,1.000535058493342,-100.02153609686812
6.050285568,1.0005226914398897,-100.15520420305667
6.052571648,1.0004769153586657,-100.28850430681256
6.054857216,1.000400741162766,-100.42087331181168
6.057142784,1.0002989249496639,-100.55199402268866
6.059428352,1.0001779864287488,-100.68148945505875
6.061714432,1.0000455287788412,-100.80915756679808
6.064,0.9999099446742039,-100.9348909033261
6.066285568,0.9997798078415083,-101.0586702737097
6.068571648,0.9996634532666968,-101.18068472593927
6.070857216,0.9995683703858537,-101.30118169461676
6.073142784,0.9995004039759761,-101.42047962291673
6.075428352,0.9994639808134659,-101.53902926392297
6.077714432,0.9994615300024775,-101.6572977685894
6.08,0.9994930951814522,-101.77577965559244
6.082285568,0.9995567876408363,-101.89495426257665
6.084571648,0.999648406561212,-102.01528351848067
6.086857216,0.9997623863888621,-102.13706004653228
6.089142784,0.999891367563998,-102.26070490138011
6.091428352,1.0000272377875925,-102.38623753651297
6.093714432,1.000161296614619,-102.5137169572372
6.096,1.000284966314853,-102.64310985743589
6.098285568,1.0003905789010328,-102.77417004608752
6.100571648,1.000471270950434,-102.90660611444875
6.102857216,1.0005220268181025,-103.03997851664147
6.105142784,1.0005396055400813,-103.17388292462353
6.107428352,1.000522721093389,-103.30779835932269
6.109714432,1.000472610313278,-103.44122763326807
6.112,1.000392333256944,-103.57374648508326
6.114285568,1.000286950760091,-103.70486732339941
6.116571648,1.0001630832511479,-103.8343946309201
6.118857216,1.0000287303946296,-103.96200085759558
6.121142784,0.9998923689546522,-104.08768450160014
6.123428352,0.9997625867863082,-104.2114363516167
6.125714432,0.9996477136042672,-104.33336397707868
6.128,0.9995548589637396,-104.45385659248818
6.130285568,0.9994902138950578,-104.57315243727446
6.132571648,0.9994578081284827,-104.69177438666507
6.134857216,0.9994595520908317,-104.81014168945077
6.137142784,0.9994956551825089,-104.92882433031421
6.139428352,0.999563567568289,-105.04824660277465
6.141714432,0.9996591359903452,-105.16888623246517
6.144,0.9997763538187494,-105.29106508494196
6.146285568,0.9999076404256996,-105.41507839340962
6.148571648,1.0000447731923192,-105.54104445615535
6.150857216,1.000178979048122,-105.6689813214309
6.153142784,1.0003017492670485,-105.79882579115085
6.155428352,1.0004053311121646,-105.93028670674522
6.157714432,1.0004831149380413,-106.06307907071903
6.16,1.0005302528110063,-106.196776172251
6.162285568,1.0005435351463983,-106.33092376929322
6.164571648,1.0005223361271007,-106.46505477268916
6.166857216,1.0004676391912677,-106.59862021469257
6.169142784,1.0003832931929233,-106.73120666811295
6.171428352,1.0002743605603759,-106.86238147080597
6.173714432,1.0001479299574014,-106.991832890576
6.176,1.0000117313199273,-107.11940807499329
6.178285568,0.9998747198739091,-107.24499573479856
6.180571648,0.9997453932014776,-107.36862746438153
6.182857216,0.9996319886584188,-107.4905432728312
6.185142784,0.9995418482263411,-107.61094615475763
6.187428352,0.9994804537085593,-107.73029109240068
6.189714432,0.9994519304283445,-107.8489331607121
6.192,0.9994582174673982,-107.96746123570419
6.194285568,0.9994988223906914,-108.08629656154393
6.196571648,0.9995709313197626,-108.20598096789946
6.198857216,0.9996704015180266,-108.32692216019844
6.201142784,0.9997906263961919,-108.44947338130632
6.203428352,0.9999241355562654,-108.57386615492601
6.205714432,1.0000624418719324,-108.700220746904
6.208,1.0001966811340843,-108.82855217132109
6.210285568,1.0003183875903927,-108.9587983347188
6.212571648,1.000419878971133,-109.09065671562159
6.214857216,1.0004945747074552,-109.22382074473703
6.217142784,1.0005379599598005,-109.35779684329171
6.219428352,1.000546965884343,-109.49223882082899
6.221714432,1.0005212070878313,-109.62651077083682
6.224,1.0004621890588994,-109.76020429917472
6.226285568,1.0003738276543093,-109.8928005790366
6.228571648,1.0002613371782796,-110.02398568224233
6.230857216,1.0001322381158082,-110.15340395252628
6.233142784,0.9999944473925239,-110.28089341253981
6.235428352,0.9998568506533525,-110.40635228986466
6.237714432,0.9997281169151596,-110.52994487666723
6.24,0.9996164250796842,-110.65176214291117
6.242285568,0.9995287639211715,-110.77210381932345
6.244571648,0.9994710879159522,-110.89137246995226
6.246857216,0.9994467857385646,-111.01007164390987
6.249142784,0.9994573817777593,-111.1287097473584
6.251428352,0.9995023608105338,-111.24772794265836
6.253714432,0.9995789629321872,-111.36762296834652
6.256,0.9996821143111233,-111.48886204063794
6.258285568,0.9998054292759573,-111.61171439970599
6.260571648,0.9999410368497699,-111.7365091023258
6.262857216,1.0000803612091365,-111.86325960580983
6.265142784,1.0002144813705762,-111.99203415821708
6.267428352,1.0003350516627347,-112.12264015481368
6.269714432,1.0004341717206453,-112.25486563987941
6.272,1.0005057601654996,-112.38833029887115
6.274285568,1.000545241398345,-112.52263316749327
6.276571648,1.0005499533917919,-112.6572399445918
6.278857216,1.0005195847850357,-112.79170360392557
6.281142784,1.0004562878328276,-112.92545647240186
6.283428352,1.0003637658610305,-113.05808974088582
6.285714432,1.0002479645931894,-113.18923220968797
6.288,1.0001162604009257,-113.31856905546206
6.290285568,0.9999769753577938,-113.44592965631341
6.292571648,0.9998389223023266,-113.57129185677056
6.294857216,0.9997109378717638,-113.69470859927854
6.297142784,0.9996010207474686,-113.81641432304207
6.299428352,0.999516275087064,-113.93670463046595
6.301714432,0.9994621233238453,-114.05598539582434
6.304,0.9994418913973628,-114.17471004424601
6.306285568,0.9994571266598306,-114.29339518624035
6.308571648,0.9995066374495075,-114.4125980282843
6.310857216,0.9995874448511481,-114.53270724103763
6.313142784,0.9996943681828816,-114.65421534166522
6.315428352,0.9998206158357523,-114.77740763631522
6.317714432,0.9999582209657711,-114.90253529121497
6.32,1.0000984300122349,-115.02968695131477
6.322285568,1.0002323851140527,-115.15883634501748
6.324571648,1.0003514980600225,-115.28985075327886
6.326857216,1.0004484029209508,-115.4224097178673
6.329142784,1.0005166474184188,-115.5561858207807
6.331428352,1.0005520956461251,-115.69072012044548
6.333714432,1.0005523813074937,-115.8255315913354
6.336,1.0005175755402531,-115.96007800925304
6.338285568,1.000449716413087,-116.09387906852248
6.340571648,1.0003532229296628,-116.22650739160186
6.342857216,1.000234106040296,-116.35760957989751
6.345142784,1.0000999201045728,-116.48684407144113
6.347428352,0.9999591968303422,-116.61405127440845
6.349714432,0.9998208578886018,-116.73928842427279
6.352,0.9996937259360513,-116.8625578658252
6.354285568,0.9995858659574614,-116.98415590321987
6.356571648,0.999504049760053,-117.1043300393791
6.358857216,0.9994535498337863,-117.22356418081854
6.361142784,0.9994376944390021,-117.34232472295243
6.363428352,0.9994573876136013,-117.46107578321296
6.365714432,0.9995113947165885,-117.58042998550465
6.368,0.9995964160263451,-117.70074297968935
6.370285568,0.9997070295510841,-117.82253797815085
6.372571648,0.9998361843325316,-117.94601731670288
6.374857216,0.9999757024898093,-118.07150135578613
6.377142784,1.000116731934373,-118.19900534118857
6.379428352,1.0002502976132595,-118.32850648284287
6.381714432,1.0003679919220216,-118.45986043055002
6.384,1.0004621779696992,-118.5927609519219
6.386285568,1.00052708448935,-118.7267936615796
6.388571648,1.0005584677353114,-118.86155772169407
6.390857216,1.0005543274632602,-118.99651324646838
6.393142784,1.0005148849044176,-119.13117671639074
6.395428352,1.000442558331908,-119.26501087231483
6.397714432,1.0003421337370062,-119.39760137343755
6.4,1.0002197897562126,-119.52859543371915
6.402285568,1.0000832449956658,-119.65770049524099
6.404571648,0.9999412260428429,-119.7847799259143
6.406857216,0.9998026854841802,-119.9098400354659
6.409142784,0.9996765107132919,-120.03293029299152
6.411428352,0.999570741754456,-120.15438523941086
6.413714432,0.9994919607221543,-120.27447554357197
6.416,0.9994453554665229,-120.39364600641878
6.418285568,0.9994338299505267,-120.5124066939642
6.420571648,0.9994580975992797,-120.63122814532008
6.422857216,0.9995167259029193,-120.75068786613637
6.425142784,0.9996060203496242,-120.87122532252707
6.427428352,0.9997202157645987,-120.99322350603882
6.429714432,0.9998521219646552,-121.11701946893169
6.432,0.9999934775212692,-121.2428208441071
6.434285568,1.0001350789438548,-121.37070140454811
6.436571648,1.0002681978001,-121.50054729776215
6.438857216,1.0003842474379714,-121.63221181670006
6.441142784,1.0004758440853656,-121.76541332733996
6.443428352,1.0005371759878725,-121.8997324850305
6.445714432,1.0005644097771405,-122.03466401049808
6.448,1.000555653229082,-122.16976104950344
6.450285568,1.0005116281303292,-122.3044764556563
6.452571648,1.0004349027763646,-122.43834169827973
6.454857216,1.0003305411214012,-122.5708572619622
6.457142784,1.0002049535032098,-122.7017236594388
6.459428352,1.0000661517824023,-122.83065800337965
6.461714432,0.9999229186515062,-122.95758285079954
6.464,0.9997845077688424,-123.08241450615562
6.466285568,0.9996594600957163,-123.20535227791505
6.468571648,0.9995558691507814,-123.32660547143595
6.470857216,0.9994803107523962,-123.44657358774515
6.473142784,0.9994375518760731,-123.5656956730858
6.475428352,0.9994304244748243,-123.68445230503048
6.477714432,0.9994594012477271,-123.80332971935887
6.48,0.999522618920894,-123.92290255613871
6.482285568,0.9996161181625397,-124.0436037857703
6.484571648,0.9997338543621447,-124.1658566652218
6.486857216,0.999868498729406,-124.28993719660673
6.489142784,1.0000114156330275,-124.41606601727403
6.491428352,1.0001536553307628,-124.54425795102757
6.493714432,1.0002861206160996,-124.67445966158074
6.496,1.0004003321262216,-124.80641085037908
6.498285568,1.0004891189959537,-124.93987708656583
6.500571648,1.0005467821333105,-125.07440066731198
6.502857216,1.0005698481567262,-125.20953045861695
6.505142784,1.000556492661135,-125.3447265077672
6.507428352,1.0005078151517044,-125.47945681834557
6.509714432,1.0004267067430042,-125.61329207549576
6.512,1.0003184491782051,-125.74571646900115
6.514285568,1.0001897338624286,-125.87643985228463
6.516571648,1.0000488066988251,-126.00520712388652
6.518857216,0.9999045728427847,-126.13189435109904
6.521142784,0.999766139802908,-126.25654587015947
6.523428352,0.9996424133475931,-126.37926559580652
6.525714432,0.9995411761908055,-126.50034616332584
6.528,0.9994689372674986,-126.62019254954556
6.530285568,0.9994302278899865,-126.73922166393123
6.532571648,0.9994276980733455,-126.85791063376232
6.534857216,0.9994612943617496,-126.97685940067149
6.537142784,0.9995290506990614,-127.09652750850087
6.539428352,0.9996266887505819,-127.21741019516384
6.541714432,0.9997479629543187,-127.33989604022368
6.544,0.9998852242654267,-127.46425557244432
6.546285568,1.0000297119470858,-127.59065436788465
6.548571648,1.0001723126791633,-127.71916697620445
6.550857216,1.0003039622015792,-127.84966363020519
6.553142784,1.0004162714081175,-127.98191495636767
6.555428352,1.0005021973046047,-128.11562567817586
6.557714432,1.00055616648457,-128.25036669006843
6.56,1.00057479395969,-128.38564463122313
6.562285568,1.0005567932623713,-128.52091678637112
6.564571648,1.0005033844184645,-128.65565769457316
6.566857216,1.0004178913894772,-128.78943726770996
6.569142784,1.0003058307577393,-128.92172301905708
6.571428352,1.000174110514081,-129.05226217775518
6.573714432,1.0000310788585527,-129.18084786890725
6.576,0.9998859099844656,-129.30731231682176
6.578285568,0.9997477990413551,-129.4317064024017
6.580571648,0.9996254990578626,-129.5542219929539
6.582857216,0.9995267939165053,-129.67509002396565
6.585142784,0.9994580234282487,-129.794750961719
6.587428352,0.9994234658695176,-129.91367776274242
6.589714432,0.9994254486398105,-130.03236300864128
6.592,0.9994637348185444,-130.1513363333005
6.594285568,0.9995361275891708,-130.27107406915735
6.596571648,0.9996378834751454,-130.39214061486078
6.598857216,0.9997625475792674,-130.51483976927494
6.601142784,0.9999023490759282,-130.63945523707145
6.603428352,1.000048270286304,-130.76613078617225
6.605714432,1.0001911164943895,-130.8949072710804
6.608,1.0003218007921144,-131.0256806721575
6.610285568,1.0004320768461255,-131.15823668967417
6.612571648,1.0005148995587188,-131.29217199305242
6.614857216,1.0005650104544768,-131.42709406151602
6.617142784,1.0005791645264595,-131.5624441916148
6.619428352,1.0005564813620644,-131.69778254047242
6.621714432,1.0004984189887274,-131.83253235481783
6.624,1.0004085677484107,-131.9661709920744
6.626285568,1.0002927117042708,-132.09836383347545
6.628571648,1.0001579260124451,-132.22867983015794
6.630857216,1.00001297587081,-132.35701716319585
6.633142784,0.999867060402692,-132.48323652629503
6.635428352,0.999729409737006,-132.6073582926438
6.637714432,0.9996087335007663,-132.72961223964344
6.64,0.9995126741582107,-132.85030150114386
6.642285568,0.9994473725727155,-132.96977584045393
6.644571648,0.999417045642673,-133.08859132232732
6.646857216,0.9994236753405653,-133.20722068954285
6.649142784,0.9994668276289549,-133.32621380346683
6.651428352,0.9995437329900364,-133.44605882703408
6.653714432,0.9996496332113093,-133.56723475993118
6.656,0.9997776473944481,-133.69012541060408
6.658285568,0.999919781258307,-133.81498333032653
6.660571648,1.0000670722745422,-133.9419308781089
6.662857216,1.0002100641969704,-134.0709857080104
6.665142784,1.0003396768023092,-134.20204034481
6.667428352,1.0004477334017046,-134.33483602236743
6.669714432,1.0005273052585606,-134.468979387097
6.672,1.000573429613906,-134.60403374818947
6.674285568,1.000583100402151,-134.73949837418436
6.676571648,1.000555674293338,-134.8748312008581
6.678857216,1.0004928197313472,-135.0094977011717
6.681142784,1.0003986082059886,-135.14308013689245
6.683428352,1.0002790149866267,-135.2750538840563
6.685714432,1.000141402920779,-135.40519912011356
6.688,0.9999946995857292,-135.5332668043351
6.690285568,0.999848084562,-135.65917669632518
6.692571648,0.9997109783278625,-135.7830054458895
6.694857216,0.9995919832942899,-135.9050118891169
6.697142784,0.9994987341159655,-136.02545676478877
6.699428352,0.9994371562004903,-136.1447758259997
6.701714432,0.9994112216201145,-136.26341450109962
6.704,0.9994225113411944,-136.38198909671158
6.706285568,0.9994704890907657,-136.50099039412663
6.708571648,0.9995520739480589,-136.62090384891917
6.710857216,0.9996619340092465,-136.74220805571034
6.713142784,0.9997932826022088,-136.8652923908928
6.715428352,0.9999377206945693,-136.99036160471266
6.717714432,1.0000861327589319,-137.11757041585645
6.72,1.0002290873995416,-137.2468831245642
6.722285568,1.0003574469413263,-137.37821033415298
6.724571648,1.000463200149199,-137.51118941366602
6.726857216,1.000539420970482,-137.64551738717162
6.729142784,1.0005814213204873,-137.7807053851945
6.731428352,1.0005864758696819,-137.9162396924112
6.733714432,1.0005542095967888,-138.05155003322918
6.736,1.000486696016211,-138.18616452808809
6.738285568,1.0003881285245528,-138.31957120068503
6.740571648,1.0002647390130213,-138.45138594818593
6.742857216,1.000124402249163,-138.58123417007744
6.745142784,0.9999759700299689,-138.70901600142327
6.747428352,0.9998288931606595,-138.83464381669586
6.749714432,0.9996924236330454,-138.95818324402535
6.752,0.9995754157517581,-139.0798738940557
6.754285568,0.9994850821747993,-139.20005770706607
6.756571648,0.999427251006537,-139.3191693361529
6.758857216,0.9994058184375034,-139.43769586508103
6.761142784,0.9994219303966656,-139.55619133509202
6.763428352,0.99947462412906,-139.67515647227094
6.765714432,0.99956079187294,-139.7951368932102
6.768,0.9996746615366616,-139.91656924086794
6.770285568,0.9998093020377802,-140.03983813717426
6.772571648,0.9999559300496433,-140.16511077357035
6.774857216,1.0001053342444288,-140.29256337561205
6.777142784,1.0002481508448309,-140.42213766141944
6.779428352,1.0003751401011762,-140.55363168206497
6.781714432,1.0004782790106725,-140.6868585423435
6.784,1.0005511088853016,-140.8213404211326
6.786285568,1.0005889183306396,-140.956604637799
6.788571648,1.0005892273808705,-141.09216967608168
6.790857216,1.0005521143336296,-141.22742732695684
6.793142784,1.000479856418619,-141.36194884495228
6.795428352,1.0003768966999111,-141.49517036975243
6.797714432,1.0002499501937547,-141.6267282261162
6.8,1.0001069585492217,-141.75632140527264
6.802285568,0.999956884675339,-141.88378779071334
6.804571648,0.9998094758666828,-142.00907884365114
6.806857216,0.9996739379939626,-142.13230313904373
6.809142784,0.9995587965159776,-142.25368926481036
6.811428352,0.999471670238524,-142.37362727292322
6.813714432,0.9994178207860374,-142.4924879835786
6.816,0.9994009094456615,-142.61085987251107
6.818285568,0.9994219129085016,-142.7292733625759
6.820571648,0.9994795041236189,-142.84822354104418
6.822857216,0.9995702208433604,-142.96826023518855
6.825142784,0.9996881335629675,-143.0897991787306
6.827428352,0.9998257544359991,-143.21320611500417
6.829714432,0.9999745480564306,-143.3387007354178
6.832,1.0001249281011537,-143.4663500565943
6.834285568,1.0002673718235977,-143.5961473962682
6.836571648,1.0003928321952607,-143.72786963844376
6.838857216,1.0004933364862136,-143.86123515661956
6.841142784,1.0005624848558743,-143.99585703195726
6.843428352,1.0005959424716186,-144.13121283940038
6.845714432,1.0005914977893542,-144.26679394515926
6.848,1.0005493991194854,-144.40198326766375
6.850285568,1.0004723801468252,-144.53633191297862
6.852571648,1.0003652465467843,-144.66936338245864
6.854857216,1.000234729406178,-144.8006665617607
6.857142784,1.000089147834234,-144.9299470091957
6.859428352,0.9999377027098113,-145.05708010035917
6.861714432,0.9997899580015872,-145.1819888263361
6.864,0.9996554099146225,-145.30489637954997
6.866285568,0.9995425867167389,-145.4259485420282
6.868571648,0.9994586105446888,-145.54561212641582
6.870857216,0.999408862981804,-145.66423028550238
6.873142784,0.9993965964570288,-145.78244316664163
6.875428352,0.9994224961777264,-145.90074910158873
6.877714432,0.9994850206315936,-146.01966433301152
6.88,0.9995802726002756,-146.13973551765048
6.882285568,0.9997021078395995,-146.26137234906386
6.884571648,0.9998428242670783,-146.38492943030187
6.886857216,0.9999935619081592,-146.5106286310114
6.889142784,1.0001447487142694,-146.63846330552423
6.891428352,1.0002866718841295,-146.7684630358331
6.893714432,1.000410386501404,-146.90037713135456
6.896,1.000508106975713,-147.0339108414744
6.898285568,1.000573546759396,-147.16861171762818
6.900571648,1.0006025126220541,-147.30403368873476
6.902857216,1.0005932340782333,-147.4395410507282
6.905142784,1.0005461963291717,-147.57470635648505
6.907428352,1.0004643840421337,-147.70888794415455
6.909714432,1.00035295392002,-147.84164517110693
6.912,1.000218949351185,-147.97267683543214
6.914285568,1.0000709068089844,-148.10161988054165
6.916571648,0.9999181232982502,-148.22836830643274
