freq,mag,phase
6.0,1.0003473424537865,-12.374573333012277
6.00961536,1.0003453596991405,-12.705219311937444
6.01923072,1.0003257774922085,-13.035777340322442
6.02884608,1.0002889454048451,-13.366144459444216
6.03846144,1.0002371450941074,-13.695961169760976
6.0480768,1.0001726276101561,-14.025117418509955
6.05769216,1.0000987744157288,-14.353502119653879
6.06730752,1.0000194291066222,-14.680908927406941
6.07692288,0.9999384680063815,-15.007388725702404
6.08653824,0.9998600867935786,-15.332933717300614
6.0961536,0.9997886915056552,-15.65756160825952
6.105769472,0.9997274355241323,-15.981391965080217
6.115384832,0.9996797585527369,-16.304623363286357
6.125000192,0.999648124999542,-16.62737876481333
6.134615552,0.9996341131851808,-16.94992995550538
6.144230912,0.9996387767413527,-17.272498877735124
6.153846272,0.9996617815719633,-17.59533291133811
6.163461632,0.9997019487003741,-17.918634490419894
6.173076992,0.9997573759536952,-18.2426856976452
6.182692352,0.9998250235654393,-18.567578930425963
6.192307712,0.9999017644652901,-18.893515953801515
6.201923072,0.9999836076973146,-19.2205678360895
6.211538432,1.0000663309054945,-19.548789152217434
6.221153792,1.0001456309688472,-19.87815340370831
6.230769152,1.000217554171659,-20.208606973836336
6.240384512,1.0002781044812816,-20.54001105199739
6.249999872,1.000324562565839,-20.872212446079843
6.259615232,1.0003541737668276,-21.204962359896978
6.269230592,1.0003654002150406,-21.538105349917767
6.278845952,1.0003577632333898,-21.871374012759915
6.288461312,1.0003312519000207,-22.204547111694158
6.298076672,1.0002876635413547,-22.53730091237238
6.307692544,1.0002288172885123,-22.86948881176974
6.317307904,1.0001577520015241,-23.200959835918802
6.326923264,1.0000781802128744,-23.531510558157155
6.336538624,0.9999939060816495,-23.86109036181254
6.346153984,0.9999094692706851,-24.189665056559683
6.355769344,0.9998291432178901,-24.5172120977176
6.365384704,0.9997571044312747,-24.84389556944412
6.375000064,0.9996971676257784,-25.1697816775453
6.384615424,0.9996521305439076,-25.4950679550364
6.394230784,0.9996247911445794,-25.81994662602401
6.403846144,0.9996160840269174,-26.144674153047134
6.413461504,0.9996273272311867,-26.469514915238733
6.423076864,0.999657184128013,-26.794690899028915
6.432692224,0.999704457499876,-27.120476170888583
6.442307584,0.9997670844490826,-27.447031046482294
6.451922944,0.9998414758288228,-27.77460907945854
6.461538304,0.9999240884170736,-28.103230245008255
6.471153664,1.0000105885960333,-28.433128627155284
6.480769024,1.0000967456544616,-28.76417577974009
6.490384384,1.0001778178783511,-29.096447502924644
6.499999744,1.0002497908657337,-29.429784110222744
6.509615616,1.0003091766382548,-29.764104661436733
6.519230976,1.0003523300939037,-30.099157717655892
6.528846336,1.0003775489867242,-30.434768696668375
6.538461696,1.0003830853917601,-30.77069500626237
6.548077056,1.0003686299305665,-31.10667119216996
6.557692416,1.0003351436913295,-31.442391826382497
6.567307776,1.000284042202231,-31.777682030446194
6.576923136,1.0002178949197391,-32.11231664569512
6.586538496,1.0001401485221435,-32.44607188808385
6.596153856,1.0000546046940815,-32.778885300523775
6.605769216,0.9999658052794698,-33.11064409414216
6.615384576,0.9998780362446549,-33.44135987398243
6.624999936,0.999796132875341,-33.77104210516788
6.634615296,0.9997241551479064,-34.09981054877566
6.644230656,0.9996658421576188,-34.42782714246844
6.653846016,0.9996244103414805,-34.75521817189899
6.663461376,0.9996015970424438,-35.08235515090539
6.673076736,0.9995991621104194,-35.40933160004909
6.682692096,0.9996170324727759,-35.73655163267652
6.692307456,0.9996545339416086,-36.064185043366166
6.701923328,0.9997094370226416,-36.392517852720296
6.711538688,0.9997793600293667,-36.72174394377561
6.721154048,0.999860559709034,-37.05205854369533
6.730769408,0.9999489881579385,-37.38355412395275
6.740384768,1.0000400095510802,-37.71634352159463
6.750000128,1.0001292053013184,-38.050386549113476
6.759615488,1.0002117213185289,-38.38566828898127
6.769230848,1.0002834666149873,-38.72197903940401
6.778846208,1.0003405850168618,-39.05931107695944
6.788461568,1.0003802319935209,-39.39734045144594
6.798076928,1.0004002246594026,-39.735882541808735
6.807692288,1.0003995701178294,-40.07461440308834
6.817307648,1.0003779430572763,-40.41336360863492
6.826923008,1.0003367355636605,-40.75174799407217
6.836538368,1.0002778151680998,-41.08959163682099
6.846153728,1.0002042152670605,-41.42669861095324
6.855769088,1.000119536704031,-41.76284903035618
6.865384448,1.00002830139313,-42.09795865625203
6.874999808,0.9999349827446085,-42.431951390574106
6.884615168,0.9998444743290632,-42.7648232537954
6.894230528,0.9997613207683086,-43.09665228425454
6.9038464,0.9996899679616297,-43.42760676780363
6.91346176,0.9996340721962687,-43.75777784325127
6.92307712,0.9995964395904686,-44.08741520797837
6.93269248,0.9995793809439086,-44.416807921430234
6.94230784,0.9995834755676375,-44.746183478056906
6.9519232,0.9996089773164254,-45.07584588759778
6.96153856,0.9996542368728804,-45.4060560858725
6.97115392,0.9997171649577441,-45.73707511260796
6.98076928,0.9997947398303766,-46.069076037020835
6.99038464,0.9998828438082309,-46.40226175237946
7.0,0.9999770491689984,-46.73673022767672
7.00961536,1.000072447289392,-47.07255759003061
7.01923072,1.0001642880129258,-47.40965247424312
7.02884608,1.0002477373060255,-47.74802465249786
7.03846144,1.000318656079005,-48.087483125725434
7.0480768,1.0003730141463114,-48.42790273677843
7.05769216,1.0004082599783177,-48.76899147410845
7.06730752,1.0004224646022422,-49.11048470199498
7.07692288,1.0004147998033865,-49.45214429117649
7.08653824,1.0003855779554414,-49.793659567101734
7.0961536,1.0003360741711906,-50.1347719667162
7.105769472,1.000269122638163,-50.475233731950986
7.115384832,1.0001877897651694,-50.814817759574495
7.125000192,1.0000962286066408,-51.153404193288694
7.134615552,0.9999992261868574,-51.490828759345625
7.144230912,0.9999018770241428,-51.82708078837495
7.153846272,0.9998088105911698,-52.16220422562715
7.163461632,0.9997249544358987,-52.49626615221545
7.173076992,0.9996547582015152,-52.82938208586987
7.182692352,0.9996019344061953,-53.161807054072376
7.192307712,0.9995690589444532,-53.493772379187774
7.201923072,0.9995580245911425,-53.82548593509813
7.211538432,0.999569554372884,-54.15732858736562
7.221153792,0.9996028988462707,-54.48951695888869
7.230769152,0.9996564934334955,-54.82240754245464
7.240384512,0.9997276548558771,-55.15620004333524
7.249999872,0.9998129744711031,-55.491098961925765
7.259615232,0.9999079296583494,-55.82727490086272
7.269230592,1.000007828045804,-56.16479660390444
7.278845952,1.0001073286679496,-56.50370537024432
7.288461312,1.0002014204486485,-56.844028991978846
7.298076672,1.0002853964462812,-57.185593797589966
7.307692544,1.0003546462759012,-57.52824319733297
7.317307904,1.0004057509001694,-57.87179600537221
7.326923264,1.0004359970749515,-58.21600357599706
7.336538624,1.0004436875986598,-58.56054868761725
7.346153984,1.0004284051904673,-58.90517366695248
7.355769344,1.0003908800301478,-59.24953343045821
7.365384704,1.0003330378471755,-59.59338650564901
7.375000064,1.00025751153942,-59.93647617966036
7.384615424,1.0001682780486194,-60.27859542519905
7.394230784,1.0000699259034644,-60.61959919551779
7.403846144,0.9999674086522611,-60.95940418834635
7.413461504,0.9998660085347602,-61.2979529396439
7.423076864,0.9997708228203929,-61.63532698611184
7.432692224,0.9996869123634866,-61.97160831241516
7.442307584,0.9996185093606,-62.30701765883029
7.451922944,0.9995693767008891,-62.64172063495894
7.461538304,0.9995419046257847,-62.975994725132324
7.471153664,0.9995376898652357,-63.31019501368118
7.480769024,0.9995569775317856,-63.64457077923006
7.490384384,0.9995989390537106,-63.97941585879525
7.500000256,0.9996614118307456,-64.31505695693546
7.509615616,0.9997411859438342,-64.65171959718938
7.519230976,0.9998345053307082,-64.98959945418594
7.528846336,0.9999362228492532,-65.3288359163597
7.538461696,1.000041598391982,-65.66951508906054
7.548077056,1.0001448958483565,-66.01170336372294
7.557692416,1.000240797475771,-66.35523714835156
7.567307776,1.0003245900434254,-66.700112864353
7.576923136,1.0003916646526068,-67.0460305465734
7.586538496,1.0004388820350922,-67.39281472466878
7.596153856,1.0004633412761397,-67.74016929867341
7.605769216,1.000463881374113,-68.08781066115561
7.615384576,1.0004405291642584,-68.43541519298395
7.624999936,1.000394196993673,-68.78265839092643
7.634615296,1.0003272497298625,-69.12926206122567
7.644230656,1.000243115239233,-69.47503560472164
7.653846016,1.0001459008653708,-69.81967401388735
7.663461376,1.0000407254506074,-70.16316761925125
7.673076736,0.9999328428704773,-70.50529215081507
7.682692096,0.9998276789699054,-70.84618811075535
7.692307456,0.9997310553409907,-71.18583617002632
7.701923328,0.9996475304472423,-71.52438112641484
7.711538688,0.99958166787759,-71.86207004996463
7.721154048,0.9995368723642731,-72.19914562672433
7.730769408,0.999515403333876,-72.53583412024958
7.740384768,0.9995187254735142,-72.87251277569312
7.750000128,0.9995464849282654,-73.2095065191281
7.759615488,0.9995974458875839,-73.54706106516039
7.769230848,0.9996690474276607,-73.88553516847662
7.778846208,0.9997578987838223,-74.22513837724033
7.788461568,0.9998590895083562,-74.56609832732389
7.798076928,0.9999678178339816,-74.90852926346885
7.807692288,1.000078283893369,-75.25245864962463
7.817307648,1.000184957675503,-75.5979338882341
7.826923008,1.0002822814848369,-75.94482486214265
7.836538368,1.0003653768185534,-76.29301021815708
7.846153728,1.0004296607312744,-76.642277095965
7.855769088,1.0004720252808377,-76.99234917857339
7.865384448,1.0004900339393896,-77.34290828449438
7.874999808,1.0004828693230607,-77.69367418919644
7.884615168,1.0004505774459986,-78.04429799353917
7.894230528,1.000395064832055,-78.39442834462952
7.9038464,1.0003186236763513,-78.74383475489654
7.91346176,1.0002253857250267,-79.09226476073498
7.92307712,1.000120119510588,-79.43945305065422
7.93269248,1.0000081953148396,-79.78536112372602
7.94230784,0.9998952095493466,-80.12990180242193
7.9519232,0.9997869360274728,-80.47311267726252
7.96153856,0.999689029164226,-80.81504957771583
7.97115392,0.9996065654651396,-81.15589331989125
7.98076928,0.9995437882964766,-81.49588931490118
7.99038464,0.9995041681955525,-81.83531476771229
8.0,0.999489591546471,-82.17447438641759
8.00961536,0.9995011245881443,-82.51371736766797
8.01923072,0.9995378890475162,-82.85333199051887
8.02884608,0.9995986153982979,-83.19371077826551
8.03846144,0.9996798807407938,-83.5350866570403
8.0480768,0.9997776170405261,-83.87771191256128
8.05769216,0.9998870383890298,-84.22183829246865
8.06730752,1.000002398374642,-84.56750349531877
8.07692288,1.0001178662305623,-84.91478200977156
8.08653824,1.000227475092844,-85.26362656322095
8.0961536,1.000325740047981,-85.61393748302342
8.105769472,1.0004073647909344,-85.96553265612584
8.115384832,1.0004683042583882,-86.31816973307298
8.125000192,1.0005051197125254,-86.67155618277513
8.134615552,1.0005158728302974,-87.02538269559153
8.144230912,1.0005002423704283,-87.37923505908293
8.153846272,1.0004585990376744,-87.7328965801295
8.163461632,1.0003930648563675,-88.08593965218842
8.173076992,1.0003069190639868,-88.43810678188792
8.182692352,1.0002045563394466,-88.78918837248165
8.192307712,1.000091242248929,-89.13892177967956
8.201923072,0.9999725088768334,-89.48726002499285
8.211538432,0.9998545808885484,-89.83415550713339
8.221153792,0.999743608423944,-90.17966500622289
8.230769152,0.999645179648145,-90.52389826228216
8.240384512,0.9995644211035778,-90.86706074636243
8.249999872,0.9995056070464418,-91.20938708138534
8.259615232,0.9994717334087648,-91.55121569444634
8.269230592,0.9994647251126895,-91.89284136801014
8.278845952,0.9994850414356049,-92.23467060348679
8.288461312,0.9995317135065557,-92.57704477739436
8.298076672,0.9996024023597413,-92.92021106789385
8.307692544,0.9996936098069624,-93.26458582135476
8.317307904,0.9998006724013407,-93.61034464519902
8.326923264,0.9999182229065778,-93.95766439553792
8.336538624,1.0000402019171997,-94.3066424913639
8.346153984,1.0001603708994176,-94.65731114915631
8.355769344,1.000272603268989,-95.00957840464312
8.365384704,1.0003711329166245,-95.36338541734716
8.375000064,1.000450776840661,-95.71841350391095
8.384615424,1.000507359610951,-96.07445352071598
8.394230784,1.0005379863152972,-96.43117881211954
8.403846144,1.0005408677617262,-96.78823509837979
8.413461504,1.0005159331391793,-97.14527892936009
8.423076864,1.0004643238537936,-97.50193519967401
8.432692224,1.0003883245775036,-97.85787312761703
8.442307584,1.0002921349429046,-98.2127896385273
8.451922944,1.0001804190908576,-98.56646680676323
8.461538304,1.0000587651476627,-98.9187447935056
8.471153664,0.9999335413256824,-99.26950024077698
8.480769024,0.999811154725042,-99.61871384803865
8.490384384,0.9996977533278548,-99.9665121493325
8.499999744,0.9995993423811822,-100.31300799287018
8.509615616,0.9995210111706841,-100.65847345850797
8.519230976,0.999466805077342,-101.00315336028541
8.528846336,0.9994395998897576,-101.34739127460298
8.538461696,0.9994409240415665,-101.69153401114828
8.548077056,0.9994707519678354,-102.03599242636732
8.557692416,0.9995277848856072,-102.38108534271728
8.567307776,0.999609127540869,-102.72718900429896
8.576923136,0.9997106203151437,-103.07458768095175
8.586538496,0.9998271776411942,-103.42349532100629
8.596153344,0.9999529217875546,-103.77408306801767
8.605769728,1.0000813743239325,-104.12641786573013
8.615385088,1.0002059704595052,-104.48052230463756
8.625000448,1.0003202733013108,-104.83629360699506
8.634615808,1.0004184026578484,-105.19355685360117
8.644231168,1.0004953274803,-105.55206936497315
8.653846528,1.000546915303415,-105.91153723676531
8.663461888,1.0005704589784148,-106.2716256461077
8.673077248,1.000564694174857,-106.63196429905437
8.682692608,1.000529814496497,-106.99210471171332
8.692307968,1.000467488134407,-107.35173438415251
8.701923328,1.0003807957248314,-107.7105258858077
8.711538688,1.0002740972481086,-108.06816700772114
8.721154048,1.0001527219042505,-108.42441122227477
8.730769408,1.0000229569622165,-108.77914177256869
8.740384768,0.9998913853433344,-109.13227979102759
8.750000128,0.9997647343220619,-109.48382724710197
8.759615488,0.9996495180706106,-109.83389331427846
8.769230848,0.9995517360567887,-110.18261877916856
8.778846208,0.9994763846927969,-110.53034301795074
8.788461568,0.999427628629955,-110.87737588109665
8.798076928,0.9994078017033524,-111.22399547968831
8.807692288,0.9994182491597078,-111.57068734476796
8.817307648,0.9994584049997323,-111.91773347794751
8.826923008,0.9995263519189374,-112.26562473070939
8.836538368,0.9996188025999989,-112.61467202473526
8.846153728,0.9997309890624686,-112.96512063446288
8.855769088,0.9998572090778223,-113.31721296437749
8.865384448,0.9999912070420284,-113.67110427506675
8.874999808,1.0001259259840332,-114.0268465851657
8.884615168,1.0002545240392513,-114.38445993250653
8.894230528,1.0003704937653186,-114.7437292688933
8.903845888,1.00046755960064,-115.10449737671964
8.913461248,1.000541007630399,-115.46651927270509
8.923076608,1.0005868848162096,-115.82940999848007
8.932691968,1.0006026298090096,-116.19283421798836
8.942307328,1.000587364626783,-116.55637370568398
8.951922688,1.0005418712711458,-116.91962478308905
8.961538048,1.0004682504914826,-117.28224564044474
8.971153408,1.000370180544221,-117.64382365951062
8.980768768,1.0002526433135337,-118.00412314974182
8.990384128,1.0001215324130182,-118.36291571762241
8.999999488,0.9999835248754191,-118.72005681668126
9.009615872,0.9998458086381604,-119.0754653177765
9.019231232,0.9997152642880031,-119.42925822708908
9.028846592,0.999598697744072,-119.78152301426526
9.038461952,0.9995022424349762,-120.1325052137309
9.048077312,0.999430734628118,-120.4824394709352
9.057692672,0.9993881555985634,-120.83176148685415
9.067308032,0.9993765631387871,-121.18078691321722
9.076923392,0.9993969013344383,-121.52997274488574
9.086538752,0.9994480549684649,-121.87970215251339
9.096154112,0.9995277144804624,-122.23037668360317
9.105769472,0.9996317709412386,-122.5823314697603
9.115384832,0.9997549292806257,-122.93589586771147
9.125000192,0.9998910267239393,-123.29119972606013
9.134615552,1.0000331522620336,-123.64844142833337
9.144230912,1.0001738725182805,-124.0076307390974
9.153846272,1.0003061591906721,-124.36870683367417
9.163461632,1.0004231243576038,-124.73151338040414
9.173076992,1.0005185994491086,-125.09581459811106
9.182692352,1.00058791110747,-125.46131906214336
9.192307712,1.000627121572333,-125.82763110322931
9.201923072,1.0006341733773205,-126.19435525996967
9.211538432,1.000608661328664,-126.56108089232565
9.221153792,1.0005517033726459,-126.92737545458161
9.230769152,1.0004661537818222,-127.29286595902937
9.240384512,1.0003562004359516,-127.65720310142576
9.249999872,1.000227481822548,-128.02011041698344
9.259615232,1.0000865381357638,-128.3813387095739
9.269230592,0.9999403211974693,-128.74079723364397
9.278845952,0.9997965536205411,-129.09847451615815
9.288461312,0.9996625463061891,-129.4544375644954
9.298076672,0.9995452363358194,-129.8088375836478
9.307692032,0.9994505899103033,-130.16194647924587
9.317307392,0.9993838066601908,-130.51408906021098
9.326922752,0.9993481600630794,-130.8656492596747
9.336538112,0.9993457310269684,-131.2170520234021
9.346153472,0.9993767734940306,-131.5687074972838
9.355768832,0.9994397862571623,-131.9210653266281
9.365384192,0.9995316954641823,-132.2745262831695
9.374999552,0.999647802762054,-132.62942331714913
9.384614912,0.9997823558321748,-132.98606690633613
9.394230272,0.9999285055144265,-133.34464074711684
9.403846656,1.000078724462862,-133.7052481388067
9.413462016,1.0002253249167132,-134.06785847456922
9.423077376,1.0003608234549939,-134.432436041649
9.432692736,1.000478324875903,-134.79876367560323
9.442308096,1.0005715091084257,-135.16659636018903
9.451923456,1.0006356874018105,-135.53553891425926
9.461538816,1.0006674324194962,-135.9052459266317
9.471154176,1.0006650390971652,-136.27523999463966
9.480769536,1.0006284121624154,-136.64508941565526
9.490384896,1.0005592969545571,-137.01439719842637
9.500000256,1.000461111493703,-137.38271324869476
9.509615616,1.0003387550647704,-137.74968853142914
9.519230976,1.0001985083868383,-138.1150823242316
9.528846336,1.0000473716353733,-138.47867264881174
9.538461696,0.9998931301098084,-138.84037094295667
9.548077056,0.9997435680751634,-139.20017353788643
9.557692416,0.9996065471058159,-139.55821259200042
9.567307776,0.9994889690560025,-139.9146622361008
9.576923136,0.9993970935696548,-140.26984325651765
9.586538496,0.9993356031556029,-140.62410144320893
9.596153856,0.9993079173840458,-140.97788158038023
9.605769216,0.999315447120798,-141.33155732849121
9.615384576,0.9993581219008426,-141.68566946258662
9.624999936,0.9994337510676926,-142.0406487555613
9.634615296,0.9995386336934684,-142.39687091082885
9.644230656,0.9996674494907722,-142.75473312685486
9.653846016,0.9998136774545456,-143.11444395985265
9.663461376,0.9999700284182702,-143.47624833082673
9.673076736,1.0001283290812348,-143.84019081487367
9.682692096,1.0002806592944866,-144.20625771223123
9.692307456,1.0004189893271622,-144.5743383781245
9.701922816,1.000536338873647,-144.9441619844628
9.711538176,1.0006265318352858,-145.31546412631786
9.721153536,1.0006848477371997,-145.6878578767848
9.730768896,1.0007082912658198,-146.06088124253057
9.740384256,1.000695318632626,-146.43409973201437
9.749999616,1.0006466476985147,-146.80701486937838
9.759614976,1.0005644827217446,-147.17920700320917
9.769230336,1.000453039374804,-147.5502444822923
9.778845696,1.00031771623968,-147.91978705358835
9.788461056,1.0001655330677737,-148.2875609515662
9.798076416,1.0000040649124209,-148.65338120211496
9.8076928,0.9998417409854089,-149.01720689982824
9.81730816,0.999686630372137,-149.37904419339577
9.82692352,0.9995469434240803,-149.73904992353002
9.83653888,0.9994298118732078,-150.09746295479704
