freq,mag,phase
6.0,1.0001219739861347,118.83524821856942
6.002288128,0.9999358477829112,118.6856490014571
6.004576768,0.9997527875529872,118.53878142695488
6.006864896,0.9995853416846342,118.39452275360532
6.009153536,0.9994436877621256,118.25255194070114
6.011441664,0.9993374530339553,118.11241515764813
6.013729792,0.9992729970137744,117.97359330280837
6.016018432,0.9992546091605805,117.83539427681986
6.01830656,0.9992833318863815,117.69718697801733
6.0205952,0.9993574640393565,117.55825663826475
6.022883328,0.9994722706340374,117.4180510567022
6.025171456,0.9996203875623945,117.2759215610512
6.027460096,0.9997926196314133,117.13151499687584
6.029748224,0.9999781707814659,116.98455659974636
6.032036864,1.0001648608805749,116.8349202458783
6.034324992,1.000341081937027,116.68271681636686
6.03661312,1.0004958373925534,116.52814450477176
6.03890176,1.000619166919611,116.3715867434085
6.041189888,1.0007032240336626,116.2135658406333
6.043478016,1.0007426606238223,116.05469294460526
6.045766656,1.0007351404557028,115.89564766963379
6.048054784,1.0006809242441423,115.73706294751663
6.050343424,1.0005836612840402,115.57963658909864
6.052631552,1.0004492223533505,115.4239238060142
6.05491968,1.0002861855559433,115.27041755094831
6.05720832,1.00010489895772,115.11944993871822
6.059496448,0.999916730768227,114.97120125461626
6.061785088,0.9997337815249006,114.82568449081553
6.064073216,0.9995674187797519,114.68278692320476
6.066361344,0.9994285026704913,114.54212125285649
6.068649984,0.9993253588169552,114.40327420999485
6.070938112,0.999265245095363,114.2656581477451
6.073226752,0.999251383991595,114.12861924996176
6.07551488,0.9992849303991557,113.99149353501362
6.077803008,0.9993637396450823,113.85358093152536
6.080091648,0.9994829211062616,113.7142993680919
6.082379776,0.9996347954410046,113.57304369902705
6.084668416,0.9998097511408429,113.42951081811437
6.086956544,0.999996872336019,113.2833406823044
6.089244672,1.0001839697953654,113.13448238671853
6.091533312,1.0003596022075685,112.98306395846441
6.09382144,1.0005123603131847,112.82925684490299
6.09611008,1.0006326361395685,112.67356408209453
6.098398208,1.0007128499944327,112.51640952224
6.100686336,1.0007478932954266,112.35850398428789
6.102974976,1.0007354830677575,112.20043748107074
6.105263104,1.0006764196492726,112.04295074757273
6.107551232,1.0005746097741473,111.88665347996795
6.109839872,1.0004361898997582,111.7321268064585
6.112128,1.0002699045234422,111.57987645816655
6.11441664,1.0000863814242997,111.43017911930156
6.116704768,0.9998972727134969,111.28326888610961
6.118992896,0.9997145016007579,111.13907267926554
6.121281536,0.9995496309088064,110.99744850718143
6.123569664,0.9994132649621988,110.8580446536274
6.125858304,0.9993138482431292,110.72044805036013
6.128146432,0.9992578072744346,110.5839790628518
6.13043456,0.9992488532699411,110.44803445141375
6.1327232,0.9992873175702207,110.31192637398502
6.135011328,0.9993709399583701,110.17500064735162
6.137299968,0.9994944691004414,110.03654343275115
6.139588096,0.9996499738997532,109.89612749027093
6.141876224,0.999827706507251,109.75332259270205
6.144164864,1.0000162165239546,109.60792568823126
6.146452992,1.0002038258281538,109.45979620237908
6.148741632,1.0003784210203466,109.30908185395269
6.15102976,1.000529074107851,109.15604867596902
6.153317888,1.0006462725973193,109.00111436600584
6.155606528,1.0007224502933978,108.84480740744884
6.157894656,1.0007527124874926,108.68777920950455
6.160183296,1.0007355162478824,108.530670366477
6.162471424,1.0006715299876165,108.3741874773681
6.164759552,1.0005648887397052,108.21898788339826
6.167048192,1.0004224137558753,108.06562029628768
6.16933632,1.0002529920522696,107.91457846838827
6.17162496,1.0000673716200559,107.76614006370568
6.173913088,0.9998773700710714,107.62046370889502
6.176201216,0.9996948091720078,107.47756079962498
6.178489856,0.9995316236599746,107.33718274742712
6.180777984,0.9993979990045617,107.19903165081647
6.183066112,0.9993022295689337,107.06255594142569
6.185354752,0.9992506069756654,106.92720003721038
6.18764288,0.9992465201382827,106.7923150993492
6.18993152,0.9992901194408931,106.65714907563813
6.192219648,0.9993786123706225,106.52110213972713
6.194507776,0.999506504408961,106.3834870364373
6.196796416,0.9996656396609771,106.24383669749629
6.199084544,0.9998460254113378,106.10174212139265
6.201373184,1.0000360192457842,105.95700217283202
6.203661312,1.0002238361286053,105.8095346791531
6.20594944,1.0003974276494532,105.65952099141874
6.20823808,1.0005457492886296,105.50714326275293
6.210526208,1.0006596598642492,105.35294063357887
6.212814848,1.0007315196969613,105.19743161067322
6.215102976,1.0007571038559506,105.04122021043048
6.217391104,1.0007347801869049,104.88503924281113
6.219679744,1.000665743949848,104.72954224820306
6.221967872,1.0005543694501566,104.5753927938302
6.224256512,1.0004078930754587,104.42315558384935
6.22654464,1.0002353133447457,104.27326672651982
6.228832768,1.000047691316638,104.12602583072544
6.231121408,0.9998568911237958,103.9815822710648
6.233409536,0.9996749182877004,103.83987307642091
6.235698176,0.999513348664626,103.70069358025133
6.237986304,0.9993826208893475,103.56369636447484
6.240274432,0.9992907556642556,103.42835540416155
6.242563072,0.9992438017685499,103.29406408540223
6.2448512,0.9992446901726867,103.16013461159707
6.24713984,0.999293402074274,103.0258642768915
6.249427968,0.999386957652868,102.89063738064328
6.251716096,0.9995192186745401,102.7537847790558
6.254004736,0.9996819817603664,102.6148271309059
6.256292864,0.9998649039542575,102.47338460223924
6.258580992,1.0000563558080247,102.32924373179665
6.260869632,1.0002442271654386,102.18241728829281
6.26315776,1.0004164865642196,102.03297973421357
6.2654464,1.0005625193590466,101.88126947394922
6.267734528,1.000672811752572,101.7277190988142
6.270022656,1.000740515039532,101.57292630127387
6.272311296,1.0007611946640036,101.41752784169186
6.274599424,1.0007335462491773,101.26220121395767
6.276888064,1.0006594876085262,101.10766192562657
6.279176192,1.0005434124614627,100.95451984553326
6.28146432,1.0003928451189108,100.80334225690956
6.28375296,1.0002171079871445,100.65456055127943
6.286041088,1.0000275414556696,100.5084911932919
6.288329728,0.9998360108690866,100.36518273608334
6.290617856,0.999654727111534,100.22464726194654
6.292905984,0.9994950787170094,100.08663713345155
6.295194624,0.9993673005412931,99.95073541379556
6.297482752,0.999279594115976,99.81645316596236
6.299771392,0.999237312139139,99.6831529115616
6.30205952,0.999243467253312,99.55014875842447
6.304347648,0.999297380789671,99.41673620976734
6.306636288,0.9993958191941168,99.28226941195186
6.308924416,0.9995325519287123,99.14611346466593
6.311213056,0.9996988993971689,99.00777504340955
6.313501184,0.9998843074609215,98.86692201059971
6.315789312,1.0000770634237828,98.72334584811377
6.318077952,1.000264842055222,98.57704008478656
6.32036608,1.000435870574828,98.42815454267468
6.322654208,1.0005792446549573,98.27701564042306
6.324942848,1.0006859304231668,98.1241112696775
6.327230976,1.0007490802962626,97.96999188121697
6.329519616,1.000764714762735,97.8153382427784
6.331807744,1.0007318640322935,97.66083344088912
6.334095872,1.0006524555926404,97.5071956699348
6.336384512,1.0005316462749396,97.35501141953286
6.33867264,1.000377081679994,97.20485041904274
6.34096128,1.000198347797115,97.05714944062103
6.343249408,1.0000069305545871,96.91217843263838
6.345537536,0.9998148289552263,96.7700190230058
6.347826176,0.9996342525281604,96.63060110684414
6.350114304,0.9994767087285994,96.49367946589894
6.352402944,0.9993521800480831,96.35885382460998
6.354691072,0.9992686826125395,96.22557179346613
6.3569792,0.9992313309134533,96.09318923771954
6.35926784,0.9992426007073502,95.96103788330856
6.361555968,0.9993019911095551,95.82840006033257
6.363844608,0.9994054072359368,95.6946282442515
6.366132736,0.999546684441151,95.55909567271628
6.368420864,0.9997165248634193,95.42134925924432
6.370709504,0.9999043284023544,95.28100135997227
6.372997632,1.0000982548853004,95.13792796064624
6.375286272,1.0002859338355037,94.99210233631177
6.3775744,1.0004553681510202,94.84373447902118
6.379862528,1.0005960533583707,94.69313049725886
6.382151168,1.0006988106638688,94.54076344367053
6.384439296,1.0007574141643274,94.38727070675324
6.386727936,1.0007678492104197,94.23333101819638
6.389016064,1.0007295995989598,94.07960598258803
6.391304192,1.000645057026671,93.92679591953491
6.393592832,1.000519423038005,93.77551238546663
6.39588096,1.000360763100525,93.62636251566019
6.398169088,1.0001790673756867,93.47968071009318
6.400457728,0.9999859064159881,93.33577316784229
6.402745856,0.999793381404912,93.19468932710112
6.405034496,0.9996138825960875,93.05634919947914
6.407322624,0.9994584943315884,92.92046318470138
6.409610752,0.999337375248918,92.78664720203099
6.411899392,0.9992581226472911,92.65429602467954
6.41418752,0.9992258051939584,92.52280176149773
6.41647616,0.9992426394902,92.39143767481318
6.418764288,0.999307237398238,92.25952955730932
6.421052416,0.9994159226261791,92.12638370098767
6.423341056,0.9995615077310112,91.99142290773453
6.425629184,0.9997348693595886,91.85415962938656
6.427917824,0.9999249902085385,91.7143048389648
6.430205952,1.0001199925093345,91.57164177229294
6.43249408,1.0003072205653942,91.42624742546917
6.43478272,1.0004750095328752,91.27830165516403
6.437070848,1.0006127495777344,91.12817361621632
6.439359488,1.0007116510573841,90.9763440073507
6.441647616,1.0007651981884949,90.8234301339411
6.443935744,1.0007703530722418,90.67012486262163
6.446224384,1.0007266875698078,90.51711145803002
6.448512512,1.0006368666496286,90.36510804160918
6.450801152,1.0005065135523943,90.21473431026105
6.45308928,1.0003437582514536,90.0665067837176
6.455377408,1.0001592651892313,89.92081148072228
6.457666048,0.9999643582958284,89.77791198285344
6.459954176,0.9997714805130632,89.63783892292932
6.462242816,0.9995929722177194,89.50053193890439
6.464530944,0.9994399971170219,89.3656382759763
6.466819072,0.999322483623441,89.23276058378491
6.469107712,0.9992478559601143,89.1013260132958
6.47139584,0.9992206365554256,88.97062723429144
6.473683968,0.9992428818839957,88.84000791570563
6.475972608,0.9993131360901678,88.70876577391759
6.478260736,0.9994267805341114,88.57619234289041
6.480549376,0.9995767360677164,88.4417317888457
6.482837504,0.9997535909726483,88.30490764917283
6.485125632,0.9999460697294199,88.16541864232876
6.487414272,1.0001419381913716,88.02316095219012
6.4897024,1.0003286786316432,87.87813332444564
6.49199104,1.0004946346280628,87.73055905170811
6.494279168,1.0006292854822,87.5808477276803
6.496567296,1.0007239459994441,87.42948221499947
6.498855936,1.0007726867785274,87.27710882144729
6.501144064,1.0007723652813245,87.12438939950883
6.503432704,1.0007230831773077,86.97208422202253
6.505720832,1.0006278524609555,86.8208214365379
6.50800896,1.0004926265769574,86.67127672692871
6.5102976,1.0003260707585944,86.5239345399078
6.512585728,1.0001386539791897,86.37919755735915
6.514874368,0.9999422255218957,86.23725546057697
6.517162496,0.9997492820751531,86.09819048361176
6.519450624,0.9995719785535087,85.96183033112747
6.521739264,0.9994216680091752,85.82786901330141
6.524027392,0.9993078192633885,85.6958907248578
6.526316032,0.9992378050137521,85.56527481866992
6.52860416,0.9992159914404484,85.43536064021214
6.530892288,0.9992438446999371,85.30541751782611
6.533180928,0.9993195701025862,85.17473482365125
6.535469056,0.9994384203048592,85.04265169992837
6.537757184,0.9995928567672547,84.90863892676973
6.540045824,0.9997730946935249,84.77220312399098
6.542333952,0.9999676396290592,84.63306640553832
6.544622592,1.0001642316019987,84.49111189357706
6.54691072,1.0003503994016525,84.3463890225213
6.549198848,1.0005144231090217,84.1991572881547
6.551487488,1.0006456610833554,84.0498113730679
6.553775616,1.000736135369266,83.89884914549053
6.556064256,1.0007797229601805,83.74696871138401
6.558352384,1.0007739374161806,83.59480918179804
6.560640512,1.0007189600802338,83.44311349488535
6.562929152,1.0006183498152497,83.29257813789489
6.56521728,1.0004782802906866,83.14382491576308
6.56750592,1.0003078875116174,82.99733445737428
6.569794048,1.0001175973367933,82.85346016726722
6.572082176,0.9999198222273679,82.71245403366649
6.574370816,0.9997267837347855,82.57429965093647
6.576658944,0.9995509565997732,82.43888245702806
6.578947584,0.9994033467362383,82.30581004014816
6.581235712,0.9992934434996179,82.17465439611695
6.58352384,0.9992282984541242,82.04481224786487
6.58581248,0.9992118763070152,81.91558421025455
6.588100608,0.9992454264918911,81.78624758553727
6.590389248,0.9993267262536434,81.65609341461195
6.592677376,0.9994506942542071,81.52446604463444
6.594965504,0.9996095207707636,81.39082310966027
6.597254144,0.9997930713866038,81.25471064927112
6.599542272,0.9999896230272174,81.11583981147854
6.601830912,1.000186861619167,80.97414916892438
6.60411904,1.0003723291816158,80.82967085747953
6.606407168,1.0005340102174132,80.68269744236868
6.608695808,1.0006619421626861,80.53366448188301
6.610983936,1.0007477097961741,80.38308584020595
6.613272064,1.0007862181679115,80.23162188487335
6.615560704,1.0007748201480842,80.07997941031341
6.617848832,1.000714106009562,79.92887001057225
6.620137472,1.00060804620136,79.77900573679212
6.6224256,1.0004632547023247,79.6309727943468
6.624713728,1.0002889515522133,79.48527371320412
6.627002368,1.0000960943369612,79.34228661526939
6.629290496,0.9998968661301306,79.2021559743026
6.631579136,0.9997040303646191,79.06487397458791
6.633867264,0.9995297836463829,78.93032375341302
6.636155392,0.9993851120382974,78.7981020656735
6.638444032,0.9992792849761789,78.66771374090344
6.64073216,0.9992190415192286,78.53856427500556
6.6430208,0.9992082230094617,78.4099807576193
6.645308928,0.9992476564511075,78.28117900084312
6.647597056,0.9993344883866431,78.15149983526655
6.649885696,0.9994637367949755,78.02027767752728
6.652173824,0.9996268725529635,77.88694240272564
6.654462464,0.9998135819514132,77.75106269403221
6.656750592,1.0000121290557777,77.6124185270146
6.65903872,1.0002099953448453,77.47088685190587
6.66132736,1.000394284583522,77.32662801476638
6.663615488,1.0005536817248888,77.17988367965577
6.665904128,1.0006779941524369,77.03108656890252
6.668192256,1.0007591890247645,76.88082032202108
6.670480384,1.0007922773532199,76.72974591833571
6.672769024,1.0007750077201687,76.57858451515222
6.675057152,1.0007085673281264,76.42802270828805
6.677345792,1.0005969790720364,76.2787868876445
6.67963392,1.000447528966482,76.13144529560495
6.681922048,1.0002693926064616,75.98649503354504
6.684210688,1.0000739350384864,75.84431374526575
6.686498816,0.9998736753971649,75.70501319464546
6.688786944,0.9996811896324984,75.5685600370724
6.691075584,0.9995085820590585,75.43481733525256
6.693363712,0.9993669912906595,75.30337356317989
6.695652352,0.9992654553652525,75.17371884166617
6.69794048,0.9992103031563335,75.04521884097586
6.700228608,0.9992052000572711,74.91718692197682
6.702517248,0.9992503962565775,74.78888674994401
6.704805376,0.9993431029564223,74.65960883652183
6.707094016,0.9994774028742609,74.5286994139108
6.709382144,0.9996447610656436,74.39559169544717
6.711670272,0.999834713426862,74.25991305110455
6.713958912,1.0000350495699752,74.1214266118418
6.71624704,1.0002331779269704,73.9800365503425
6.71853568,1.0004164156321667,73.83590812156179
6.720823808,1.0005733713147784,73.6893186663938
6.723111936,1.000693766106203,73.54073571554379
6.725400576,1.000770263172147,73.39073211273077
6.727688704,1.0007979319327212,73.23999019257327
6.729977344,1.0007747293843774,73.0892431476891
6.732265472,1.0007024721523559,72.93919851323723
6.7345536,1.0005854540099202,72.79053290197261
6.73684224,1.000431182401237,72.64384101649375
6.739130368,1.0002493771155199,72.49961966682605
6.741419008,1.0000514575773483,72.35818602801713
6.743707136,0.9998501089536713,72.21965181763801
6.745995264,0.999658077450158,72.08400102287668
6.748283904,0.9994874732883413,71.95101842243264
6.750572032,0.9993491126423244,71.82027912050143
6.75286016,0.9992519698891217,71.6913035938357
6.7551488,0.9992021211912268,71.56338294670876
6.757436928,0.9992027751860775,71.43587975589047
6.759725568,0.9992538977579515,71.3080102479655
6.762013696,0.99935227300365,71.17904900498525
6.764301824,0.9994917475114199,71.04838999731233
6.766590464,0.9996633564709513,70.91546815622
6.768878592,0.999856325112938,70.77992409966895
6.771167232,1.0000583811791774,70.64152458046418
6.77345536,1.0002566486478317,70.50020682098423
6.775743488,1.0004386444059346,70.35616570795369
6.778032128,1.0005928772018402,70.20967839755855
6.780320256,1.0007093481076879,70.06126258672934
6.782608896,1.0007808383924666,69.91147665631534
6.784897024,1.000802797648719,69.76101613342124
6.787185152,1.0007737523012705,69.61063799280825
6.789473792,1.000695544478521,69.46104673706179
6.79176192,1.0005730542627203,69.31292199709186
6.79405056,1.0004140614059707,69.16683754954384
6.796338688,1.000228616322675,69.02329483112759
6.798626816,1.0000284931644374,68.88255270592738
6.800915456,0.999826237805121,68.7447578919218
6.803203584,0.9996347492994027,68.60984151887953
6.805492224,0.99946623350284,68.47756574238646
6.807780352,0.999331360726353,68.34749185523536
6.81006848,0.9992388063694925,68.21910558295187
6.81235712,0.999194324437159,68.09175724309554
6.814645248,0.9992008592729359,67.96467492451478
6.816933888,0.999257993807887,67.83715254516088
6.819222016,0.9993622139100099,67.70847327376272
6.821510144,0.9995067716027723,67.57800799926403
6.823798784,0.9996825805171218,67.44520355191123
6.826086912,0.9998785196447325,67.30972378038366
6.82837504,1.0000820419945962,67.17135047174143
6.83066368,1.000280440687988,67.03006143515059
6.832951808,1.0004609913581044,66.88603988385167
6.835240448,1.0006122295168562,66.73960987998416
6.837528576,1.0007246448634854,66.59128657422475
6.839816704,1.0007910570933432,66.44167076485083
6.842105344,1.0008072717165162,66.29146408307494
6.844393472,1.0007721315063938,66.14141936507595
6.846682112,1.0006879713377022,65.99224131628948
6.84897024,1.0005600486925865,65.84459701610936
6.851258368,1.0003964724376122,65.69909563584446
6.853547008,1.0002073736679205,65.5561579676628
6.855835136,1.0000049878965303,65.41607873156416
6.858123776,0.9998020278679155,65.27897269562196
6.860411904,0.9996113833572096,65.1447353320518
6.862700032,0.999445130341361,65.01310514897158
6.864988672,0.9993138667733471,64.88365913188046
6.8672768,0.999225977688532,64.7558323830038
6.86956544,0.9991870252890983,64.62892962294787
6.871853568,0.9991996222678013,64.50223683190136
6.874141696,0.9992628325796367,64.37501259523519
6.876430336,0.9993727254432896,64.24654687533086
6.878718464,0.9995224197327772,64.11620058506243
6.881007104,0.9997023223647132,63.983460169385665
6.883295232,0.999901125905267,63.84798719347513
6.88558336,1.0001061330765462,63.70959075482228
6.887872,1.0003043618612748,63.56826406198913
6.890160128,1.000483225759456,63.42419282860449
6.892448768,1.0006314352370984,63.27777654868948
6.894736896,1.0007395856816086,63.12949648235477
6.897025024,1.0008007774679768,62.979995089429316
6.899313664,1.0008111380116598,62.82999287215396
6.901601792,1.0007698976392072,62.68022082855701
6.90388992,1.0006797122358049,62.53140211264067
6.90617856,1.0005463266188848,62.38423325204074
6.908466688,1.0003780784008451,62.2392364660927
6.910755328,1.0001855823567807,62.09688784568771
6.913043456,0.99998111557669,61.95744683438435
6.915331584,0.9997774898804475,61.820938237230656
6.917620224,0.9995877729540018,61.68734556731133
6.919908352,0.9994239884251656,61.55631171363597
6.922196992,0.9992965536565906,61.42742544944835
6.92448512,0.9992134925317021,61.300090012603576
6.926773248,0.9991802454726822,61.17359443484125
6.929061888,0.9991989203256976,61.04723415913195
6.931350016,0.999268215632652,60.92023255078522
6.933638656,0.9993839076159777,60.791914748956614
6.935926784,0.999538741056884,60.66162468157208
