freq,mag,phase
6.0,0.9993851863859053,-129.5981416885131
6.002285056,0.9994931907399647,-129.73749003631295
6.004570112,0.9996331700594031,-129.8786488734629
6.006855168,0.9997965464287016,-130.0219752932484
6.009140224,0.999973021395801,-130.1678100374058
6.01142528,1.0001513399603805,-130.31615065068726
6.013710336,1.0003203680530635,-130.46704063691337
6.015995392,1.000469313843075,-130.62022195301356
6.018280448,1.0005888692488882,-130.77534121829703
6.020565504,1.00067130733153,-130.93188392322458
6.02285056,1.000711417005018,-131.08934637035884
6.025135616,1.0007068188973793,-131.2470315803874
6.027420672,1.0006576343523916,-131.4043431836809
6.029705728,1.0005669682410547,-131.5606275591281
6.031990784,1.0004406434791795,-131.71533959109237
6.03427584,1.0002864474157585,-131.86797510238085
6.036560896,1.0001141995670944,-132.01824113610135
6.038845952,0.999934767156924,-132.165984032408
6.041131008,0.9997595405288985,-132.31109800999744
6.043416064,0.9995994891394572,-132.45377899531283
6.04570112,0.9994649097506343,-132.59426832730273
6.047986176,0.9993642206763327,-132.73308529219494
6.050271232,0.9993038044559114,-132.87070898866702
6.052556288,0.9992875581174515,-133.00774805962635
6.054841344,0.9993166230390803,-133.14486917020136
6.0571264,0.9993889750897595,-133.28271815075357
6.059411456,0.9995002413982608,-133.42188214915961
6.061696512,0.9996432705775502,-133.56288568348842
6.063981568,0.9998090811733916,-133.70611168046523
6.066266624,0.9999871981698883,-133.85184445837263
6.06855168,1.0001662686353139,-134.00012201936133
6.070836736,1.0003350840033103,-134.15097230646975
6.073121792,1.0004827789403976,-134.30405870478268
6.075406848,1.0006002806911136,-134.45907693701272
6.077691904,1.0006800037324446,-134.61552197192006
6.07997696,1.0007168479165933,-134.77275714545618
6.082262016,1.0007085810613894,-134.93023407836668
6.084547072,1.0006556421907693,-135.0872753758032
6.086832128,1.0005613287231383,-135.24317108705338
6.089117184,1.0004316592796831,-135.39748515935088
6.09140224,1.0002747081250483,-135.54970604749823
6.093687296,1.0001004758000878,-135.69949626300536
6.095972352,0.9999198392009723,-135.84670174014641
6.098257408,0.9997443308345619,-135.99131317118284
6.100542464,0.9995850368641224,-136.1334744728918
6.10282752,0.9994520424760399,-136.2734890846
6.105112576,0.9993537887703515,-136.41181710003383
6.107397632,0.9992964686890627,-136.5489808495845
6.1096832,0.9992838735483284,-136.68565613945674
6.111968256,0.999316651211956,-136.82242127001393
6.114253312,0.9993928016241204,-136.95998764056236
6.116538368,0.9995075703052552,-137.0989235292885
6.118823424,0.9996536173074755,-137.23975942118028
6.12110848,0.9998218593325271,-137.38282098241143
6.123393536,1.0000015173742332,-137.52840196180813
6.125678592,1.0001813004508349,-137.67661987215723
6.127963648,1.00034986884066,-137.82731389054058
6.130248704,1.0004963383075396,-137.98029992308142
6.13253376,1.0006117715172098,-138.13517244355825
6.134818816,1.0006886007927975,-138.2914137271266
6.137103872,1.0007221291183181,-138.44844309330895
6.139388928,1.0007101002159022,-138.6056619011362
6.141673984,1.0006533398446626,-138.76231589446041
6.14395904,1.00055537205419,-138.91787356856776
6.146244096,1.0004223248119815,-139.0717002007523
6.148529152,1.0002626752302262,-139.2234318013437
6.150814208,1.0000863415801524,-139.37268714636292
6.153099264,0.999904646587008,-139.51931648627087
6.15538432,0.9997289840400511,-139.66334683653926
6.157669376,0.9995705087367278,-139.8049743549217
6.159954432,0.99943922812351,-139.94444348726861
6.162239488,0.9993434250041954,-140.08224264927458
6.164524544,0.999289332078837,-140.21894983888518
6.1668096,0.9992802531468259,-140.35517812271166
6.169094656,0.9993168944294466,-140.49154409953852
6.171379712,0.9993969007660023,-140.62879345947601
6.173664768,0.9995152379539405,-140.76742676591996
6.175949824,0.9996644526044972,-140.90803702503956
6.17823488,0.9998349629894508,-141.05090646240234
6.180519936,1.0000162073362602,-141.19635792516343
6.182804992,1.0001965610390713,-141.344401702191
6.185090048,1.0003647561600033,-141.49493126424366
6.187375104,1.0005099608427084,-141.6477761279228
6.18966016,1.0006231316338452,-141.80244211959155
6.191945216,1.0006970981932082,-141.9584859523083
6.194230272,1.0007272057304417,-142.115200310844
6.196515328,1.0007114012460687,-142.27208011883926
6.198800384,1.0006507933596502,-142.42837344471465
6.20108544,1.000549046721242,-142.5834285577844
6.203370496,1.0004127676524417,-142.73677168748418
6.205655552,1.0002503202495472,-142.8879487146484
6.207940608,1.0000720694352303,-143.03663654389814
6.210225664,0.9998893536604213,-143.18267741273695
6.21251072,0.9997135366963686,-143.32610881607462
6.214795776,0.999555936345927,-143.46708676661697
6.217080832,0.9994264302752564,-143.605962051157
6.219365888,0.9993333039267928,-143.74320989650252
6.221650944,0.9992824575300608,-143.87935044685057
6.223936,0.9992771221728536,-144.01510713387785
6.226221056,0.9993176334413746,-144.15108522047817
6.228506112,0.9994014247763955,-144.28795944941257
6.230791168,0.999523336293523,-144.42628194467343
6.233076224,0.9996755462433199,-144.56659948738172
6.23536128,0.9998485481668814,-144.70925220960473
6.237646336,1.0000312399771107,-144.8544889697977
6.239931392,1.0002120874464693,-145.00232450081117
6.242216448,1.0003797770896583,-145.15269731933188
6.244501504,1.00052363124831,-145.30529613952925
6.24678656,1.0006345865684152,-145.45976231956138
6.249071616,1.000705571082083,-145.6154807560496
6.251356672,1.0007320462675837,-145.77191564325489
6.253641728,1.000712431118517,-145.92837272629268
6.255926784,1.000647801566638,-146.08419634143974
6.25821184,1.0005423452581816,-146.23882099449662
6.260496896,1.0004026526010739,-146.3915851000073
6.262781952,1.0002374795059001,-146.54215034536492
6.265067008,1.000057331214865,-146.69023242418717
6.267352064,0.9998736350959954,-146.83560510979106
6.26963712,0.9996978319229981,-146.97835064692038
6.271922176,0.9995411576385932,-147.11870320947037
6.274207232,0.999413658575952,-147.2569063186846
6.276492288,0.999323255816675,-147.3935324655
6.278777344,0.9992756656100868,-147.52913509160763
6.2810624,0.999274128799179,-147.66436980616345
6.283347456,0.9993186165502003,-147.79987760640148
6.285632512,0.9994063891725734,-147.9363191120691
6.287917568,0.9995319493131927,-148.07430989242303
6.290202624,0.9996871853692681,-148.2143110301944
6.29248768,0.9998624027597514,-148.35668859547138
6.294772736,1.0000466597610034,-148.50167534203132
6.297057792,1.000228006107651,-148.6492813139297
6.299342848,1.0003952227149457,-148.79942901161834
6.301627904,1.0005375493563426,-148.9517851948753
6.30391296,1.0006461495183914,-149.10592061619235
6.306198016,1.0007139350523195,-149.26136312072478
6.308483072,1.000736899161092,-149.41739204609817
6.310768128,1.0007132586709764,-149.57341648730505
6.313053184,1.0006446558527906,-149.7288108676447
6.31533824,1.0005354350487417,-149.88283293661615
6.317623296,1.0003923735657216,-150.03506248300096
6.319908352,1.0002245320795664,-150.1849690245763
6.322193408,1.0000424520971452,-150.33234041679924
6.324478976,0.9998577541953314,-150.47701156190183
6.326764032,0.9996820127909104,-150.61907028252165
6.329049088,0.999526397553496,-150.75866249088338
6.331334144,0.9994007852244368,-150.89619089741325
6.3336192,0.999313178025097,-151.03219845505944
6.335904256,0.9992690974567406,-151.16716637637006
6.338189312,0.999271409499461,-151.3018243164376
6.340474368,0.9993198849615916,-151.43683899700162
6.342759424,0.9994116399827412,-151.57283981522008
6.34504448,0.999540711881608,-151.71042888016427
6.347329536,0.9996990215932468,-151.8501157556757
6.349614592,0.9998766311443007,-151.99218034735304
6.351899648,1.000062194416676,-152.13689823745358
6.354184704,1.0002439976652098,-152.2842377129355
6.35646976,1.0004104782082899,-152.4340765135675
6.358754816,1.0005512646526902,-152.586166349212
6.361039872,1.000657418676691,-152.7399752734807
6.363324928,1.0007220703106656,-152.89501989532303
6.365609984,1.000741195153291,-153.05067164767888
6.36789504,1.0007136245884485,-153.20624747706657
6.370180096,1.0006410312574103,-153.36103780611245
6.372465152,1.0005279679051935,-153.51448255659525
6.374750208,1.0003815108818226,-153.66606806294945
6.377035264,1.000211027429757,-153.81526864590748
6.37932032,1.000027129078071,-153.96190893677274
6.381605376,0.9998415200613441,-154.1058702743546
6.383890432,0.9996659272100951,-154.24712473812156
6.386175488,0.9995115297395734,-154.38599588563713
6.388460544,0.9993880275117666,-154.52281990414403
6.3907456,0.9993033913141471,-154.65809691885102
6.393030656,0.9992628195736437,-154.79240658222267
6.395315712,0.9992690105395521,-154.9265073097516
6.397600768,0.9993215965591488,-155.0609579807653
6.399885824,0.9994173249024334,-155.19650774194042
6.40217088,0.9995500467015355,-155.33366201760703
6.404455936,0.9997114537806735,-155.47293973430698
6.406740992,0.9998913201400716,-155.614687816334
6.409026048,1.0000781470120457,-155.75906292281525
6.411311104,1.0002602995924603,-155.9061078455837
6.41359616,1.000426114156076,-156.0556340105707
6.415881216,1.0005651960026205,-156.2073848137163
6.418166272,1.000668686742517,-156.3608613818526
6.420451328,1.0007300488858006,-156.51546722955675
6.422736384,1.0007454015385406,-156.67065652155583
6.42502144,1.0007136732658464,-156.8256958324366
6.427306496,1.0006370182878779,-156.97993982940878
6.429591552,1.0005200059746953,-157.13276575800975
6.431876608,1.0003702165842137,-157.28360579122514
6.434161664,1.0001970378418195,-157.4320949423143
6.43644672,1.000011359307913,-157.57795806839647
6.438731776,0.9998249627711965,-157.721097528738
6.441016832,0.9996495900240036,-157.86158504006465
6.443301888,0.9994964150497708,-157.99966934549715
6.445586944,0.9993751745005347,-158.13570461018952
6.447872,0.9992934378021963,-158.2702595690284
6.450157056,0.9992565585891758,-158.40390934966112
6.452442112,0.9992668573795856,-158.5373653023719
6.454727168,0.9993236479177017,-158.67124196998202
6.457012224,0.999423368072971,-158.80627293806617
6.45929728,0.9995597641648039,-158.94298463482178
6.461582336,0.9997241765623828,-159.08184063231158
6.463867392,0.9999062228783928,-159.22319636835851
6.466152448,1.0000944138630719,-159.36722313358976
6.468437504,1.000276805443568,-159.51392045713123
6.47072256,1.000441833888004,-159.66313910520364
6.473007616,1.0005790860222197,-159.8144854450152
6.475292672,1.000679908802156,-159.9675546589539
6.477577728,1.0007377840739669,-160.12172866063605
6.479862784,1.000749278522498,-160.27642880762284
6.48214784,1.0007134377785534,-160.43089613623596
6.484432896,1.0006324566871854,-160.58451467685725
6.486717952,1.0005116125883342,-160.73664941450562
6.489003008,1.0003584360938615,-160.8867699684379
6.491288064,1.0001825659636479,-161.0344671030673
6.49357312,0.9999951962057999,-161.17952829484065
6.495858176,0.9998079806646353,-161.3218319132872
6.498143232,0.9996329194943308,-161.4614563650855
6.500428288,0.9994811024744144,-161.59872036115388
6.502713344,0.9993622098906471,-161.73396308195453
6.5049984,0.9992836287132633,-161.86774442528883
6.507283456,0.9992505401096663,-162.0006839521753
6.509568512,0.9992649178041743,-162.13344171769896
6.511853568,0.9993259557177159,-162.26674580136842
6.514138624,0.999429799289005,-162.4012076721972
6.51642368,0.9995699079646642,-162.5374133778401
6.518708736,0.9997373771923944,-162.67585413998842
6.520993792,0.9999216651556926,-162.81680184490966
6.523278848,1.0001111252070713,-162.96047071274646
6.525563904,1.0002936382403573,-163.10680305254334
6.52784896,1.0004577264852506,-163.25559023738052
6.530134016,1.0005931602077933,-163.4065761997496
6.532419072,1.0006910726909295,-163.5592026885057
6.534704128,1.0007455875684137,-163.7129443899817
6.536989184,1.0007529373541568,-163.8670520088316
6.53927424,1.000712862002239,-164.02096644727655
6.541559808,1.0006277610668455,-164.17388271542922
6.543844864,1.0005029365033393,-164.32529290385682
6.54612992,1.000346372014238,-164.47462314577436
6.548414976,1.000167845565055,-164.62151690099114
6.550700032,0.9999787197314507,-164.7657200476366
6.552985088,0.9997908900284402,-164.9071252966221
6.555270144,0.9996162765651783,-165.0459018541435
6.5575552,0.99946591892787,-165.18226396391796
6.559840256,0.999349426164897,-165.31670187387098
6.562125312,0.9992740887503946,-165.44963362958063
6.564410368,0.9992448524599578,-165.58186167540072
6.566695424,0.9992634730150957,-165.71395071954717
6.56898048,0.9993288340299029,-165.84659351358982
6.571265536,0.999436817508465,-165.98050720379683
6.573550592,0.9995806033225756,-166.11619638937242
6.575835648,0.9997511252553978,-166.2541835171798
6.578120704,0.9999375582485148,-166.39467890069267
6.58040576,1.0001280690224708,-166.53794472963904
6.582690816,1.0003107533488227,-166.68386476314433
6.584975872,1.0004738147267247,-166.83225533280134
6.587260928,1.0006071415995679,-166.98277373108195
6.589545984,1.0007021569714727,-167.134929777536
6.59183104,1.000752983007342,-167.28815186073874
6.594116096,1.000756287361803,-167.44169303733165
6.596401152,1.0007118240688149,-167.59493750922312
6.598686208,1.0006224085884126,-167.74720339269808
6.600971264,1.0004936818011805,-167.89784814315027
6.60325632,1.0003336414122292,-168.04634672584095
6.605541376,1.000152560754827,-168.1923704785608
6.607826432,0.9999617522314367,-168.33568593615982
6.610111488,0.9997733533516531,-168.4761699162808
6.612396544,0.9995992661612599,-168.61403204705834
6.6146816,0.999450550050832,-168.74952037770225
6.616966656,0.9993365843130887,-168.88302678264304
6.619251712,0.9992646965971835,-169.0151883048685
6.621536768,0.9992394047905092,-169.14660305302337
6.623821824,0.999262368405838,-169.27797232055204
6.62610688,0.9993321355758016,-169.4099628081205
6.628391936,0.9994443127128833,-169.54326673237497
6.630676992,0.9995918684682529,-169.67843387066563
6.632962048,0.9997653855064796,-169.81590049855777
6.635247104,0.9999539663352114,-169.95594596010585
6.63753216,1.0001455204270961,-170.09876829498623
6.639817216,1.000328160505422,-170.24427681884444
6.642102272,1.0004901268861943,-170.39223960515426
6.644387328,1.0006212969672468,-170.54231407441986
6.646672384,1.0007132992103596,-170.69399633018713
6.64895744,1.000760270833683,-170.8466151771018
6.651242496,1.000759340019065,-170.99955507388887
6.653527552,1.00071038890418,-171.1521451188354
6.655812608,1.0006166113015944,-171.303646051834
6.658097664,1.0004838208270752,-171.45350558718224
6.66038272,1.0003204250486093,-171.6011736671943
6.662667776,1.0001367488092974,-171.74627422073883
6.664952832,0.9999443244362928,-171.88861596560545
6.667237888,0.9997554803234626,-172.02820554712034
6.669522944,0.999582037927522,-172.16510666932902
6.671808,0.9994350560563336,-172.2996309745891
6.674093056,0.9993237122826452,-172.43224648681834
6.676378112,0.9992553023795429,-172.56356590976722
6.678663168,0.999234215020582,-172.6941196013741
6.680948224,0.9992615261750751,-172.82475278832436
6.68323328,0.9993358201941057,-172.9561080929838
6.685518336,0.9994521953946022,-173.0887661609444
6.687803392,0.9996035593577399,-173.22337067021027
6.690088448,0.9997800843827853,-173.36031469608272
6.692373504,0.9999706178518876,-173.49991394977022
6.69465856,1.0001632752841823,-173.6422499652543
6.696943616,1.000345777161709,-173.78731479675204
6.699228672,1.0005065147339531,-173.9348140963007
6.701513728,1.0006354587461668,-174.0843899436187
6.703798784,1.000724194764349,-174.2355558432239
6.70608384,1.0007672749658005,-174.38758676587238
6.708368896,1.000761970327041,-174.5399172186027
6.710653952,1.0007085439628807,-174.69177081858822
6.712939008,1.0006103402766282,-174.8424877335052
6.715224064,1.0004735033744923,-174.99149007915742
6.71750912,1.00030668588863,-175.1382888396082
6.719794176,1.0001204987289531,-175.28246517777376
6.722079232,0.9999265571661267,-175.42385230281536
6.724364288,0.9997372808307299,-175.56241630928696
6.726649344,0.9995645567201681,-175.69834097241394
6.7289344,0.9994193702460614,-175.83188427304816
6.731219456,0.9993109367627481,-175.96361084003345
6.733504512,0.9992461641851258,-176.0939915220511
6.735789568,0.9992292117004962,-176.22377014905587
6.738074624,0.9992612476460353,-176.3536391600258
6.74035968,0.9993400133799993,-176.48424831885342
6.742644736,0.9994607397436596,-176.61629496980535
6.744929792,0.9996158380527038,-176.75030689590255
6.747214848,0.9997953034178136,-176.88675208190799
6.749499904,0.9999879540801538,-177.02584822003143
6.75178496,1.000181568361566,-177.16769209239848
6.754070016,1.0003638047347836,-177.31227204556808
6.756355072,1.0005232615979036,-177.45930151282866
6.75864064,1.0006496689083728,-177.60835970053122
6.760925696,1.0007350780844144,-177.7589334029878
6.763210752,1.0007741994415422,-177.910408761429
6.765495808,1.0007643508893023,-178.0620109819978
6.767780864,1.0007063060749737,-178.2131443856967
6.77006592,1.0006035992112567,-178.3630728507811
6.772350976,1.0004626568866024,-178.51121711965115
6.774636032,1.000292523109333,-178.65704473709013
6.776921088,1.000103731439259,-178.80025726680392
6.779206144,0.9999084022974102,-178.9406579697958
6.7814912,0.9997187641502079,-179.0781974916986
6.783776256,0.9995467921406989,-179.21312627111848
6.786061312,0.9994036148281406,-179.3456913450879
6.788346368,0.9992982719134086,-179.47643923446682
6.790631424,0.9992372107407912,-179.60592698385446
6.79291648,0.9992245750099347,-179.73483759613032
6.795201536,0.9992611583623571,-179.86390490359352
6.797486592,0.9993447719938663,-179.99379842574453
6.799771648,0.9994697587721287,179.87480788125305
6.802056704,0.9996285946736545,179.74137557835948
6.80434176,0.9998110889086478,179.60550494801493
6.806626816,1.0000057333400791,179.46690699755484
6.808911872,1.0002001901464077,179.3255370349683
6.811196928,1.0003821070496384,179.18146337458805
6.813481984,1.0005399624132663,179.03494666324096
6.81576704,1.0006636872756087,178.88640680175155
6.818052096,1.0007457009239211,178.7364195522356
6.820337152,1.0007806857857067,178.58559679498353
6.822622208,1.0007663713031782,178.43467194524555
6.824907264,1.000703594964227,178.28432980383064
6.82719232,1.0005961716507723,178.13524934503874
6.829477376,1.0004512523962241,177.98801294810076
6.831762432,1.000277566386144,177.84309917513968
6.834047488,1.0000864924159758,177.7009254715581
6.836332544,0.9998897307897224,177.56155399452635
6.8386176,0.9996998747945522,177.42505113143017
6.840902656,0.9995289552606543,177.29115502125723
6.843187712,0.9993879184676048,177.15961034418808
6.845472768,0.9992856465735402,177.0298618200165
6.847757824,0.9992285601610972,176.90128140566873
6.85004288,0.999220490173519,176.773248496623
6.852327936,0.999261776931021,176.64497578589135
6.854612992,0.9993499954903327,176.51581085079522
6.856898048,0.9994794567140515,176.38512247301279
6.859183104,0.9996421811480117,176.25228116579723
6.86146816,0.9998275206116394,176.11697976344516
6.863753216,1.0000240987657698,175.97891275875799
6.866038272,1.000219128092553,175.8380322220957
6.868323328,1.0004006626727404,175.69447356844609
6.870608384,1.000556839956802,175.54851137411939
6.87289344,1.000678018299764,175.40050359081368
6.875178496,1.0007563874766112,175.25114636538936
6.877463552,1.0007869322192342,175.1009778643092
6.879748608,1.000767831247094,174.950764042687
6.882033664,1.000700251825934,174.80122046065492
6.88431872,1.0005882916562368,174.65298454181547
6.886603776,1.000439090449784,174.50670598902053
6.888888832,1.0002620374313564,174.36281444860313
6.891173888,1.0000685618061917,174.2216014047554
6.893458944,0.9998704894592497,174.0833199699407
6.895744,0.9996805004004484,173.94787879973222
6.898029056,0.9995106449827597,173.81509440005345
6.900314112,0.9993718640217953,173.68454446183745
6.902599168,0.9992727713158098,173.5558122279127
6.904884224,0.9992198920494357,173.4281854829426
6.90716928,0.999216337009233,173.30103653592977
6.909454336,0.9992626050169683,173.17357120808092
