freq,mag,phase
6.0,0.9998156947200719,-35.19085420740275
6.012658176,0.9999232913933566,-35.69079029851053
6.025316352,1.0000325532694945,-36.19244886913545
6.037974528,1.0001403770533108,-36.69571717065984
6.050632704,1.0002423102815898,-37.20057946130515
6.063291392,1.000333527166227,-37.70692494744507
6.075949568,1.000409659172039,-38.214581773639125
6.088607744,1.0004674426777984,-38.72339311432562
6.10126592,1.0005038767351782,-39.23309531251144
6.113924096,1.0005175465298635,-39.743414222218675
6.126582272,1.0005074391974713,-40.25408197617568
6.139240448,1.0004741719964259,-40.76477068176172
6.151898624,1.0004193080422523,-41.27520170700682
6.1645568,1.000344817180271,-41.785172504394644
6.177214976,1.0002543548007616,-42.294459513582076
6.189873664,1.0001519611299048,-42.80284467173137
6.20253184,1.0000422087708283,-43.31025218462204
6.215190016,0.9999301244219391,-43.816577756142784
6.227848192,0.9998210159775458,-44.32182498151218
6.240506368,0.9997195079894113,-44.82606822660166
6.253164544,0.9996306127449152,-45.329463751586694
6.26582272,0.9995582266370951,-45.83220907589529
6.278480896,0.9995058356517891,-46.33443144081078
6.291139072,0.99947593631034,-46.8364510259335
6.303797248,0.9994699089639221,-47.338513306874006
6.316455936,0.9994879531665029,-47.84097593236834
6.329114112,0.999529641721768,-48.344106929864026
6.341772288,0.9995928723119007,-48.84815083909268
6.354430464,0.9996751872710031,-49.353416916638366
6.36708864,0.9997724166991471,-49.86007369236878
6.379746816,0.9998805001976341,-50.368298507646564
6.392404992,0.999994349956979,-50.87818461161916
6.405063168,1.000108891883142,-51.3898122625324
6.417721344,1.0002190762053544,-51.90311980807349
6.43037952,1.0003194238461888,-52.41803543713941
6.443038208,1.0004054847899941,-52.93440078511447
6.455696384,1.0004736168472086,-53.452042803290624
6.46835456,1.0005200665527947,-53.97069177315949
6.481012736,1.0005428926329385,-54.490155621786094
6.493670912,1.0005412219969951,-55.00999952639438
6.506329088,1.0005147412569428,-55.53002745864182
6.518987264,1.0004647098029176,-56.04988000688965
6.53164544,1.00039329289706,-56.569349257523804
6.544303616,1.0003036831894705,-57.08809957841601
6.556961792,1.0001997624371293,-57.60597949181357
6.56962048,1.0000865363007896,-58.12290920978977
6.582278656,0.9999686866247527,-58.63866501806666
6.594936832,0.9998521042677974,-59.153322089489656
6.607595008,0.9997416909309345,-59.66686094320469
6.620253184,0.9996427850205191,-60.17942590994325
6.63291136,0.9995598643911402,-60.691197787710664
6.645569536,0.9994966661976288,-61.202365800066566
6.658227712,0.9994563302558425,-61.71318031314452
6.670885888,0.9994407551784272,-62.22399338435137
6.683544064,0.9994506535190348,-62.73501140984387
6.696202752,0.9994858321053726,-63.246671330483274
6.708860928,0.9995445125066039,-63.759163440655804
6.721519104,0.9996241905872302,-64.27284601564762
6.73417728,0.9997214705548313,-64.78788237840699
6.746835456,0.9998318941685231,-65.30456459965927
6.759493632,0.9999503688232099,-65.82292418790463
6.772151808,1.0000714512100473,-66.34307840293097
6.784809984,1.0001898453911904,-66.86500792351721
6.79746816,1.0003000265234774,-67.38868178298947
6.810126336,1.000396854345693,-67.9139694922609
6.822785024,1.0004760089322609,-68.44064827336254
6.8354432,1.0005336351118501,-68.96849903994327
6.848101376,1.0005672562842898,-69.49721345908418
6.860759552,1.0005750514756337,-70.02654191007719
6.873417728,1.0005568386403727,-70.5561185554824
6.886075904,1.000512954321499,-71.08562785735067
6.89873408,1.0004456134311832,-71.61482431370774
6.911392256,1.0003576048974538,-72.14334601955036
6.924050432,1.0002529744032878,-72.67105214969949
6.936708608,1.000136404283013,-73.19769876243808
6.949367296,1.000013320643828,-73.7232051195578
6.962025472,0.9998891033922463,-74.24751245951215
6.974683648,0.9997694409349689,-74.77060522435168
6.987341824,0.9996600580658512,-75.29261862194814
7.0,0.9995655719531995,-75.81368016379075
7.012658176,0.9994906374464927,-76.33401834954023
7.025316352,0.9994387272717438,-76.85386191252971
7.037974528,0.9994122554729251,-77.37355315287411
7.050632704,0.9994124220674263,-77.89335642255956
7.063291392,0.9994396705153552,-78.41367425255132
7.075949568,0.9994924452643301,-78.93476963678368
7.088607744,0.9995687258919502,-79.45693766328242
7.10126592,0.9996649578453257,-79.98048886414877
7.113924096,0.9997768909554778,-80.50567738181492
7.126582272,0.9998993708387096,-81.0325866851983
7.139240448,1.0000271421625202,-81.56132681559042
7.151898624,1.0001538961485141,-82.09196330492048
7.1645568,1.0002742544738679,-82.62444915753184
7.177214976,1.0003826522773218,-83.15867967067393
7.189873664,1.0004740504487015,-83.69443863147791
7.20253184,1.0005440491373618,-84.23151524883586
7.215190016,1.000589599351441,-84.76963060828783
7.227848192,1.0006084557096855,-85.30848081233802
7.240506368,1.000599675033223,-85.84774610430712
7.253164544,1.0005635225126648,-86.38704910568289
7.26582272,1.000501663451311,-86.92607646345023
7.278480896,1.0004165756144445,-87.46455379826821
7.291139072,1.000312228705629,-88.00216204409519
7.303797248,1.0001932357232242,-88.53875586812846
7.316455936,1.0000649529780283,-89.07410285317077
7.329114112,0.9999332554938924,-89.60820939568802
7.341772288,0.9998041268965908,-90.14100329240874
7.354430464,0.9996832381117221,-90.67259866843483
7.36708864,0.9995765660485694,-91.20309476056462
7.379746816,0.99948872163951,-91.73269810332795
7.392404992,0.9994237920571195,-92.26169028113064
7.405063168,0.9993849273962353,-92.79028920952271
7.417721344,0.9993740343017685,-93.31892753016008
7.43037952,0.9993915531101497,-93.84791630493218
7.443038208,0.9994369711152933,-94.37754709168263
7.455696384,0.9995082791405367,-94.90826080795371
7.46835456,0.9996023559767614,-95.44023337991638
7.481012736,0.9997149310734346,-95.97380471120056
7.493670912,0.999840896959172,-96.50915058012654
7.506329088,0.9999746997130566,-97.04641799334497
7.518987264,1.000110178202723,-97.58566911782188
7.53164544,1.0002411003313663,-98.12681401886434
7.544303616,1.0003616771812898,-98.66987618994408
7.556961792,1.0004662045784447,-99.21462066862267
7.56962048,1.0005499976121284,-99.7608379843838
7.582278656,1.000609076924535,-100.30827609430703
7.594936832,1.0006406225012279,-100.85658680500192
7.607595008,1.000643166531088,-101.40545317970589
7.620253184,1.0006164289892112,-101.9544690605051
7.63291136,1.0005615010453435,-102.50332875944099
7.645569536,1.0004807812027203,-103.05171088323809
7.658227712,1.0003779283797938,-103.59923709412806
7.670885888,1.0002573887053423,-104.14573412528009
7.683544064,1.0001245925171656,-104.6910341909957
7.696202752,0.999985689481306,-105.23491449773005
7.708860928,0.9998467796821134,-105.77742462770988
7.721519104,0.9997142797864894,-106.31859698004887
7.73417728,0.9995942885823279,-106.85849259694015
7.746835456,0.9994922553053931,-107.39733036164962
7.759493632,0.999412973089671,-107.93536401155768
7.772151808,0.999360064801605,-108.47284414330169
7.784809984,0.9993361878361016,-109.01016031041662
7.79746816,0.9993424608241763,-109.54767104409338
7.810126336,0.9993786812155848,-110.0857359502468
7.822785024,0.9994433798215165,-110.62469828169993
7.8354432,0.9995336829130714,-111.16490786659995
7.848101376,0.9996457402379743,-111.70666587015435
7.860759552,0.9997743355258302,-112.25018796758717
7.873417728,0.9999136434269382,-112.79564218658221
7.886075904,1.0000576522420646,-113.34315240046143
7.89873408,1.0001995125961083,-113.89274554998445
7.911392256,1.0003329755793688,-114.44430710924252
7.924050432,1.0004517760404061,-114.9977698496753
7.936708608,1.0005506294797912,-115.5528415599577
7.949367296,1.0006247022612875,-116.1092816748045
7.962025472,1.0006708721815345,-116.66681871530484
7.974683648,1.0006866474516032,-117.2250360806864
7.987341824,1.0006711866696327,-117.78355331171886
8.0,1.000625190859664,-118.34204257300888
8.012658176,1.0005505521642144,-118.90011936803946
8.025316352,1.0004505652131503,-119.45742056641804
8.037974528,1.0003296492052711,-120.01365918377864
8.050632704,1.0001932483393847,-120.56865828977135
8.063291392,1.0000474379332485,-121.12221536435888
8.075949568,0.9998987831188269,-121.67425134119635
8.088607744,0.9997541521139659,-122.22480781841423
8.10126592,0.9996200597195746,-122.77394041161443
8.113924096,0.9995026601095495,-123.32179850616181
8.126582272,0.9994074010346785,-123.86862647712756
8.139240448,0.9993387402517492,-124.41474712157819
8.151898624,0.9992998303883939,-124.96046741149655
8.1645568,0.999292633367106,-125.50618638146037
8.177214976,0.9993176044302566,-126.05226287841326
8.189873664,0.9993737469951992,-126.59913546871682
8.20253184,0.9994586431517676,-127.14716531225356
8.215190016,0.9995685506776552,-127.69666352166843
8.227848192,0.999698592094406,-128.24790643642967
8.240506368,0.9998428249632478,-128.8011081357797
8.253164544,0.9999949582065977,-129.35641843738517
8.26582272,1.0001478951694074,-129.91388101163992
8.278480896,1.000294766921471,-130.4735065310524
8.291139072,1.0004289547116685,-131.0351200672352
8.303797248,1.000544139317186,-131.5985597021496
8.316455936,1.0006351328496936,-132.16359580820597
8.329114112,1.0006977041095122,-132.7298406151101
8.341772288,1.0007288277361344,-133.29696328951846
8.354430464,1.000727016803461,-133.86458016987348
8.36708864,1.0006920572645561,-134.43227640112528
8.379746816,1.000625568575823,-134.99965972091584
8.392404992,1.0005303449119836,-135.56633577851795
8.405063168,1.0004106001398105,-136.13200300182905
8.417721344,1.0002715775726918,-136.696347507772
8.43037952,1.000119633787175,-137.2592305617012
8.443038208,0.9999614905922091,-137.82046778262725
8.455696384,0.9998044417546494,-138.38005949852246
8.46835456,0.9996555478683472,-138.93805013470032
8.481012736,0.9995215789915429,-139.49457792574296
8.493670912,0.9994087523251525,-140.04981459734157
8.506329088,0.9993222880422782,-140.60410819914347
8.518987264,0.9992662764334165,-141.15778853463516
8.53164544,0.9992433000526281,-141.7112192725764
8.544303616,0.9992546562178296,-142.26484967332016
8.556961792,0.999299947024756,-142.81905141133538
8.56962048,0.9993772777255401,-143.3742752641128
8.582278656,0.9994832961809946,-143.93088940451767
8.594936832,0.9996132548201196,-144.48918505663295
8.607594496,0.9997613454967278,-145.0494552227385
8.620253184,0.9999210043231698,-145.61188167757157
8.632911872,1.0000849284964122,-146.1765338279912
8.645569536,1.0002456941284144,-146.7434391238713
8.658228224,1.0003960633734228,-147.3125397847005
8.670885888,1.0005292255306355,-147.88367595130512
8.683544576,1.0006388395566028,-148.45654550966248
8.69620224,1.0007199536654703,-149.0308543705648
8.708860928,1.0007687306060826,-149.60627137477485
8.721518592,1.0007829055257207,-150.18232702758604
8.73417728,1.000761563396241,-150.7586069192751
8.746834944,1.0007055027533003,-151.33472800430138
8.759493632,1.0006171709187184,-151.91024133601434
8.77215232,1.000500420249588,-152.48476552129696
8.784809984,1.0003603048700644,-153.0579743944803
8.797468672,1.0002031896975925,-153.62963284086644
8.810126336,1.0000359591930756,-154.1995476258875
8.822785024,0.9998664218507199,-154.76769821421325
8.835442688,0.9997020355457024,-155.33399537115747
8.848101376,0.9995503629324369,-155.89861897295035
8.86075904,0.9994183058098356,-156.46173935370481
8.873417728,0.9993121457012963,-157.0236188125187
8.886076416,0.9992365457974643,-157.58460277330016
8.89873408,0.9991952921791067,-158.1450846223716
8.911392768,0.9991904666054884,-158.70552377519218
8.924050432,0.9992222296091214,-159.2663478328199
8.93670912,0.9992895428720241,-159.82799038871
8.949366784,0.99938946583746,-160.39087653903215
8.962025472,0.9995174858247463,-160.95539364212772
8.974683136,0.9996680321784162,-161.52186700662264
8.987341824,0.9998343611689487,-162.09048506679645
8.999999488,1.0000090285637964,-162.66144628777
9.012658176,1.0001840085450748,-163.23476200788926
9.025316864,1.0003515420133067,-163.810437388929
9.037974528,1.000503744594059,-164.38829470356131
9.050633216,1.0006339938639344,-164.96815526772392
9.06329088,1.0007360180697689,-165.54966651125224
9.075949568,1.0008050140093792,-166.13247371696846
9.088607232,1.0008379774902056,-166.7161919207525
9.10126592,1.0008329442611672,-167.3002894271701
9.113923584,1.0007901640898105,-167.8843690707789
9.126582272,1.0007112075815445,-168.4679663476101
9.13924096,1.0005997390205388,-169.0506219689491
9.151898624,1.0004602920434933,-169.63199495156675
9.164557312,1.000299337357089,-170.21176249383646
9.177214976,1.0001238793234835,-170.7897123128046
9.189873664,0.9999418793891143,-171.36568924230178
9.202531328,0.9997615134785492,-171.93967301484702
9.215190016,0.999591033926058,-172.51168354971364
9.22784768,0.9994382057118938,-173.0819543697207
9.240506368,0.9993100290619018,-173.65068238334803
9.253165056,0.9992124429710919,-174.21821815087776
9.26582272,0.9991502151279579,-174.7849623059496
9.278481408,0.9991260353514235,-175.35136771322686
9.291139072,0.9991414467710615,-175.91790939380996
9.30379776,0.999195858362807,-176.4850269218941
9.316455424,0.9992870203700469,-177.05323494624687
9.329114112,0.9994109752950942,-177.62295771248674
9.341771776,0.9995622592106526,-178.19456867265535
9.354430464,0.9997340552209105,-178.7683419967022
9.367088128,0.9999188691041585,-179.34450548740435
9.379746816,1.0001080690526474,-179.9231380060443
9.392405504,1.000293373773494,179.49572150076136
9.405063168,1.0004663024416958,178.91216232756847
9.417721856,1.0006190052576074,178.32640183094003
9.43037952,1.0007442289120017,177.73874238114476
9.443038208,1.0008363668921243,177.1495006917106
9.455695872,1.0008910957519812,176.5591663532382
9.46835456,1.0009056047992293,175.96818306674834
9.481012224,1.0008791486981905,175.377052596466
9.493670912,1.0008126084488413,174.7862808668425
9.5063296,1.000708798705638,174.1963088104852
9.518987264,1.0005723781691789,173.60759511183028
9.531645952,1.0004092132720013,173.02052115063725
9.544303616,1.000226445930432,172.43534678212475
9.556962304,1.0000324493949102,171.8523027515501
9.569619968,0.9998358000481716,171.27147363345412
9.582278656,0.9996454900220013,170.69281509309135
9.59493632,0.999470191899188,170.11621829804707
9.607595008,0.9993179087248983,169.5415060706461
9.620252672,0.9991955922601111,168.96829506483846
9.63291136,0.9991091134531689,168.3962228116804
9.645570048,0.9990625026928707,167.82481875041276
9.658227712,0.9990581228430486,167.2536039270064
9.6708864,0.9990963921425549,166.68200736928029
9.683544064,0.9991758075504401,166.1095592559216
9.696202752,0.9992930502246355,165.53574663167828
9.708860416,0.9994427843135828,164.96017758376342
9.721519104,0.9996186131020004,164.38243314574342
9.734176768,0.9998125994501731,163.8022973739494
9.746835456,1.0000161571995565,163.21953612143042
9.759494144,1.0002198976050192,162.6341306051453
9.772151808,1.0004146976160666,162.04611660231436
9.784810496,1.000591751854405,161.45564101271214
9.79746816,1.0007428827959368,160.8629762585439
9.810126848,1.000861115960392,160.26849107676844
9.822784512,1.0009409740628092,159.67259345082445
9.8354432,1.0009785140729004,159.07579940362257
9.848100864,1.0009719088892235,158.47863813204276
9.860759552,1.000921211468081,157.88161721933486
9.873417216,1.0008283483778933,157.285311754639
9.886075904,1.0006974572996405,156.69015389902157
9.898734592,1.000534049332623,156.0966582850787
9.911392256,1.0003455153393672,155.50513221669553
9.924050944,1.000140007128729,154.91584248537788
9.936708608,0.9999270841953563,154.32896993731796
9.949367296,0.9997160780825203,153.74457446808705
9.96202496,0.9995165640001734,153.16252403822054
9.974683648,0.9993376798985439,152.58267929022537
9.987341312,0.9991877424634292,152.00473847036122
10.0,0.999073847128441,151.42828559780537
10.012658688,0.9990010572876125,150.85290203491635
10.025316352,0.9989730918661525,150.27802309253605
10.03797504,0.9989914922674058,149.70308964007208
10.050632704,0.9990556784979334,149.12756934089768
10.063291392,0.9991629797924595,148.55087987700963
10.075949056,0.9993087361437698,147.9725257171734
10.088607744,0.9994865357127376,147.39208911897387
10.101265408,0.999688722401867,146.80921755625351
10.113924096,0.9999059377458289,146.22362893792877
10.126582784,1.000128625652115,145.63525857521336
10.139240448,1.0003466805022054,145.04404350613498
10.151899136,1.0005501419562481,144.45010460752798
10.1645568,1.0007298608311384,143.85368028582232
10.177215488,1.0008775452886685,143.25511020764117
10.189873152,1.0009861565017928,142.6548340325121
10.20253184,1.001050783650636,142.05331802520655
10.215189504,1.0010678666937893,141.45115907358812
10.227848192,1.0010368897909443,140.84892356575037
10.240505856,1.00095854156685,140.24718425331574
10.253164544,1.000836300339081,139.64654402825195
10.265823232,1.000675335185833,139.04746086960012
10.278480896,1.0004826139200476,138.45042547765283
10.291139584,1.0002667286095455,137.8557428932269
10.303797248,1.0000374467261548,137.2636671799409
10.316455936,0.9998047880398289,136.6743003552216
10.3291136,0.9995795220257674,136.08762648265213
10.341772288,0.9993717271219974,135.50352646744008
10.354429952,0.9991909795090957,134.9217176733086
10.36708864,0.9990457283837765,134.34185304104068
10.379747328,0.9989427662404867,133.76341751605986
10.392404992,0.9988869859860079,133.18590839539695
10.40506368,0.9988812617633013,132.60869609647446
10.417721344,0.9989261021418081,132.03120308846187
10.430380032,0.9990198254767113,131.452812679284
10.443037696,0.9991584581448816,130.87290542816194
10.455696384,0.9993359371706757,130.29100821017835
10.468354048,0.9995445790800156,129.70667901241666
10.481012736,0.999775056100607,129.11954538595694
10.4936704,1.0000169655749287,128.52947072749825
10.506329088,1.000259474243244,127.93630808920621
10.518987776,1.0004916637593135,127.34014949558454
10.53164544,1.0007029874362814,126.7411720282587
10.544304128,1.0008835615619565,126.13968597671042
10.556961792,1.0010251233528549,125.53608349966045
10.56962048,1.001121271011126,124.93093033154436
10.582278144,1.0011669025853918,124.3247638804763
10.594936832,1.0011599516128211,123.71822095825131
10.607594496,1.0011003596732893,123.1119602715344
10.620253184,1.000990486362039,122.50661331856405
10.632911872,1.000834819761715,121.90276382788984
10.645569536,1.0006401957453106,121.30092524418951
10.658228224,1.0004152570073515,120.70154957068814
10.670885888,1.0001698163866393,120.10495014236783
10.683544576,0.9999148317290779,119.51133031581018
10.69620224,0.9996619513832877,118.92072091110653
10.708860928,0.9994225615768021,118.33307874607276
10.721518592,0.9992075855987265,117.74817420928102
10.73417728,0.9990268970477059,117.16563878837312
10.746834944,0.9988890663093042,116.58502418206842
10.759493632,0.9988006196075634,116.00575628926089
10.77215232,0.9987657427008033,115.42724618433739
10.784809984,0.9987864718326325,114.8487822995307
10.797468672,0.9988624288942423,114.26970060246998
10.810126336,0.9989902227766616,113.68934650003851
10.822785024,0.9991646008911423,113.10710799773751
10.835442688,0.9993778259071451,112.52246254544872
10.848101376,0.9996206028473935,111.9349660966299
10.86075904,0.9998819469625188,111.34435176476447
10.873417728,1.0001503331227435,110.75039488801308
10.886076416,1.0004135789051103,110.15313761331588
10.89873408,1.0006596937317624,109.55266602073122
10.911392768,1.000877426204657,108.94928421050676
10.924050432,1.0010567496272753,108.34334452492432
10.93670912,1.0011893881896912,107.73541247971656
10.949366784,1.0012688778268324,107.12608003994686
10.962025472,1.0012913847083755,106.51600540350904
10.974683136,1.001255379021763,105.905883540681
10.987341824,1.0011621400996116,105.29642637535217
11.000000512,1.0010155145881898,104.68833713874207
11.012658176,1.0008216335571911,104.08222421871726
11.025316864,1.0005891202806765,103.47860667525242
11.037974528,1.0003279748534786,102.87792604593815
11.050633216,1.0000499345200335,102.28046273538925
