freq,mag,phase
6.0,0.9999323527732932,-5.815876924592206
6.02234624,0.9999298161479822,-6.5118675300571685
6.044692992,0.9999283961903364,-7.207865569289573
6.067039232,0.9999292184986032,-7.903924362191832
6.089385472,0.9999323293967434,-8.600041500126341
6.111731712,0.9999376059590082,-9.29624748973263
6.134078464,0.9999447941270826,-9.992587641111857
6.156424704,0.9999538275362144,-10.689048890296379
6.178770944,0.999964229497283,-11.385649015047582
6.201117184,0.9999756496061784,-12.08239342081853
6.223463936,0.9999879379306438,-12.77932785432832
6.245810176,1.0000004528856719,-13.47643538791199
6.268156416,1.0000128460684021,-14.173775591068969
6.290502656,1.0000246555363483,-14.871232026000909
6.312849408,1.0000355122990185,-15.568861008573588
6.335195648,1.0000449745073978,-16.266676294715463
6.357541888,1.0000527894620301,-16.964625298579055
6.379888128,1.0000586355463423,-17.66270117863528
6.40223488,1.0000622575851335,-18.360838763261818
6.42458112,1.0000637090542674,-19.059079895328477
6.44692736,1.0000627209696646,-19.757362552059174
6.4692736,1.0000594751232268,-20.45571638794852
6.491620352,1.000053871391492,-21.15397732314838
6.513966592,1.0000463595198434,-21.852312998158922
6.536312832,1.0000369937534328,-22.550578377588398
6.558659072,1.0000262900326848,-23.24877882004838
6.581005824,1.000014218585155,-23.946892366796593
6.603352064,1.0000016675348644,-24.64494327644019
6.625698304,0.9999888005985383,-25.3429218365336
6.648044544,0.9999760483106708,-26.040790513279763
6.670391296,0.9999638559137654,-26.738556349772853
6.692737536,0.9999526199478525,-27.4363030046536
6.715083776,0.9999430111229403,-28.133941460934597
6.737430016,0.9999349866410785,-28.831550402505236
6.759776768,0.9999291319398994,-29.529128813700275
6.782123008,0.9999253498530455,-30.226704018390606
6.804469248,0.999924067628592,-30.92431358084556
6.826815488,0.9999251616671531,-31.62194153722963
6.84916224,0.9999288019984569,-32.31962110258657
6.87150848,0.9999345971956548,-33.017422560336115
6.89385472,0.9999424768082017,-33.715386072381406
6.91620096,0.9999522308071115,-34.413454661163186
6.938547712,0.9999635562842456,-35.11170670945927
6.960893952,0.9999758113839353,-35.81008587146274
6.983240192,0.9999889235295912,-36.508701970160644
7.005586432,1.0000024309859754,-37.207466534498984
7.027933184,1.000015599397078,-37.906452010751195
7.050279424,1.000028248461916,-38.60562213611094
7.072625664,1.0000397085915564,-39.30494861420897
7.094971904,1.0000498238150488,-40.004454093390436
7.117318656,1.0000578901465336,-40.70412558576789
7.139664896,1.0000639900088515,-41.40389716428087
7.162011136,1.0000676594433346,-42.103800656092304
7.184357376,1.0000690401164378,-42.80372564074457
7.206704128,1.0000678508783307,-43.50376635077779
7.229050368,1.0000640915354961,-44.203786179994935
7.251396608,1.0000580363524116,-44.90385157364714
7.273742848,1.000049830079924,-45.603837529106215
7.2960896,1.000039570873009,-46.30383118525879
7.31843584,1.0000278905477407,-47.00374440312656
7.34078208,1.0000149279388142,-47.70357300945801
7.36312832,1.0000013737354896,-48.40330074923902
7.385475072,0.9999875178744202,-49.10292298755823
7.407821312,0.9999738934468658,-49.80247411311992
7.430167552,0.9999609786052582,-50.5018999457394
7.452513792,0.9999490373307722,-51.20129160113246
7.474860544,0.9999387818534001,-51.90058337235481
7.497206784,0.9999302900487446,-52.59983364961382
7.519553024,0.9999240953977582,-53.29905058977125
7.541899264,0.999920213868407,-53.99827475611127
7.564246016,0.9999190263480261,-54.697506469444555
7.586592256,0.9999204537443998,-55.396781564072825
7.608938496,0.9999243758796377,-56.096171155967575
7.631284736,0.9999308257353565,-56.795612173463276
7.653631488,0.9999395138978882,-57.4952228596173
7.675977728,0.9999500893668656,-58.194960509160154
7.698323968,0.9999623234471071,-58.89490544872574
7.720670208,0.9999758665186586,-59.594986568373244
7.74301696,0.9999899422796752,-60.295299620352196
7.7653632,1.0000043312451254,-60.99581392860339
7.78770944,1.0000184814927222,-61.69650835970682
7.81005568,1.0000320785111656,-62.3974142465524
7.832402432,1.0000442726192347,-63.09849661247045
7.854748672,1.0000549813467303,-63.79978236704664
7.877094912,1.0000637177959688,-64.50120456936251
7.899441152,1.0000699970504405,-65.20277719321507
7.921787904,1.00007399705643,-65.9044376336121
7.944134144,1.0000752156232324,-66.60617689333519
7.966480384,1.0000736874054785,-67.30797152085381
7.988826624,1.0000694918277628,-68.00977622083532
8.011173376,1.0000628847536717,-68.71159491263573
8.033519616,1.0000538636156988,-69.41338926372428
8.055865856,1.000042791161089,-70.11512431637297
8.078212096,1.0000300194964928,-70.81677764450218
8.100558848,1.0000160170858508,-71.51834148080681
8.122905088,1.0000013034872204,-72.21979206514737
8.145251328,0.9999862800553103,-72.92115284373943
8.167597568,0.9999715550191294,-73.62240509743626
8.18994432,0.9999576353044353,-74.32356636617257
8.21229056,0.999944836721467,-75.02461275394711
8.2346368,0.9999337900578777,-75.72557749792239
8.25698304,0.9999248536655061,-76.42648548282133
8.279329792,0.9999181687200758,-77.12736907277326
8.301676032,0.9999141479592332,-77.82825473611874
8.324022272,0.9999130170226602,-78.5291525121519
8.346368512,0.9999145663378435,-79.23008981283994
8.368715264,0.9999189266460863,-79.93114231990035
8.391061504,0.9999261575654986,-80.63227871733338
8.413407744,0.9999354948074894,-81.33355588146155
8.435753984,0.9999471245119764,-82.03500064724048
8.458100736,0.9999604048529023,-82.73660759009543
8.480446976,0.9999750548887533,-83.43845015325486
8.502793216,0.9999903386880707,-84.1404453115524
8.525139456,1.000005974144653,-84.84269779795586
8.547486208,1.000021316710399,-85.54514607930021
8.569832448,1.0000358812516912,-86.24783940740629
8.5921792,1.0000492032698318,-86.95069907530078
8.614524928,1.0000607098843233,-87.65375644233033
8.63687168,1.0000700489378336,-88.35696782969967
8.659217408,1.0000768566275675,-89.06032476948153
8.68156416,1.000080978970442,-89.76377670392228
8.703910912,1.0000822609841569,-90.46732718232165
8.72625664,1.000080569905803,-91.1709371935514
8.748603392,1.0000759289551446,-91.87452640800457
8.770950144,1.0000684957247834,-92.57815364916256
8.793295872,1.0000585420098884,-93.28172783647369
8.815642624,1.0000464884849467,-93.98521729017281
8.837988352,1.0000326605297924,-94.68864266240405
8.860335104,1.0000173294076646,-95.3919587169237
8.882681856,1.000001357588475,-96.09514891714302
8.905027584,0.9999850566519621,-96.79820761990746
8.927374336,0.9999689283387871,-97.50117092164777
8.949721088,0.999953867460139,-98.2040111320907
8.972066816,0.9999399855999925,-98.90673744813641
8.994413568,0.9999279439126242,-99.60938567334904
9.016759296,0.9999182390794871,-100.31195415580676
9.039106048,0.9999110922868532,-101.01449046782781
9.0614528,0.9999067548035282,-101.71702743057409
9.083798528,0.9999055641026947,-102.41956992708938
9.10614528,0.9999074201912427,-103.12216875512853
9.128492032,0.9999122344054707,-103.82484352970452
9.15083776,0.999919978613889,-104.52762823889304
9.173184512,0.999930345123554,-105.23054826728197
9.19553024,0.9999430608263032,-105.93364898505479
9.217876992,0.9999575651572626,-106.63694181030384
9.240223744,0.9999735074393542,-107.34045745377621
9.262569472,0.999990248346679,-108.04416505568274
9.284916224,1.000007375370904,-108.74814587420718
9.307262976,1.0000240968164245,-109.45232093102955
9.329608704,1.000039934860142,-110.15673626280014
9.351955456,1.0000544361001809,-110.86137350090928
9.374301184,1.0000669559507016,-111.56617520043413
9.396647936,1.000077119509132,-112.2711609813498
9.418994688,1.0000845793726987,-112.97629521611768
9.441340416,1.0000890538078928,-113.68154229811806
9.463687168,1.0000903601458893,-114.38689544819329
9.48603392,1.0000883817807589,-115.09227994609968
9.508379648,1.0000832493270868,-115.79766152470505
9.5307264,1.0000751567891912,-116.50306518852703
9.553072128,1.0000642925867889,-117.20837338332998
9.57541888,1.0000510305317665,-117.91361128061192
9.597765632,1.0000357784462268,-118.61877840453526
9.62011136,1.000019096034901,-119.32381450059665
9.642458112,1.0000014940408462,-120.02872187947779
9.664804864,0.9999836103476127,-120.73348231733023
9.687150592,0.9999660616594338,-121.43809707493713
9.709497344,0.999949433706859,-122.14258403040577
9.731843072,0.9999342401420147,-122.84695356121654
9.754189824,0.9999210649876028,-123.55119083445345
9.776536576,0.9999104255063219,-124.25537972763048
9.798882304,0.9999025780173287,-124.95952335064604
9.821229056,0.999897906183653,-125.66361809850605
9.843575808,0.9998964844057792,-126.36773495460214
9.865921536,0.9998984502222371,-127.07191800912285
9.888268288,0.9999038036334857,-127.77616604990595
9.910614016,0.9999123803265318,-128.48054993611424
9.932960768,0.9999237197408788,-129.18506868688473
9.95530752,0.9999375783110267,-129.88976035941516
9.977653248,0.9999535374346249,-130.594677542661
10.0,0.9999710610234938,-131.29981315018543
10.022346752,0.9999894445157916,-132.00517835198238
10.04469248,1.0000082177285843,-132.7107967670896
10.067039232,1.0000266337739037,-133.41665207738302
10.089385984,1.000044116949773,-134.1227426071952
10.111731712,1.0000600245540907,-134.8290758016675
10.134078464,1.0000738542713774,-135.5355934784099
10.156424192,1.0000850568657185,-136.24231158193166
10.178770944,1.000093287555616,-136.94918457923544
10.201117696,1.0000981654350585,-137.6561511576566
10.223463424,1.000099691349824,-138.3632295540692
10.245810176,1.0000975587042962,-139.07036913354014
10.268156928,1.0000919825503738,-139.7774907990505
10.290502656,1.0000830822156113,-140.4845901630181
10.312849408,1.0000710881831159,-141.19162520803718
10.335195136,1.0000564802306156,-141.89858031333586
10.357541888,1.000039762477692,-142.60541118905255
10.37988864,1.0000212805243915,-143.31208507977664
10.402234368,1.0000019410217353,-144.01863593751395
10.42458112,0.9999822323341995,-144.72501097196167
10.446927872,0.9999627379128657,-145.43122050001375
10.4692736,0.9999443566292188,-146.13728163439885
10.491620352,0.9999275471018975,-146.84319673460837
10.51396608,0.9999129489659632,-147.54897408455884
10.536312832,0.9999010642667733,-148.25466389123144
10.558659584,0.9998923659595569,-148.96031307041773
10.581005312,0.9998870390859871,-149.66590933698
10.603352064,0.9998854542806834,-150.3714940769969
10.625698816,0.9998875886451856,-151.0771570804316
10.648044544,0.9998933590343129,-151.78287797391496
10.670391296,0.9999026557109537,-152.48873908603
10.692737024,0.9999151860152997,-153.19474362645434
10.715083776,0.9999305288984374,-153.90095540962903
10.737430528,0.9999481688238773,-154.60737556742686
10.759776256,0.9999674714217587,-155.31401932234917
10.782123008,0.999987927800791,-156.02092038251453
10.80446976,1.0000086888270763,-156.72809997244389
10.826815488,1.0000291578362024,-157.43552890658907
10.84916224,1.0000485457373525,-158.1432281813934
10.871507968,1.0000662250035606,-158.85116822857015
10.89385472,1.0000817212881512,-159.55932952999595
10.916201472,1.000094242566126,-160.26767762366953
10.9385472,1.0001034647957812,-160.97620893672405
10.960893952,1.0001091079178304,-161.68485407394377
10.983240704,1.000110822902765,-162.3935754323362
11.005586432,1.0001086146589968,-163.1023526644569
11.027933184,1.000102642954762,-163.81112617249755
11.050278912,1.0000927981354586,-164.51987550151026
11.072625664,1.0000795922834205,-165.2285429324073
11.094972416,1.0000634276973819,-165.9371049318747
11.117318144,1.0000448445565968,-166.64552175078512
11.139664896,1.0000244447279243,-167.3537676207777
11.162011648,1.0000029041011944,-168.0618644407548
11.184357376,0.9999808959089375,-168.7697433140108
11.206704128,0.9999592361916949,-169.47745038452587
11.229049856,0.9999386587104757,-170.18496160716978
11.251396608,0.9999198741917457,-170.8923079973616
11.27374336,0.9999034861930408,-171.59951486562247
11.296089088,0.999890161343374,-172.30660444783146
11.31843584,0.99988019471181,-173.01360127405025
11.340782592,0.9998741334055058,-173.72055416064535
11.36312832,0.9998721418686939,-174.42750160897492
11.385475072,0.9998743272755087,-175.13448899771973
11.4078208,0.9998805829329054,-175.84155701296433
11.430167552,0.9998908151981424,-176.5487492501701
11.452514304,0.9999046070696656,-177.2560899124802
11.474860032,0.9999217427769599,-177.9636670807119
11.497206784,0.9999412140217021,-178.67145678477482
11.519553536,0.9999628526801463,-179.37950974454066
11.541899264,0.999985677566398,179.91217504149586
11.564246016,1.0000088702630847,179.20357218188965
11.586591744,1.0000317852495642,178.49466692562174
11.608938496,1.00005372480723,177.7855050392213
11.631285248,1.0000736877872913,177.07606512735248
11.653630976,1.0000909544445085,176.36638723788852
11.675977728,1.0001052193890325,175.65651229662024
11.69832448,1.0001158631507678,174.9464500900227
11.720670208,1.0001223483229462,174.2362442659566
11.74301696,1.0001245733204385,173.5259567184342
11.765362688,1.0001223766408793,172.81561201084767
11.78770944,1.0001157958690767,172.10528090870187
11.810056192,1.000105080037015,171.3950117395083
11.83240192,1.0000904438567348,170.68482009581928
11.854748672,1.0000724907202245,169.97475949754133
11.877095424,1.0000516354073545,169.2648465957682
11.899441152,1.0000288424247383,168.55515581484363
11.921787904,1.0000046420241753,167.8456448933626
11.944133632,0.9999797883320426,167.1363732599337
11.966480384,0.9999554806056713,166.42730793940785
11.988827136,0.9999321916792594,165.71847322497888
12.011172864,0.9999107930643623,165.00982657103393
12.033519616,0.9998922183172457,164.30136878703277
12.055866368,0.9998769538683207,163.59306515979185
12.078212096,0.9998655434730627,162.8848503059473
12.100558848,0.9998584066163541,162.17671138134548
12.122904576,0.9998558140544307,161.46858547070224
12.145251328,0.9998580267312596,160.76043853719065
12.16759808,0.9998648670545957,160.05218797896808
12.189943808,0.9998760883305163,159.34384660202699
12.21229056,0.9998914993178502,158.6353201104333
12.234637312,0.9999104468617442,157.9265603788166
12.25698304,0.9999324743521358,157.21756404037853
12.279329792,0.9999568063049112,156.5082888778382
12.30167552,0.9999825246839676,155.79871048561017
12.324022272,1.0000088438841133,155.0888257955068
12.346369024,1.000034864565582,154.3786246965288
12.368714752,1.0000596890172682,153.66812321408946
12.391061504,1.00008251665895,152.9573269057939
12.413408256,1.0001024484137517,152.24624627999543
12.435753984,1.0001189197362894,151.53494314003785
12.458100736,1.0001312404900797,150.82346805500603
12.480446464,1.0001389548212936,150.11183213001576
12.502793216,1.000141918238943,149.40009841863503
12.525139968,1.0001397309073836,148.68831933295218
12.547485696,1.0001325828657954,147.9765496298539
12.569832448,1.0001207688905258,147.2648410231174
12.5921792,1.0001044597649222,146.55323183182432
12.614524928,1.000084289790206,145.84178953650857
12.63687168,1.0000607902283032,145.13053703311914
12.659217408,1.000035033783114,144.41951039076852
12.68156416,1.0000074582375953,143.70872461746808
12.703910912,0.9999793447722601,142.9981914846315
12.72625664,0.9999513640196007,142.28793568276961
12.748603392,0.999924723900537,141.57793640366322
12.770950144,0.9999001899722383,140.86816936654753
12.793295872,0.9998785871221577,140.15862449226478
12.815642624,0.9998608946714655,139.4492619956784
12.837988352,0.999847342654813,138.74004307527395
12.860335104,0.9998389497960026,138.0309007777938
12.882681856,0.9998356139996486,137.32180286327468
12.905027584,0.9998376517558779,136.6126920338232
12.927374336,0.9998450301998619,135.9035098495219
12.949721088,0.999857620450181,135.1941712160534
12.972066816,0.9998749568743759,134.4846701123465
12.994413568,0.9998962953556387,133.7749189846996
13.016759296,0.999921321525315,133.06491090107775
13.039106048,0.9999490325325736,132.3545852218208
13.0614528,0.9999785575423057,131.6439462779149
13.083798528,1.000008814841106,130.93294157191443
13.10614528,1.0000387954205905,130.22159784182537
13.128492032,1.0000675712785594,129.50988831511683
13.15083776,1.000093985581449,128.7978813850866
13.173184512,1.0001173989110705,128.08555834742978
13.19553024,1.0001366768781303,127.3729969442471
13.217876992,1.0001513597661775,126.6601874701909
13.240223744,1.0001608435253702,125.94722507017435
13.262569472,1.000164619502368,125.23414853438872
13.284916224,1.0001627892173228,124.5210389555536
13.307262976,1.0001550055498576,123.80792928362348
13.329608704,1.0001417642523414,123.09489928939084
13.351955456,1.0001234583932588,122.38199788795156
13.374301184,1.0001003704888516,121.66928454484686
13.396647936,1.0000736533604802,120.95679092091584
13.418994688,1.0000439187019434,120.24457225714556
13.441340416,1.000012163536739,119.53264916647785
13.463687168,0.9999796193820119,118.8210248310843
13.48603392,0.9999470719166316,118.10972669908314
13.508379648,0.9999160305896241,117.39872906939864
13.5307264,0.9998872439511178,116.68803076941693
13.553072128,0.9998618862049269,115.97759202890502
13.57541888,0.9998407951656776,115.26738233466624
13.597765632,0.9998246238457339,114.55735810828622
13.62011136,0.9998141532668726,113.84744141973468
13.642458112,0.9998097815309646,113.13758585017051
13.664804864,0.9998115392401014,112.42773692733641
13.687150592,0.9998196309070233,111.7178057571782
13.709497344,0.9998336584833206,111.00773871762931
13.731843072,0.9998533706788152,110.29748939950059
13.754189824,0.9998780602238637,109.58696410308296
13.776536576,0.9999069624722133,108.87615233961185
13.798882304,0.9999390625578339,108.16498817845722
13.821229056,0.9999735322161518,107.45344102240001
13.843575808,1.0000089619817878,106.74151978773143
13.865921536,1.0000441746007689,106.02918204612297
13.888268288,1.0000781655584456,105.31645351020329
13.910614016,1.0001096940669927,104.60334177959916
13.932960768,1.0001374972036046,103.88989521655476
13.95530752,1.000160831832215,103.17613711662665
13.977653248,1.0001786416029559,102.46213010670601
14.0,1.0001903988248098,101.74793399506571
