freq,mag,phase
6.0,1.000557099196422,72.78648893555192
6.002285056,1.000396160814315,72.620497724455
6.004570112,1.0002100694931442,72.45703385795802
6.006855168,1.0000107595180883,72.29636759120656
6.009140224,0.9998105871417708,72.1386048989478
6.01142528,0.9996223515343655,71.98366897748272
6.013710336,0.9994577939630024,71.8313069608053
6.015995392,0.9993274126467833,71.68110598019355
6.018280448,0.9992394894326256,71.53248164099074
6.020565504,0.9991995633927929,71.3848042605937
6.02285056,0.9992101623668737,71.23733743948321
6.025135616,0.9992707010729357,71.08938357806322
6.027420672,0.9993772306416239,70.9402174145619
6.029705728,0.999523172629728,70.78920322436196
6.031990784,0.9996991942012414,70.63587223471029
6.03427584,0.9998942718898998,70.47984483832971
6.036560896,1.0000960972055897,70.32095373746436
6.038845952,1.0002918340853177,70.15918466547016
6.041131008,1.0004692063026466,69.99470797502411
6.043416064,1.0006170295531056,69.82788715335164
6.04570112,1.0007258633933995,69.65921970078223
6.047986176,1.0007890396616033,69.48929210524885
6.050271232,1.0008024873803019,69.31883380987685
6.052556288,1.000765202182077,69.14852815981125
6.054841344,1.0006796601635608,68.97912664700691
6.0571264,1.0005512164074255,68.81128372554397
6.059411456,1.0003879648716205,68.64554658047395
6.061696512,1.0002001828648086,68.4823589103161
6.063981568,0.9999995288656431,68.32200688635106
6.066266624,0.9997989086371073,68.16454410959284
6.06855168,0.9996109100222874,68.00992211400781
6.070836736,0.9994473884645174,67.85785213698675
6.073121792,0.9993186417853706,67.70791818547379
6.075406848,0.9992329452534036,67.55954546307461
6.077691904,0.9991956691256125,67.41208058668099
6.07997696,0.9992090976289422,67.26478114577512
6.082262016,0.9992725447973101,67.1169236261563
6.084547072,0.9993819496255603,66.96783815842198
6.086832128,0.9995303548505989,66.8168754909709
6.089117184,0.9997084824686019,66.66354383905495
6.09140224,0.9999050329862291,66.50746308664155
6.093687296,1.0001076230317327,66.3485435889176
6.095972352,1.0003035141411931,66.18669511561433
6.098257408,1.0004802345079422,66.02217451536703
6.100542464,1.000626624911173,65.85531518500656
6.10282752,1.000733570905433,65.68659798472802
6.105112576,1.000794301195938,65.51668419457694
6.107397632,1.0008048433982375,65.3462563146562
6.1096832,1.0007647067326413,65.1760409501702
6.111968256,1.0006763039603535,65.00674436853912
6.114253312,1.0005451069492044,64.83906125415236
6.116538368,1.0003795098336672,64.67351131853495
6.118823424,1.0001898845906274,64.51054513413507
6.12110848,0.9999881407321527,64.35041928408098
6.123393536,0.9997871007050462,64.19321451807436
6.125678592,0.9995993827620604,64.03882444825938
6.127963648,0.9994368524217492,63.88700097496922
6.130248704,0.9993097667370562,63.73726339279994
6.13253376,0.9992262999694724,63.58905744585187
6.134818816,0.99919165160815,63.441735417544514
6.137103872,0.9992079999685689,63.294531140460364
6.139388928,0.9992743793286575,63.146733791756915
6.141673984,0.9993866472129245,62.997643066672715
6.14395904,0.9995376200113137,62.846626738776216
6.146244096,0.9997178103125798,62.69322137020615
6.148529152,0.9999158622210319,62.5370635595505
6.150814208,1.0001192677981063,62.377998924519574
6.153099264,1.0003151733042468,62.21603891788787
6.15538432,1.0004911417832438,62.05138248974423
6.157669376,1.0006362228968704,61.884390173098566
6.159954432,1.0007411850975552,61.71559157679919
6.162239488,1.0007994162494833,61.54561521897816
6.164524544,1.000807194297018,61.37513806567746
6.1668096,1.0007640733549508,61.20494571600701
6.169094656,1.0006726604848495,61.035709081562715
6.171379712,1.0005387771824152,60.86809310494185
6.173664768,1.0003708908550233,60.70267870588127
6.175949824,1.000179405290946,60.53984519760133
6.17823488,0.9999765713487289,60.379882849603625
6.180519936,0.9997750794272259,60.22286245390472
6.182804992,0.9995876622274819,60.06865961780088
6.185090048,0.9994262453567312,59.91696794189399
6.187375104,0.9993009101544819,59.76739048819407
6.18966016,0.9992197034398728,59.61929644167015
6.191945216,0.9991877291772993,59.47202715674191
6.194230272,0.9992070885983985,59.324860182406546
6.196515328,0.9992764142530423,59.17702674850971
6.198800384,0.9993914942544373,59.02785019587741
6.20108544,0.9995450590880742,58.876749303955414
6.203370496,0.9997273287174214,58.72319577969903
6.205655552,0.9999268793352787,58.56687899862008
6.207940608,1.0001309609411102,58.40760495281346
6.210225664,1.000326921144244,58.24542645444869
6.21251072,1.0005022624772875,58.0805864889926
6.214795776,1.000645959837731,57.91340581042662
6.217080832,1.000748809734588,57.74445473899279
6.219365888,1.0008045203946425,57.57434197874444
6.221650944,1.0008095218938435,57.403783722680494
6.223936,1.0007633736620545,57.2335169176908
6.226221056,1.0006689972970138,57.064262419086084
6.228506112,1.0005324561773257,56.896666836420714
6.230791168,1.0003622829454364,56.73130382317001
6.233076224,1.0001690447424794,56.568536157528015
6.23536128,0.9999651240810359,56.40869525267442
6.237646336,0.9997631821231278,56.25176013678681
6.239931392,0.999576127293437,56.0976488262445
6.242216448,0.9994158396867673,55.94607735606501
6.244501504,0.9992922589304348,55.79655425678034
6.24678656,0.9992132907175085,55.648493442688704
6.249071616,0.9991840799167364,55.501220621946246
6.251356672,0.9992062939502088,55.35399632439978
6.253641728,0.9992786777977698,55.206076808059294
6.255926784,0.9993967003553068,55.056777185170006
6.25821184,0.9995527041471752,54.90547984958384
6.260496896,0.9997370781489661,54.75171363615884
6.262781952,0.9999379634475609,54.59514977695508
6.265067008,1.000142898639126,54.43561807128925
6.267352064,1.0003387776544392,54.27319399227873
6.26963712,1.0005133292050152,54.10804649825273
6.271922176,1.0006556062297567,53.940641311929234
6.274207232,1.000756394588338,53.77143211534557
6.276492288,1.0008095950389333,53.601111159653506
6.278777344,1.0008116727373484,53.430391731892804
6.2810624,1.000762578464325,53.25999079451851
6.283347456,1.0006653175899407,53.090665122337406
6.285632512,1.0005260842417545,52.92302798151518
6.287917568,1.000353503654742,52.75764594156031
6.290202624,1.0001585729184448,52.594917318670916
6.29248768,0.9999535369350955,52.43508263540013
6.294772736,0.9997513478517523,52.278173479337845
6.297057792,0.9995646716632205,52.12411738673031
6.299342848,0.9994053939623954,51.97255336079024
6.301627904,0.9992837270896008,51.82302231515324
6.30391296,0.9992070907860183,51.674927033247094
6.306198016,0.9991805732610312,51.52759778711538
6.308483072,0.9992058002703366,51.38024707436512
6.310768128,0.9992811595242063,51.23216062205026
6.313053184,0.9994019741098841,51.08266010969252
6.31533824,0.9995605254564192,50.93109364246007
6.317623296,0.9997468979483263,50.77704955587146
6.319908352,0.9999492963376768,50.6201509255443
6.322193408,1.000154860727919,50.46029187253524
6.324478976,1.00035073561694,50.29752580034271
6.326764032,1.0005244570064946,50.13206750034407
6.329049088,1.000665160007455,49.96430858305171
6.331334144,1.00076402712953,49.794811268563215
6.3336192,1.0008146355718075,49.62423074704181
6.335904256,1.0008138790339307,49.453269607550176
6.338189312,1.0007617009197216,49.282682105929936
6.340474368,1.0006615212157872,49.11319071168378
6.342759424,1.0005195663006903,48.945451010951594
6.34504448,1.000344671517561,48.77997530234846
6.347329536,1.00014803817161,48.61718416673111
6.349614592,0.9999419414955,48.45731843532995
6.351899648,0.9997393486207247,48.300390234160666
6.354184704,0.9995531818682635,48.146279816891216
6.35646976,0.9993950302827632,47.9946760907001
6.358754816,0.9992751213428991,47.84508988975089
6.361039872,0.9992008236301668,47.696883476441194
6.363324928,0.9991770609397742,47.54938114238456
6.365609984,0.9992052646356423,47.40186772083638
6.36789504,0.9992836049670182,47.253542274142895
6.370180096,0.9994072505367639,47.103757327041635
6.372465152,0.9995683424902506,46.95188622414991
6.374750208,0.9997566647348077,46.797469536278875
6.377035264,0.9999604867698232,46.640199479273825
6.37932032,1.0001667892822006,46.479932424577605
6.381605376,1.000362596928188,46.31674347313829
6.383890432,1.0005354946200244,46.150872109893484
6.386175488,1.0006746849909698,45.98274042405997
6.388460544,1.0007713414543453,45.81288143697976
6.3907456,1.0008194211888182,45.64195467223632
6.393030656,1.0008157889554308,45.470690722591264
6.395315712,1.000760655333775,45.29984329549739
6.397600768,1.0006574834272035,45.13012495797664
6.399885824,1.0005127486621386,44.96218131499593
6.40217088,1.0003357492946874,44.79658166908085
6.404455936,1.0001372981715162,44.63367121516641
6.406740992,0.9999301454105464,44.47367601610392
6.409026048,0.9997272488499871,44.3166643156387
6.411311104,0.9995415419806287,44.16245655778839
6.41359616,0.9993845678121409,44.0107369537138
6.415881216,0.9992664434090274,43.860998787326665
6.418166272,0.999194522722677,43.71261868995668
6.420451328,0.9991734817485671,43.56490787763823
6.422736384,0.9992046459196982,43.41713346610648
6.42502144,0.999286048190152,43.2685043014681
6.427306496,0.99941250125373,43.11836238327349
6.429591552,0.9995760357594138,42.96610903201505
6.431876608,0.9997663939029654,42.811269177601574
6.434161664,0.9999715957390024,42.6535463594453
6.43644672,1.0001785800012153,42.49281296432817
6.438731776,1.0003742868750443,42.32912872128137
6.441016832,1.0005464466307048,42.16279806571663
6.443301888,1.000684099399647,41.99419319782581
6.445586944,1.0007786963902332,41.82390353674171
6.447872,1.0008241623292609,41.652576160643015
6.450157056,1.0008176580415982,41.480937813409014
6.452442112,1.0007595506964675,41.30976658990228
6.454727168,1.0006534636894617,41.13976961207232
6.457012224,1.0005062187079845,40.97158102300996
6.45929728,1.0003268285754399,40.805743635887396
6.461582336,1.0001267437013166,40.642641505399546
6.463867392,0.999918526062843,40.482483352218594
6.466152448,0.9997153529341762,40.32529804058381
6.468437504,0.9995301067725588,40.170922619914606
6.47072256,0.9993743217354976,40.019000915118944
6.473007616,0.9992580910049739,39.86904203857216
6.475292672,0.999188561317912,39.72042554524949
6.477577728,0.9991702240314413,39.572444393441316
6.479862784,0.9992042966707633,39.4243287684777
6.48214784,0.9992886652703699,39.275309152208905
6.484432896,0.9994179535976628,39.1247651726835
6.486717952,0.9995839866679738,38.972046508858355
6.489003008,0.9997762780850233,38.81671191627797
6.491288064,0.9999827940518952,38.65845939336329
6.49357312,1.000190347406716,38.49718806586689
6.495858176,1.0003859769126804,38.33296247422314
6.498143232,1.000557283550056,38.16609500559432
6.500428288,1.0006934716347422,37.996966404398854
6.502713344,1.0007859265918124,37.82616013146355
6.5049984,1.0008288025369256,37.654366733371454
6.507283456,1.0008194509341202,37.48229743372159
6.509568512,1.0007583815627905,37.31071867778468
6.511853568,1.0006494310216076,37.140361735837864
6.514138624,1.0004994378404226,36.97185497056952
6.51642368,1.0003178669837012,36.80573542286995
6.518708736,1.0001161038299198,36.64237161411236
6.520993792,0.9999069274998393,36.48197213416701
6.523278848,0.9997034984656608,36.32455021441337
6.525563904,0.9995186929926505,36.169919547770505
6.52784896,0.9993641203675162,36.01775758057021
6.530134016,0.9992496934203003,35.86750936521366
6.532419072,0.9991824990261579,35.71859048767848
6.534704128,0.9991669327360011,35.57023681065107
6.536989184,0.9992040301127817,35.42172868832112
6.53927424,0.999291325925726,35.27228942857432
6.541559808,0.9994233878327933,35.12125008234975
6.543844864,0.9995918386911404,34.967991388103435
6.54612992,0.9997861032659926,34.81206957088098
6.548414976,0.9999939275141073,34.65325454093533
6.550700032,1.0002021004913977,34.4913692713713
6.552985088,1.0003976497347147,34.32654725097202
6.555270144,1.0005680514188968,34.1590557486963
6.5575552,1.0007026849745537,33.989336961969805
6.559840256,1.000793062850018,33.81795347821473
6.562125312,1.00083338956549,33.64562892151384
6.564410368,1.0008211079291893,33.473048086832584
6.566695424,1.0007571031481093,33.30102015764435
6.56898048,1.000645265134654,33.130240535596194
6.571265536,1.0004926565781451,32.96134972592988
6.573550592,1.0003088348925462,32.79488069414457
6.575835648,1.0001055001881962,32.63116958979023
6.578120704,0.9998953692477672,32.470460917496226
6.58040576,0.9996917301103414,32.31273104127191
6.582690816,0.9995073956812072,32.157804791559975
6.584975872,0.9993539940892956,32.005292649756775
6.587260928,0.9992413476593346,31.85472191332396
6.589545984,0.9991765798656799,31.7053986792814
6.59183104,0.9991637850914011,31.556631759833028
6.594116096,0.9992036992711253,31.407654025976477
6.596401152,0.999294009870026,31.257694007597664
6.598686208,0.9994287705513353,31.106090057924927
6.600971264,0.9995996770429156,30.95223913310173
6.60325632,0.9997958677150394,30.795696890742644
6.605541376,1.0000049792422583,30.636213835120337
6.607826432,1.0002137179045558,30.473645497686274
6.610111488,1.0004091421410508,30.308160461701014
6.612396544,1.000578707317133,30.139987146937717
6.6146816,1.0007118354030766,29.96960560027348
6.616966656,1.0008000281709462,29.797595403606362
6.619251712,1.0008378787291028,29.624652634822798
6.621536768,1.000822814538943,29.451521603872035
6.623821824,1.0007557562675589,29.27894088423173
6.62610688,1.0006411258393453,29.10768953767335
6.628391936,1.0004859125566403,28.93832537016409
6.630676992,1.0002999841505158,28.771440298700398
6.632962048,1.0000950364466128,28.607353251912418
6.635247104,0.9998839173305788,28.446247175674582
6.63753216,0.9996799953908196,28.288141633464825
6.639817216,0.9994961973195234,28.132828520288875
6.642102272,0.9993440536340888,27.979944426918216
6.644387328,0.9992333021741069,27.828922345020093
6.646672384,0.9991708569975757,27.67915948748138
6.64895744,0.999160727819686,27.529902201872464
6.651242496,0.9992035247099363,27.38037135121606
6.653527552,0.99929671864657,27.229833314921876
6.655812608,0.9994342340373937,27.077605773814604
6.658097664,0.9996075235972887,26.923094531259338
6.66038272,0.9998056623450713,26.765864885227053
6.662667776,1.0000159927583632,26.60564860120283
6.664952832,1.0002254187973891,26.44235747380078
6.667237888,1.0004206132443916,26.276103820493443
6.669522944,1.000589323707889,26.107210990486127
6.671808,1.0007209138048485,25.936081374113712
6.674093056,1.00080706754698,25.763378264821025
6.676378112,1.0008422903191145,25.58975670869143
6.678663168,1.0008244079067559,25.41599807659274
6.680948224,1.00075448760009,25.242824014486434
6.68323328,1.0006370501753883,25.070996174308124
6.685518336,1.0004792307099533,24.901144121957874
6.687803392,1.0002911874986002,24.733748550989695
6.690088448,1.0000845678235544,24.56919254067713
6.692373504,0.9998725752374346,24.40764339350171
6.69465856,0.999668406575654,24.249080196991393
6.696943616,0.9994851129682474,24.09332796373071
6.699228672,0.9993342270360273,23.939967630313376
6.701513728,0.9992252243191994,23.788468998300825
6.703798784,0.9991651660201174,23.638181796027208
6.70608384,0.9991577474825853,23.48835081695809
6.708368896,0.9992034744233576,23.338228970075345
6.710653952,0.9992994968657151,23.18705322929823
6.712939008,0.999439715532634,23.03413464774143
6.715224064,0.9996153374366001,22.878871924304768
6.71750912,0.9998153080197859,22.7208903353002
6.719794176,1.0000269279717233,22.55986465439931
6.722079232,1.0002369194787244,22.395774565072774
6.724364288,1.000431968749925,22.228719351058228
6.726649344,1.0005998852587619,22.059003867787474
6.7289344,1.0007298765486101,21.887094620767854
6.731219456,1.0008138962467463,21.713627503383577
6.733504512,1.000846617657067,21.539264779065483
6.735789568,1.0008260530595097,21.364789886669435
6.738074624,1.0007532675277317,21.190979123108665
6.74035968,1.000632965817258,21.018520613762714
6.742644736,1.0004727194022718,20.84806078316364
6.744929792,1.000282488606327,20.680093588627958
6.747214848,1.0000743133450722,20.515015585920256
6.749499904,0.9998613656714646,20.352956899110776
6.75178496,0.9996570320124176,20.193875160536315
6.754070016,0.9994742390604024,20.037591940652256
6.756355072,0.9993245620046088,19.883705674869333
6.75864064,0.9992173689223968,19.73165786878516
6.760925696,0.999159539135907,19.58077216613308
6.763210752,0.9991547009405765,19.430330091483913
6.765495808,0.9992032949717259,19.27952612028026
6.767780864,0.9993021292396344,19.127628624380833
6.77006592,0.9994449530338282,18.973949526900245
6.772350976,0.99962301317169,18.817905115005104
6.774636032,0.999824838629092,18.659066465899826
6.776921088,1.000037630877025,18.49721789805199
6.779206144,1.000248178018015,18.332250707073765
6.7814912,1.0004431270798935,18.164312966504575
6.783776256,1.0006101041683428,17.99374180896929
6.786061312,1.000738572952783,17.82098072142881
6.788346368,1.0008206582822001,17.64666740637584
6.790631424,1.0008509514976858,17.471531293588527
6.79291648,1.0008275886693585,17.296277991666663
6.795201536,1.0007520018427976,17.121731184827816
6.797486592,1.0006289001037185,16.948580698952338
6.799771648,1.0004661433612276,16.77744911799876
6.802056704,1.0002738789696815,16.608891967817733
6.80434176,1.0000642038548302,16.443184967501054
6.806626816,0.9998504016619897,16.28053849172239
6.808911872,0.9996458457810745,16.12088904071168
6.811196928,0.9994634707440965,15.964015060924845
6.813481984,0.9993149094284979,15.809529400774018
6.81576704,0.999209633799804,15.656833778157802
6.818052096,0.9991540866017083,15.505285815306925
6.820337152,0.9991517794455054,15.354151126787224
6.822622208,0.9992032183711469,15.202620547655632
6.824907264,0.999304781733548,15.049933734507366
6.82719232,0.99945030749912,14.89542799046123
6.829477376,0.9996305894873642,14.738538430408118
6.831762432,0.9998341549459736,14.57880835266217
6.834047488,1.000048272883011,14.416020935510362
6.836332544,1.0002593159692996,14.25013956255237
6.8386176,1.0004540736126153,14.08126583795722
6.840902656,1.0006202313284716,13.909744581466763
6.843187712,1.0007473066967982,13.73606837777471
6.845472768,1.0008273221950743,13.560874337835052
6.847757824,1.0008551952900078,13.38485889696747
6.85004288,1.0008291185556442,13.208773539349727
6.852327936,1.0007507721892288,13.033424203614816
6.854612992,1.0006250102379468,12.859522971253185
6.856898048,1.0004597808957953,12.687679443853192
6.859183104,1.0002655109136573,12.518394291242888
6.86146816,1.0000543409305647,12.352044189779846
6.863753216,0.9998396173393946,12.188738556254485
6.866038272,0.9996348711425902,12.028436297639145
6.868323328,0.9994530459284886,11.870907161061016
6.870608384,0.9993056153586465,11.715743514036179
6.87289344,0.9992019287464151,11.562368728068115
6.875178496,0.9991485928813182,11.410108369414964
6.877463552,0.9991488992330512,11.258192374982439
6.879748608,0.9992030964253125,11.105844029944263
6.882033664,0.9993074265569382,10.9523156963017
6.88431872,0.999455495100758,10.796916231765993
6.886603776,0.9996379473278747,10.639098507103654
6.888888832,0.9998433291786963,10.478432741221944
6.891173888,1.0000585793076122,10.31467200989171
6.893458944,1.0002702607474923,10.147790208432877
6.895744,1.0004648320523055,9.977910192818857
6.898029056,1.0006301886126496,9.805386191326852
6.900314112,1.0007558478293606,9.630745881090158
6.902599168,1.0008338002474475,9.4545861463338
6.904884224,1.0008593607036456,9.277627676977556
6.90716928,1.0008306700350051,9.100661087966357
6.909454336,1.0007495669351387,8.924457225411679
6.911739392,1.0006211497197566,8.749717837341208
6.914024448,1.0004535838673154,8.577089249461835
6.916309504,1.0002572392606008,8.407057045243137
6.91859456,1.000044620913695,8.239949641563802
6.920879616,0.9998289489762153,8.075931798091002
6.923164672,0.9996239404094557,7.914896412371173
6.925449728,0.9994426786655645,7.756643451548414
6.927734784,0.9992963672563794,7.600747341983929
6.93001984,0.9991943736947528,7.4466042837881625
6.932304896,0.9991431322772157,7.293540700607989
