freq,mag,phase
6.0,0.9996085409083859,39.09993737754881
6.002285056,0.9996061207031499,38.93893559448132
6.004570112,0.9996288638131864,38.77774818843427
6.006855168,0.999675247795547,38.61600667387579
6.009140224,0.9997423963870686,38.453397962497405
6.01142528,0.9998261723327776,38.289632371092935
6.013710336,0.9999210339973642,38.124548648087135
6.015995392,1.0000213072340285,37.95798080237871
6.018280448,1.0001204820696246,37.789923172613086
6.020565504,1.0002123765670847,37.62042892757718
6.02285056,1.0002912246469684,37.44965727933961
6.025135616,1.0003520340041145,37.277818263956846
6.027420672,1.0003909067801644,37.105193089196554
6.029705728,1.0004053892944857,36.93214052808078
6.031990784,1.0003946324001431,36.75900950226078
6.03427584,1.0003591912168401,36.58613643106571
6.036560896,1.0003014002728234,36.41391569553175
6.038845952,1.0002248243895073,36.2426035990058
6.041131008,1.0001341441364078,36.07245251403873
6.043416064,1.00003527968106,35.9036224837053
6.04570112,0.9999342858304788,35.736174090958
6.047986176,0.9998377045441526,35.5701180845023
6.050271232,0.9997514591261102,35.40533134479015
6.052556288,0.9996810807567432,35.24164882964145
6.054841344,0.9996309839228877,35.07876752433598
6.0571264,0.9996043942362215,34.91640388871105
6.059411456,0.9996030096305594,34.75418143140881
6.061696512,0.999626860827819,34.59176044140489
6.063981568,0.9996744642227652,34.42874749653578
6.066266624,0.999742980117991,34.26485812937172
6.06855168,0.9998278731667988,34.09979172710287
6.070836736,0.9999240017612789,33.93336532434849
6.073121792,1.0000251408856022,33.76544387824177
6.075406848,1.000125175225036,33.595999973996065
6.077691904,1.000217441455383,33.42513347806776
6.07997696,1.0002964422828373,33.25298077290639
6.082262016,1.0003570238076998,33.07972560273677
6.084547072,1.0003953951390987,32.905703350031374
6.086832128,1.0004090620334576,32.73126110019029
6.089117184,1.0003971925717232,32.55674128809917
6.09140224,1.0003606583606437,32.38250604417847
6.093687296,1.0003015229788303,32.20892478929064
6.095972352,1.0002235828305714,32.03625122848637
6.098257408,1.0001317855094167,31.86477536615465
6.100542464,1.000031798386017,31.694622767291044
6.10282752,0.9999300498966036,31.525859340250253
6.105112576,0.9998327962117823,31.358501045448673
6.107397632,0.9997462498776344,31.19240582360223
6.1096832,0.9996759683817578,31.02740352381192
6.111968256,0.9996262096780948,30.863206169354978
6.114253312,0.9996002801739351,30.69951122293267
6.116538368,0.9995997784173819,30.535947176513737
6.118823424,0.9996247397286905,30.372158997906723
6.12110848,0.9996735814877695,30.20776116791868
6.123393536,0.9997433059086042,30.042444402100628
6.125678592,0.999829561301292,29.875934433392715
6.127963648,0.9999267811816831,29.70804699287913
6.130248704,1.000028963053434,29.538643012973555
6.13253376,1.0001296232383414,29.3677291489388
6.134818816,1.0002224053921671,29.19534848604875
6.137103872,1.0003015325533742,29.021663452491044
6.139388928,1.0003618599460022,28.84688725089011
6.141673984,1.0003997794111141,28.6713450723412
6.14395904,1.0004126777908515,28.49537867845255
6.146244096,1.0003999588807697,28.3193486174492
6.148529152,1.000362171189825,28.143608464108706
6.150814208,1.0003017878546083,27.96851707444928
6.153099264,1.0002226249601347,27.794384585773532
6.15538432,1.0001296408846263,27.621428051263404
6.157669376,1.0000285746020388,27.449818577014273
6.159954432,0.9999259626031076,27.279637642571217
6.162239488,0.9998281016947782,27.110826312949992
6.164524544,0.9997412313475701,26.943291772926585
6.1668096,0.9996708722399407,26.77684621245385
6.169094656,0.9996214771208887,26.61120157190279
6.171379712,0.9995961597344819,26.44604955864613
6.173664768,0.9995964780057737,26.28100395999186
6.175949824,0.9996224924783699,26.11570485516667
6.17823488,0.9996725628833905,25.949802036051224
6.180519936,0.9997435219994482,25.782943089377405
6.182804992,0.9998309254430626,25.614880858415425
6.185090048,0.9999293282601508,25.44540542708627
6.187375104,1.0000325408310125,25.274415336904326
6.18966016,1.0001338464541982,25.101874387884134
6.191945216,1.0002270722531503,24.927847957050997
6.194230272,1.0003064241320956,24.752510709580474
6.196515328,1.0003666886579226,24.57609381439004
6.198800384,1.0004041365210514,24.39888588590797
6.20108544,1.000416388747221,24.22128599449188
6.203370496,1.0004026470916212,24.043603890913953
6.205655552,1.0003637966232466,23.86625738072209
6.207940608,1.0003022630339926,23.689538203308054
6.210225664,1.0002218482974534,23.513784126618773
6.21251072,1.0001275602940072,23.339229835799284
6.214795776,1.0000255316776892,23.1660366656419
6.217080832,0.9999220095156592,22.99425921707483
6.219365888,0.9998234766400848,22.82389313815049
6.221650944,0.9997363686938453,22.65478982183023
6.223936,0.9996659172274911,22.4867677524649
6.226221056,0.9996167898700319,22.319546700530818
6.228506112,0.9995920468365317,22.152796120095186
6.230791168,0.9995930774879813,21.986159530958208
6.233076224,0.9996200937179742,21.819221764533424
6.23536128,0.9996712850215367,21.65168016341644
6.237646336,0.9997434619257444,21.483151548394954
6.239931392,0.9998320716321726,21.31343339509083
6.242216448,0.9999316055107326,21.14222887455496
6.244501504,1.0000356898068783,20.96949934006232
6.24678656,1.0001378580323463,20.795214952146186
6.249071616,1.000231723894471,20.61942001484768
6.251356672,1.0003111319276001,20.44232762848479
6.253641728,1.000371279936956,20.264116717359283
6.255926784,1.0004083412254074,20.085141218451948
6.25821184,1.0004200310114557,19.905747550482882
6.260496896,1.0004054316918456,19.726308716878215
6.262781952,1.0003655656694024,19.547186678244227
6.265067008,1.0003028101498015,19.36872072950323
6.267352064,1.0002212172463067,19.19123883413349
6.26963712,1.0001258888626592,19.01496505772019
6.271922176,1.0000228489732628,18.84004699526797
6.274207232,0.999918367759139,18.666555591553966
6.276492288,0.9998192088254588,18.49447011428628
6.278777344,0.9997317118561528,18.323667542010096
6.2810624,0.9996611853998947,18.153953766943868
6.283347456,0.9996121656494475,17.985027633063936
6.285632512,0.9995878772583467,17.81653553642746
6.287917568,0.9995897237202541,17.648167711810625
6.290202624,0.9996177033389658,17.479484269454623
6.29248768,0.9996699595027665,17.310169637884513
6.294772736,0.9997432557272035,17.139870130626196
6.297057792,0.9998330694485437,16.96830206214762
6.299342848,0.9999336811677773,16.79528264367334
6.301627904,1.0000387972116433,16.620698134923163
6.30391296,1.0001417574809661,16.444534990891682
6.306198016,1.0002361043266825,16.266862297674486
6.308483072,1.0003157818594313,16.08786366644143
6.310768128,1.0003759887159525,15.90775380710223
6.313053184,1.0004127849424238,15.726878018563877
6.31533824,1.0004238832613879,15.54556513476511
6.317623296,1.0004084567850615,15.36421716569196
6.319908352,1.0003676044228247,15.183191766263894
6.322193408,1.000303699549112,15.002833734919902
6.324478976,1.0002209618763933,14.82349238723877
6.326764032,1.0001244630165387,14.645345828007379
6.329049088,1.0000203156472238,14.468597074004329
6.331334144,0.9999150150777071,14.293258915886703
6.3336192,0.999815268172673,14.119341340453017
6.335904256,0.9997271532038134,13.946699927042534
6.338189312,0.9996566067574443,13.775153764040295
6.340474368,0.9996076927344973,13.604363521835632
6.342759424,0.9995838342315321,13.4340567504314
6.34504448,0.9995862653531778,13.263804082135492
6.347329536,0.9996150401144285,13.093271101386692
6.349614592,0.9996684277682412,12.922041879099819
6.351899648,0.9997428420725092,12.749826241324033
6.354184704,0.9998338349720746,12.576313790619945
6.35646976,0.9999355432846431,12.401345428019319
6.358754816,1.0000416036703412,12.224761223174179
6.361039872,1.000145381886203,12.046624896988389
6.363324928,1.0002402728009014,11.866939889830757
6.365609984,1.0003204132160943,11.68589294355079
6.36789504,1.0003806131872788,11.50376423617634
6.370180096,1.0004170705888809,11.320844597046683
6.372465152,1.00042768424554,11.137511520850468
6.374750208,1.0004115293503715,10.954118997111502
6.377035264,1.0003697581426767,10.771085402388001
6.37932032,1.0003048859629113,10.588738023760898
6.381605376,1.000220962597527,10.407359733219481
6.383890432,1.0001233743041027,10.227219506072451
6.386175488,1.0000180819498659,10.048462639212476
6.388460544,0.9999118885095247,9.87116779457817
6.3907456,0.9998113645707558,9.695264785650519
6.393030656,0.9997228717748713,9.520672929306249
6.395315712,0.9996519932885797,9.347143446602667
6.397600768,0.9996032076783119,9.174405727989676
6.399885824,0.9995795499336586,9.002107218179122
6.40217088,0.9995826522485595,8.829863877846998
6.404455936,0.9996123065871211,8.65731821482713
6.406740992,0.999666489789167,8.484080491364212
6.409026048,0.9997420814206073,8.30981621960941
6.411311104,0.9998340807591347,8.134250644939195
6.41359616,0.9999369543295482,7.9571828565272416
6.415881216,1.0000439906101193,7.778525435273813
6.418166272,1.000148588802481,7.598250091119895
6.420451328,1.0002441187784106,7.416412636379891
6.422736384,1.0003245971213808,7.233251821129526
6.42502144,1.0003849682502317,7.048954802410769
6.427306496,1.0004214611734787,6.863878696715502
6.429591552,1.000431541873407,6.678376473774087
6.431876608,1.0004147472625033,6.492825413468973
6.434161664,1.0003720983583757,6.307639693719766
6.43644672,1.0003062875339879,6.123121336234761
6.438731776,1.000221340722539,5.93962108938391
6.441016832,1.000122632643268,5.7573512513128975
6.443301888,1.0000163595570382,5.576475818790438
6.445586944,0.9999091646943363,5.397056673016525
6.447872,0.9998078755350729,5.2190961166407925
6.450157056,0.9997189215672074,5.042380910738026
6.452442112,0.9996477230105181,4.8667558854012105
6.454727168,0.9995988161983813,4.69192909402183
6.457012224,0.9995755449376598,4.517524391324306
6.45929728,0.9995791212098386,4.343166831163356
6.461582336,0.9996093453231673,4.168483420015197
6.463867392,0.9996645612812668,3.9931145392514913
6.466152448,0.9997411289327774,3.8166723574572905
6.468437504,0.9998342391862013,3.638927841555238
6.47072256,0.9999380806892901,3.4596679634076235
6.473007616,1.0000461582110047,3.2787781111640815
6.475292672,1.0001516170701052,3.0962340226072196
6.477577728,1.0002478750976447,2.912169452981203
6.479862784,1.0003288530581598,2.7267054500002423
6.48214784,1.000389425071251,2.540144183874646
6.484432896,1.0004257019927512,2.352773369557794
6.486717952,1.0004355334375201,2.1649915122714587
6.489003008,1.0004182065338552,1.977161149570321
6.491288064,1.0003747857984588,1.78966898541289
6.49357312,1.000307963615237,1.6028797907721943
6.495858176,1.000221990625737,1.4170988722591291
6.498143232,1.0001222781420676,1.2325782503174902
6.500428288,1.0000149198889998,1.0494622095582056
6.502713344,0.9999067923018804,0.8678227921016174
6.5049984,0.9998047293653628,0.6876043481424866
6.507283456,0.9997150309625328,0.5086815276358254
6.509568512,0.9996434798840697,0.33083591951398833
6.511853568,0.9995945330476107,0.1537660537315248
6.514138624,0.9995712838785805,-0.02287921363256814
6.51642368,0.9995752936898215,-0.1994524769032424
6.518708736,0.9996062424667316,-0.37637880488133024
6.520993792,0.9996621684566442,-0.5540462407680892
6.523278848,0.9997397433253191,-0.7327463781608258
6.525563904,0.9998339230060419,-0.9127978153575941
6.52784896,0.9999388628294607,-1.0944067037545218
6.530134016,1.0000479885808062,-1.2776218496438567
6.532419072,1.000154335151904,-1.4625248592768492
6.534704128,1.000251321237036,-1.6489746051450138
6.536989184,1.0003326906543215,-1.8368298560677847
6.53927424,1.0003936046293462,-2.0257885157312767
6.541559808,1.0004299534081877,-2.215586123837416
6.543844864,1.0004396526222559,-2.4057976892128368
6.54612992,1.00042184771229,-2.5960215083144345
6.548414976,1.0003777346045575,-2.785923422716078
6.550700032,1.0003100626225037,-2.975125816907316
6.552985088,1.0002231478192671,-3.1632939949203784
6.555270144,1.0001222861980803,-3.3501898828321917
6.5575552,1.0000139271993314,-3.535694356077934
6.559840256,0.9999047770636866,-3.7197222432144343
6.562125312,0.9998018992511378,-3.9022975842580006
6.564410368,0.9997114496143746,-4.083568385551216
6.566695424,0.9996395496969492,-4.263763101809277
6.56898048,0.9995902585307244,-4.443177824560333
6.571265536,0.9995671218717004,-4.62216121701756
6.573550592,0.999571345679314,-4.8011242429761465
6.575835648,0.9996028119449052,-4.980412037229092
6.578120704,0.9996594678457466,-5.160460326174906
6.58040576,0.9997378759684938,-5.341568261195311
6.582690816,0.9998331740179922,-5.524039569257533
6.584975872,0.9999391281902102,-5.708075892484713
6.587260928,1.0000491755533882,-5.893773571603783
6.589545984,1.00015646630217,-6.081130554909984
6.59183104,1.0002542786249324,-6.270090423475549
6.594116096,1.0003364099936471,-6.460445280052819
6.596401152,1.0003976376088155,-6.651936412909552
6.598686208,1.0004342803870405,-6.844242960714918
6.600971264,1.0004438407026697,-7.0369905262523496
6.60325632,1.0004255252487475,-7.229775706870948
6.605541376,1.000380824210702,-7.422211556596925
6.607826432,1.0003125659134282,-7.613930364846114
6.610111488,1.0002246110138153,-7.804627783458063
6.612396544,1.000122845510192,-7.994041452830872
6.6146816,1.000013408907167,-8.182053492041735
6.616966656,0.9999032876219435,-8.368552815901916
6.619251712,0.9997994145709949,-8.553618380105911
6.621536768,0.9997082435792439,-8.737385394139784
6.623821824,0.9996356949698315,-8.920042187324984
6.62610688,0.9995861301886706,-9.101933752597231
6.628391936,0.999562946829537,-9.283417834493935
6.630676992,0.9995673007242754,-9.464840786214898
6.632962048,0.999599196586828,-9.646602539250969
6.635247104,0.9996565942296267,-9.829157063823228
6.63753216,0.9997358176982768,-10.012788170059322
6.639817216,0.9998319347378077,-10.197785405532354
6.642102272,0.999938928317851,-10.384384440184041
6.644387328,1.0000501360080645,-10.572646955403066
6.646672384,1.000158439195928,-10.762588337531675
6.64895744,1.000257045806901,-10.954162473808257
6.651242496,1.000339969273851,-11.147123747026432
6.653527552,1.0004016754487808,-11.34125522594077
6.655812608,1.0004385171870442,-11.536222624822127
6.658097664,1.0004480967883884,-11.731624921388606
6.66038272,1.0004296875933618,-11.927046984700276
6.662667776,1.0003845357965986,-12.122139560576942
6.664952832,1.000315320735868,-12.31651849693207
6.667237888,1.000226668439545,-12.509850997107531
6.669522944,1.0001237782740922,-12.70191974485942
6.671808,1.000013360966683,-12.89254222720027
6.674093056,0.9999021943615948,-13.081678144906089
6.676378112,0.9997972981427542,-13.269357517218664
6.678663168,0.9997054037393085,-13.45571009601775
6.680948224,0.9996321615819909,-13.640974558952019
6.68323328,0.9995821060328662,-13.825455676878862
6.685518336,0.9995586160487528,-14.009512115912091
6.687803392,0.9995631111494517,-14.19351120526697
6.690088448,0.9995952899971183,-14.377910983062547
6.692373504,0.9996532542526797,-14.563038744850898
6.69465856,0.9997331072058433,-14.74930820146405
6.696943616,0.9998301536705405,-14.93694349460042
6.699228672,0.9999381905473055,-15.126181286132194
6.701513728,1.0000504924668474,-15.317128502909297
6.703798784,1.000159796567567,-15.50978039611286
6.70608384,1.0002594302678163,-15.704043342636771
6.708368896,1.000343103387556,-15.89976044998062
6.710653952,1.0004054411711105,-16.096636409722223
6.712939008,1.000442681296117,-16.294345187360317
6.715224064,1.0004523730162838,-16.492508371963492
6.71750912,1.0004338738661966,-16.69072058664912
6.719794176,1.0003883291485343,-16.88859234518461
6.722079232,1.0003186242245143,-17.085738340170032
6.724364288,1.0002290614759715,-17.2818421758491
6.726649344,1.000125271625984,-17.476646171012526
6.7289344,1.000013820065748,-17.670022112571186
6.731219456,0.9999015754016669,-17.861873397233893
6.733504512,0.9997957313187951,-18.052280128297596
6.735789568,0.9997027546753166,-18.24136157847351
6.738074624,0.9996287740648434,-18.429320205743938
6.74035968,0.999578164224107,-18.616486082899836
6.742644736,0.9995542905527506,-18.80324701479512
6.744929792,0.9995586810666186,-18.98996132651063
6.747214848,0.9995910498932683,-19.177058367691206
6.749499904,0.9996493800448525,-19.364926618314513
6.75178496,0.999730031108993,-19.553903795008406
6.754070016,0.999827883784817,-19.744273320567064
6.756355072,0.9999369309418484,-19.936271364144066
6.75864064,1.0000501583762287,-20.12999182828327
6.760925696,1.0001606479018463,-20.325426961436627
6.763210752,1.0002613611558218,-20.522516999083305
6.765495808,1.0003459352083117,-20.721070777889093
6.767780864,1.0004091088014453,-20.920797000669346
6.77006592,1.0004467917374267,-21.121346674568457
6.772350976,1.000456763430818,-21.322398442031684
6.774636032,1.0004383067130336,-21.523490723404574
6.776921088,1.0003925135408236,-21.724227054630855
6.779206144,1.000322303916281,-21.924246532501208
6.7814912,1.0002319844878844,-22.123230568228895
6.783776256,1.0001273404229052,-22.320903300071638
6.786061312,1.0000148137817855,-22.517155343307188
6.788346368,0.9999015613371762,-22.711867235090313
6.790631424,0.9997945140531997,-22.905079877245125
6.79291648,0.9997004495066502,-23.096972055072218
6.795201536,0.9996255993101933,-23.287759841416616
6.797486592,0.9995743644425772,-23.477740628489624
6.799771648,0.9995499138041174,-23.667293516562758
6.802056704,0.9995540887450521,-23.85681436425663
6.80434176,0.9995865420754435,-24.046697981837287
6.806626816,0.9996451283144249,-24.23737316178822
6.808911872,0.999726400911791,-24.4291509596095
6.811196928,0.9998250921694496,-24.622394686460165
6.813481984,0.9999351166044946,-24.81722083278288
6.81576704,1.0000495412230759,-25.013804191003093
6.818052096,1.000161138448182,-25.212147318867284
6.820337152,1.0002628507055147,-25.412127488572054
6.822622208,1.0003485369650535,-25.613590595019755
6.824907264,1.0004126050841886,-25.816276767939762
6.82719232,1.0004509664847225,-26.019803621220028
6.829477376,1.0004614090285504,-26.22379764888187
6.831762432,1.0004430529475405,-26.42786768413765
6.834047488,1.0003971707620696,-26.6315911205255
6.836332544,1.0003265436675843,-26.834583481960635
6.8386176,1.0002356557166556,-27.036554695830116
6.840902656,1.000130146540548,-27.23722065977814
6.843187712,1.0000165079703909,-27.436401608965458
6.845472768,0.9999020079179697,-27.63405354485795
6.847757824,0.999793815894512,-27.830241274642738
6.85004288,0.9996988237655123,-28.025050338920366
6.852327936,0.999622772429299,-28.218746283751333
6.854612992,0.9995705805640583,-28.411625575174106
6.856898048,0.999545606550071,-28.60408063394482
6.859183104,0.9995493976952825,-28.7964658507013
6.86146816,0.9995817856152128,-28.989279476211134
6.863753216,0.9996406114314772,-29.18281729177752
6.866038272,0.9997222404210034,-29.37753238418725
6.868323328,0.9998216142964163,-29.573663236614596
6.870608384,0.9999327293270303,-29.77142017145396
6.87289344,1.0000481827030996,-29.970955774613607
6.875178496,1.0001609384785013,-30.172263619162834
6.877463552,1.0002640016476312,-30.375238872700518
6.879748608,1.000350689778956,-30.57970781854836
6.882033664,1.0004157811622036,-30.785413512390498
6.88431872,1.0004550622478137,-30.99196721654541
6.886603776,1.0004661172584337,-31.199057883991344
6.888888832,1.000448062005083,-31.406200316660552
6.891173888,1.0004022734909488,-31.61298232867025
6.893458944,1.000331256867898,-31.819059124080084
6.895744,1.0002397600103283,-32.0240846764836
6.898029056,1.0001333406246842,-32.227809557441596
6.900314112,1.0000187684464914,-32.43006258926614
6.902599168,0.9999030369181456,-32.630766617958834
6.904884224,0.9997937488490325,-32.82996998944222
6.90716928,0.9996973137829036,-33.02779656497189
6.909454336,0.9996201231053055,-33.22448547476501
6.911739392,0.9995669171529232,-33.420364260547395
6.914024448,0.9995411104493844,-33.6157899122441
6.916309504,0.9995444037152146,-33.811153036010985
6.91859456,0.9995763838310908,-34.00691182042623
