freq,mag,phase
6.0,1.0004571648346325,-122.30168305992554
6.003201536,1.0004608095293703,-122.48764622150132
6.00640256,1.0004367354036259,-122.67354730925422
6.009604096,1.0003858500057394,-122.85884960358915
6.01280512,1.000311293558083,-123.04331061902754
6.016006656,1.0002175587112592,-123.22654678026095
6.01920768,1.0001105203280938,-123.4083976640433
6.022409216,0.9999967468899613,-123.58865007964188
6.02561024,0.9998832610874179,-123.76725157967552
6.028811776,0.9997771893104223,-123.94432548462788
6.0320128,0.9996849082631546,-124.11997902980133
6.035214336,0.9996122829182192,-124.29445179719936
6.03841536,0.9995638516108195,-124.46808755165702
6.041616896,0.999542575937849,-124.64123428377422
6.04481792,0.9995497670510566,-124.8142693243411
6.048019456,0.9995849517128271,-124.98761890285971
6.05122048,0.9996460761034588,-125.1616683360667
6.054422016,0.9997292869705794,-125.33677602051843
6.05762304,0.9998293690515297,-125.51324006363544
6.060824576,0.9999402568093365,-125.6911601072007
6.0640256,1.000055091885052,-125.87077924786249
6.067227136,1.0001668724973947,-126.05199898755674
6.07042816,1.000268423826348,-126.23478331919794
6.073629696,1.0003536369127315,-126.418937594132
6.07683072,1.0004171097709833,-126.60414652464831
6.080032256,1.0004550389918097,-126.79007878402763
6.08323328,1.0004651178606594,-126.97637249711558
6.086434816,1.0004465036361452,-127.16264330464818
6.08963584,1.0004005101941011,-127.34845657901123
6.092837376,1.0003298768658053,-127.53343430526253
6.0960384,1.0002389657632784,-127.71730607654517
6.099239936,1.0001335041358312,-127.89970842113885
6.10244096,1.0000197096465537,-128.08062516198564
6.105642496,0.9999049069328347,-128.25986785175297
6.10884352,0.9997961203724889,-128.43752046156877
6.112045056,0.9997000496656788,-128.61370833953694
6.11524608,0.9996226746825813,-128.788678705333
6.118447616,0.9995686820731826,-128.9626932584011
6.12164864,0.9995416641577352,-129.13615677689504
6.124850176,0.999543144644127,-129.30944475126185
6.1280512,0.9995729986661198,-129.4829778742503
6.131252736,0.9996295458530303,-129.65712191735392
6.13445376,0.9997092239340206,-129.8322529048117
6.137655296,0.9998070748850183,-130.00866415771011
6.14085632,0.9999171183988607,-130.1866155360788
6.144057856,1.0000324411637331,-130.36614591654603
6.14725888,1.0001460307498813,-130.54734950333943
6.150460416,1.0002507430062102,-130.73015307366688
6.15366144,1.0003402907821595,-130.91433265453807
6.156862976,1.0004089660592557,-131.09967406942397
6.160064,1.0004525794876238,-131.285852542211
6.163265536,1.0004683828537797,-131.47243353819155
6.16646656,1.0004553846710542,-131.65906832913106
6.169668096,1.0004144428197952,-131.84533286943562
6.17286912,1.0003479831658528,-132.03082666742625
6.176070656,1.0002601949652596,-132.21519830534612
6.17927168,1.0001564412580488,-132.39826784353505
6.182473216,1.0000431005985528,-132.57973527209828
6.18567424,0.9999272728193178,-132.75962609404937
6.188875776,0.9998160037877062,-132.93785651996845
6.1920768,0.9997162337296343,-133.1145670583636
6.195278336,0.9996341627397375,-133.29000078504288
6.19847936,0.9995748450725135,-133.46443819345683
6.201680896,0.9995420713361285,-133.63820048353904
6.20488192,0.9995376750337431,-133.8117319795019
6.208083456,0.999562097905053,-133.98537759560037
6.21128448,0.9996139294315176,-134.15959865110875
6.214486016,0.9996897294423625,-134.33475681808414
6.21768704,0.9997849685282012,-134.51113810773666
6.220888576,0.999893833543397,-134.68902144566275
6.2240896,1.0000093181642686,-134.8684963564865
6.227291136,1.0001246072665677,-135.0496476886752
6.23049216,1.000232390457799,-135.2324060383018
6.233693696,1.0003260071788913,-135.41661551305933
6.23689472,1.0003997210079754,-135.602059639007
6.240096256,1.0004488960779092,-135.78839523371894
6.24329728,1.0004705767581161,-135.97524251924102
6.246498816,1.0004633486013148,-136.16218118991895
6.24969984,1.000427661665414,-136.34884736778554
6.252901376,1.000365666988318,-136.5348184940085
6.2561024,1.0002811488222092,-136.7197541810787
6.259303936,1.0001795026850582,-136.90338746477778
6.26250496,1.0000667755595298,-137.0854383810049
6.265706496,0.9999501167373747,-137.26590237913672
6.26890752,0.9998366256652453,-137.44470202347884
6.272109056,0.9997333326735067,-137.6219506807574
6.27531008,0.9996467231616666,-137.79782849211364
6.278511616,0.9995820453977342,-137.9726842677186
6.28171264,0.9995434982887685,-138.1467458544151
6.284914176,0.9995332930799824,-138.32047737437193
6.2881152,0.9995521406094803,-138.49430591114339
6.291316736,0.999598895892347,-138.66857801311767
6.29451776,0.9996707236363652,-138.84372033649052
6.297719296,0.9997631326145402,-139.02007875992132
6.30092032,0.9998703977173781,-139.19786958061374
6.304121856,0.9999859390494992,-139.37723704814235
6.30732288,1.0001025376381694,-139.55830163947098
6.310524416,1.0002131070928582,-139.74099718548737
6.31372544,1.0003107575641388,-139.92523275725927
6.316926976,1.0003893268877697,-140.11069595174763
6.320128,1.000444104340174,-140.29715603730173
6.323329536,1.0004716550763333,-140.4842187283721
6.32653056,1.0004702404277301,-140.67144841558675
6.329732096,1.000439916003462,-140.8584992358992
6.33293312,1.0003826121692805,-141.04491386559232
6.336134656,1.0003017047675893,-141.2303353661705
6.33933568,1.000202379740731,-141.41450359495602
6.342537216,1.0000906095788489,-141.59713167342895
6.34573824,0.9999734647952762,-141.7781195441901
6.348939776,0.999857973032648,-141.95749092720706
6.3521408,0.9997513886011643,-142.13524822301972
6.355342336,0.9996603023689485,-142.3116224736155
6.35854336,0.99959047322384,-142.48678835005285
6.361744896,0.9995460507546433,-142.66119258189926
6.36494592,0.9995298869945716,-142.83514136950677
6.368147456,0.9995430714026746,-143.00907816741872
6.37134848,0.9995845953082232,-143.18343687581338
6.374550016,0.9996521778384087,-143.35855115973885
6.37775104,0.9997414397816754,-143.53483828756436
6.380952576,0.9998468851273125,-143.71248952341378
6.3841536,0.9999620616225245,-143.89175529077733
6.387355136,1.0000798984532926,-144.07269372555626
6.39055616,1.0001929788253874,-144.25528585992052
6.393757696,1.000294376699272,-144.4394964566425
6.39695872,1.00037782336458,-144.62497085804387
6.400160256,1.0004381040069361,-144.81152211279823
6.40336128,1.0004715833016105,-144.99871576907083
6.406562816,1.0004760643341073,-145.18621487664092
6.40976384,1.0004513165108584,-145.3735867491627
6.412965376,1.000398844164912,-145.56039645045564
6.4161664,1.000321837959808,-145.746293990779
6.419367936,1.0002251243102858,-145.9309520234718
6.42256896,1.0001146725325119,-146.1141437337244
6.425770496,0.9999972445036814,-146.29570678604247
6.42897152,0.9998800196525505,-146.47558917924727
6.432173056,0.9997704246940001,-146.65381688548078
6.43537408,0.9996751025665988,-146.8306298327141
6.438575616,0.9996001074581107,-147.00619461605544
6.44177664,0.9995498323232347,-147.1808751319038
6.444978176,0.9995277371033219,-147.35507225709944
6.4481792,0.999535014107172,-147.52912295247026
6.451380736,0.9995712540419962,-147.703508811675
6.45458176,0.9996342789968304,-147.87859984244517
6.457783296,0.999720096691386,-148.05478018893209
6.46098432,0.9998234846680484,-148.23233767893186
6.464185856,0.9999380509985841,-148.41144396087245
6.46738688,1.0000567209476137,-148.5922578367135
6.470588416,1.0001720770287295,-148.77472230781214
6.47378944,1.0002770694197611,-148.9588228429643
6.476990976,1.0003651905182664,-149.1442785696422
6.480192,1.000430916894377,-149.33085327509426
6.483393536,1.000470277149324,-149.51817915825043
6.48659456,1.0004807684013988,-149.70588827821064
6.489796096,1.0004617168938374,-149.89354809943381
6.49299712,1.0004143281927744,-150.0807485493103
6.496198656,1.0003414940769095,-150.26707194139206
6.49939968,1.000247709769557,-150.45221027841347
6.502601216,1.000138692466274,-150.63590141170883
6.50580224,1.0000212514958764,-150.81799176006308
6.509003776,0.9999026624363517,-150.9984047692263
6.5122048,0.999790194724705,-151.17714256925214
6.515406336,0.9996907812162776,-151.35435878395765
6.51860736,0.9996106516950677,-151.53028026536003
6.521808896,0.9995547489110432,-151.70526486225623
6.52500992,0.9995266147294901,-151.8796372860135
6.528211456,0.9995279051177481,-152.0538073410526
6.53141248,0.9995586959587287,-152.2282259967343
6.534614016,0.9996168657155349,-152.40330808943935
6.53781504,0.9996989980545621,-152.57936315258118
6.541016576,0.9998000305738568,-152.7567445377707
6.5442176,0.9999136116017323,-152.93569217687664
6.547419136,1.0000329117739277,-153.11631428707085
6.55062016,1.0001502934881012,-153.29862155344884
6.553821696,1.0002587102091012,-153.48257074200984
6.55702272,1.0003513375619926,-153.66797431472
6.560224256,1.0004224992648525,-153.85456562393975
6.56342528,1.0004677705541403,-154.04196728387168
6.566626816,1.0004843613159606,-154.2298682648669
6.56982784,1.0004711355600266,-154.41776116116714
6.573029376,1.0004289563461912,-154.60528204766936
6.5762304,1.0003604892659244,-154.7920209332333
6.579431936,1.0002699000795445,-154.97761202195622
6.58263296,1.0001627675564653,-155.16179351981188
6.585834496,1.0000456312432286,-155.34440116008113
6.58903552,0.9999258237836121,-155.52526847985249
6.592237056,0.9998107628332217,-155.70447393232018
6.59543808,0.9997074608791495,-155.8821115225772
6.598639616,0.9996224155527311,-156.05841548030943
6.60184064,0.9995609405662409,-156.23368328485836
6.605042176,0.9995267056749616,-156.40823686686588
6.6082432,0.9995220184303135,-156.58251651875725
6.611444736,0.9995470198367259,-156.75694246029468
6.61464576,0.9996002555029557,-156.93194371402592
6.617847296,0.9996785150450553,-157.10788500644816
6.62104832,0.9997768834748424,-157.28510324688017
6.624249856,0.9998892102900039,-157.46386119830782
6.62745088,1.000008699204971,-157.64428179877098
6.630652416,1.000127963027845,-157.82640826263807
6.63385344,1.00023954497882,-158.01018239276237
6.637054976,1.0003365757214742,-158.1954844571485
6.640256,1.0004129362665415,-158.38201388466769
6.643457536,1.0004640450006876,-158.56947441359338
6.64665856,1.0004867859563331,-158.7574794682004
6.649860096,1.0004795711917445,-158.94560388303526
6.65306112,1.0004429043283558,-159.1334204497276
6.656262656,1.000379033639114,-159.32052131322394
6.65946368,1.00029188886847,-159.5065365732167
6.662665216,1.0001868637509435,-159.69118782956372
6.66586624,1.000070291040794,-159.87422431421405
6.669067776,0.9999497089946983,-160.05562178524798
6.6722688,0.9998321936598121,-160.23527195576887
6.675470336,0.9997252379395628,-160.4133168069965
6.67867136,0.999635406554694,-160.5899569063744
6.681872896,0.9995682633783513,-160.76546686649408
6.68507392,0.9995280349449782,-160.94023443309533
6.688275456,0.9995171919041996,-161.11459398549582
6.69147648,0.9995363877514006,-161.28904896418527
6.694678016,0.9995844187304652,-161.4639762297353
6.69787904,0.9996584585904236,-161.63980911422328
6.701080576,0.9997538982072754,-161.81682870729287
6.7042816,0.9998647511611513,-161.99533003347327
6.707483136,0.9999841540729704,-162.175501514946
6.71068416,1.0001049485759603,-162.35741734603565
6.713885696,1.0002194727186497,-162.54101330147913
6.71708672,1.0003206259126856,-162.7261714400115
6.720288256,1.0004022464518703,-162.91262308531944
6.72348928,1.000459150023921,-163.10008508007652
6.726690816,1.000487971999844,-163.28816829890044
6.72989184,1.000486942541835,-163.47644914405365
6.733093376,1.0004558432230404,-163.66453493758593
6.7362944,1.000396833125838,-163.85194969123538
6.739495936,1.0003134092769932,-164.03834763137397
6.74269696,1.0002107926829555,-164.22342879611224
6.745898496,1.0000953059205804,-164.4069538140934
6.74909952,0.9999739778175647,-164.5887647370921
6.752301056,0.9998544375695795,-164.76886389995573
6.75550208,0.9997439122152778,-164.9472948489165
6.758703616,0.9996494599121182,-165.12429467943022
6.76190464,0.9995768210271717,-165.30008557081345
6.765106176,0.9995306428499137,-165.4749888218478
6.7683072,0.9995135075228064,-165.64947027455926
6.771508736,0.9995266883963613,-165.82390931482163
6.77470976,0.9995693985783124,-165.998753270094
6.777911296,0.9996390230362325,-166.17441217623895
6.78111232,0.9997311131221205,-166.3512305023912
6.784313856,0.9998401571065659,-166.52950573819948
6.78751488,0.9999593340452937,-166.70941253935237
6.790716416,1.0000812857593473,-166.89107704831156
6.79391744,1.0001984492611284,-167.07444546296506
6.797118976,1.0003036722522336,-167.25937886072398
6.80032,1.000390258264018,-167.4457448038162
6.803521536,1.0004531079367311,-167.63315086381013
6.80672256,1.0004881193402932,-167.82127634387496
6.809924096,1.0004930504795715,-168.00969306005194
6.81312512,1.0004679449672966,-168.19798838337587
6.816326656,1.0004139178123157,-168.3856954341103
6.81952768,1.0003345145441984,-168.57243667284956
6.822729216,1.0002346040714678,-168.75793297929707
6.82593024,1.00012030584638,-168.94188992169566
6.829131776,0.9999987182114484,-169.1241492552161
6.8323328,0.9998773215322668,-169.30466041698534
6.835534336,0.9997636683642533,-169.48347325045168
6.83873536,0.9996647287123206,-169.66078133332786
6.841936896,0.9995867278349788,-169.8368320929151
6.84513792,0.9995343411694804,-170.01191841614667
6.848339456,0.9995110702565906,-170.18647987500012
6.85154048,0.9995181923815548,-170.3608999112355
6.854742016,0.9995552721634368,-170.5356798681508
6.85794304,0.9996202174731902,-170.71115672806545
6.861144576,0.999708810818298,-170.88774282919468
6.8643456,0.9998156449026823,-171.06574833299297
6.867547136,0.9999342092870637,-171.24538509287333
6.87074816,1.0000572110944064,-171.42672761533697
6.873949696,1.000176754571608,-171.60981677246548
6.87715072,1.000285713800214,-171.79456586363565
6.880352256,1.0003772777215885,-171.98073432591514
6.88355328,1.000445818061738,-172.1680734742358
6.886754816,1.000486983117353,-172.35623230766532
6.88995584,1.0004983012076132,-172.54471542243354
6.893157376,1.0004790077703183,-172.73315545304231
6.8963584,1.0004303108509904,-172.92112244255267
6.899559936,1.000355217980277,-173.10822390480897
6.90276096,1.00025837017864,-173.29407259157128
6.905962496,1.0001455416051812,-173.47841691178135
6.90916352,1.000024027528809,-173.66108416239982
6.912365056,0.999900967191155,-173.8420228276071
6.91556608,0.999784215366273,-174.0212057362657
6.918767616,0.9996809698147676,-174.1988335612178
6.92196864,0.9995976536021575,-174.3751264874038
6.925170176,0.9995393314778872,-174.5503908413265
6.9283712,0.9995097489605484,-174.72501012949758
6.931572736,0.9995106071536103,-174.89942521001345
6.93477376,0.9995420721986472,-175.0740857192315
6.937975296,0.9996019633385709,-175.24939430090546
6.94117632,0.9996868431767092,-175.4257329334228
6.944377856,0.9997913135578429,-175.6034506460288
6.94757888,0.9999088821785342,-175.78274312724002
6.950780416,1.0000323482574254,-175.96379254069294
6.95398144,1.000154243870026,-176.1465933320213
6.957182976,1.0002667031721961,-176.33107603944813
6.960384,1.0003631012163712,-176.5170650837955
6.963585536,1.0004372248801894,-176.70423965804133
6.96678656,1.0004845707250285,-176.89235594472677
6.969988096,1.000502188666232,-177.08090763362773
6.97318912,1.0004889763908291,-177.26946691302675
6.976390656,1.0004457623522702,-177.45768056188123
6.97959168,1.0003751798572167,-177.64505772294387
6.982793216,1.0002815046511306,-177.831245776231
6.98599424,1.0001706705707532,-178.01597168349716
6.989195776,1.000049351363502,-178.19901891008502
6.9923968,0.9999251585878656,-178.38034477311282
6.995598336,0.9998056993096778,-178.55989395297988
6.99879936,0.9996983158583985,-178.73780406089907
7.002000896,0.9996097427102748,-178.9143414849226
7.00520192,0.9995455250279843,-179.08975820488556
7.008403456,0.9995096218299451,-179.26444892158804
7.01160448,0.9995042243929935,-179.43883983360337
7.014806016,0.9995296442781196,-179.61339740817513
7.01800704,0.9995844514465927,-179.78850485885832
7.021208576,0.99966527231723,-179.9645988001277
7.0244096,0.9997669170315719,179.85799540420666
7.027611136,0.9998831863527077,179.67904796713546
7.03081216,1.000007215028646,179.4983518321976
7.034013696,1.0001308955748136,179.31588529052567
7.03721472,1.0002467014093184,179.13170971256872
7.040416256,1.0003476083392453,178.9459532443302
7.04361728,1.0004272126152054,178.75891848698222
7.046818816,1.000480945986721,178.57091302904308
7.05001984,1.0005048302377457,178.38235180206746
7.053221376,1.000497992373277,178.19368003993736
7.0564224,1.0004604237892794,178.0053184453482
7.059623936,1.00039457226809,177.8177025497248
7.06282496,1.000304513601766,177.63118819562263
7.066026496,1.000195796262492,177.44613022455124
7.06922752,1.000075042981841,177.26264882277238
7.072429056,0.9999498650050481,177.08100351029935
7.07563008,0.9998279655503933,176.90111395837286
7.078831616,0.9997167341391477,176.72288104434284
7.08203264,0.9996232443408094,176.5461369891162
7.085234176,0.99955310684384,176.37056474558585
7.0884352,0.9995108602842048,176.1958058178069
7.091636736,0.9994990001266901,176.0214312171497
7.09483776,0.9995183868976723,175.84700944403014
7.098039296,0.9995678600717931,175.67208120022585
7.10124032,0.9996441904906137,175.49628512255188
7.104441856,0.9997427975511456,175.3192129445452
7.10764288,0.9998576962583304,175.14061454618192
7.110844416,0.9999815972951692,174.96030427731372
7.11404544,1.000106913581504,174.7781932831664
7.117246976,1.0002258718779466,174.59435022381132
7.120448,1.0003312312601513,174.40886964407142
7.123649536,1.000416358072344,174.22202850946283
7.12685056,1.0004759068001459,174.03414687714755
7.130052096,1.0005062866149657,173.84565216420793
7.13325312,1.000505769765783,173.65691563709393
7.136454656,1.0004740823026967,173.46840657972967
7.13965568,1.0004132466134796,173.28056223024146
7.142857216,1.0003270899337506,173.0937715875568
7.14605824,1.000220896197689,172.90837849328034
7.149259776,1.0001011007693685,172.7245838684011
7.1524608,0.9999752291588707,172.5425707672441
7.155662336,0.9998510235195449,172.36234171459978
7.15886336,0.9997360650716053,172.18382219735852
7.162064896,0.9996376744780184,172.00686066426098
7.16526592,0.9995619221570639,171.83115079588484
7.168467456,0.9995132638874942,171.65634169928126
7.17166848,0.9994950943602622,171.48201349556544
7.174870016,0.999508188493393,171.30770237173707
7.17807104,0.9995520100319705,171.13299816458988
7.181272576,0.999623759535485,170.9574681430784
7.1844736,0.9997191474640541,170.78074701858122
7.187675136,0.9998320660202026,170.60253872779538
7.19087616,0.9999557302615972,170.42261121750673
7.194077696,1.0000823740420577,170.24091154190486
7.19727872,1.0002042147932095,170.0574310397732
7.200480256,1.0003136678605231,169.87226816236952
7.20368128,1.0004040720777123,169.68569533910346
7.206882816,1.0004696826578248,169.49795879658163
7.21008384,1.0005065400651425,169.30953278738255
7.213285376,1.0005124292210954,169.1207879118782
7.2164864,1.000486806507491,168.93220047844153
7.219687936,1.0004312099537658,168.74415741223442
7.22288896,1.0003492085817887,168.55711770702683
7.226090496,1.0002457594410807,168.371415420414
7.22929152,1.0001272401969843,168.18732896720795
7.232493056,1.0000010324156214,168.0049365899703
7.23569408,0.9998748426397951,167.8244259538889
7.238895616,0.9997565107767541,167.64564210776672
7.24209664,0.9996533766522222,167.46846385728978
7.245298176,0.9995719585757832,167.29260304083797
7.2484992,0.9995170761795331,167.1177274014149
7.251700736,0.9994922353167414,166.9434272076721
7.25490176,0.9994991227508142,166.76926760546354
7.258103296,0.9995370893721777,166.59480982081794
7.26130432,0.999603993763683,166.41958397358468
7.264505856,0.9996956348027434,166.24319408123912
7.26770688,0.9998064540467864,166.06537664898457
7.270908416,0.9999294711497124,165.8858800739533
7.27410944,1.000057130420469,165.70460429799635
7.277310976,1.0001816262887664,165.52150497459087
7.280512,1.000295181723681,165.33671745197324
7.283713536,1.000390649317416,165.15040224189494
