freq,mag,phase
6.0,0.9998379316091525,-72.94829681081646
6.003923456,0.999804167841928,-73.13553853294457
6.007846912,0.9997834262888471,-73.32241394171677
6.011770368,0.9997760546669818,-73.50910281736803
6.015693824,0.9997825386785736,-73.6958023076222
6.01961728,0.9998027433756537,-73.88276748043961
6.023540736,0.9998350200098743,-74.07009631465627
6.027464192,0.9998775771518996,-74.25798468261755
6.03138816,0.9999281189026752,-74.44661566394461
6.035311616,0.9999832841474602,-74.63601845449787
6.039235072,1.0000397478275764,-74.82620579049339
6.043158528,1.0000943103018878,-75.01727260761714
6.047081984,1.0001433191373852,-75.2090583807635
6.05100544,1.0001840661998376,-75.40154187146446
6.054928896,1.000213969713035,-75.59456493370949
6.058852352,1.0002310804381946,-75.7879451383762
6.062775808,1.0002347319683,-75.98152149823832
6.066699264,1.0002240621941318,-76.17505578409641
6.07062272,1.000200056197541,-76.36842561483994
6.074546176,1.000164276804467,-76.56139151602372
6.078469632,1.0001185468379374,-76.75378455189198
6.082393088,1.000065964939861,-76.94553240687388
6.086317056,1.0000094861845774,-77.1365612836502
6.090240512,0.999952617420208,-77.32679012933693
6.094163968,0.9998986061014017,-77.51626065355678
6.098087424,0.9998510771987249,-77.70504374966049
6.10201088,0.9998128449798467,-77.8932331928447
6.105934336,0.9997860972411658,-78.08101403335361
6.109857792,0.9997725825988589,-78.2685011488198
6.113781248,0.999773263246323,-78.45598510847563
6.117704704,0.9997877102489394,-78.64354733583286
6.12162816,0.999815374380707,-78.83148645881484
6.125551616,0.9998548485745816,-79.01989109553578
6.129475072,0.9999033053090001,-79.20897423116588
6.133398528,0.9999580306430439,-79.39883869621866
6.137321984,1.0000154403624182,-79.58949053872959
6.141245952,1.0000725385727793,-79.78102182867605
6.145169408,1.0001255669556433,-79.97338897310357
6.149092864,1.0001710909978994,-80.16644117202546
6.15301632,1.0002067615307708,-80.36010103772344
6.156939776,1.0002300099798567,-80.55427906673694
6.160863232,1.0002397535463639,-80.74863381128284
6.164786688,1.0002350898900374,-80.94314262663646
6.168710144,1.000216419357852,-81.13747996400788
6.1726336,1.0001850650064867,-81.33148757454713
6.176557056,1.0001423286518267,-81.52502267892947
6.180480512,1.0000913618577059,-81.71793470034827
6.184403968,1.000034896994888,-81.91010363668295
6.188327424,0.999976451631291,-82.10146892524124
6.19225088,0.9999196297980624,-82.29207743939644
6.196174848,0.9998679701509672,-82.48190205715264
6.200098304,0.9998244503068824,-82.67113354944303
6.20402176,0.9997915341899849,-82.8597761286322
6.207945216,0.9997718664171205,-83.04814309998822
6.211868672,0.9997660862266085,-83.23633171856929
6.215792128,0.9997747605445821,-83.42457566646496
6.219715584,0.999797482178375,-83.61305131015656
6.22363904,0.9998328092927984,-83.80199688120578
6.227562496,0.9998784503133435,-83.99152469422064
6.231485952,0.9999320552952619,-84.18179676604025
6.235409408,0.9999900257790392,-84.37285463934285
6.239332864,1.0000489175253242,-84.56480043191495
6.24325632,1.0001052090471958,-84.75761579589549
6.247179776,1.0001554789034923,-84.95121799525779
6.251103232,1.000196648574047,-85.14552495094817
6.2550272,1.0002262151638557,-85.34033311026306
6.258950656,1.0002423824551165,-85.53550086978416
6.262874112,1.0002441257154795,-85.73082008167788
6.266797568,1.0002310725418695,-85.92609487367274
6.270721024,1.0002044497552993,-86.12115146821209
6.27464448,1.00016547270533,-86.31573437926573
6.278567936,1.00011678368579,-86.50975950124142
6.282491392,1.0000610654368756,-86.70302043852762
6.286414848,1.0000018634182268,-86.89554358259826
6.290338304,0.9999427009338919,-87.08724985317684
6.29426176,0.999887172601424,-87.27816513516929
6.298185216,0.999838707720872,-87.46838047385658
6.302108672,0.9998001006229283,-87.65798489041833
6.306032128,0.9997738590781265,-87.84717080245832
6.309956096,0.9997615870071375,-88.03611982338478
6.313879552,0.9997641014317091,-88.22500233790772
6.317803008,0.999781041342475,-88.41404084434436
6.321726464,0.9998118093004935,-88.60343557725515
6.32564992,0.9998540605017056,-88.79340337767961
6.329573376,0.9999056511854694,-88.98406411730366
6.333496832,0.9999633430210949,-89.17550307141289
6.337420288,1.000023488222003,-89.3678765537075
6.341343744,1.0000826285412108,-89.56110005783322
6.3452672,1.0001370471753903,-89.75510668818102
6.349190656,1.0001836064553304,-89.94993861921634
6.353114112,1.00021922499218,-90.14533390382378
6.357037568,1.0002419673254614,-90.34119060892046
6.360961024,1.0002503357664303,-90.53732200973568
6.364884992,1.0002436046122827,-90.73346643105062
6.368808448,1.0002224328843192,-90.9294252356233
6.372731904,1.0001877630956337,-91.12509855343717
6.37665536,1.0001421426504957,-91.32013921018607
6.380578816,1.0000879567251661,-91.51454392172434
6.384502272,1.0000285344063446,-91.70817591923934
6.388425728,0.9999676304335883,-91.90096610820164
6.392349184,0.9999088714878194,-92.09294753115692
6.39627264,0.9998557185415663,-92.28415784649887
6.400196096,0.9998115362500215,-92.47472931160823
6.404119552,0.9997790053887647,-92.66471915099875
6.408043008,0.9997600539374839,-92.85439871778296
6.411966464,0.9997558603920006,-93.04393370093682
6.41588992,0.9997668663126336,-93.23354956620956
6.419813888,0.9997921852707425,-93.42346417651001
6.423737344,0.9998305068568211,-93.61384405718944
6.4276608,0.9998792992505762,-93.80485101194814
6.431584256,0.9999359346434773,-93.99668522402406
6.435507712,0.9999967243200949,-94.1892891904874
6.439431168,1.000058068213289,-94.3828625796768
6.443354624,1.0001162488959243,-94.57731827502666
6.44727808,1.000167803043049,-94.77251387616384
6.451201536,1.000209282774668,-94.96849977462668
6.455124992,1.000238508999852,-95.16494982438012
6.459048448,1.000253614664727,-95.36177810715742
6.462971904,1.0002534565425114,-95.55870442148448
6.46689536,1.0002382263331324,-95.75560012558932
6.470818816,1.0002087161752595,-95.95215714611284
6.474742272,1.000166755181978,-96.14824360811717
6.47866624,1.000114905904771,-96.3436881787305
6.482589696,1.000056178015391,-96.5384117434407
6.486513152,0.9999942415338372,-96.73228387812028
6.490436608,0.9999327254281312,-96.92530803957327
6.494360064,0.9998754176601657,-97.11752972750656
6.49828352,0.9998258137676483,-97.30901696982605
6.502206976,0.9997870957593126,-97.49987462997436
6.506130432,0.9997614063172098,-97.69034048669252
6.510053888,0.9997504094102452,-97.88050406557808
6.513977344,0.9997548398583008,-98.07070199999862
6.5179008,0.9997744066547585,-98.26104826641416
6.521824256,0.9998079301596611,-98.45181505963814
6.525747712,0.9998533952965523,-98.64320897223541
6.529671168,0.9999081132241789,-98.83526046971507
6.533595136,0.9999688316622215,-99.02823119158694
6.537518592,1.00003172542077,-99.22203306237381
6.541442048,1.0000929412627613,-99.41682861143224
6.545365504,1.0001489466053384,-99.61244905706018
6.54928896,1.0001962599235188,-99.80879864886919
6.553212416,1.0002321425960252,-100.00577761154179
6.557135872,1.0002540339024169,-100.20321783899888
6.561059328,1.0002608196600513,-100.40086915347005
6.564982784,1.000252076439283,-100.59854547575453
6.56890624,1.0002280874927165,-100.79603200579525
6.572829696,1.0001907981646914,-100.99311808929336
6.576753152,1.000141845020174,-101.18958742277569
6.580676608,1.000084483245502,-101.38533452779886
6.584600064,1.0000221846976267,-101.58028502984874
6.588524032,0.9999587047832661,-101.77434419642714
6.592447488,0.9998977709681476,-101.96756099469931
6.596370944,0.9998433767260588,-102.15993552699618
6.6002944,0.9997984643141097,-102.35166856154939
6.604217856,0.9997660684583212,-102.54286006380727
6.608141312,0.9997480923715789,-102.73368656263125
6.612064768,0.9997455801451534,-102.92446466589061
6.615988224,0.9997588326080606,-103.11529398320866
6.61991168,0.9997869286759845,-103.30643204898182
6.623835136,0.9998282779251759,-103.49809440593376
6.627758592,0.9998804045704734,-103.690436134065
6.631682048,0.9999401266092752,-103.88359832264334
6.635605504,1.0000038909084474,-104.07765990021868
6.63952896,1.0000676606638916,-104.27268611502679
6.643452928,1.0001277117781295,-104.46857880474492
6.647376384,1.000180404195862,-104.6653471149251
6.65129984,1.0002224855267117,-104.86276679623012
6.655223296,1.000251249003915,-105.06073081982028
6.659146752,1.0002651716144828,-105.25902525216111
6.663070208,1.000263321328219,-105.45740423916189
6.666993664,1.0002456380742792,-105.65572475063023
6.67091712,1.0002132989724235,-105.85370063984058
6.674840576,1.000168298002753,-106.05113496470744
6.678764032,1.000113020389762,-106.247891132225
6.682687488,1.000051309887684,-106.44384272140847
6.686610944,0.9999865050723606,-106.63890039337792
6.6905344,0.999922655454992,-106.833075380915
6.694457856,0.9998636321928402,-107.02644676125823
6.698381312,0.999813076914693,-107.21899845366801
6.70230528,0.9997741135913102,-107.41097138960869
6.706228736,0.9997488461700322,-107.60246601867004
6.710152192,0.9997392037670012,-107.79378037353746
6.714075648,0.9997456158525713,-107.98504448141706
6.717999104,0.9997676707580465,-108.17657522183623
6.72192256,0.999804186508519,-108.36854385839021
6.725846016,0.9998529090882589,-108.56109349514726
6.729769472,0.9999108299973316,-108.75449068867944
6.733692928,0.9999746129960514,-108.94872850594645
6.737616384,1.0000402867493288,-109.1438748998541
6.74153984,1.0001037383542217,-109.34000594884935
6.745463296,1.0001614076958523,-109.53702168181871
6.749386752,1.0002095386848395,-109.73481771715134
6.753310208,1.0002452680337324,-109.93321741163292
6.757234176,1.0002664532999956,-110.13204684837021
6.761157632,1.0002716957509283,-110.33110811973059
6.765081088,1.0002608418638061,-110.53017855866398
6.769004544,1.0002342492162437,-110.72892844656837
6.772928,1.000193651002733,-110.92729375248805
6.776851456,1.0001415496852946,-111.124993937046
6.780774912,1.0000810186822249,-111.32191534858757
6.784698368,1.0000156970939587,-111.51799079943014
6.788621824,0.9999495177513094,-111.71314858859316
6.79254528,0.9998865865572645,-111.90736838071197
6.796468736,0.9998306544077459,-112.10078590168158
6.800392192,0.9997851331777228,-112.29349101415785
6.804315648,0.9997528529547102,-112.48570172600026
6.808239104,0.9997358256919266,-112.67756771641135
6.812163072,0.9997349985887221,-112.86932490467711
6.816086528,0.9997504949734967,-113.06119467151271
6.820009984,0.9997815047237469,-113.25339653277474
6.82393344,0.9998259623847064,-113.44619238879591
6.827856896,0.9998813544970961,-113.63968510209831
6.831780352,0.9999442231156861,-113.83402267117435
6.835703808,1.0000109524817222,-114.02933079653316
6.839627264,1.0000772691948143,-114.22560035509701
6.84355072,1.0001392170980878,-114.42280798768934
6.847474176,1.0001931965056143,-114.62086396803541
6.851397632,1.0002356814906117,-114.81962824406237
6.855321088,1.0002641815480708,-115.01890120241956
6.859244544,1.000276921783147,-115.21850622271764
6.863168,1.0002731915364325,-115.41818699102105
6.867091456,1.0002530437434571,-115.61773134576562
6.871015424,1.000217738441068,-115.81689594460076
6.87493888,1.0001694072493226,-116.01552240491085
6.878862336,1.0001110012470737,-116.2133958818974
6.882785792,1.0000459743149632,-116.4103938398013
6.886709248,0.9999783245731626,-116.60645655026606
6.890632704,0.9999120022606629,-116.8016081215824
6.89455616,0.9998512323040821,-116.99588467729723
6.898479616,0.9997996076720088,-117.18938205783448
6.902403072,0.9997603251190039,-117.38222116025378
6.906326528,0.9997356626174871,-117.57464514297628
6.910249984,0.9997273118769638,-117.76684730191464
6.91417344,0.9997357923874635,-117.95907023160731
6.918096896,0.9997605660276587,-118.15153800732517
6.922020352,0.9998000642579391,-118.34446783592013
6.92594432,0.999852037677819,-118.53810092178126
6.929867776,0.9999134086994539,-118.73250934041255
6.933791232,0.9999802574137205,-118.92786893723374
6.937714688,1.0000486751560134,-119.12421496961932
6.941638144,1.000114443653405,-119.32153928990526
6.9455616,1.0001736986757699,-119.51972754723379
6.949485056,1.0002227034641995,-119.71875984876331
6.953408512,1.000258525941074,-119.91840560117784
6.957331968,1.000278867486634,-120.11845719510211
6.961255424,1.0002827103924097,-120.31871773288572
6.96517888,1.0002694849617635,-120.51890504978185
6.969102336,1.00024019289663,-120.71886227795903
6.973025792,1.000196514096763,-120.91826778488925
6.976949248,1.0001410307589933,-121.11702380114153
6.980873216,1.0000771487481008,-121.31493288271582
6.984796672,1.0000087409076517,-121.51194089685289
6.988720128,0.9999399040767409,-121.70795405949697
6.992643584,0.9998747462051389,-121.90302697647319
6.99656704,0.9998174608621321,-122.0973011509276
7.000490496,0.9997712222454225,-122.29078730602575
7.004413952,0.9997392092015605,-122.48380547404705
7.008337408,0.999723029954558,-122.67643753198071
7.012260864,0.9997239863608768,-122.86901211216713
7.01618432,0.9997419276822862,-123.06173458562614
7.020107776,0.9997757122563505,-123.25480048087711
7.024031232,0.9998234950128151,-123.44849597751622
7.027954688,0.9998822457393776,-123.64293897719556
7.031878144,0.9999485528237896,-123.83830659553308
7.035802112,1.0000182238067234,-124.03464151421592
7.039725568,1.0000871961843718,-124.23200576938711
7.043649024,1.0001511571060342,-124.43030952115151
7.04757248,1.000206331039101,-124.62945268548259
7.051495936,1.0002492652586803,-124.82933697466372
7.055419392,1.000277414393613,-125.02975871438838
7.059342848,1.000288990317006,-125.23047537474412
7.063266304,1.000283363324045,-125.43126751526574
7.06718976,1.0002606714123223,-125.63185305519652
7.071113216,1.0002223430596069,-125.8320577359051
7.075036672,1.0001706742420162,-126.03159211065092
7.078960128,1.000108935937985,-126.2303621416594
7.082883584,1.000040546963945,-126.42823836311464
7.08680704,0.9999699284108879,-126.62513381016906
7.090730496,0.9999012528017682,-126.82104876744425
7.094654464,0.9998386120581942,-127.01603074604117
7.09857792,0.9997858227592266,-127.21022660710571
7.102501376,0.999746260840545,-127.40378392125075
7.106424832,0.999722309849777,-127.59688871927091
7.110348288,0.9997153723817099,-127.78976646339255
7.114271744,0.9997259711883069,-127.98270065580624
7.1181952,0.9997534008256114,-128.1759241221068
7.122118656,0.9997960070261382,-128.3696634913425
7.126042112,0.9998513539132803,-128.56409745405838
7.129965568,0.9999161367261311,-128.75939595913758
7.133889024,0.9999862218105487,-128.9556752082782
7.13781248,1.0000576012594684,-129.15295325495669
7.141735936,1.0001257528943728,-129.35125812267643
7.145659392,1.000186590226123,-129.55051711825772
7.14958336,1.0002365306231817,-129.7505473017074
7.153506816,1.0002723914094755,-129.95120978390227
7.157430272,1.0002919934211452,-130.15229587480724
7.161353728,1.000294163840981,-130.3535382814584
7.165277184,1.0002786967658401,-130.5547189094923
7.16920064,1.0002466095633211,-130.75557927217199
7.173124096,1.0001996150603756,-130.95589455460635
7.177047552,1.000140715327295,-131.15547994463796
7.180971008,1.000073414219106,-131.3541113896812
7.184894464,1.0000017772836143,-131.55185916709524
7.18881792,0.9999301274289706,-131.7485902702799
7.192741376,0.9998627985662024,-131.94430375602278
7.196664832,0.9998039778786302,-132.13916409337995
7.200588288,0.9997571777809996,-132.33327738322814
7.204512256,0.9997252378380351,-132.52683473319686
7.208435712,0.999710059982373,-132.72004458322152
7.212359168,0.9997128455848269,-132.9132332010733
7.216282624,0.9997331725044005,-133.1065317535077
7.22020608,0.9997701017953846,-133.30031725638088
7.224129536,0.999821048281772,-133.49470863884758
7.228052992,0.9998833450785746,-133.6898942919045
7.231976448,0.9999529883117786,-133.8860413466669
7.235899904,1.0000257924179332,-134.08321356613044
7.23982336,1.000097430606072,-134.28142962564502
7.243746816,1.0001635097646946,-134.4806343938831
7.247670272,1.0002198841906904,-134.6807040079396
7.251593728,1.0002633469313946,-134.88153991236499
7.255517184,1.000291125553016,-135.0828555124001
7.259441152,1.0003015256555206,-135.28449421389993
7.263364608,1.0002938032566275,-135.48615553891742
7.267288064,1.000268415582929,-135.68759671236148
7.27121152,1.000227059286805,-135.8885516728702
7.275134976,1.0001719483655196,-136.08886093603428
7.279058432,1.000106672411214,-136.28831782821405
7.282981888,1.0000349134465452,-136.4868428904841
7.286905344,0.9999611828598327,-136.68428212181786
7.2908288,0.9998899175723653,-136.8807799492962
7.294752256,0.9998254268884867,-137.07628668425517
7.298675712,0.9997715497913552,-137.2709388121642
7.302599168,0.9997317294969839,-137.46497243777927
7.306522624,0.9997083411620382,-137.65853454027723
7.31044608,0.9997028944143784,-137.85189861251934
7.314369536,0.9997156086055161,-138.04533143405934
7.318293504,0.9997458365401728,-138.23909776256667
7.32221696,0.9997917906394695,-138.43340160643578
7.326140416,0.9998505839255681,-138.62844037379259
7.330063872,0.9999188619056525,-138.82440595105956
7.333987328,0.9999923074611589,-139.02139276788057
7.337910784,1.000066657685441,-139.21942346708158
7.34183424,1.000137178035964,-139.41851412870847
7.345757696,1.000199807391669,-139.61852899435064
7.349681152,1.0002505826621988,-139.81939564569643
7.353604608,1.0002864788238062,-140.02086811364958
7.357528064,1.000305196631707,-140.22277163383674
7.36145152,1.0003057641504443,-140.42479015218404
7.365374976,1.0002879571756849,-140.6267444961335
7.369298432,1.000252825288071,-140.82829264642575
7.3732224,1.0002025755153057,-141.02923709325182
7.377145856,1.0001401362839482,-141.22942705101542
7.381069312,1.0000693003074752,-141.42867184398068
7.384992768,0.9999943528227418,-141.62687613521138
7.388916224,0.999919762920236,-141.82408071513998
7.39283968,0.9998502015908838,-142.02021435326824
7.396763136,0.9997898648208771,-142.21543670409565
7.400686592,0.9997423079970083,-142.40990434159113
7.404610048,0.9997105789293075,-142.60382887925957
7.408533504,0.9996965729609568,-142.79741440542244
7.41245696,0.9997011465680877,-142.99094060331532
7.416380416,0.9997240191673423,-143.18468175749985
7.420303872,0.9997639960404776,-143.3788790884644
7.424227328,0.9998185043638671,-143.5737309080744
7.428151296,0.9998843566953679,-143.76946043129976
7.432074752,0.9999575223497698,-143.9661376078018
7.435998208,1.0000336615287486,-144.16393152368576
7.439921664,1.0001080259928645,-144.3627986950834
7.44384512,1.000176190792003,-144.56269630123325
7.447768576,1.0002340112591295,-144.76349658106702
7.451692032,1.0002778890421211,-144.96499836836838
7.455615488,1.0003053014222367,-145.1670484131773
7.459538944,1.0003143483878139,-145.3693807197878
7.4634624,1.0003045784527147,-145.5716828024794
7.467385856,1.0002765199908425,-145.77374161708747
7.471309312,1.00023184175855,-145.97530333279238
7.475232768,1.0001733218359137,-146.17612893080891
7.479156224,1.000104308351302,-146.37604611181473
7.483080192,1.0000290898853075,-146.57497419830355
7.487003648,0.9999521674314362,-146.77283359624928
7.490927104,0.9998782479254971,-146.96959014884496
7.49485056,0.9998118140396859,-147.16538896271183
7.498774016,0.9997568843744349,-147.36030866264835
7.502697472,0.9997167761482305,-147.55457252828342
7.506620928,0.9996940911978345,-147.74838154527663
7.510544384,0.999689969012898,-147.9419892998073
7.51446784,0.999704999856905,-148.13571122338632
7.518391296,0.9997381732377636,-148.32971869455034
7.522314752,0.9997874384547424,-148.52437015813857
7.526238208,0.9998499096832367,-148.7198296024217
7.530161664,0.9999218033716815,-148.91620686577994
7.53408512,0.9999988126585414,-149.11364756620694
7.538008576,1.0000761609997717,-149.31223583363683
7.541932544,1.0001492310011808,-149.51187802111474
7.545856,1.0002135895048638,-149.71249118657911
7.549779456,1.0002653297234714,-149.91393529257644
7.553702912,1.000301185303341,-150.1160269133174
7.557626368,1.0003190623606728,-150.3184974737536
7.561549824,1.0003179028805549,-150.52110024973393
