freq,mag,phase
6.0,1.000143814384879,-34.11374421406883
6.012519424,1.0001287870804374,-34.567810510609704
6.02503936,1.0001093459761927,-35.0216379072476
6.037558784,1.0000846054477377,-35.47526803555061
6.050078208,1.0000557874953522,-35.928606659520206
6.062597632,1.0000241216723527,-36.38159689707144
6.075117568,0.9999913130407734,-36.83419593460277
6.087636992,0.9999588547918067,-37.28641724056564
6.100156416,0.9999279390238808,-37.73829356043395
6.11267584,0.999900437926304,-38.189820986406474
6.125195776,0.9998774916438238,-38.641060368903105
6.1377152,0.999860132337793,-39.092076836525145
6.150234624,0.9998490681560621,-39.54291946357928
6.162754048,0.99984504584139,-39.993737862120696
6.175273984,0.9998483172308918,-40.444546758340486
6.187793408,0.9998583774865507,-40.895497715705275
6.200312832,0.999875077878885,-41.34661107702983
6.212832768,0.9998975868814272,-41.798011708043084
6.225352192,0.9999248040296221,-42.24977430439369
6.237871616,0.9999553958783447,-42.70188316539091
6.25039104,0.9999881680945556,-43.15443413924468
6.262910976,1.0000212615332762,-43.607422893370284
6.2754304,1.000053308078009,-44.060882910648765
6.287949824,1.000082855803796,-44.514664338133265
6.300469248,1.0001084899212862,-44.96888337582642
6.312989184,1.000128871117599,-45.423453657454324
6.325508608,1.0001430092105372,-45.87821865662688
6.338028032,1.000150629019797,-46.33314350497648
6.350547968,1.0001511125477414,-46.788153428840374
6.363067392,1.0001441243196194,-47.24316445347165
6.375586816,1.0001304064234444,-47.69808295767834
6.38810624,1.000110518222475,-48.15281678894392
6.400626176,1.0000852350365952,-48.60729111208013
6.4131456,1.0000558366394203,-49.06146609571099
6.425665024,1.0000236520641832,-49.51529428565938
6.438184448,0.9999902998314154,-49.96871440079784
6.450704384,0.9999571990982992,-50.42176969760536
6.463223808,0.9999260838496494,-50.874452838154525
6.475743232,0.9998983263162766,-51.326767607547715
6.488262656,0.9998750013981466,-51.77879745251686
6.500782592,0.999857582976484,-52.23063089464161
6.513302016,0.9998467516406346,-52.68230412445926
6.52582144,0.9998428843453653,-53.13389370482865
6.538341376,0.999846132976081,-53.58553637538817
6.5508608,0.9998567347808591,-54.037280408667996
6.563380224,0.9998739617352216,-54.489200287038244
6.575899648,0.9998969341060525,-54.94143505192058
6.588419584,0.9999246856863553,-55.39399448048534
6.600939008,0.9999559284745688,-55.84697246893001
6.613458432,0.9999892760885252,-56.30034883615474
6.625977856,1.000022974332518,-56.754174431803754
6.638497792,1.000055391292555,-57.20849481833293
6.651017216,1.0000854081958808,-57.663186553385565
6.66353664,1.000111225738862,-58.11825558164658
6.676056576,1.0001318006155397,-58.57363373928753
6.688576,1.0001461587339244,-59.029310569645915
6.701095424,1.000153625592196,-59.48508589371662
6.713614848,1.0001536081749713,-59.94100027801724
6.726134784,1.0001464439571262,-60.39687187293341
6.738654208,1.000132426102787,-60.852623930392795
6.751173632,1.0001119646181718,-61.30819020883691
6.763693056,1.000086116524855,-61.76350941240994
6.776212992,1.0000561398461398,-62.218513957844074
6.788732416,1.0000234263758652,-62.67317372034691
6.80125184,0.9999895079606483,-63.12743000529426
6.813771264,0.9999559210547195,-63.581270069499276
6.8262912,0.9999243247861723,-64.03475604851276
6.838810624,0.9998960303004878,-64.48788926036445
6.851330048,0.9998726568437706,-64.9407352827611
6.863849984,0.9998550284541322,-65.3933536712849
6.876369408,0.9998441254837288,-65.84582807383632
6.888888832,0.9998403708619649,-66.2982083551462
6.901408256,0.9998441730210447,-66.75063549940849
6.913928192,0.9998550357279059,-67.20316308295912
6.926447616,0.9998727011761196,-67.65591515444372
6.93896704,0.9998963057756067,-68.10893816693243
6.951486464,0.9999246489325172,-68.56231426916278
6.9640064,0.9999565221850168,-69.01609746178069
6.976525824,0.9999903961983864,-69.47032927414679
6.989045248,1.000024692511229,-69.92500542518358
7.001565184,1.000057649102144,-70.38012284734228
7.014084608,1.0000881451762937,-70.83570014886978
7.026604032,1.0001141267850147,-71.29160834198356
7.039123456,1.0001350822176467,-71.74784466681258
7.051643392,1.0001494921799865,-72.20435138829886
7.064162816,1.0001568162947057,-72.66101318567559
7.07668224,1.0001566784314762,-73.11775384287797
7.089201664,1.0001492492238255,-73.57445457556841
7.1017216,1.00013460098965,-74.0311006951676
7.114241024,1.0001137046069781,-74.4875271095111
7.126760448,1.0000872444274125,-74.9436595207565
7.139279872,1.0000567099123354,-75.39946501749655
7.151799808,1.0000233921421042,-75.85491943151793
7.164319232,0.9999886754604232,-76.30999855894119
7.176838656,0.9999545468332082,-76.76467338461742
7.189358592,0.9999224436584271,-77.21893665734463
7.201878016,0.9998937783830242,-77.67281485821975
7.21439744,0.9998700982595347,-78.12646412431972
7.226916864,0.9998523600429672,-78.57983208918381
7.2394368,0.9998414187366819,-79.03308297915115
7.251956224,0.999837889935939,-79.48621866872429
7.264475648,0.9998419022927292,-79.93943613157204
7.276995072,0.9998531962685442,-80.39273150206408
7.289515008,0.999871379050728,-80.84625503036101
7.302034432,0.9998955431694231,-81.30011011682885
7.314553856,0.9999244512071672,-81.75429254031003
7.327073792,0.9999570461930152,-82.2088492890105
7.339593216,0.9999915787014275,-82.66390759526897
7.35211264,1.0000264527414984,-83.11938659424392
7.364632064,1.0000600999154627,-83.5753533617709
7.377152,1.0000908813683875,-84.03170526184665
7.389671424,1.0001174614322828,-84.48848211014916
7.402190848,1.0001385324952854,-84.94556440024441
7.414710272,1.000152995711634,-85.40289089565839
7.427230208,1.0001602800472933,-85.86037876560525
7.439749632,1.0001599686645084,-86.31797490864435
7.452269056,1.0001521955246226,-86.77551567460533
7.46478848,1.0001371535746526,-87.23293381504486
7.477308416,1.0001156345929274,-87.6901800727057
7.48982784,1.0000885437969524,-88.14715314763522
7.502347264,1.0000573691833987,-88.60377365530695
7.5148672,1.0000234165510948,-89.06000312637876
7.527386624,0.9999880757274744,-89.51585590608111
7.539906048,0.9999533358268126,-89.97129729404955
7.552425472,0.9999205691304597,-90.42631297002639
7.564945408,0.9998916473338898,-90.88101358784695
7.577464832,0.9998675454061623,-91.33535789805535
7.589984256,0.999849676570463,-91.78949688121368
7.60250368,0.999838638399918,-92.24348840265576
7.615023616,0.9998352977573499,-92.69738948324034
7.62754304,0.9998395480848044,-93.15132944697247
7.640062464,0.999851252009924,-93.60539994497157
7.6525824,0.9998699190766819,-94.05970542648657
7.665101824,0.9998947041687021,-94.51426960535453
7.677621248,0.9999244133543619,-94.96919545690649
7.690140672,0.9999576485223282,-95.42457588763754
7.702660608,0.9999927959999477,-95.88039215516578
7.715180032,1.0000284590289545,-96.33665423437732
7.727699456,1.000062759336492,-96.79340176442271
7.74021888,1.0000940903825273,-97.2505754533512
7.752738816,1.0001210556478695,-97.70814739567686
7.76525824,1.0001422927597166,-98.1660661086493
7.777777664,1.000156906824062,-98.62419899622701
7.790297088,1.0001640804140888,-99.08249336577774
7.802817024,1.0001636285188535,-99.54087870937244
7.815336448,1.0001555340993196,-99.99921689962328
7.827855872,1.0001400601922257,-100.45746413529845
7.840375808,1.0001179896185484,-100.91548743528324
7.852895232,1.0000902682097372,-101.37323922906894
7.865414656,1.0000581711209613,-101.8306526886698
7.87793408,1.0000234414068605,-102.28764866434085
7.890454016,0.9999875766782059,-102.74421899617322
7.90297344,0.9999520573798183,-103.20041060828169
7.915492864,0.9999187008542375,-103.65619726965492
7.928012288,0.9998892199917302,-104.11158574959055
7.940532224,0.9998648601005499,-104.56668003840939
7.953051648,0.9998466894610307,-105.0215189738562
7.965571072,0.9998357431279482,-105.47619245636446
7.978091008,0.9998324204627131,-105.93081291194864
7.990610432,0.9998369261825557,-106.3854784754131
8.003129856,0.9998490085270062,-106.84024932430312
8.01564928,0.9998682334199426,-107.29526147521922
8.028169216,0.9998937368746739,-107.75053906168625
8.04068864,0.9999241586623077,-108.20623789840644
8.053208064,0.9999581069190525,-108.66232574085548
8.065727488,0.9999941092576022,-109.11888811308371
8.078247424,1.0000305238990286,-109.57593798856625
8.090766848,1.000065412206029,-110.03343420961554
8.103286272,1.0000973277661005,-110.49139935679918
8.115805696,1.0001246800421235,-110.94972141494317
8.128325632,1.0001462831659826,-111.40841660942046
8.140845056,1.0001610726682497,-111.86730946287909
8.15336448,1.0001682839181496,-112.32639985634144
8.165884416,1.0001675840515485,-112.78556380708962
8.17840384,1.0001590299274887,-113.24470559972048
8.190923264,1.0001431660907427,-113.70368210168674
8.203442688,1.0001203660140285,-114.1624636127475
8.215962624,1.0000919696592943,-114.62094673353623
8.228482048,1.0000592085861129,-115.07909268145232
8.241001472,1.0000236290921904,-115.53683009776796
8.253520896,0.9999868715345283,-115.99412444721271
8.266040832,0.9999507225402758,-116.45101136527231
8.278560256,0.9999167642110135,-116.90746050363519
8.29107968,0.9998866542648739,-117.36356060392454
8.303599616,0.9998618783900233,-117.8193149916683
8.31611904,0.9998434905951485,-118.27484409619431
8.328638464,0.9998324539936053,-118.73017185967723
8.341157888,0.9998292163533254,-119.18546245349154
8.353677824,0.9998340222050194,-119.64079438012791
8.366197248,0.9998465367864634,-120.09623868762552
8.378716672,0.999866410929475,-120.55192236896083
8.391236096,0.9998925309100815,-121.0079001754786
8.403756032,0.9999237460577314,-121.4642292872028
8.416275456,0.9999585803489116,-121.92104615502572
8.42879488,0.9999954038083112,-122.37831634035322
8.441314304,1.0000325991564625,-122.8360682867376
8.45383424,1.0000682349691832,-123.29430502545463
8.466353664,1.0001008229586523,-123.75295468604453
8.478873088,1.0001287179011744,-124.21207247566066
8.491393024,1.0001506416525447,-124.67147492374359
8.503912448,1.0001655614633167,-125.13114641895473
8.516431872,1.0001727950602084,-125.59096182397262
8.528951296,1.000171929868853,-126.05084207252187
8.541471232,1.0001630500896403,-126.51071117952502
8.553990656,1.0001464977598207,-126.97041994061782
8.56651008,1.0001231515643558,-127.4299329148033
8.579029504,1.0000939411502725,-127.88911863964655
8.59154944,1.000060347998324,-128.34795019261625
8.604068864,1.0000238957174354,-128.80636418843116
8.616588288,0.9999862508707025,-129.26433419634202
8.629107712,0.9999492653084319,-129.72186075690163
8.641627136,0.9999145932807066,-130.1789859654765
8.654147584,0.9998839855780799,-130.63569093190577
8.666667008,0.9998586704944448,-131.09209667855887
8.679186432,0.9998399928843765,-131.5482324839175
8.691705856,0.9998288734713716,-132.00418905297403
8.70422528,0.9998257026572954,-132.46009493729113
8.716744704,0.9998308032299439,-132.91602927386475
8.729264128,0.9998438933880377,-133.3721009367884
8.741783552,0.9998643330733687,-133.82840915014157
8.754304,0.9998911235272973,-134.28501539163034
8.766823424,0.9999232130027933,-134.7420071599166
8.779342848,0.9999589633372192,-135.19944752240067
8.791862272,0.9999966808039584,-135.6573785777401
8.804381696,1.0000347608592983,-136.115797306398
8.81690112,1.0000712094775477,-136.5746923530453
8.829420544,1.0001044124224001,-137.0340723434972
8.841940992,1.0001328877126912,-137.4938448155977
8.854460416,1.000155242426435,-137.95394158893936
8.86697984,1.0001702972387447,-138.41430119043008
8.879499264,1.0001775826202717,-138.87482042411455
8.892018688,1.0001765381630443,-139.3354093135335
8.904538112,1.0001672839514957,-139.79593426236428
8.917057536,1.0001501645606057,-140.25634716846383
8.92957696,1.000126064574633,-140.71651590201665
8.942097408,1.0000960726926291,-141.17636803775738
8.954616832,1.0000616137135494,-141.63585079910126
8.967136256,1.0000242020291352,-142.0948882963428
8.97965568,0.9999857094932444,-142.55346683247288
8.992175104,0.9999477544723239,-143.011627131797
9.004694528,0.9999123443037626,-143.4693035039977
9.017213952,0.9998809173367431,-143.92660720336755
9.0297344,0.9998552216714126,-144.38358554793186
9.042253824,0.9998361786330465,-144.84029833281147
9.054773248,0.9998249519750181,-145.29681608363316
9.067292672,0.9998219044797427,-145.75327769004627
9.079812096,0.999827278046705,-146.2097767491773
9.09233152,0.9998407537242218,-146.66640375785488
9.104850944,0.9998618741055102,-147.1232916292059
9.117371392,0.9998895627218434,-147.58045182873565
9.129890816,0.9999224788690204,-148.03804523696692
9.14241024,0.9999592047453083,-148.49606119073093
9.154929664,0.9999978518724062,-148.95461532992394
9.167449088,1.0000368979636038,-149.41362295740333
9.179968512,1.0000742573718848,-149.87315511868826
9.192487936,1.000108305992885,-150.33313371406987
9.20500736,1.0001373018307091,-150.79355400637797
9.217527808,1.0001601133332072,-151.25430751086733
9.230047232,1.0001755321206784,-151.71528191620476
9.242566656,1.000182730680424,-152.17647937298358
9.25508608,1.000181460814017,-152.6376903276066
9.267605504,1.000171772299242,-153.09886934394183
9.280124928,1.0001542129658745,-153.55991739586415
9.292644352,1.0001293272965954,-154.02069622707432
9.3051648,1.000098457399649,-154.48115877219468
9.317684224,1.000062951825242,-154.94122629470755
9.330203648,1.0000245681146056,-155.4008501587339
9.342723072,0.9999849274043251,-155.8599831715994
9.355242496,0.9999460592251423,-156.318696059106
9.36776192,0.9999097197738395,-156.77692355494725
9.380281344,0.9998776740208678,-157.23473154150298
9.392800768,0.9998513259853323,-157.69222859387293
9.405321216,0.9998320395115188,-158.14942446642138
9.41784064,0.9998206005617916,-158.606458164218
9.430360064,0.999817625624635,-159.0634178702331
9.442879488,0.9998233085718117,-159.52040420187996
9.455398912,0.9998373735415204,-159.977550043046
9.467918336,0.9998591048859452,-160.43491850389785
9.48043776,0.9998876533645703,-160.89261227683065
9.492958208,0.9999215483878006,-161.35072255534067
9.505477632,0.9999592984250886,-161.8092790771671
9.517997056,0.9999990955687945,-162.26835141613216
9.53051648,1.0000391419544536,-162.72793703874365
9.543035904,1.0000774815904006,-163.1880306890076
9.555555328,1.0001123435040864,-163.64860567006218
9.568074752,1.0001421167578042,-164.1095902134333
9.580594176,1.0001653173971878,-164.57091847098758
9.593114624,1.0001809639828976,-165.032516440656
9.605634048,1.000188246856665,-165.49429067254835
9.618153472,1.0001868245653227,-165.95609883811986
9.630672896,1.0001767339931986,-166.4178488154368
9.64319232,1.0001583622958732,-166.8794530352138
9.655711744,1.0001327453815843,-167.34079902780175
9.668231168,1.000100952339528,-167.80180944966895
9.680751616,1.0000642995790494,-168.26240667833528
9.69327104,1.000024775669243,-168.72256491689896
9.705790464,0.9999841343227911,-169.18220960113177
9.718309888,0.9999442106764527,-169.64139343782298
9.730829312,0.9999068399518755,-170.10009424344904
9.743348736,0.9998740351109844,-170.55836518118824
9.75586816,0.999846984134919,-171.0162798202858
9.768388608,0.9998272010718567,-171.47393777088837
9.780908032,0.999815626895337,-171.93139701334968
9.793427456,0.9998127092995738,-172.388783789217
9.80594688,0.9998187011851499,-172.8462069053252
9.818466304,0.9998333215809412,-173.30377152756782
9.830985728,0.999855804555744,-173.76158507937527
9.843505152,0.999885340619629,-174.21971290185587
9.856024576,0.9999203297113609,-174.67828822718076
9.868545024,0.9999591864004042,-175.1373257612469
9.881064448,1.0000002439076363,-175.59686430216988
9.893583872,1.0000413157833774,-176.0569471709265
9.906103296,1.000080807287285,-176.51753493631384
9.91862272,1.0001165384816046,-176.97861550643458
9.931142144,1.000147136613807,-177.4401265111025
9.943661568,1.0001708312516537,-177.9020075928005
9.956182016,1.00018680803806,-178.36411810199053
9.96870144,1.000194191023553,-178.82641783432368
9.981220864,1.0001925740011055,-179.28876409901923
9.993740288,1.0001819379843069,-179.75103761290472
10.006259712,1.0001629667172816,179.78683756224362
10.018779136,1.0001364019844163,179.32499005662942
10.03129856,1.0001034025428728,178.86349224837517
10.043817984,1.0000657963443407,178.40241546187335
10.056338432,1.0000250121450622,177.941825686124
10.068857856,0.9999830952367337,177.48170973431598
10.08137728,0.9999419640213466,177.02213451430134
10.093896704,0.9999036388763839,176.56303321016551
10.106416128,0.9998697361426918,176.10435918466817
10.118935552,0.9998421056798346,175.64604545182624
10.131454976,0.9998218407220918,175.18803803595677
10.143975424,0.9998101201957568,174.73021228914016
10.156494848,0.9998072554633172,174.2724670670304
10.169014272,0.9998136590585408,173.81470945520596
10.181533696,0.9998288024425522,173.35677451994047
10.19405312,0.9998521624666634,172.89859129054966
10.206572544,0.9998826364176056,172.44006930743262
10.219091968,0.999918791327082,171.98112373543066
10.231611392,0.9999589224743738,171.52169666474862
10.24413184,1.000001169045546,171.06172911620476
10.256651264,1.000043577544808,170.60122224841433
10.269170688,1.0000841298595184,170.1401935933107
10.281690112,1.0001210877238438,169.67865979407168
10.294209536,1.0001523562146541,169.2166824572142
10.30672896,1.0001768681609784,168.7543617040867
10.319248384,1.000193160005962,168.2917531430173
10.331768832,1.0002005277253456,167.8289892174935
10.344288256,1.000198632046459,167.36618040838965
10.35680768,1.0001876537224346,166.90342681730684
10.369327104,1.0001679080375934,166.44085442726507
10.381846528,1.0001403505765347,165.97857987307756
10.394365952,1.000106170981859,165.51663977692124
10.406885376,1.0000672792433298,165.05516405415938
10.419405824,1.0000251779810203,164.59418725123228
10.431925248,0.9999818594845279,164.1337179866383
10.444444672,0.999939468962644,163.6737732676512
10.456964096,0.9998999132708922,163.2143222116553
10.46948352,0.9998651392397929,162.75533274469493
10.482002944,0.9998366289341751,162.29673909145453
10.494522368,0.999815950084285,161.8384146184172
10.507041792,0.9998039626839708,161.38030361945846
10.51956224,0.9998011360592961,160.92228589731988
10.532081664,0.9998078871025861,160.46423072927738
10.544601088,0.9998237526835805,160.00602833698073
10.557120512,0.9998480021679381,159.54755014863517
10.569639936,0.9998796196323476,159.0887388638823
10.58215936,0.9999169918899437,158.62946796136924
10.594678784,0.9999585083881305,158.169709342367
10.607199232,1.0000022008848164,157.70940274677992
10.619718656,1.0000459432490871,157.2485277032808
10.63223808,1.0000879466291104,156.78711969784902
10.644757504,1.0001258542443474,156.32521377510892
10.657276928,1.000158186546694,155.8628504275922
10.669796352,1.0001833378822944,155.4001040454136
10.682315776,1.000199945582786,154.93709885115368
10.6948352,1.0002075061185534,154.47392330257986
10.707355648,1.0002054116705559,154.0107014659677
10.719875072,1.0001938291893273,153.54754234833226
10.732394496,1.000173238289927,153.08459507043872
10.74491392,1.000144635115809,152.6219200513213
10.757433344,1.000109311092142,152.1596381184068
10.769952768,1.0000689241953138,151.69781837152317
10.782472192,1.0000253631914786,151.23651846656085
10.79499264,0.9999805880714092,150.77574651706493
10.807512064,0.9999367487008022,150.3155288489908
10.820031488,0.9998959473102326,149.85582392187808
10.832550912,0.9998600490572438,149.39658557470932
10.845070336,0.9998307229062432,148.93774575705237
10.85758976,0.9998094039275165,148.4792321765973
10.870109184,0.9997970726265579,148.02091739725162
10.882628608,0.9997944551447956,147.56269242059744
10.895149056,0.9998014899034283,147.10443043901788
10.90766848,0.9998179866082331,146.64599707337342
10.920187904,0.9998432985124376,146.1873153346851
10.932707328,0.9998760692297229,145.72826109806536
10.945226752,0.9999149167286112,145.2687454938994
10.957746176,0.9999579039382636,144.8087320034435
10.9702656,1.000003127717478,144.34815577185248
10.982786048,1.0000485515898083,143.88699620757365
