freq,mag,phase
6.0,0.9995458669893796,-26.085912202173972
6.002287104,0.9994379591992867,-26.172610660685923
6.004574208,0.9993651285017876,-26.258032533030995
6.006861312,0.999332688912651,-26.34271097634842
6.009147904,0.9993425697334881,-26.42723367806524
6.011435008,0.9993944017130842,-26.512230388583383
6.013722112,0.99948473535467,-26.59826059571267
6.016009216,0.9996078486761284,-26.685884859039167
6.01829632,0.9997560307503945,-26.775477720560247
6.020583424,0.9999196436879668,-26.867427270476906
6.022870016,1.000088211793941,-26.96173864787623
6.02515712,1.0002511370107499,-27.058541548645582
6.027444224,1.000397878273562,-27.157652171271394
6.029731328,1.000519230098085,-27.25866892578203
6.032018432,1.0006073690850454,-27.36125589694329
6.034305536,1.0006565797899065,-27.46484383207176
6.036592128,1.0006637869152235,-27.568883375663
6.038879232,1.000628598769015,-27.672730472597483
6.041166336,1.0005532790082663,-27.775826398028418
6.04345344,1.0004423976025942,-27.877554624490774
6.045740544,1.000303086096658,-27.97750784826996
6.048027648,1.0001441111965006,-28.075281988861377
6.05031424,0.9999760238768738,-28.170664668956096
6.052601344,0.9998092698056943,-28.263660871767375
6.054888448,0.9996542545518872,-28.354309921796837
6.057175552,0.9995212337879937,-28.442881682119715
6.059462656,0.9994184671913876,-28.52977209984604
6.06174976,0.999352827935287,-28.61540972860211
6.064036352,0.999328229787765,-28.700397327267254
6.066323456,0.9993465295760743,-28.785356570902707
6.06861056,0.9994062224679965,-28.870948532605333
6.070897664,0.9995039000307828,-28.957707738272138
6.073184768,0.9996330915758739,-29.04610075010162
6.075471872,0.9997855263141266,-29.136580786814307
6.077758464,0.9999516197649185,-29.229414500774276
6.080045568,1.0001207252197246,-29.324724932342505
6.082332672,1.0002820127082717,-29.42245158444685
6.084619776,1.0004252287230528,-29.522409743710117
6.08690688,1.0005411947575105,-29.624259878161247
6.089193984,1.00062250543822,-29.72757992925178
6.091481088,1.000664185049668,-29.83182861561816
6.09376768,1.0006633276923695,-29.936365096761975
6.096054784,1.0006199485421012,-30.040649543984184
6.098341888,1.0005368215669597,-30.14399271037971
6.100628992,1.0004194002588491,-30.245907780103195
6.102916096,1.0002749941720401,-30.345910189625165
6.1052032,1.0001130093026078,-30.44372847959379
6.107489792,0.9999434681117946,-30.53915643439905
6.109776896,0.9997772882887059,-30.632139232561826
6.112064,0.9996250965024204,-30.722810605051347
6.114351104,0.9994966931936767,-30.811472763905353
6.116638208,0.9994003101415633,-30.89846397780777
6.118925312,0.9993420629343751,-30.984365666003477
6.121211904,0.9993253908283696,-31.069768368053737
6.123499008,0.9993520767760309,-31.155237350560654
6.125786112,0.9994196046807865,-31.241412867025154
6.128073216,0.9995244241187139,-31.32885821039481
6.13036032,0.9996592377048411,-31.418094641907498
6.132647424,0.9998157205517785,-31.509439252030145
6.134934016,0.9999839394726212,-31.60320163363552
6.13722112,1.0001531982766003,-31.69943821620562
6.139508224,1.000312423251013,-31.79808273698217
6.141795328,1.0004516423567436,-31.898929583125533
6.144082432,1.0005620699522058,-32.001617635860434
6.146369536,1.0006365347884993,-32.10561353776397
6.148656128,1.000670226851757,-32.2105055642658
6.150943232,1.0006611286056721,-32.31556726622865
6.153230336,1.0006095643675539,-32.42014629773933
6.15551744,1.0005191838758096,-32.52381363505533
6.157804544,1.0003953991973717,-32.62588938375842
6.160091648,1.000246320567835,-32.72601454803763
6.162378752,1.0000812560941121,-32.8238293060494
6.164665344,0.9999108213007436,-32.9192208137496
6.166952448,0.99974572297274,-33.01223117739416
6.169239552,0.9995967515721037,-33.10294879674228
6.171526656,0.9994734909891043,-33.19166338588947
6.17381376,0.9993834368861573,-33.27885601246491
6.176100864,0.9993325302760806,-33.36505813056592
6.178387456,0.9993242387977608,-33.450821627186954
6.18067456,0.9993589245975006,-33.53683808844151
6.182961664,0.9994343326238263,-33.62358545053101
6.185248768,0.9995459301297681,-33.711816057009344
6.187535872,0.9996862602770099,-33.80184774624397
6.189822976,0.999846489588987,-33.89411264231783
6.192109568,1.000016606394487,-33.98877601901755
6.194396672,1.0001852484396487,-34.08598165281521
6.196683776,1.000342377169891,-34.1855133960327
6.19897088,1.0004773848348392,-34.28723451409803
6.201257984,1.0005817215988178,-34.39072086382908
6.203545088,1.000649019221911,-34.49548525742542
6.20583168,1.0006748043359608,-34.600941514293226
6.208118784,1.0006575062222152,-34.70645811897741
6.210405888,1.0005980674467658,-34.81145058560445
6.212692992,1.0005003289345185,-34.915327332508305
6.214980096,1.0003703472785592,-35.017557038204984
6.2172672,1.0002168234554474,-35.11771322199361
6.219553792,1.0000490994033817,-35.215604928575665
6.221840896,0.9998780669436493,-35.31099859754288
6.224128,0.9997146646766983,-35.40400965349816
6.226415104,0.9995691774234592,-35.49476023369336
6.228702208,0.9994510250750662,-35.583615284654506
6.230989312,0.9993677541194587,-35.67099468459219
6.233275904,0.9993247375195403,-35.757466747964195
6.235563008,0.9993245750701695,-35.84366506798454
6.237850112,0.9993674982668233,-35.93019281385276
6.240137216,0.9994504023247752,-36.01761722459524
6.24242432,0.9995685636104675,-36.1066061231023
6.244711424,0.9997141063058259,-36.197460017618376
6.246998528,0.9998776899381763,-36.29061278584781
6.24928512,1.00004922737028,-36.38627206422516
6.251572224,1.0002173348529066,-36.48437404708483
6.253859328,1.000371507147119,-36.584881572696176
6.256146432,1.0005018540151116,-36.68743775655775
6.258433536,1.0006002093343762,-36.791682893213874
6.26072064,1.0006600082598978,-36.89716488996399
6.263007232,1.0006776940844826,-37.003174401998336
6.265294336,1.000652205049799,-37.10916569201457
6.26758144,1.0005847911040615,-37.21446841295685
6.269868544,1.0004799756751377,-37.318573742525516
6.272155648,1.0003446129556341,-37.42096441547433
6.274442752,1.0001865248926591,-37.52120787064513
6.276729344,1.000016703215341,-37.61907919485393
6.279016448,0.9998454772372565,-37.714502348190194
6.281303552,0.999684038232773,-37.80750570444375
6.283590656,0.999542406036167,-37.898304748224795
6.28587776,0.9994297934951577,-37.98728344674851
6.288164864,0.9993533716827178,-38.07488628123668
6.290451456,0.9993181155538035,-38.16169594994105
6.29273856,0.9993261818048166,-38.24833255550617
6.295025664,0.9993772446251322,-38.33539600770992
6.297312768,0.9994678476300853,-38.42351367081773
6.299599872,0.9995923065821442,-38.513252536390134
6.301886976,0.9997426587842213,-38.605012887545456
6.304173568,0.9999094617179424,-38.69904436745681
6.306460672,1.000081706901286,-38.79563839485904
6.308747776,1.000248742224945,-38.89469408783124
6.31103488,1.000400052713555,-38.996059956575515
6.313321984,1.0005254278266758,-39.09953030132831
6.315609088,1.0006173106505205,-39.2045897306974
6.317896192,1.000669866981847,-39.31067371750986
6.320182784,1.0006794391520215,-39.417242915092906
6.322469888,1.0006455726651802,-39.52367589207444
6.324756992,1.0005703977505553,-39.629300261100504
6.327044096,1.0004587537489036,-39.73365106765442
6.3293312,1.000317510892112,-39.836116550845865
6.331618304,1.000155998753221,-39.936467597256666
6.333904896,0.9999843142949798,-40.03433908335902
6.336192,0.9998132056631184,-40.129779337615496
6.338479104,0.9996539222065058,-40.22278639440081
6.340766208,0.9995165987889021,-40.31366404902941
6.343053312,0.999409885751128,-40.40277363506739
6.345340416,0.9993406996804461,-40.49062820117105
6.347627008,0.999313247288522,-40.577753165467215
6.349914112,0.9993296042765222,-40.66485709329428
6.352201216,0.9993886394510222,-40.7525393579712
6.35448832,0.9994867474430988,-40.84133561131474
6.356775424,0.9996171636402701,-40.93185642360647
6.359062528,0.999772130406818,-41.02444121053872
6.36134912,0.9999414308205411,-41.119475288629204
6.363636224,1.0001145244672862,-41.21697573579768
6.365923328,1.0002800214957996,-41.31697501405406
6.368210432,1.000427730595125,-41.41927262497108
6.370497536,1.0005480477063986,-41.52357799821996
6.37278464,1.0006332467118795,-41.629347993124284
6.375071232,1.0006779958975198,-41.73611416527633
6.377358336,1.000679440854954,-41.84323022449822
6.37964544,1.0006375042528592,-41.95006000453992
6.381932544,1.0005546313554337,-42.056025683923906
6.384219648,1.000436252408573,-42.16052290315877
6.386506752,1.0002898457614755,-42.26312912193512
6.388793344,1.0001247214745776,-42.36349078524583
6.391080448,0.9999514733347135,-42.4613936251939
6.393367552,0.9997811785675764,-42.556791751137325
6.395654656,0.9996244556945526,-42.64986356830807
6.39794176,0.9994916157895163,-42.740838596681094
6.400228864,0.9993910852140531,-42.83009596235304
6.402515968,0.9993290254616903,-42.918196016442664
6.40480256,0.9993097139606948,-43.00570795982942
6.407089664,0.999334493626281,-43.09327619493031
6.409376768,0.9994013712938176,-43.18152633252593
6.411663872,0.9995064355791047,-43.2710930463443
6.413950976,0.9996430078829749,-43.362384907533176
6.41623808,0.999802146566985,-43.45588614961561
6.418524672,0.9999738227900418,-43.55181637280612
6.420811776,1.0001469380767452,-43.650307840326356
6.42309888,1.000310683779998,-43.7512366103449
6.425385984,1.0004547660732508,-43.854430801506396
6.427673088,1.0005694352592196,-43.959549933708075
6.429960192,1.0006479492967606,-44.066065484898985
6.432246784,1.0006848051610917,-44.173455819340695
6.434533888,1.000678033670493,-44.28111531176755
6.436820992,1.0006277560699197,-44.3883272046934
6.439108096,1.0005374655631143,-44.494581411607015
6.4413952,1.000412580127122,-44.599282290644915
6.443682304,1.0002613391010098,-44.70196014456575
6.445968896,1.000093220063059,-44.80234192932341
6.448256,0.9999188474834045,-44.90027601157756
6.450543104,0.9997493805392932,-44.995700513420736
6.452830208,0.9995957719190643,-45.088764255466664
6.455117312,0.9994677024047196,-45.17983713530695
6.457404416,0.9993734636695237,-45.26926700589432
6.459691008,0.9993190127805532,-45.357644094651825
6.461978112,0.9993078030848453,-45.44557013072724
6.464265216,0.9993406978471936,-45.533644800341776
6.46655232,0.9994156028354874,-45.622532118627824
6.468839424,0.9995275715218119,-45.71281884862393
6.471126528,0.9996695385404328,-45.80494740217119
6.473413632,0.9998326840117595,-45.89938077232613
6.475700224,1.000006274742849,-45.99620023675698
6.477987328,1.0001793931021983,-46.095650611001396
6.480274432,1.0003409523481166,-46.19753443284311
6.482561536,1.0004807473441735,-46.30159027588511
6.48484864,1.0005897014419527,-46.40750665928881
6.487135744,1.0006610876899775,-46.51475798236225
6.489422336,1.000690124719181,-46.622799457602326
6.49170944,1.0006750645279903,-46.730899831435
6.493996544,1.0006168227313457,-46.83851434005748
6.496283648,1.0005189448557514,-46.945031995630394
6.498570752,1.0003880289000733,-47.049857573427566
6.500857856,1.0002320547283152,-47.152684055401025
6.503144448,1.0000610768027096,-47.25307985356986
6.505431552,0.9998860180844046,-47.35100543654138
6.507718656,0.99971798136611,-47.446430874919834
6.51000576,0.9995677128773812,-47.53956714198155
6.512292864,0.9994447544710247,-47.63071422937188
6.514579968,0.9993571215947815,-47.72036926499064
6.51686656,0.9993102728819239,-47.809029476762724
6.519153664,0.9993073476133821,-47.89732078287598
6.521440768,0.9993484734420089,-47.985962027880916
6.523727872,0.9994310135850909,-48.07552091136076
6.526014976,0.999549769134288,-48.16651354428827
6.52830208,0.9996970792724811,-48.25951161161785
6.530588672,0.9998638577157605,-48.3548254722341
6.532875776,1.0000388825616948,-48.45262601543326
6.53516288,1.0002117002587048,-48.55299370482
6.537449984,1.000370679270213,-48.65577565186105
6.539737088,1.0005060827748005,-48.76072010246492
6.542024192,1.0006089241915541,-48.86748733310938
6.544310784,1.0006729698501657,-48.97543332091047
6.546597888,1.0006939594871005,-49.084041895067514
6.548884992,1.0006706192157917,-49.19264342765701
6.551172096,1.0006044290797533,-49.30060985672178
6.5534592,1.0004994946537367,-49.40734624836058
6.555746304,1.0003625309725521,-49.51236434159745
6.558033408,1.0002022878212793,-49.615189402593714
6.56032,1.000028836260585,-49.71568242270939
6.562607104,0.9998532550503474,-49.8135884124669
6.564894208,0.9996869399383835,-49.909017001359864
6.567181312,0.9995403721726632,-50.00223831811836
6.569468416,0.9994229938562281,-50.09348074494463
6.57175552,0.9993420775170304,-50.183344994251975
6.574042112,0.9993030001733986,-50.272313839564745
6.576329216,0.9993082727239235,-50.36107589620908
6.57861632,0.9993575980760424,-50.450240073522494
6.580903424,0.9994478257743694,-50.540441156867765
6.583190528,0.9995729675517668,-50.63224854278711
6.585477632,0.99972557414715,-50.726086655136434
6.587764224,0.9998952470827763,-50.82229043863275
6.590051328,1.0000717270986217,-50.92104001197577
6.592338432,1.0002434386240706,-51.02236477771014
6.594625536,1.000399638628978,-51.12610444783943
6.59691264,1.000530106962554,-51.23189620908322
6.599199744,1.000626917400895,-51.339406083255035
6.601486336,1.000683556531509,-51.44807360249469
6.60377344,1.000696345177275,-51.55724716159635
6.606060544,1.000664675824472,-51.66630689067161
6.608347648,1.0005906298711182,-51.77461914912487
6.610634752,1.0004786017188092,-51.881578696271035
6.612921856,1.0003360330585374,-51.98670914093708
6.615208448,1.0001717112972577,-52.0896492803758
6.617495552,0.9999963174907317,-52.190102483822336
6.619782656,0.9998208749978599,-52.28803004297001
6.62206976,0.9996564646207727,-52.383507739830875
6.624356864,0.9995139619805811,-52.47675265498477
6.626643968,0.9994021823023226,-52.568140313102866
6.628931072,0.9993283273910492,-52.65822449856568
6.631217664,0.9992972234159881,-52.74751489885442
6.633504768,0.9993108269259912,-52.83671847472828
6.635791872,0.9993682552722011,-52.92647941307759
6.638078976,0.9994658626007257,-53.01736238301471
6.64036608,0.9995973133170923,-53.10993834572154
6.642653184,0.9997545597939289,-53.20464828087877
6.644939776,0.9999272060805742,-53.30179464611026
6.64722688,1.0001045826611927,-53.40147870149856
6.649513984,1.0002750284087416,-53.50372902272173
6.651801088,1.0004278673011284,-53.608399679410965
6.654088192,1.0005534606594761,-53.71508883973277
6.656375296,1.000643511832898,-53.82337721614343
6.658661888,1.0006926183007432,-53.93266434106625
6.660948992,1.0006973103803285,-54.042385520483
6.663236096,1.000657545999668,-54.151857461391
6.6655232,1.0005755905421718,-54.26047464398367
6.667810304,1.000456793858025,-54.36767613219455
6.670097408,1.0003086988525713,-54.47292787645076
6.672384,1.0001407635205908,-54.575885856388
6.674671104,0.9999635265569687,-54.67637683209144
6.676958208,0.9997884955878835,-54.774308837725194
6.679245312,0.999626617218203,-54.8697967778629
6.681532416,0.9994882984240023,-54.96310435304583
6.68381952,0.9993825725359318,-55.05467294301811
6.686106112,0.999315881065038,-55.144985413372275
6.688393216,0.9992927428311911,-55.23465614736863
6.69068032,0.9993146766765466,-55.3243301994449
6.692967424,0.9993801289596592,-55.41466062294715
6.695254528,0.9994851043589319,-55.50623901318834
6.697541632,0.9996225347794219,-55.59965475393611
6.699828224,0.9997842665712163,-55.69522660068805
6.702115328,0.9999594078641458,-55.793291532716275
6.704402432,1.000137274607873,-55.893957448163114
6.706689536,1.0003061627842786,-55.99714387140068
6.70897664,1.0004553269400875,-56.102717782327915
6.711263744,1.0005756067120168,-56.210230308884526
6.713550848,1.0006590100235755,-56.31923046447747
6.71583744,1.000700211628552,-56.42919049190676
6.718124544,1.000696732653744,-56.53945029366612
6.720411648,1.0006486322677934,-56.64933971284616
6.722698752,1.0005591469126889,-56.75827025346201
6.724985856,1.0004338094166227,-56.865618092888184
6.72727296,1.0002805002811341,-56.970993431014364
6.729559552,1.000109233620661,-57.07399803434993
6.731846656,0.9999306435381101,-57.17449742377072
6.73413376,0.9997561839603559,-57.27242375727856
6.736420864,0.9995972675269458,-57.36794253596613
6.738707968,0.999463500127932,-57.461367002940015
6.740995072,0.9993641443121443,-57.55304182626391
6.743281664,0.9993049588897422,-57.64361684490242
6.745568768,0.9992898745877299,-57.7336632974682
6.747855872,0.9993200449503136,-57.82383041119478
6.750142976,0.9993934219052155,-57.91480253033614
6.75243008,0.9995054432848931,-58.0071152071039
6.754717184,0.9996488920627801,-58.101296770098315
6.757003776,0.9998146568359297,-58.19777992081371
6.75929088,0.9999919982057621,-58.29676006939132
6.761577984,1.0001698704062192,-58.398376610739
6.763865088,1.0003367001531065,-58.50251773200281
6.766152192,1.0004821480929538,-58.60896011960772
6.768439296,1.000596696402199,-58.71730703313339
6.770725888,1.000673290025164,-58.827053983438745
6.773012992,1.0007065686169179,-58.93762536428199
6.775300096,1.0006947947013984,-59.04840026160982
6.7775872,1.0006385760969465,-59.15867873292888
6.779874304,1.0005414484544493,-59.26786326169246
6.782161408,1.0004097473631122,-59.37542418979356
6.784448512,1.0002517095994525,-59.48087917410003
6.786735104,1.0000773585681588,-59.58389884609961
6.789022208,0.9998977143264187,-59.68441326930483
6.791309312,0.9997244242849196,-59.782333313406255
6.793596416,0.9995686158684761,-59.877868025432946
6.79588352,0.9994399551322034,-59.97137039912287
6.798170624,0.9993468692637186,-60.06327011971597
6.800457216,0.9992952086477578,-60.1541126595251
6.80274432,0.9992883942754305,-60.244533272112946
6.805031424,0.999326778246836,-60.33525434012956
6.807318528,0.9994081065113525,-60.426798600804226
6.809605632,0.9995269433822258,-60.51983740682296
6.811892736,0.9996759378084219,-60.61486352343732
6.814179328,0.9998453232337781,-60.71226879548221
6.816466432,1.0000246457413722,-60.81218801017832
6.818753536,1.000202203161901,-60.91476431713964
6.82104064,1.0003669155220671,-61.01982306979806
6.823327744,1.0005081541803815,-61.12711774411237
6.825614848,1.0006166235221783,-61.236307490308114
6.82790144,1.0006859200637488,-61.34676285134586
6.830188544,1.0007111953348489,-61.457949550190655
6.832475648,1.0006912576030067,-61.56915643596772
6.834762752,1.0006270515094149,-61.679809692464794
6.837049856,1.0005225189229248,-61.78923759044009
6.83933696,1.0003847710722173,-61.896952894641686
6.841623552,1.0002219857587744,-62.00247394290735
6.843910656,1.0000449083551104,-62.105578128918694
6.84619776,0.9998647521481504,-62.20604315241412
6.848484864,0.9996929983002619,-62.303963114363064
6.850771968,0.9995406241484377,-62.39955858894442
6.853059072,0.9994171669903698,-62.49315644657742
6.855345664,0.9993308571454791,-62.58524435419555
6.857632768,0.9992869766817037,-62.67639531814259
6.859919872,0.9992884255183225,-62.76722192456429
6.862206976,0.9993350053122014,-62.858457793329826
6.86449408,0.9994239423739171,-62.95069148736272
6.866781184,0.9995496299471542,-63.04446979176168
6.869068288,0.9997037905654153,-63.14037840870901
6.87135488,0.9998767886254397,-63.238637118634514
6.873641984,1.000057580228711,-63.33948878890817
6.875929088,1.000234517534826,-63.443032330224426
6.878216192,1.0003964921398691,-63.54899735963035
6.880503296,1.0005331292593034,-63.657161167557284
6.8827904,1.0006355024684759,-63.76711166513739
6.885076992,1.0006974658698105,-63.87829653802332
6.887364096,1.0007147809697416,-63.990058768553126
6.8896512,1.0006864008027,-64.10175506438625
6.891938304,1.0006141311121808,-64.21272350767254
6.894225408,1.0005025555918643,-64.32240843570635
6.896512512,1.0003586936026934,-64.4302201399314
6.898799104,1.000191912926938,-64.53583741888708
6.901086208,1.0000123883145502,-64.63891213552915
6.903373312,0.9998320584656354,-64.73940077980455
6.905660416,0.999662067209323,-64.83732783116248
6.90794752,0.9995134572749002,-64.93296890384441
6.910234624,0.9993956806037771,-65.02667478442002
6.912521216,0.9993161253627744,-65.11897256210028
6.91480832,0.9992799645522811,-65.21041710750437
