freq,mag,phase
6.0,1.0000063296708528,-131.30299285673195
6.002286592,0.9999721552789066,-131.44352643438478
6.004572672,0.9999402339030952,-131.58350672459176
6.006859264,0.9999122010620328,-131.72308431904472
6.009145344,0.9998900507932038,-131.86228175254416
6.011431936,0.999875001719002,-132.00118824397535
6.013718016,0.9998681005485712,-132.1399619292463
6.016004608,0.9998697873224115,-132.2786595049692
6.018290688,0.9998798965204878,-132.4174760517074
6.02057728,0.9998978832506886,-132.55642442127038
6.022863872,0.9999226147412714,-132.69569767735038
6.025149952,0.9999523565098146,-132.83536486191454
6.027436544,0.9999854010687478,-132.97547184253352
6.029722624,1.0000195677196375,-133.1160959434641
6.032009216,1.000052756005207,-133.2571902078685
6.034295296,1.0000827418601805,-133.39868696487878
6.036581888,1.000107795548387,-133.54061477195356
6.03886848,1.0001261269340704,-133.6828509493326
6.04115456,1.0001366692002343,-133.8253133896638
6.043441152,1.0001387590452822,-133.96779789245886
6.045727232,1.0001321935459322,-134.11029186358624
6.048013824,1.0001174395201524,-134.25260705094482
6.050299904,1.0000954133699926,-134.39468078132688
6.052586496,1.0000675020155363,-134.53632208086293
6.054872576,1.0000355012429327,-134.67755903674217
6.057159168,1.0000013440113316,-134.81831005329508
6.05944576,0.999967370500471,-134.95851175088595
6.06173184,0.9999356626481292,-135.09827814411736
6.064018432,0.9999081005730868,-135.23757481376168
6.066304512,0.9998866596805157,-135.37651115537122
6.068591104,0.9998725740051361,-135.51518620128954
6.070877184,0.9998668407379133,-135.6536936382737
6.073163776,0.9998695980370431,-135.79216835657385
6.075450368,0.9998810139301266,-135.9307693128482
6.077736448,0.999900064314047,-136.06953588596133
6.08002304,0.9999257530276456,-136.20867949588325
6.08230912,0.9999564230980111,-136.34815214020938
6.084595712,0.999990043678032,-136.48812228910128
6.086881792,1.000024432918573,-136.6285665607718
6.089168384,1.0000576076320764,-136.76952527004096
6.091454464,1.000087263175736,-136.9109100288187
6.093741056,1.0001116379520263,-137.05264955669094
6.096027648,1.0001291491072208,-137.19470701458212
6.098313728,1.0001385871744042,-137.33698760696186
6.10060032,1.000139484318046,-137.4792842026684
6.1028864,1.0001317163139782,-137.6215484814793
6.105172992,1.0001157825527545,-137.76363133188684
6.107459072,1.000092722694412,-137.90540345581357
6.109745664,1.000063855586313,-138.04678721467283
6.112032256,1.0000312229899198,-138.18772360764228
6.114318336,0.999996643127988,-138.32819186389665
6.116604928,0.9999626114397875,-138.46809522029213
6.118891008,0.9999310279055027,-138.60753842264054
6.1211776,0.9999040250278313,-138.74655416172658
6.12346368,0.9998833654611563,-138.88517782149853
6.125750272,0.9998702151008393,-139.02357213808455
6.128036352,0.9998656039378278,-139.16183692872158
6.130322944,0.9998696869483173,-139.3000680191424
6.132609536,0.9998822609728023,-139.4383967247576
6.134895616,0.9999024545915481,-139.5769745891016
6.137182208,0.9999291187065863,-139.7158896271992
6.139468288,0.9999605825913355,-139.85518219517306
6.14175488,0.9999946976431181,-139.99496387735002
6.14404096,1.0000293667228468,-140.13526000024987
6.146327552,1.000062388832847,-140.27602975246714
6.148614144,1.000091752259341,-140.41719856750254
6.150900224,1.0001154362392166,-140.558794919131
6.153186816,1.0001319959180914,-140.70064135680605
6.155472896,1.0001403788231096,-140.84265589487015
6.157759488,1.0001401048849525,-140.98475364316164
6.160045568,1.0001310857686199,-141.12675036027733
6.16233216,1.0001139158144967,-141.26854722897764
6.16461824,1.000089730082949,-141.41002690621087
6.166904832,1.0000600646540543,-141.5511123539344
6.169191424,1.000026693338106,-141.69172394601054
6.171477504,0.9999917912324856,-141.83181708850216
6.173764096,0.9999576793309762,-141.9714178515261
6.176050176,0.9999263068626421,-142.11053421357735
6.178336768,0.9998999332276295,-142.24917811180998
6.180622848,0.999879960225117,-142.3875249117303
6.18290944,0.9998679675905826,-142.5255921762855
6.18519552,0.999864475351719,-142.66357781627366
6.187482112,0.999869731549217,-142.80151608746965
6.189768704,0.9998835998140028,-142.93959541444374
6.192054784,0.9999049758992489,-143.07790996101198
6.194341376,0.9999326178362427,-143.21659480239865
6.196627456,0.9999647393181479,-143.3556806203612
6.198914048,0.9999993630922571,-143.49525448482103
6.201200128,1.0000343092771373,-143.63530631709892
6.20348672,1.0000671980949856,-143.77584857723397
6.205773312,1.0000960954273805,-143.91685443535377
6.208059392,1.000119103679023,-144.05819022667345
6.210345984,1.0001347032996923,-144.1998199649685
6.212632064,1.000142017047311,-144.34159232667042
6.214918656,1.0001404947727597,-144.483375160668
6.217204736,1.000130230935055,-144.62508892501396
6.219491328,1.000111916340541,-144.7665867485287
6.221777408,1.0000866405615405,-144.90773426057694
6.224064,1.0000560471054347,-145.04848622189036
6.226350592,1.0000220563762596,-145.1887370739727
6.228636672,0.9999868729536708,-145.3284751720147
6.230923264,0.9999526287594261,-145.46770555302126
6.233209344,0.9999216663260335,-145.60645682737342
6.235495936,0.9998958227293911,-145.74474464113803
6.237782016,0.9998767881953272,-145.88271807658782
6.240068608,0.999865755031321,-146.02045977340708
6.2423552,0.999863480693515,-146.1581084879864
6.24464128,0.9998700355044432,-146.29575897226954
6.246927872,0.9998850450328995,-146.43355809197357
6.249213952,0.9999075927510026,-146.57159053197782
6.251500544,0.9999362376267307,-146.70999473242952
6.253786624,0.9999691377062259,-146.84884098911888
6.256073216,1.0000042382283318,-146.98815150797577
6.258359296,1.0000392797912183,-147.12797444321342
6.260645888,1.0000720615813112,-147.26830423195926
6.26293248,1.0001004174227333,-147.4090446477515
6.26521856,1.0001226860328907,-147.55012375901498
6.267505152,1.0001372492727518,-147.69148473877664
6.269791232,1.0001434757914474,-147.832974500934
6.272077824,1.0001406822028063,-147.97445554270863
6.274363904,1.0001291553737448,-148.11585433812613
6.276650496,1.0001096416644362,-148.25700151085434
6.278937088,1.0000833227817207,-148.39780777335906
6.281223168,1.000051899057961,-148.53816583758174
6.28350976,1.0000173092840396,-148.6780483390987
6.28579584,0.9999818364256577,-148.81740696098365
6.288082432,0.999947724574301,-148.9561950115152
6.290368512,0.999916988914469,-149.09457189298638
6.292655104,0.9998918220173303,-149.23247445350424
6.294941184,0.9998736306944637,-149.37005414605642
6.297227776,0.9998637601015042,-149.5074230357422
6.299514368,0.9998626897967248,-149.64471817943402
6.301800448,0.9998704884230567,-149.78201049573394
6.30408704,0.9998867801871654,-149.9194978016734
6.30637312,0.9999104757019043,-150.0572608174261
6.308659712,0.9999400711353477,-150.19535498400816
6.310945792,0.9999736678356649,-150.33392555185765
6.313232384,1.000009177281453,-150.47300193872843
6.315518464,1.0000443837499533,-150.61255166276587
6.317805056,1.0000769310798923,-150.75257830071544
6.320091648,1.0001048263460723,-150.89304947693836
6.322377728,1.0001262657564245,-151.03385037148124
6.32466432,1.000139903457734,-151.17490956303183
6.3269504,1.0001448442913259,-151.3160794672139
6.329236992,1.000140833873716,-151.45723573715532
6.331523072,1.0001280168879743,-151.59828856078693
6.333809664,1.0001072638828399,-151.7390545720403
6.336096256,1.0000799308148853,-151.87946832595145
6.338382336,1.000047651731276,-152.0194105268632
6.340668928,1.0000125763766574,-152.1588563215594
6.342955008,0.9999768779681513,-152.29777660364488
6.3452416,0.9999427523197365,-152.4361823059126
6.34752768,0.9999124736153007,-152.57409694469237
6.349814272,0.9998879103158949,-152.71158830573773
6.352100352,0.9998707344138716,-152.84876885384645
6.354386944,0.9998619310159197,-152.9857467697291
6.356673536,0.9998620724092208,-153.12267844308155
6.358959616,0.9998711631835617,-153.25961291848276
6.361246208,0.9998887482134163,-153.39674432424349
6.363532288,0.9999135085327541,-153.53414796675509
6.36581888,0.9999440764379376,-153.67196861114718
6.36810496,0.9999783355970542,-153.81023291058034
6.370391552,1.0000142721385186,-153.94899612935328
6.372678144,1.0000494829253512,-154.08825229122104
6.374964224,1.0000818435862526,-154.22799502782757
6.377250816,1.0001091492026921,-154.36817343787007
6.379536896,1.0001297584290891,-154.50865327300338
6.381823488,1.0001423171921013,-154.6493833508805
6.384109568,1.0001461257630961,-154.79020850979848
6.38639616,1.0001407953499988,-154.93101321458215
6.38868224,1.0001266935039204,-155.0716350500661
6.390968832,1.000104796164565,-155.2120034472169
6.393255424,1.0000764139459886,-155.35197936784002
6.395541504,1.000043344740388,-155.49151517074645
6.397828096,1.0000076784543699,-155.63053247923443
6.400114176,0.9999717444529252,-155.7689694717684
6.402400768,0.9999376733016935,-155.90693775582218
6.404686848,0.9999079167694438,-156.04439101192443
6.40697344,0.999884085221774,-156.18144900851703
6.409260032,0.9998678662788483,-156.31818917839922
6.411546112,0.9998602253465403,-156.45475909166632
6.413832704,0.999861651850892,-156.59124312406834
6.416118784,0.9998720837372072,-156.72782669799096
6.418405376,0.9998908537716709,-156.8645719650289
6.420691456,0.9999168112127649,-157.00165185360595
6.422978048,0.9999481965335129,-157.13912441059503
6.425264128,0.9999831682020792,-157.27706124097793
6.42755072,1.000019426862376,-157.41551080637424
6.429837312,1.000054642835501,-157.55443879149027
6.432123392,1.0000866307819962,-157.6938452503064
6.434409984,1.0001133118543644,-157.8336712779495
6.436696064,1.0001331299365663,-157.97383836302808
6.438982656,1.0001446269894756,-158.11423467189732
6.441268736,1.0001471540515192,-158.25464867351383
6.443555328,1.0001405024898948,-158.3950691779909
6.44584192,1.0001251826323267,-158.5352867149348
6.448128,1.0001020855234493,-158.67521813704323
6.450414592,1.0000725973816245,-158.8147233349414
6.452700672,1.0000387412306182,-158.95379121392415
6.454987264,1.00000267448239,-159.09234122129283
6.457273344,0.999966525607005,-159.2303131558049
6.459559936,0.9999327411387614,-159.36778954191865
6.461846016,0.9999033965026495,-159.504774026022
6.464132608,0.9998803042105154,-159.6413491148096
6.4664192,0.999865083294672,-159.77764836796095
6.46870528,0.999858622224262,-159.91378323462376
6.470991872,0.9998613696274761,-160.04983697534252
6.473277952,0.999873116933627,-160.18600944211445
6.475564544,0.9998931147604203,-160.32234916532374
6.477850624,0.9999201770056402,-160.4590790415342
6.480137216,0.999952484422781,-160.59617187603303
6.482423296,0.9999880824312363,-160.73374717678098
6.484709888,1.0000246120597103,-160.87183935683834
6.48699648,1.0000598792886626,-161.0104367094454
6.48928256,1.0000915012791856,-161.1495178890607
6.491569152,1.0001175228820547,-161.28897933665493
6.493855232,1.0001364026070354,-161.42877375378148
6.496141824,1.0001467414690044,-161.5687424367393
6.498427904,1.0001479443288852,-161.7087684088304
6.500714496,1.0001400587256544,-161.8487726453266
6.503001088,1.0001233666211646,-161.98855504803782
6.505287168,1.0000990654645572,-162.12801361677882
6.50757376,1.0000686258781992,-162.26708324734466
6.50985984,1.0000340532978425,-162.4056219233712
6.512146432,0.9999974764747543,-162.54366454546778
6.514432512,0.9999612188223398,-162.68110688088103
6.516719104,0.9999276372446696,-162.81809989076595
6.519005184,0.9998988562266354,-162.9545850936213
6.521291776,0.9998766285412757,-163.09067680576456
6.523578368,0.9998623846010796,-163.2264468222134
6.525864448,0.9998571928565277,-163.3621094825357
6.52815104,0.9998611985267776,-163.4977393679706
6.53043712,0.9998743546948198,-163.63347516856706
6.532723712,0.9998955202316838,-163.76940671043715
6.535009792,0.9999237453213788,-163.90571265085043
6.537296384,0.9999569971042755,-164.0424597681466
6.539582976,0.999993080310108,-164.17966342371855
6.541869056,1.0000299193575455,-164.3173668943326
6.544155648,1.0000650842019752,-164.45559997391155
6.546441728,1.0000963873487476,-164.59429307095965
6.54872832,1.0001217133135045,-164.73338623103572
6.5510144,1.0001395259049577,-164.8727873947773
6.553300992,1.0001487886516895,-165.01234790651054
6.555587072,1.0001487477320574,-165.15195972327697
6.557873664,1.0001394114411912,-165.29147931771854
6.560160256,1.0001214936892364,-165.430805781958
6.562446336,1.0000960666232606,-165.56980895289414
6.564732928,1.000064630719316,-165.70832585361822
6.567019008,1.0000292197815845,-165.84637242758984
6.5693056,0.9999922889685999,-165.9838814578485
6.57159168,0.9999559471112762,-166.12080510499055
6.573878272,0.9999226162904677,-166.2572491577745
6.576164864,0.9998942897460393,-166.3931915298774
6.578450944,0.9998729874633915,-166.52876311572513
6.580737536,0.9998598749271372,-166.66406865388396
6.583023616,0.9998559168404164,-166.79922072506898
6.585310208,0.9998613131824694,-166.93435866307058
6.587596288,0.9998757271176705,-167.0696546196592
6.58988288,0.9998982946690412,-167.2051589743371
6.59216896,0.9999274445660441,-167.34104286739486
6.594455552,0.9999615338376873,-167.47737815595366
6.596742144,0.9999983188359861,-167.6141905330753
6.599028224,1.0000353036294776,-167.75152643990657
6.601314816,1.0000703056455889,-167.88936846868103
6.603600896,1.000101217337232,-168.02766298598672
6.605887488,1.0001258053005477,-168.1663395828019
6.608173568,1.000142631343937,-168.3053247486448
6.61046016,1.0001506148285015,-168.4444420997506
6.612746752,1.0001491768108401,-168.58360650949106
6.615032832,1.0001385851220093,-168.72267774016777
6.617319424,1.0001193328411349,-168.86147819014462
6.619605504,1.0000926418017466,-168.9999462512958
6.621892096,1.0000602545472188,-169.13795156012375
6.624178176,1.0000242473652394,-169.2754569785454
6.626464768,0.9999869180792886,-169.41241012960347
6.628750848,0.9999504874307428,-169.54879742949245
6.63103744,0.9999174991399244,-169.68465431747816
6.633324032,0.9998898519894931,-169.82006800373884
6.635610112,0.9998693862280896,-169.95510918860774
6.637896704,0.999857473763364,-170.08986618003922
6.640182784,0.9998548427176239,-170.22452489400285
6.642469376,0.9998615574733101,-170.35915842547288
6.644755456,0.9998772689353104,-170.4939855238603
6.647042048,0.9999010199940751,-170.6290502567876
6.649328128,0.9999313340222533,-170.76449782423143
6.65161472,0.9999662598470814,-170.9003935306055
6.653901312,1.0000035405417724,-171.03676542904157
6.656187392,1.0000408184746081,-171.17370407108774
6.658473984,1.0000756627915295,-171.31115370720374
6.660760064,1.000105941114251,-171.44901167289174
6.663046656,1.000129805777313,-171.58729298747366
6.665332736,1.0001455230733816,-171.72582745732532
6.667619328,1.000152261808451,-171.86448283713932
6.66990592,1.0001495304931856,-172.00317596866734
6.672192,1.000137617463822,-172.14171908842772
6.674478592,1.0001168971839667,-172.28002683574763
6.676764672,1.000089147117181,-172.41794692126038
6.679051264,1.0000557291952925,-172.55541782750055
6.681337344,1.00001907768398,-172.69234991618427
6.683623936,0.9999814340774895,-172.82867843078955
6.685910016,0.9999451038713435,-172.9644979020406
6.688196608,0.9999123713088239,-173.09980544574563
6.6904832,0.9998854370094393,-173.2346372088288
6.69276928,0.9998660414426965,-173.36911014954958
6.695055872,0.999855168749158,-173.50333824355087
6.697341952,0.9998539501664836,-173.63746153821205
6.699628544,0.9998620765428087,-173.77160087176344
6.701914624,0.9998792373572682,-173.9059209052051
6.704201216,0.9999041758502241,-174.040528684999
6.706487808,0.9999355433194681,-174.17549265248755
6.708773888,0.999971243150616,-174.31093983511815
6.71106048,1.0000088792598751,-174.4469404031419
6.71334656,1.0000462516031607,-174.58341846778683
6.715633152,1.0000810670189424,-174.72042368604525
6.717919232,1.0001107416396633,-174.85785458875597
6.720205824,1.000133744631782,-174.995694088864
6.722491904,1.0001483818926167,-175.13371186594406
6.724778496,1.0001538802595102,-175.27192510209287
6.727065088,1.0001497329105322,-175.4101205532355
6.729351168,1.0001363318157666,-175.5481450903491
6.73163776,1.0001144359291614,-175.68590997674318
6.73392384,1.0000855161604763,-175.82327129691524
6.736210432,1.0000512240078623,-175.9601604319471
6.738496512,1.000013945477729,-176.09648335304803
6.740783104,0.9999759163443698,-176.23226183224182
6.743069696,0.9999396664495254,-176.3674699793634
6.745355776,0.9999073347912176,-176.5021632100619
6.747642368,0.9998811277078068,-176.63639747700532
6.749928448,0.9998627568893136,-176.77031508106708
6.75221504,0.9998531438317549,-176.9039708751275
6.75450112,0.9998531545958815,-177.0375569082359
6.756787712,0.9998626872614345,-177.17117814971093
6.759073792,0.9998811534733468,-177.3049718086143
6.761360384,0.9999074459830983,-177.4390812685939
6.763646976,0.9999399154543929,-177.5736089436407
6.765933056,0.9999762694049561,-177.70857863108134
6.768219648,1.000014453412544,-177.84411347956745
6.770505728,1.0000519520648845,-177.980151390831
6.77279232,1.0000863697237579,-178.11671732421723
6.7750784,1.0001155062601037,-178.2537025316258
6.777364992,1.0001375379561896,-178.3910462649031
6.779651584,1.0001510870429433,-178.52860227683558
6.781937664,1.0001552531343327,-178.66630999543503
6.784224256,1.0001497733657307,-178.80396722786787
6.786510336,1.0001348659314864,-178.94143768499092
6.788796928,1.0001116636422096,-179.07864194211612
6.791083008,1.0000814245099452,-179.21541801991023
6.7933696,1.000046369393208,-179.35172119194166
6.79565568,1.0000085419285956,-179.48744701979345
6.797942272,0.9999703140804131,-179.6225951171638
6.800228864,0.9999340564444132,-179.75718364306073
6.802514944,0.9999023205557708,-179.891262199929
6.804801536,0.999876891476787,179.9751189626094
6.807087616,0.999859566776254,179.84182723755993
6.809374208,0.9998512134529945,179.70871640696956
6.811660288,0.9998525955260482,179.57570073779505
6.81394688,0.9998636111951553,179.4426116655708
6.81623296,0.9998834597386739,179.30933400107895
6.818519552,0.9999110123002134,179.1757102820301
6.820806144,0.9999443612841659,179.04168441135184
6.823092224,0.9999815636811105,178.90715525343074
6.825378816,1.0000201847718413,178.77210546633364
6.827664896,1.0000576047755136,178.63653907951897
6.829951488,1.0000917336156383,178.50047303486448
6.832237568,1.000120229911391,178.36394351880583
6.83452416,1.0001413440126357,178.2270933283012
6.836810752,1.0001536274351044,178.09001811643978
6.839096832,1.000156416576501,177.9528670989551
6.841383424,1.000149585544453,177.8157498686618
6.843669504,1.000133148454319,177.67880461742314
6.845956096,1.0001086688729,177.54222021054088
6.848242176,1.0000774441164377,177.40603026181043
6.850528768,1.000041412944192,177.27035187585162
6.852814848,1.0000030115138894,177.13525814665985
6.85510144,0.9999646085237964,177.00075367579606
6.857388032,0.9999285673641453,176.86678684112064
6.859674112,0.9998972760771611,176.73335117863314
6.861960704,0.9998726912704654,176.60034059149874
6.864246784,0.9998564099051781,176.46766750306622
6.866533376,0.9998494260416818,176.3351562758315
6.868819456,0.9998522671091401,176.2026983741144
6.871106048,0.9998646838408087,176.07020039071185
6.87339264,0.9998859244431182,175.93740810843687
6.87567872,0.9999146935689911,175.8043371666049
6.877965312,0.9999490019994126,175.6708021490064
6.880251392,0.9999868664168401,175.53676636634697
6.882537984,1.0000258611575905,175.40221355542278
6.884824064,1.0000633708591204,175.26709395811594
6.887110656,1.0000970077473432,175.13149069017322
6.889396736,1.00012485983057,174.9954785604773
6.891683328,1.000144956747458,174.85912249094395
6.89396992,1.0001560008621913,174.72258206799185
6.896256,1.0001574080741964,174.5859305510686
6.898542592,1.0001490349508508,174.44939733957477
6.900828672,1.000131381983638,174.3130603745108
6.903115264,1.0001054676955796,174.17706964116383
6.905401344,1.000073074486973,174.04150446847086
6.907687936,1.0000363175406277,173.90648465523634
