freq,mag,phase
6.0,0.9996421264709087,154.1479061944431
6.002287104,0.9996489792696189,153.993020381906
6.004574208,0.9996770485204312,153.83789387580768
6.006861312,0.9997257633671109,153.68228963227463
6.009147904,0.9997919822479633,153.52581170917122
6.011435008,0.9998716491683006,153.36831280784034
6.013722112,0.9999594455993615,153.20963829650762
6.016009216,1.0000500253481712,153.04968214690717
6.01829632,1.0001376743163284,152.8884385615186
6.020583424,1.0002167215372038,152.72602018555764
6.022870016,1.0002821978635872,152.56257463998605
6.02515712,1.0003299337236629,152.39832486054928
6.027444224,1.000356941861631,152.23356258151955
6.029731328,1.0003613116599086,152.06857133740402
6.032018432,1.0003430374074314,151.90371269509194
6.034305536,1.0003032441745345,151.7393136110076
6.036592128,1.000244117872542,151.57561842458807
6.038879232,1.0001696126073885,151.4129531319249
6.041166336,1.0000846069610674,151.25142249763283
6.04345344,0.999994149188543,151.09124204696965
6.045740544,0.9999040868755182,150.9323683306517
6.048027648,0.9998202379803123,150.7747936860963
6.05031424,0.9997478091442062,150.61837475588325
6.052601344,0.9996914022910743,150.46288995717683
6.054888448,0.9996546872679799,150.30814956701312
6.057175552,0.9996398606298835,150.15379429373093
6.059462656,0.9996480981740806,149.9994991414301
6.06174976,0.9996786340863937,149.84494029931577
6.064036352,0.9997297789477355,149.68984956091901
6.066323456,0.9997982088520782,149.53385931685935
6.06861056,0.9998794408621118,149.37685996310074
6.070897664,0.9999685482875532,149.21862386136942
6.073184768,1.0000598334949575,149.05907147497817
6.075471872,1.0001474354040447,148.89828884901308
6.077758464,1.0002259344580908,148.73628216859646
6.080045568,1.000290250406411,148.57325791618197
6.082332672,1.0003362118939403,148.4094805559145
6.084619776,1.0003611369120804,148.2452181224575
6.08690688,1.000363243811998,148.08075874369536
6.089193984,1.000342592429226,147.91645350657532
6.091481088,1.0003001762972914,147.75264547517432
6.09376768,1.0002388929897144,147.58960869897675
6.096054784,1.0001626103705987,147.42757172466972
6.098341888,1.0000759424075938,147.26675841048097
6.100628992,0.9999844510897414,147.10725763897216
6.102916096,0.9998942172310621,146.94910858875244
6.1052032,0.99981063540522,146.79222679720496
6.107489792,0.9997391846320598,146.63653779621075
6.109776896,0.9996841747470246,146.48175751415965
6.112064,0.999649309662591,146.3276736347015
6.114351104,0.9996369019438363,146.17393467711005
6.116638208,0.9996474924419375,146.02023075301588
6.118925312,0.9996805554667256,145.8662622438153
6.121211904,0.9997339973888489,145.71166576878693
6.123499008,0.9998045355675542,145.55623027135303
6.125786112,0.9998875736611834,145.39968090455463
6.128073216,0.999977914830096,145.24187201713306
6.13036032,1.00006973574144,145.08277425193248
6.132647424,1.0001574582895343,144.9224183252414
6.134934016,1.000235190486498,144.7608563857704
6.13722112,1.0002982162990877,144.598306344043
6.139508224,1.0003424976561186,144.43499556579567
6.141795328,1.000365333191045,144.2712139497402
6.144082432,1.0003650387115686,144.10729828647254
6.146369536,1.0003418166391758,143.94353481186243
6.148656128,1.0002970463941456,143.78036753776112
6.150943232,1.0002335357299896,143.61794508461153
6.153230336,1.0001552358420887,143.45659112239326
6.15551744,1.000067087238,143.29647688361268
6.157804544,0.9999748555789547,143.13767722443333
6.160091648,0.9998842469820435,142.9802345833579
6.162378752,0.9998010293213806,142.82409944874044
6.164665344,0.9997305130779568,142.6690808556001
6.166952448,0.9996771128377805,142.51501030512188
6.169239552,0.9996442322082936,142.36159814193843
6.171526656,0.9996340324155597,142.20850768966196
6.17381376,0.9996472589698114,142.05540675224609
6.176100864,0.9996827726623286,141.9020063239935
6.178387456,0.9997387178686651,141.74795146625425
6.18067456,0.9998112474810741,141.5929801103313
6.182961664,0.9998959344140036,141.43689521153684
6.185248768,0.9999874122427969,141.27956155164068
6.187535872,1.0000798171814387,141.12089968028084
6.189822976,1.0001673977076817,140.96097150754335
6.192109568,1.000244443007816,140.79986398158354
6.194396672,1.000306201361526,140.63775901985824
6.196683776,1.0003488454354323,140.47490275279637
6.19897088,1.0003693118538919,140.31164825254973
6.201257984,1.0003666498744583,140.14828186610018
6.203545088,1.0003407946631437,139.98512574779375
6.20583168,1.000293516681278,139.82250013018472
6.208118784,1.0002276825692116,139.6607695435024
6.210405888,1.0001475026773128,139.5001004362862
6.212692992,1.0000580207504965,139.34067775759036
6.214980096,0.9999650264089835,139.1826066844523
6.2172672,0.9998741563102693,139.02592167798812
6.219553792,0.9997913866885637,138.87048758704407
6.221840896,0.9997219354792279,138.71618797731685
6.224128,0.999670232025224,138.56282292668547
6.226415104,0.9996393664090317,138.41004739301482
6.228702208,0.9996316101024363,138.2576057147924
6.230989312,0.9996471794741273,138.1051170643272
6.233275904,0.9996854617915921,137.95227842403983
6.235563008,0.9997436315413659,137.7987468966828
6.237850112,0.9998183405616674,137.64428593219066
6.240137216,0.9999046500683652,137.4886683731666
6.24242432,0.9999972698521694,137.33175929515045
6.244711424,1.0000901345974376,137.17354549368866
6.246998528,1.0001775441408411,137.0140478186146
6.24928512,1.000253809668597,136.8533823984037
6.251572224,1.0003142308225277,136.69173953395384
6.253859328,1.0003547848984118,136.52939213706037
6.256146432,1.0003731296295897,136.3666248577243
6.258433536,1.000367949997878,136.20380389814085
6.26072064,1.0003395183355301,136.0412155710345
6.263007232,1.0002896335305045,135.87923918012416
6.265294336,1.0002215135985477,135.71815285622367
6.26758144,1.0001394908020822,135.55817356260482
6.269868544,1.0000486491436045,135.3994653817908
6.272155648,0.9999548378422511,135.24213524168303
6.274442752,0.999863840637388,135.0861417363043
6.276729344,0.9997816608781451,134.93146886350098
6.279016448,0.9997133097647191,134.77788671665172
6.281303552,0.9996632067570862,134.62520438057845
6.283590656,0.9996345616707044,134.4731217715085
6.28587776,0.999629216173459,134.32130106138172
6.288164864,0.9996475130704311,134.16941629550666
6.290451456,0.9996882993844516,134.0171329823353
6.29273856,0.999748921943073,133.8641263267232
6.295025664,0.999825704717191,133.7101483754269
6.297312768,0.9999136049536643,133.5550025697681
6.299599872,1.0000073331773658,133.39855651835472
6.301886976,1.0001006026148802,133.24077664991202
6.304173568,1.0001877609254965,133.0817087296255
6.306460672,1.0002631493817575,132.92146004481904
6.308747776,1.0003220418636818,132.76028359517497
6.31103488,1.0003607281252664,132.59841477187825
6.313321984,1.0003766503185827,132.43617162432642
6.315609088,1.0003688829536652,132.27391129704412
6.317896192,1.0003378437467227,132.11191704393914
6.320182784,1.0002854338208147,131.95058593460647
6.322469888,1.0002150948411448,131.7901281775713
6.324756992,1.000131211821666,131.6308249953334
6.327044096,1.0000390810874193,131.47284791264602
6.3293312,0.9999443938115352,131.3162549877151
6.331618304,0.9998533647365254,131.161013188205
6.333904896,0.9997717255403415,131.0070454125578
6.336192,0.9997046732914213,130.8541789051303
6.338479104,0.9996563514074437,130.70220299183313
6.340766208,0.9996299044728716,130.55080302706085
6.343053312,0.9996270914665356,130.39961106134135
6.345340416,0.9996480638325332,130.24833704423847
6.347627008,0.9996914462141527,130.09658872408343
6.349914112,0.9997545459138267,129.9441067203827
6.352201216,0.9998333461347512,129.7906156860007
6.35448832,0.9999229244001316,129.63593225201646
6.356775424,1.00001758829046,129.47992144549232
6.359062528,1.0001112929580769,129.32259064448223
6.36134912,1.0001981241504836,129.16394170442828
6.363636224,1.0002726263255566,129.00416229528273
6.365923328,1.0003299312981924,128.8434208311727
6.368210432,1.000366535829654,128.6820588514745
6.370497536,1.000380018848221,128.52030631448866
6.37278464,1.0003696261432973,128.35859248850605
6.375071232,1.000335858584784,128.19721185544938
6.377358336,1.0002809843831701,128.0364988209494
6.37964544,1.0002083135699633,127.87670974561325
6.381932544,1.0001225165703544,127.71811849716006
6.384219648,1.0000291054878514,127.56083348676223
6.386506752,0.9999337980340456,127.40496117369447
6.388793344,0.9998428939668244,127.25044821219845
6.391080448,0.9997619056819893,127.09724125951035
6.393367552,0.99969603130512,126.94511203377533
6.395654656,0.9996496075382831,126.79380587679138
6.39794176,0.9996254960295446,126.64303341882338
6.400228864,0.999625278832626,126.49249551162501
6.402515968,0.9996489028375437,126.34180831916215
6.40480256,0.9996949021886284,126.19061640027714
6.407089664,0.9997604624339486,126.03864367420951
6.409376768,0.9998413081346453,125.88564994196771
6.411663872,0.9999324284990458,125.73141213476754
6.413950976,1.0000280614636927,125.57584596969434
6.41623808,1.0001220518055258,125.4189306429586
6.418524672,1.0002084945212415,125.26070263343794
6.420811776,1.0002819724136123,125.10134163217012
6.42309888,1.0003375947199906,124.94110537893859
6.425385984,1.0003721042152312,124.7801896189657
6.427673088,1.0003831844766584,124.61897726663024
6.429960192,1.0003699906272592,124.45782192964931
6.432246784,1.0003335432535885,124.29699689284615
6.434533888,1.0002761035142238,124.13694035870566
6.436820992,1.0002011280766123,123.97781622076066
6.439108096,1.0001136006846385,123.81992408762282
6.4413952,1.0000188626586586,123.66336237835337
6.443682304,0.999922915741112,123.50822366963105
6.445968896,0.9998321589484288,123.35444157756187
6.448256,0.9997519634863216,123.20195600422319
6.450543104,0.9996875496065423,123.05053280735325
6.452830208,0.9996429960579033,122.89992386466325
6.455117312,0.9996212822562073,122.74984443318485
6.457404416,0.9996236079976779,122.59990429767005
6.459691008,0.9996500791609486,122.44978074564101
6.461978112,0.9996987131572218,122.29914819404495
6.464265216,0.9997666914647362,122.14768807297499
6.46655232,0.9998495559209679,121.99516930909971
6.468839424,0.9999423238114414,121.84137046469436
6.471126528,1.0000387948478282,121.68623616831582
6.473413632,1.0001329879883414,121.52971998023725
6.475700224,1.0002190037282332,121.37192916304055
6.477987328,1.0002912540040128,121.2130115251001
6.480274432,1.0003452091158558,121.05320120477596
6.482561536,1.0003775505011219,120.89276972909614
6.48484864,1.0003859002155544,120.73209545479345
6.487135744,1.0003701567153684,120.57146762677431
6.489422336,1.0003309417752346,120.41127187576953
6.49170944,1.0002709160909926,120.25180390100311
6.493996544,1.0001937029230425,120.09336683957316
6.496283648,1.0001043692939224,119.93616949205918
6.498570752,1.0000084071644162,119.78031242798349
6.500857856,0.9999120736423802,119.62590963669142
6.503144448,0.9998212597240802,119.4728843239424
6.505431552,0.9997418877379071,119.32110209014536
6.507718656,0.999679100397081,119.17039135966179
6.51000576,0.9996365231085467,119.0204726887265
6.512292864,0.9996172309922043,118.87102728622644
6.514579968,0.999622340433738,118.72171191333067
6.51686656,0.999651523272514,118.57218243748481
6.519153664,0.9997028807106508,118.42205788956436
6.521440768,0.999773283435007,118.27112051906876
6.523727872,0.9998582498527696,118.11902309631351
6.526014976,0.9999524094096628,117.96567691746088
6.52830208,1.0000497213466757,117.81096646714423
6.530588672,1.000144182845198,117.65485498579244
6.532875776,1.0002295762003508,117.4974991215263
6.53516288,1.0003006439079543,117.33900486443338
6.537449984,1.0003527916968729,117.17963306680744
6.539737088,1.000382781692817,117.01969423967206
6.542024192,1.0003886478415138,116.8594962643764
6.544310784,1.0003699795495593,116.69943858648458
6.546597888,1.0003280203666034,116.53984410591252
6.548884992,1.00026533698638,116.38102008130839
6.551172096,1.0001859314511385,116.223248605606
6.5534592,1.0000948873399744,116.06670665590293
6.555746304,0.9999977543213361,115.9116100509578
6.558033408,0.9999008262547556,115.75791766919995
6.56032,0.9998103782100067,115.60559688055385
6.562607104,0.9997319602030033,115.45457835148262
6.564894208,0.9996706094863674,115.3045722847631
6.567181312,0.9996302247939883,115.15530692228157
6.569468416,0.9996134934798175,115.00650312931491
6.57175552,0.9996212164342618,114.85778981767864
6.574042112,0.9996532631681285,114.70881898152678
6.576329216,0.9997073912696657,114.55922448534834
6.57861632,0.9997802905860567,114.40874355110242
6.580903424,0.9998672862497657,114.25713122118452
6.583190528,0.9999628692553302,114.10419424528789
6.585477632,1.0000609992409981,113.94989819816915
6.587764224,1.0001554336104113,113.79418599031605
6.590051328,1.0002401308900155,113.63723412588283
6.592338432,1.000309875740704,113.47913980345754
6.594625536,1.0003602184757818,113.3202301975503
6.59691264,1.0003878486260915,113.1607387090917
6.599199744,1.0003908854561168,113.00108682603417
6.601486336,1.0003694495247752,112.84156482819397
6.60377344,1.0003246437934323,112.68254364727939
6.606060544,1.000259444078016,112.5243340287114
6.608347648,1.0001776377477938,112.36723561467392
6.610634752,1.0000849410583221,112.21141382943462
6.612921856,0.9999866491079177,112.0570008620717
6.615208448,0.999889547224646,111.90405512347886
6.617495552,0.9997992959346343,111.75247905514016
6.619782656,0.9997219547612762,111.60213133643607
6.62206976,0.9996623000795885,111.45281381889745
6.624356864,0.9996242063326156,111.30424943565431
6.626643968,0.9996098889552287,111.1560803767549
6.628931072,0.9996205633577288,111.00796256861078
6.631217664,0.9996554258021914,110.8595177150395
6.633504768,0.9997123916905277,110.71043291114215
6.635791872,0.9997876695738152,110.56043572957617
6.638078976,0.9998766762080399,110.40922951243549
6.64036608,0.9999736224758317,110.25670369233013
6.642653184,1.0000724690625615,110.10280087129289
6.644939776,1.0001668888607014,109.94748253042162
6.64722688,1.0002509078669424,109.79092222596434
6.649513984,1.0003192441742628,109.6332838597895
6.651801088,1.0003675641108045,109.47475324334621
6.654088192,1.000392678882447,109.31576808573114
6.656375296,1.0003930434247392,109.15661204579823
6.658661888,1.0003687270707824,108.99763588994112
6.660948992,1.0003210148729726,108.83921585027788
6.663236096,1.000253119045802,108.68164169992373
6.6655232,1.000169279387707,108.52520803202178
6.667810304,1.0000746907036864,108.37007255490775
6.670097408,0.9999755771520468,108.21635127350974
6.672384,0.9998780905585675,108.0641220324679
6.674671104,0.9997882634057731,107.91324771660769
6.676958208,0.999711941902492,107.76362384799374
6.679245312,0.9996541426013476,107.61500715272459
6.681532416,0.9996182333559187,107.46705348122576
6.68381952,0.9996066648200709,107.31950430965146
6.686106112,0.9996203149432137,107.17195241878606
6.688393216,0.9996580439804422,107.02405463893777
6.69068032,0.999717696464302,106.87547525887064
6.692967424,0.999795395193385,106.72591706899976
6.695254528,0.9998863486213656,106.57514536373118
6.697541632,0.9999847234487947,106.42304964356521
6.699828224,1.0000841903804947,106.26948724676444
6.702115328,1.0001784797231703,106.11458836835966
6.704402432,1.0002616754006477,105.95839311848503
6.706689536,1.000328469168727,105.80112473182454
6.70897664,1.000374675978882,105.64306396324177
6.711263744,1.0003972480623553,105.48451763612064
6.713550848,1.0003949087357433,105.32585024597489
6.71583744,1.0003674184168476,105.16741174261102
6.718124544,1.0003170263199128,105.0095710112107
6.720411648,1.000246398914546,104.85263102156942
6.722698752,1.000160399345354,104.69682391041097
6.724985856,1.0000641725959303,104.54238904470579
6.72727296,0.9999640469614717,104.38938984747068
6.729559552,0.9998662550681295,104.23786063151239
6.731846656,0.9997770154599153,104.08769706456556
6.73413376,0.9997020123138152,103.93875538567049
6.736420864,0.9996458072981049,103.79081283196982
6.738707968,0.9996123888401758,103.64353298526567
6.740995072,0.9996036416240718,103.49656228046368
6.743281664,0.9996201336201596,103.3495845598108
6.745568768,0.9996609211989506,103.20221476403482
6.747855872,0.999723343533381,103.05410954519729
6.750142976,0.9998035899366291,102.9049724798315
6.75243008,0.9998963684921421,102.75462653352156
6.754717184,0.9999958656973893,102.60288998715859
6.757003776,1.0000959966080918,102.44971970374704
6.75929088,1.0001901790477374,102.29515988073472
6.761577984,1.000272528198916,102.13934052259268
6.763865088,1.0003376604653278,101.98248000130144
6.766152192,1.0003817345754247,101.82482642511663
6.768439296,1.000401657768348,101.66674483993089
6.770725888,1.0003963332503707,101.50856363627133
6.773012992,1.0003660731827608,101.35064923396774
6.775300096,1.0003126983941406,101.19338606528848
6.7775872,1.000239539029449,101.03705433685644
6.779874304,1.0001512311494578,100.88190766481763
6.782161408,1.0000534877392768,100.7281393038934
6.784448512,0.9999524785120312,100.57583674316108
6.786735104,0.9998544539302103,100.42500788060376
6.789022208,0.9997657377459319,100.27555346306818
6.791309312,0.9996919982911382,100.12729727789022
6.793596416,0.999637957429777,99.98000342412499
6.79588352,0.9996069367491355,99.83334119745086
6.798170624,0.9996010015621483,99.68696603705186
6.800457216,0.9996204890515167,99.5405422777895
6.80274432,0.9996642700237943,99.3936658614139
6.805031424,0.9997294283297232,99.24602135856048
6.807318528,0.9998119806734821,99.09732112529805
6.809605632,0.9999067040820555,98.94735354910063
6.811892736,1.0000075588782567,98.79598851464559
6.814179328,1.0001080693312667,98.64316801301081
6.816466432,1.0002019870312728,98.48895854776448
6.818753536,1.0002832581747234,98.33350287257079
6.82104064,1.0003468242414562,98.17701071111007
6.823327744,1.0003885459035695,98.01975996224259
6.825614848,1.0004058106961722,97.86210713105723
6.82790144,1.0003975525727793,97.70442886885849
6.830188544,1.0003640841358337,97.54705308183178
6.832475648,1.0003077422286828,97.39032771208562
6.834762752,1.0002319741794516,97.23461871508059
6.837049856,1.0001416495415811,97.08012382052779
6.83933696,1.0000423350694019,96.92702211069341
6.841623552,0.9999404713220235,96.77541230019374
6.843910656,0.9998424009933865,96.62526831203802
6.84619776,0.9997544115786158,96.47650643830359
6.848484864,0.9996820741885504,96.32891557526005
6.850771968,0.9996300234425739,96.18227883316379
6.853059072,0.9996016311932634,96.03622793223101
6.855345664,0.9995985370339366,95.89042900406915
6.857632768,0.9996210749868241,95.744521787924
6.859919872,0.9996678084858232,95.59812353691888
6.862206976,0.9997359160991707,95.45091235875155
6.86449408,0.9998208597496757,95.30261418878612
6.866781184,0.9999174860242378,95.1530231864392
6.869068288,1.0000193123512537,95.00201370203447
6.87135488,1.0001203425146872,94.84952509919933
6.873641984,1.000213863558046,94.6956510889761
6.875929088,1.0002940072014903,94.54054098252124
6.878216192,1.0003557985486802,94.38440255060223
6.880503296,1.000395209744046,94.22755587324984
6.8827904,1.0004096229185975,94.07034823986842
6.885076992,1.000398334568599,93.91313365856166
6.887364096,1.0003618797268385,93.75625989851076
6.8896512,1.0003025777521077,93.6001300440106
6.891938304,1.000224199142523,93.44501249750091
6.894225408,1.0001317339867422,93.29113556105816
6.896512512,1.0000310077293728,93.13871248022885
6.898799104,0.999928284564784,92.98776347812232
6.901086208,0.9998302885744219,92.83829489585521
6.903373312,0.999743055778638,92.69020485878323
6.905660416,0.9996722661249897,92.5432942479766
6.90794752,0.9996224239991439,92.39725831803806
6.910234624,0.9995965468013838,92.25180685857374
6.912521216,0.9995965255751801,92.10658009915478
6.91480832,0.9996220859151227,91.96118013714164
6.917095424,0.9996719099482622,91.81524175766353
6.919382528,0.999742690534048,91.66846149004932
6.921669632,0.999830107674143,91.52054414831363
6.923956736,0.9999283896888158,91.37129609082912
6.926243328,1.0000315358094485,91.22060522472174
