freq,mag,phase
6.0,0.9998506080370826,-78.63998177478706
6.00399616,0.9999039049514583,-78.83478134932005
6.007991808,0.9999628980804927,-79.03039295060715
6.011987968,1.0000239875588384,-79.22692048440867
6.015984128,1.0000839468289613,-79.42436412006671
6.019979776,1.0001390488724184,-79.62261810595668
6.023975936,1.000185855663432,-79.82163415279054
6.027972096,1.0002216642414543,-80.02126166395976
6.031968256,1.0002441970797094,-80.2213594838747
6.035963904,1.0002521253233267,-80.4216801626994
6.039960064,1.0002447552419838,-80.6220082023987
6.043956224,1.0002228918726952,-80.82226323930809
6.047951872,1.0001874507237956,-81.02207593846258
6.051948032,1.0001407125907356,-81.22136372248112
6.055944192,1.000085549898959,-81.41996970756111
6.05993984,1.0000255174179191,-81.61775883313044
6.063936,0.9999636669274354,-81.81473243525247
6.06793216,0.9999039908775595,-82.0108495122964
6.07192832,0.9998503932209607,-82.20619969837588
6.075923968,0.9998058623283765,-82.40088478709116
6.079920128,0.9997730228302825,-82.59509607178443
6.083916288,0.9997542132768916,-82.78892830218076
6.087911936,0.9997502162541632,-82.98265042258018
6.091908096,0.9997616564974199,-83.17643591840574
6.095904256,0.9997874645271106,-83.370485323514
6.099899904,0.9998266099655393,-83.5650656428032
6.103896064,0.9998763453361578,-83.76027841259899
6.107892224,0.999933651895788,-83.95632293993819
6.111887872,0.9999953273167168,-84.15319565818044
6.115884032,1.0000573277827856,-84.3510361971227
6.119880192,1.0001163640813686,-84.54973492583754
6.123876352,1.00016832303314,-84.74923473835288
6.127872,1.0002104379707168,-84.94945366525414
6.13186816,1.0002398389373457,-85.15020672435227
6.13586432,1.000255011695748,-85.35129305109575
6.139859968,1.000254931266008,-85.55255615767173
6.143856128,1.0002393678211048,-85.75374982917727
6.147852288,1.0002094467972984,-85.95459356202858
6.151847936,1.0001668424672587,-86.1549913664209
6.155844096,1.00011442287799,-86.35477073183463
6.159840256,1.000055099154158,-86.55373182147174
6.163836416,0.99999232164225,-86.75192247972487
6.167832064,0.9999301503570052,-86.9491937664213
6.171828224,0.9998722307847683,-87.1456918059825
6.175824384,0.9998219482099391,-87.34140923735455
6.179820032,0.9997826387512594,-87.53655899365125
6.183816192,0.9997567447827805,-87.73125162372483
6.187812352,0.9997454074313341,-87.92571565052383
6.191808,0.9997497958842305,-88.120121622637
6.19580416,0.9997693304009475,-88.31475778447802
6.19980032,0.9998031914187206,-88.5098057601373
6.203795968,0.999848985375353,-88.70546926916316
6.207792128,0.9999041841185358,-88.90179213240823
6.211788288,0.999965372718173,-89.09905277675648
6.215784448,1.000028986027775,-89.2971603782741
6.219780096,1.0000909839728906,-89.49626726683043
6.223776256,1.0001476918670054,-89.69621120282476
6.227772416,1.0001956913527814,-89.89692130529873
6.231768064,1.0002319028738824,-90.09827441910554
6.235764224,1.0002543992840296,-90.30004910118114
6.239760384,1.0002616868529794,-90.50210231279287
6.243756032,1.0002531636676855,-90.70417262329713
6.247752192,1.0002293571790917,-90.90600909224962
6.251748352,1.0001918445099711,-91.10747776549637
6.255744,1.000142726042981,-91.30834597954966
6.25974016,1.0000850967031023,-91.50846373067574
6.26373632,1.000022265232027,-91.70781700448575
6.26773248,0.9999581317305333,-91.9062841307689
6.271728128,0.9998966495468619,-92.10386909221272
6.275724288,0.9998414365146506,-92.30068776817524
6.279720448,0.9997958190207122,-92.49674648565836
6.283716096,0.9997627401549402,-92.69230624856995
6.287712256,0.9997440025108698,-92.88754673617986
6.291708416,0.999741122615761,-93.08261303249657
6.295704064,0.9997537782076418,-93.27780487685722
6.299700224,0.9997815018958638,-93.47332972659103
6.303696384,0.9998227257066356,-93.66932750048798
6.307692544,0.9998748940491987,-93.86603505369378
6.311688192,0.999934809537004,-94.0635605024446
6.315684352,0.99999893605568,-94.26200875610597
6.319680512,1.0000633087775395,-94.46137268046051
6.32367616,1.0001241634500424,-94.66166369645647
6.32767232,1.0001776137144531,-94.86281168732584
6.33166848,1.0002203827694418,-95.06469047122863
6.335664128,1.0002502934123703,-95.26706095473935
6.339660288,1.0002650068390153,-95.4698039677651
6.343656448,1.0002639042862842,-95.67267184597729
6.347652096,1.0002469462581967,-95.87544115543793
6.351648256,1.0002150062164366,-96.07792635788897
6.355644416,1.0001703211112118,-96.27983265017411
6.359640576,1.0001152979089858,-96.48107695344497
6.363636224,1.0000532164886284,-96.681571157624
6.367632384,0.9999880920049473,-96.88115640351967
6.371628544,0.9999237281583205,-97.07986791189568
6.375624192,0.9998639458978847,-97.27766071291883
6.379620352,0.9998124282935273,-97.47474609336747
6.383616512,0.9997724485686195,-97.67118736080873
6.38761216,0.9997462540284305,-97.86718712596407
6.39160832,0.9997355275965373,-98.06296589182692
6.39560448,0.99974088517383,-98.25870470079045
6.39960064,0.9997620966372178,-98.4546823337248
6.403596288,0.9997979769448303,-98.65104237008461
6.407592448,0.999846169106749,-98.84808437290322
6.411588608,0.999903936279516,-99.04583800319793
6.415584256,0.9999677523098586,-99.24454321176579
6.419580416,1.000033671835364,-99.44417377107308
6.423576576,1.0000977266872515,-99.64474147031859
6.427572224,1.000156369069325,-99.84619915904682
6.431568384,1.0002055227807158,-100.04847235930387
6.435564544,1.0002424013340134,-100.25138625429435
6.439560192,1.000264796965896,-100.45473581140128
6.443556352,1.000271419228013,-100.65835436245382
6.447552512,1.000261673499323,-100.86193440232385
6.451548672,1.0002361869666052,-101.06530049279313
6.45554432,1.0001966118401102,-101.26825225810077
6.45954048,1.0001450464470643,-101.47059084228198
6.46353664,1.0000847657434542,-101.67213506255759
6.467532288,1.0000194625006333,-101.87282712771206
6.471528448,0.9999529348209268,-102.0726055843042
6.475524608,0.9998894308720828,-102.27149617991144
6.479520256,0.999832481086679,-102.46953915446643
6.483516416,0.9997857890649887,-102.66687573159085
6.487512576,0.999752096953157,-102.86367038973192
6.491508736,0.9997335704420991,-103.06012960166066
6.495504384,0.9997313297655075,-103.25641503139434
6.499500544,0.9997453122272754,-103.45283505253546
6.503496704,0.9997750463359549,-103.64956944524175
6.507492352,0.9998184802803292,-103.8468916258116
6.511488512,0.9998731626371017,-104.0449274506647
6.515484672,0.9999357145456802,-104.24378251528508
6.51948032,1.0000023815522363,-104.44361246048703
6.52347648,1.0000690809782755,-104.64438729088093
6.52747264,1.0001319072140733,-104.84611996962921
6.531468288,1.0001868707106218,-105.0487290471286
6.535464448,1.0002308144505165,-105.25205588252419
6.539460608,1.0002609221988852,-105.45592081310318
6.543456768,1.0002755297129344,-105.66012560184585
6.547452416,1.0002735036015638,-105.86447820164992
6.551448576,1.0002549433969525,-106.06869710486887
6.555444736,1.0002212352120006,-106.2725722644787
6.559440384,1.0001740694300352,-106.4758774806155
6.563436544,1.000116394382813,-106.67851756504207
6.567432704,1.000051890453426,-106.88029068172744
6.571428352,0.9999841829136331,-107.08109558792178
6.575424512,0.9999174275383236,-107.28104524682088
6.579420672,0.9998556996954562,-107.48007036464806
6.583416832,0.9998028162242328,-107.67829098628665
6.58741248,0.9997619265379011,-107.87587828530708
6.59140864,0.999735471495947,-108.07305631699354
6.5954048,0.9997252080385064,-108.26992989355244
6.599400448,0.9997315451377576,-108.4667980135692
6.603396608,0.999754441454397,-108.66389193302437
6.607392768,0.9997923136580895,-108.86147058535991
6.611388416,0.9998429300280677,-109.05971784153745
6.615384576,0.9999032334570811,-109.25872819065876
6.619380736,0.999969682469636,-109.45869032568221
6.623376384,1.000038193289766,-109.659630113485
6.627372544,1.0001045292645123,-109.86151108424578
6.631368704,1.000164870324934,-110.0643768192556
6.635364864,1.0002154016649383,-110.26802671591973
6.639360512,1.0002530183262106,-110.47230186724559
6.643356672,1.00027564548834,-110.67702473039472
6.647352832,1.0002816673050794,-110.88203779050164
6.65134848,1.0002707190977866,-111.08699722694357
6.65534464,1.0002436438196793,-111.2917028591217
6.6593408,1.0002017741334979,-111.49596725810878
6.663336448,1.000147745929978,-111.69957469842964
6.667332608,1.0000848953771415,-111.90237813282819
6.671328768,1.000016910797341,-112.10424627016243
6.675324928,0.9999478170568616,-112.30521323216819
6.679320576,0.9998820738450491,-112.50518140290279
6.683316736,0.9998234236810476,-112.70434385379163
6.687312896,0.9997755408120494,-112.90274329411235
6.691308544,0.9997411989132031,-113.10054949613941
6.695304704,0.9997226734418966,-113.2980568180066
6.699300864,0.9997211876215261,-113.49541821119145
6.703296512,0.9997364806356006,-113.69289294113285
6.707292672,0.9997679809646021,-113.89069203411579
6.711288832,0.9998137799416208,-114.08909992719882
6.71528448,0.9998709008935092,-114.2882164568166
6.71928064,0.9999361430975224,-114.48828541993261
6.7232768,1.0000054157794895,-114.68930377568681
6.72727296,1.000074574777841,-114.8912732498419
6.731268608,1.000139563874019,-115.09427395650981
6.735264768,1.0001961783287945,-115.29813714179696
6.739260928,1.0002412799224354,-115.50277517366423
6.743256576,1.0002718806694508,-115.7079032289603
6.747252736,1.0002861719657201,-115.91344908998043
6.751248896,1.000283297382194,-116.11906006958206
6.755244544,1.0002634692946488,-116.32457996119497
6.759240704,1.000227767685391,-116.52967375814363
6.763236864,1.0001782634781438,-116.73419618635111
6.767232512,1.000118011589282,-116.93795703443698
6.771228672,1.0000507951452677,-117.14085771211772
6.775224832,0.9999803944331858,-117.34277656228923
6.779220992,0.9999112969995202,-117.54373621255372
6.78321664,0.9998475686600389,-117.74378972997397
6.7872128,0.999793041579769,-117.94303307203788
6.79120896,0.9997511552509398,-118.14157965702285
6.795204608,0.9997243330618585,-118.33963068137324
6.799200768,0.9997143235783981,-118.53744495181803
6.803196928,0.9997218024378908,-118.73529611718892
6.807192576,0.9997461667024976,-118.93336718707457
6.811188736,0.9997861656520112,-119.13191067548524
6.815184896,0.9998391289623022,-119.33114742178991
6.819181056,0.9999021960954376,-119.53120622555171
6.823176704,0.9999714007954356,-119.73222786760311
6.827172864,1.0000424973116664,-119.93427015799142
6.831169024,1.0001112689001783,-120.13732088017578
6.835164672,1.000173553376523,-120.34131602226535
6.839160832,1.0002254931113752,-120.5461723877896
6.843156992,1.0002640787136503,-120.75165334163734
6.84715264,1.0002867930491437,-120.95757758205603
6.8511488,1.000292360803168,-121.16376925055317
6.85514496,1.00028039844086,-121.36994491157745
6.859140608,1.0002515235447489,-121.57582373971368
6.863136768,1.0002075275190045,-121.78120063834577
6.867132928,1.000150919633755,-121.98591384156387
6.871129088,1.0000853635189282,-122.18971593535831
6.875124736,1.0000146963149412,-122.39263899266994
6.879120896,0.9999430855241781,-122.59453790722844
6.883117056,0.9998748210570776,-122.79547360819411
6.887112704,0.9998142609378107,-122.99548935047204
6.891108864,0.9997651401974378,-123.19477520165968
6.895105024,0.9997300735717746,-123.39344780633577
6.899100672,0.9997115023973584,-123.59176478688708
6.903096832,0.9997104928313485,-123.78997534892937
6.907092992,0.9997272415300523,-123.98827316640994
6.911089152,0.9997605390196939,-124.18696614439443
6.9150848,0.9998085368585902,-124.38626693782817
6.91908096,0.999868356914567,-124.58629962764408
6.92307712,0.9999362813616385,-124.78730425493966
6.927072768,1.0000084478382907,-124.9892985659762
6.931068928,1.0000802379208378,-125.19230081665951
6.935065088,1.0001474046679337,-125.39636845369829
6.939060736,1.0002059332311763,-125.60131001807103
6.943056896,1.0002521363519845,-125.80703147747975
6.947053056,1.0002833378606817,-126.01331447478086
6.951048704,1.0002975625636492,-126.21991550171428
6.955044864,1.0002939477207806,-126.42663222742203
6.959041024,1.0002726439675391,-126.63319641504536
6.963037184,1.0002349367594932,-126.83935201849216
6.967032832,1.0001830852671092,-127.04488674541591
6.971028992,1.0001202797540318,-127.24965493155923
6.975025152,1.0000501182502541,-127.45346282862229
6.9790208,0.9999769247108917,-127.6562605418786
6.98301696,0.9999052821582751,-127.85810359710707
6.98701312,0.9998393463866809,-128.05891172650158
6.991008768,0.9997831207110931,-128.25893356152054
6.995004928,0.9997401040732922,-128.4582309104369
6.999001088,0.9997128897440116,-128.65701003954888
7.002997248,0.9997031408794411,-128.85556872496224
7.006992896,0.9997114985548426,-129.05415316786048
7.010989056,0.9997374531590519,-129.25295106733336
7.014985216,0.9997794529945058,-129.45226819245477
7.018980864,0.9998350723146519,-129.6523190427538
7.022977024,0.9999008306973922,-129.85319059881832
7.026973184,0.9999727840719138,-130.05509866965906
7.030968832,1.0000467370459414,-130.25803540570314
7.034964992,1.0001180402411067,-130.46201858126403
7.038961152,1.0001824293943475,-130.66697463780707
7.0429568,1.0002360464296445,-130.87279908933147
7.04695296,1.0002755487865396,-131.07929126963577
7.05094912,1.0002985469728256,-131.28626200489617
7.05494528,1.0003036417872335,-131.49342145117515
7.058940928,1.0002905830196316,-131.7005237351674
7.062937088,1.000260069206765,-131.907413373783
7.066933248,1.0002138436645538,-132.11370775333273
7.070928896,1.0001547061996263,-132.3192626719638
7.074925056,1.0000862655118696,-132.52398434283566
7.078921216,1.0000126547415193,-132.7276538881643
7.082916864,0.9999382875964604,-132.93032025090113
7.086913024,0.9998676121900476,-133.13199009260214
7.090909184,0.999805064193047,-133.3326953962622
7.094905344,0.9997543426574919,-133.53262293039475
7.098900992,0.9997185769770568,-133.73191466305403
7.102897152,0.999699833786768,-133.93084661877833
7.106893312,0.9996994125534046,-134.12966347068786
7.11088896,0.9997172848215322,-134.32859583601999
7.11488512,0.9997524579970575,-134.5279414718365
7.11888128,0.9998028410109104,-134.72790192049405
7.122876928,0.9998652975294025,-134.9286802516286
7.126873088,0.9999361059640003,-135.13037339316196
7.130869248,1.0000110732026832,-135.33316835601582
7.134864896,1.0000856701863885,-135.53697079365367
7.138861056,1.0001552569735552,-135.74185683513932
7.142857216,1.000215613761279,-135.9476863759082
7.146853376,1.0002632655301817,-136.15426168505158
7.150849024,1.0002951798722883,-136.36145743327214
7.154845184,1.0003093292224259,-136.5689392081356
7.158841344,1.0003049686039005,-136.77656518665785
7.162836992,1.000282212742027,-136.98400401238305
7.166833152,1.0002425680413156,-137.1909886271766
7.170829312,1.0001883056021865,-137.39729455287568
7.17482496,1.000122639809309,-137.6028401364337
7.17882112,1.0000495936253566,-137.80737664313662
7.18281728,0.9999734997158994,-138.0108732310725
7.18681344,0.999899178797676,-138.21328414776198
7.190809088,0.9998309089238688,-138.4147380918878
7.194805248,0.9997727919966338,-138.61528601999214
7.198801408,0.9997285340974825,-138.81509577058105
7.202797056,0.9997008122831549,-139.01442371854398
7.206793216,0.999691263516262,-139.21348760680297
7.210789376,0.9997005315184407,-139.41254242662697
7.214785024,0.9997279603938592,-139.61186589455036
7.218781184,0.9997721999136893,-139.81173502596482
7.222777344,0.9998303644441837,-140.01231951937362
7.226772992,0.9998989478104552,-140.2138529992559
7.230769152,0.9999739629001434,-140.41637343820068
7.234765312,1.0000507316046505,-140.61998181630787
7.238761472,1.0001246572146676,-140.8246709784695
7.24275712,1.0001913715133297,-141.0303779729137
7.24675328,1.000246596150566,-141.23696520667409
7.25074944,1.0002872180193123,-141.4442618745677
7.254745088,1.0003106638456192,-141.65196963508063
7.258741248,1.0003153727835625,-141.85996728315257
7.262737408,1.000301272749938,-142.0678565997523
7.266733056,1.0002689932924387,-142.2754477323225
7.270729216,1.0002205342248935,-142.4824835632617
7.274725376,1.0001587320736802,-142.68872745819587
7.278721024,1.0000874153257568,-142.8940586881773
7.282717184,1.000010822866867,-143.0983423166236
7.286713344,0.9999335345649064,-143.30153672614819
7.290709504,0.9998603342582653,-143.503694760664
7.294705152,0.9997955293725612,-143.70485742509572
7.298701312,0.9997431857079552,-143.90520386090924
7.302697472,0.9997063801761822,-144.10492190767113
7.30669312,0.999687451689407,-144.3042361589736
7.31068928,0.9996875831398215,-144.50343731404095
7.31468544,0.9997066894013235,-144.70278168265628
7.318681088,0.99974375766368,-144.902523258172
7.322677248,0.9997965150196491,-145.10291802060013
7.326673408,0.9998617536322241,-145.3041383571395
7.330669568,0.9999355790279525,-145.5063718496943
7.334665216,1.0000135896872624,-145.70968002197566
7.338661376,1.0000910075789688,-145.9141003749657
7.342657536,1.0001630867237885,-146.1195929385532
7.346653184,1.0002256009790187,-146.3260763025673
7.350649344,1.0002746911482823,-146.5333277360856
7.354645504,1.000307340438917,-146.7411739057168
7.358641152,1.0003215950738693,-146.94935914851308
7.362637312,1.0003164836339082,-147.1576561155306
7.366633472,1.000292411736602,-147.3657288357643
7.37062912,1.0002507463705272,-147.57334383839043
7.37462528,1.000193974434072,-147.78028079496715
7.37862144,1.0001253978284539,-147.98634035369528
7.3826176,1.0000492979532887,-148.1913287615829
7.386613248,0.9999702514027692,-148.3952772377691
7.390609408,0.9998930482802377,-148.59812831964217
7.394605568,0.9998223049804715,-148.799914837879
7.398601216,0.999762216099357,-149.00080643515471
7.402597376,0.9997166673063596,-149.20088977306816
7.406593536,0.9996882332741331,-149.40048500988362
7.410589184,0.9996788322422656,-149.59985385572384
7.414585344,0.9996889870579098,-149.7991761636552
7.418581504,0.9997180599722613,-149.99882616445615
7.422577664,0.9997644076777047,-150.19896534126326
7.426573312,0.9998251782585155,-150.39992396535396
7.430569472,0.9998967255354825,-150.60178272119447
7.434565632,0.9999748748076233,-150.8046956220747
7.43856128,1.0000547003445937,-151.00878907529145
7.44255744,1.0001314409845767,-151.21395999706135
7.4465536,1.000200492545796,-151.4201830501478
7.450549248,1.0002576796735247,-151.62732609199057
7.454545408,1.0002994811064447,-151.83513646609404
7.458541568,1.0003233135371785,-152.04345307397955
7.462537216,1.0003278449223192,-152.25196897253952
7.466533376,1.0003126565925118,-152.4604465738134
7.470529536,1.000278579063512,-152.66857025308562
7.474525696,1.0002278289998527,-152.87609163715797
7.478521344,1.0001632631916901,-153.08277896053986
7.482517504,1.0000889129580963,-153.28852333537785
7.486513664,1.000009167481082,-153.49316808810067
7.490509312,0.9999288675320135,-153.69668860068572
7.494505472,0.999852854754227,-153.899102030815
7.498501632,0.9997857493164843,-154.1004873941583
7.50249728,0.9997316741146227,-154.3010288920134
7.50649344,0.999693880758644,-154.5009145285135
7.5104896,0.9996746606996186,-154.70037990868124
7.51448576,0.9996752814769895,-154.89974293804525
7.518481408,0.9996956061193968,-155.09923584670273
7.522477568,0.9997345206251882,-155.29917081872156
7.526473728,0.9997897272957303,-155.49976409171367
7.530469376,0.9998579244662922,-155.70122689509768
7.534465536,0.999934868140001,-155.9037082316326
7.538461696,1.0000160683548927,-156.10735514370458
7.542457344,1.0000964762322468,-156.3121243189621
7.546453504,1.0001713166122896,-156.51800791823172
7.550449664,1.0002360626051086,-156.7248912101644
7.554445312,1.0002867697199394,-156.932572521098
7.558441472,1.0003203585081202,-157.14089614413345
7.562437632,1.000334685234309,-157.34953080923447
7.566433792,1.0003289236949369,-157.5582745413048
7.57042944,1.000303464060557,-157.7667843182739
7.5744256,1.0002595648698573,-157.97479971426418
7.57842176,1.000200198786179,-158.18210737008695
7.582417408,1.0001287233765461,-158.38844621181065
7.586413568,1.0000493942429005,-158.59374809073458
7.590409728,0.9999672209711187,-158.797921722622
