freq,mag,phase
6.0,0.999652388581578,-131.02343877185436
6.002287616,0.9996439066484749,-131.15148420648063
6.004575232,0.9996588596608873,-131.2795442308751
6.006862848,0.9996957589203258,-131.40804561544488
6.009150464,0.9997525366152823,-131.53718850063123
6.011438592,0.9998253963894744,-131.66728666195567
6.013726208,0.9999097827741369,-131.79849103044407
6.016013824,1.0000004512198042,-131.93104210467996
6.01830144,1.0000914553346996,-132.06488106270686
6.020589056,1.0001771837265103,-132.20004512974404
6.022876672,1.0002521444730248,-132.33633323404484
6.025164288,1.0003116035713715,-132.47361712329064
6.027451904,1.000351669613857,-132.61162839743133
6.029740032,1.0003699726815374,-132.75009241781714
6.032027648,1.000365290767818,-132.8886491198631
6.034315264,1.0003377986489068,-133.02696860526544
6.03660288,1.0002892154347438,-133.16472377063337
6.038890496,1.0002227989665025,-133.30168334606117
6.041178112,1.0001426019944524,-133.43754537476016
6.043465728,1.0000537169615822,-133.5722147730658
6.045753344,0.9999617815772645,-133.70556289549583
6.04804096,0.9998726944894781,-133.83761772523107
6.050329088,0.999792027697777,-133.9683892646273
6.052616704,0.9997249127334553,-134.09811854512512
6.05490432,0.9996756418622609,-134.22701678075637
6.057191936,0.9996473132957614,-134.35532368020614
6.059479552,0.999641825082542,-134.48338067919218
6.061767168,0.9996594382860364,-134.611571100297
6.064054784,0.9996990507041066,-134.7401617746009
6.0663424,0.9997582943408685,-134.86946573997133
6.068630016,0.9998333342566982,-134.9997439846578
6.070918144,0.9999193229937928,-135.13121842954183
6.07320576,1.0000110168498664,-135.26396380785005
6.075493376,1.0001024280189652,-135.39806272236248
6.077780992,1.0001878118362992,-135.53344633540615
6.080068608,1.0002618196016613,-135.66997148860062
6.082356224,1.0003196212978265,-135.80747110395578
6.08464384,1.0003576816443718,-135.9456879343653
6.086931456,1.0003734969878422,-136.08430291204053
6.089219584,1.0003660136868395,-136.2229628273577
6.0915072,1.000335773932945,-136.361344221356
6.093794816,1.0002847124878513,-136.49915491730562
6.096082432,1.0002159373744464,-136.63610196029595
6.098370048,1.0001338208206554,-136.77197997896343
6.100657664,1.0000436575322156,-136.90655747484928
6.10294528,0.9999510642443826,-137.03983841085343
6.105232896,0.9998619623755992,-137.17183510616368
6.107520512,0.9997819296653605,-137.30254302225214
6.10980864,0.999716108037155,-137.43221930895197
6.112096256,0.9996687866109222,-137.56105314330588
6.114383872,0.999642792317621,-137.68936619596823
6.116671488,0.9996399129176058,-137.81748667909028
6.118959104,0.9996602428684916,-137.9457252905675
6.12124672,0.9997026107349933,-138.07443055819283
6.123534336,0.9997643546887607,-138.20388147154605
6.125821952,0.9998414376220618,-138.3343315536338
6.128109568,0.9999290762967902,-138.4660099869604
6.130397696,1.0000216601168592,-138.59901354500843
6.132685312,1.0001134250807808,-138.73332884949713
6.134972928,1.0001984272603446,-138.86893667382196
6.137260544,1.000271369842506,-139.0056950752513
6.13954816,1.0003275001307557,-139.14341198854896
6.141835776,1.00036332434165,-139.28178609706492
6.144123392,1.0003766360573023,-139.42050741573644
6.146411008,1.0003664750114756,-139.5592589299397
6.148699136,1.000333443458571,-139.69773110223238
6.150986752,1.000279730744616,-139.83555032960837
6.153274368,1.000208680681998,-139.9725027988903
6.155561984,1.0001247862395968,-140.1082914792442
6.1578496,1.000033349596531,-140.24283526395166
6.160137216,0.999940110245423,-140.37604035500473
6.162424832,0.9998511288990215,-140.5078831583193
6.164712448,0.9997718808773632,-140.63853917371705
6.167000064,0.9997074931365393,-140.76815901580449
6.169288192,0.9996621403274167,-140.89695965208202
6.171575808,0.9996385326920718,-141.0252622340145
6.173863424,0.999638240173033,-141.1533842414025
6.17615104,0.999661430132494,-141.28168069871785
6.178438656,0.9997064921909365,-141.41050128838683
6.180726272,0.9997706363514399,-141.54008782577412
6.183013888,0.9998498582662378,-141.6707137294064
6.185301504,0.9999390006293294,-141.80260903410166
6.18758912,1.0000326033471283,-141.9357654867613
6.189877248,1.0001245246563788,-142.0703334336816
6.192164864,1.0002090290589745,-142.20617659929997
6.19445248,1.000280745830899,-142.34314450911742
6.196740096,1.0003352822988136,-142.4810262585336
6.199027712,1.0003688260282149,-142.61956742752747
6.201315328,1.0003795699146985,-142.75842922967936
6.203602944,1.0003666021504112,-142.8972810303916
6.20589056,1.000330885676414,-143.03578197062913
6.208178688,1.000274552904811,-143.17358779598786
6.210466304,1.0002012355007612,-143.31049604284635
6.21275392,1.0001155730701983,-143.4462273171309
6.215041536,1.000022864614821,-143.58068632483295
6.217329152,0.9999291601676412,-143.713790047111
6.219616768,0.9998402052815594,-143.84553297221566
6.221904384,0.9997618910606241,-143.9760984094649
6.224192,0.9996989937740104,-144.10562336766228
6.226479616,0.9996556098207603,-144.2343860686378
6.228767744,0.9996344801638769,-144.36268085750342
6.23105536,0.9996369582708055,-144.4907924431903
6.233342976,0.9996629397323081,-144.61916156460387
6.235630592,0.9997107388957566,-144.74804912402533
6.237918208,0.9997773671375392,-144.8777669864118
6.240205824,0.9998584995163642,-145.00858112396992
6.24249344,0.9999491224266551,-145.14063464457976
6.244781056,1.0000435690511307,-145.27402135027728
6.247068672,1.000135592478325,-145.4087853932016
6.2493568,1.0002196494999887,-145.54483184833444
6.251644416,1.0002901789182206,-145.6820026432927
6.253932032,1.000342748529671,-145.82005164450442
6.256219648,1.0003741065386151,-145.95875377076328
6.258507264,1.0003821970787914,-146.09771951401322
6.26079488,1.0003664505365544,-146.23661184393654
6.263082496,1.0003278767719384,-146.37513181209624
6.265370112,1.0002689853798314,-146.5129321668273
6.26765824,1.0001933641885443,-146.6497887262816
6.269945856,1.000105933711386,-146.78546125103165
6.272233472,1.0000121186435662,-146.91978397065765
6.274521088,0.9999179216683639,-147.0527732658249
6.276808704,0.9998292816323088,-147.1844356926966
6.27909632,0.9997518766951874,-147.31488674280803
6.281383936,0.9996905485892761,-147.4442968365023
6.283671552,0.999649300830979,-147.57298861194644
6.285959168,0.999630674262752,-147.70126021996856
6.288247296,0.999635861545764,-147.8293945797091
6.290534912,0.9996646837176407,-147.95778440387545
6.292822528,0.9997152349466285,-148.08678674277294
6.295110144,0.9997842847775079,-148.21660193680583
6.29739776,0.9998674428779304,-148.34756227678392
6.299685376,0.999959579445321,-148.47980199229738
6.301972992,1.0000546438505442,-148.61340892338598
6.304260608,1.0001469214919385,-148.7483254592101
6.306548224,1.0002302754331462,-148.8846223905641
6.308836352,1.0002994631626243,-149.0219383228546
6.311123968,1.0003501938570551,-149.1601642632628
6.313411584,1.0003791822308374,-149.29895460534007
6.3156992,1.0003846030750605,-149.43801312357704
6.317986816,1.0003660422266185,-149.57698300532206
6.320274432,1.0003246803545163,-149.715507706034
6.322562048,1.000263166783777,-149.8532966033666
6.324849664,1.0001854021490648,-149.99006499615686
6.327137792,1.0000962112681306,-150.12563460923695
6.329425408,1.0000013733979898,-150.25984278795846
6.331713024,0.9999067240293629,-150.3927089436863
6.33400064,0.9998183604307033,-150.52423019911006
6.336288256,0.9997420146904394,-150.6545493266825
6.338575872,0.9996823018664507,-150.78388115446833
6.340863488,0.9996431654190534,-150.9124899692546
6.343151104,0.999627154098953,-151.040688206066
6.34543872,0.9996351738011119,-151.16884284834475
6.347726848,0.9996667762416894,-151.29729751402704
6.350014464,0.9997200209045843,-151.42633019358382
6.35230208,0.9997914417753766,-151.55630698701515
6.354589696,0.9998765973257184,-151.68741042192923
6.356877312,0.9999701095441086,-151.81981296579076
6.359164928,1.0000658824365731,-151.95357414462353
6.361452544,1.000158127812525,-152.08871741464966
6.36374016,1.0002407612557471,-152.22514839139328
6.366027776,1.0003085488362944,-152.36265948990683
6.368315904,1.0003573663979868,-152.50100908915343
6.37060352,1.0003839000556067,-152.63996786994224
6.372891136,1.000386526747691,-152.7790561843098
6.375178752,1.0003651504932538,-152.91807253818942
6.377466368,1.0003210282332553,-153.0565686599306
6.379753984,1.0002569516127322,-153.1942989199668
6.3820416,1.000176950408005,-153.33100695883314
6.384329216,1.0000861448530882,-153.46645688371194
6.386617344,0.9999901963519804,-153.60053496510275
6.38890496,0.9998953195481058,-153.7332432681843
6.391192576,0.9998073502275512,-153.86462497016166
6.393480192,0.9997320412225849,-153.99480885179818
6.395767808,0.9996741496708167,-154.12402536916153
6.398055424,0.9996372454225451,-154.25256169542092
6.40034304,0.9996238182228381,-154.380727254643
6.402630656,0.9996347002544671,-154.50882902763672
6.404918272,0.999669141457732,-154.63730694430612
6.4072064,0.9997251305587868,-154.76644254218849
6.409494016,0.9997989787580117,-154.8965116194314
6.411781632,0.999886017161013,-155.02773988628394
6.414069248,0.9999808538559318,-155.16030319037944
6.416356864,1.0000773168326538,-155.29424412476206
6.41864448,1.0001694104138121,-155.42955477317003
6.420932096,1.0002512897148548,-155.56615381380308
6.423219712,1.000317621411267,-155.70381385254328
6.425507328,1.0003643121933206,-155.8423060269086
6.427795456,1.0003884541439267,-155.98133050800882
6.430083072,1.000388375024855,-156.12049865238947
6.432370688,1.0003640918883774,-156.2595248472422
6.434658304,1.000317199492325,-156.39800395786298
6.43694592,1.000250470509759,-156.5356911109366
6.439233536,1.00016835626842,-156.6722836911965
6.441521152,1.0000759546522715,-156.80758269335576
6.443808768,0.9999790337469364,-156.94151834727094
6.446096896,0.9998838847287614,-157.07407694953014
6.448384512,0.9997964286169868,-157.20529179184356
6.450672128,0.9997223275064355,-157.33536254678293
6.452959744,0.9996661610004705,-157.4644262150244
6.45524736,0.9996315717610744,-157.59284058564702
6.457534976,0.9996209204525197,-157.7209597744733
6.459822592,0.9996345513938459,-157.84905702652765
6.462110208,0.9996719005214133,-157.97756759064046
6.464397824,0.9997305961672462,-158.10674562144865
6.466685952,0.9998067478563958,-158.23691366720217
6.468973568,0.999895768762998,-158.3682541814025
6.471261184,0.9999918216295965,-158.5009798705209
6.4735488,1.0000889013921332,-158.6351020062303
6.475836416,1.0001808430350076,-158.77058382928732
6.478124032,1.0002617307712318,-158.90733539571815
6.480411648,1.0003266158573547,-159.04512348586292
6.482699264,1.000371222607316,-159.1837643422026
6.48498688,1.0003927262486783,-159.32281322663925
6.487275008,1.0003899086192451,-159.4620272624888
6.489562624,1.000362686183921,-159.60104184964194
6.49185024,1.0003129041903829,-159.7394890081294
6.494137856,1.000243736982887,-159.8770797202154
6.496425472,1.000159501699,-160.0135751097441
6.498713088,1.000065453135458,-160.14871945805396
6.501000704,0.9999677061589497,-160.28250468372354
6.50328832,0.9998723607997507,-160.4148809697474
6.505576448,0.99978544079587,-160.54589885109783
6.507864064,0.9997125304161623,-160.6758030404693
6.51015168,0.9996583341574976,-160.804779118275
6.512439296,0.9996261091351313,-160.93309854141506
6.514726912,0.9996180842185226,-161.06113652965882
6.517014528,0.9996347470655033,-161.18918874207557
6.519302144,0.9996750182460516,-161.31770681401218
6.52158976,0.9997363419644832,-161.44694548866005
6.523877376,0.9998149220636448,-161.57719743741282
6.526165504,0.9999057348201957,-161.70868441604188
6.52845312,1.0000029203025327,-161.84155316038144
6.530740736,1.0001005411784016,-161.97580607604144
6.533028352,1.0001922398427427,-162.11145710960432
6.535315968,1.000272228693246,-162.24834410697
6.537603584,1.0003354492858862,-162.3862736273214
6.5398912,1.0003778332569286,-162.5249716352453
6.542178816,1.0003968657871525,-162.66410215532733
6.544466432,1.000390990098626,-162.80337375419418
6.54675456,1.000360941645871,-162.94234960293628
6.549042176,1.0003083655978917,-163.0807237471801
6.551329792,1.0002365614139135,-163.21820796408505
6.553617408,1.0001502450625004,-163.3545531510193
6.555905024,1.0000547538401672,-163.48955962856434
6.55819264,0.9999561774135165,-163.62316243424948
6.560480256,0.9998607789615778,-163.75535498980048
6.562767872,0.9997745556819861,-163.886217173414
6.565056,0.9997029613548231,-164.01592498470424
6.567343616,0.9996506377928944,-164.14472145287235
6.569631232,0.9996209880809063,-164.27295624906392
6.571918848,0.999615716722023,-164.40088015562503
6.574206464,0.9996353507361094,-164.52893118127747
6.57649408,0.9996785125628036,-164.65745576192202
6.578781696,0.9997426033171946,-164.78673147740332
6.581069312,0.9998234052825031,-164.91706270750993
6.583356928,0.9999160292875855,-165.0486723445212
6.585645056,1.0000143796134084,-165.18166793670662
6.587932672,1.000112389223614,-165.3160773916641
6.590220288,1.000203720259596,-165.45185722284157
6.592507904,1.0002827165922146,-165.58886920344372
6.59479552,1.0003442343327429,-165.7269412424645
6.597083136,1.000384339313924,-165.86572059298325
6.599370752,1.0004005888795526,-166.0049098118344
6.601658368,1.0003919529428948,-166.14414394788452
6.603945984,1.0003589189666062,-166.28310534541023
6.606234112,1.0003034967858184,-166.4214073946182
6.608521728,1.0002291867475028,-166.55877391193061
6.610809344,1.0001407700391338,-166.69494632397317
6.61309696,1.0000438615518101,-166.82977843849952
6.615384576,0.9999445171262872,-166.96317258874376
6.617672192,0.9998490691240413,-167.09516911292374
6.619959808,0.9997635243906825,-167.2258584445818
6.622247424,0.9996934520093858,-167.35536585115545
6.624535552,0.9996432536679158,-167.4840103983666
6.626823168,0.9996159442815602,-167.61211801922678
6.629110784,0.9996135408845087,-167.7399843835514
6.6313984,0.9996361694394567,-167.8679982195848
6.633686016,0.9996822595111928,-167.99651275145237
6.635973632,0.9997489858030837,-168.12582420582993
6.638261248,0.9998321824323668,-168.25621008546125
6.640548864,0.9999264057129241,-168.38794564004363
6.64283648,1.0000259063238996,-168.52104772872437
6.645124608,1.0001242702330086,-168.65557121597544
6.647412224,1.0002151976820404,-168.79150946834636
6.64969984,1.0002929868350523,-168.9286312426244
6.651987456,1.000352742791305,-169.06678229336848
6.654275072,1.000390594300308,-169.20562375955294
6.656562688,1.0004041434571245,-169.34488858434761
6.658850304,1.0003925924831074,-169.48408387757289
6.66113792,1.000356436634813,-169.62298761287312
6.663426048,1.0002983206819442,-169.76122139142043
6.665713664,1.0002214612270899,-169.89843422075978
6.66800128,1.000131050495434,-170.03445826857617
6.670288896,1.0000326869523988,-170.16907932966382
6.672576512,0.9999326779013458,-170.3022769586989
6.674864128,0.9998373504966004,-170.43404046117917
6.677151744,0.9997526486020938,-170.56450881877421
6.67943936,0.9996839788007215,-170.69386636536322
6.681726976,0.9996358778694715,-170.822335719231
6.684015104,0.999611234938805,-170.95028709994847
6.68630272,0.9996117174562189,-171.07805015163427
6.688590336,0.9996372719510712,-171.20602957832477
6.690877952,0.9996862786134956,-171.334494862159
6.693165568,0.9997557583077132,-171.46386045087314
6.695453184,0.9998411660385954,-171.59435739959667
6.6977408,0.9999371243803664,-171.7261349270266
6.700028416,1.0000376727214202,-171.85937189058504
6.702316032,1.0001362159324851,-171.99403108202296
6.70460416,1.000226655839489,-172.13007080780852
6.706891776,1.0003033140622575,-172.26732432359861
6.709179392,1.0003611749131402,-172.40556457297615
6.711467008,1.000396595257744,-172.54447648184433
6.713754624,1.0004072949466445,-172.6837051087973
6.71604224,1.0003926587294425,-172.82293169721848
6.718329856,1.000353613414404,-172.96173777424698
6.720617472,1.0002926069468079,-173.0998597300563
6.7229056,1.0002133639387223,-173.23691592630163
6.725193216,1.0001209593226634,-173.37274240334278
6.727480832,1.0000212697554212,-173.5071780757222
6.729768448,0.9999205970827837,-173.64013528232257
6.732056064,0.999825474492241,-173.7716781883993
6.73434368,0.9997416387177227,-173.9019153937795
6.736631296,0.9996746994837472,-174.0310654772732
6.738918912,0.9996286796537277,-174.15938065476558
6.741206528,0.9996068109244367,-174.28717595193876
6.743494656,0.9996101413802267,-174.41484541891688
6.745782272,0.9996387823960747,-174.54277110849284
6.748069888,0.9996907516401711,-174.67122393217755
6.750357504,0.9997628255836499,-174.80060620837926
6.75264512,0.9998505004533638,-174.93114686242947
6.754932736,0.9999480471571528,-175.06304204466613
6.757220352,1.000049472251703,-175.19636770397508
6.759507968,1.000148335575642,-175.33114897208372
6.761795584,1.000238228083585,-175.4673101427265
6.764083712,1.0003134933117626,-175.60465580181264
6.766371328,1.0003693929882622,-175.74295296207544
6.768658944,1.0004023818683432,-175.8818948262288
6.77094656,1.0004102809028361,-176.0211404711089
6.773234176,1.0003926206148557,-176.16031987275824
6.775521792,1.0003505703472504,-176.29903664607332
6.777809408,1.0002865894195965,-176.437017999145
6.780097024,1.000204902359287,-176.5739130921809
6.782385152,1.0001105816891922,-176.70953611730363
6.784672768,1.0000096804592016,-176.84376477411183
6.786960384,0.9999085383975008,-176.97646572618208
6.789248,0.9998134861032387,-177.10776082781973
6.791535616,0.9997307451694004,-177.23778174255338
6.793823232,0.9996654527867795,-177.36669808702368
6.796110848,0.9996217666792917,-177.49482466320134
6.798398464,0.9996025161000595,-177.6224835938587
6.80068608,0.9996089257040581,-177.7500613552986
6.802974208,0.9996405168126562,-177.87790480024526
6.805261824,0.9996955014308405,-178.00634840496687
6.80754944,0.999770338666023,-178.13575759268542
6.809837056,0.9998601306885604,-178.26635771590747
6.812124672,0.99995939058159,-178.39831679615511
6.814412288,1.000061614986298,-178.53174378341276
6.816699904,1.000160491559786,-178.66662362732293
6.81898752,1.0002496696485101,-178.80288547302712
6.821275136,1.0003236696056095,-178.9403185180437
6.823563264,1.0003774089426734,-179.07866532479764
6.82585088,1.0004077346629323,-179.21764928027812
6.828138496,1.0004127838828314,-179.35686420687495
6.830426112,1.0003921648409833,-179.4959640253738
6.832713728,1.0003469755767276,-179.63460619805144
6.835001344,1.000280283866623,-179.772420480448
6.83728896,1.000196164359916,-179.90915681613447
6.839576576,1.0001000808656717,179.95542255482383
6.841864704,0.9999977611159057,179.82147820355408
6.84415232,0.9998961767928544,179.6889942337736
6.846439936,0.999801530267537,179.5579489921133
6.848727552,0.9997199372170409,179.42816812659214
6.851015168,0.9996563458048761,179.29950234795612
6.853302784,0.9996150126039907,179.17157352503526
6.8555904,0.9995985698005279,179.04405834135176
6.857878016,0.9996080332756054,178.9166292623819
6.860165632,0.9996427237730862,178.78884593855386
6.86245376,0.999700650219066,178.6604381619843
6.864741376,0.9997781409798617,178.53098985430833
6.867028992,0.999870084565901,178.40036135246345
6.869316608,0.9999707303016871,178.2683112853196
6.871604224,1.0000738889379006,178.13480963835514
6.87389184,1.0001727853147455,177.99981764177986
6.876179456,1.0002611973534286,177.86346417048486
6.878467072,1.0003336051139826,177.72595198867836
6.880754688,1.0003853506030613,177.58756178800226
6.883042816,1.0004132198307136,177.44857228638512
6.885330432,1.0004151632688165,177.3093831293451
6.887618048,1.0003913170483045,177.17033931062375
6.889905664,1.0003430905088353,177.03183026465828
6.89219328,1.0002735813458665,176.89415819571155
6.894480896,1.0001871171174481,176.7576600091503
6.896768512,1.0000890032088865,176.6224833152579
6.899056128,0.9999857966841901,176.48875910897684
6.901344256,0.9998838165357598,176.35654959790992
6.903631872,0.9997895858268663,176.22578792197496
6.905919488,0.9997090927832682,176.0962682971127
6.908207104,0.9996474478649504,175.96780073022614
