freq,mag,phase
6.0,1.0000108824212837,-37.12151100619871
6.04166656,1.000008035904929,-38.67671365538358
6.08333312,1.0000059578239193,-40.2326673693859
6.125000192,1.000003777717275,-41.78939354016582
6.166666752,1.0000014644898987,-43.34687058198841
6.208333312,0.9999992478865081,-44.90507749049265
6.249999872,0.999996789901787,-46.464030673701856
6.291666432,0.9999946547297589,-48.02372992903193
6.333333504,0.9999923709189715,-49.58409884699498
6.375000064,0.9999902575336403,-51.14524698150009
6.416666624,0.999988181183277,-52.70714839310049
6.458333184,0.9999864572798334,-54.2697000196171
6.499999744,0.9999848233238734,-55.833019042631555
6.541666816,0.9999833080386527,-57.39704047773952
6.583333376,0.9999820524738504,-58.96175541869068
6.624999936,0.9999811598482929,-60.52722319706887
6.666666496,0.9999801947883119,-62.0933940531495
6.708333568,0.9999799032980297,-63.660245575969775
6.750000128,0.9999796168066971,-65.22779985321068
6.791666688,0.9999796875476397,-66.7960827749939
6.833333248,0.9999800440516083,-68.36502743102923
6.874999808,0.9999807691079268,-69.934670009127
6.91666688,0.9999815335573363,-71.50500550336757
6.95833344,0.9999827616413726,-73.07605712014916
7.0,0.9999841809154186,-74.64775888422163
7.04166656,0.9999858113608909,-76.22016734598193
7.08333312,0.999987725271766,-77.79322578532337
7.125000192,0.9999896648482863,-79.36696307403327
7.166666752,0.9999919497333237,-80.94137156334227
7.208333312,0.9999943890567352,-82.51641599727955
7.249999872,0.9999967521328414,-84.09210420088164
7.291666432,0.9999993334995771,-85.66844966405176
7.333333504,1.0000019018688828,-87.24544805076238
7.375000064,1.0000045554984647,-88.82306926268757
7.416666624,1.0000071291015158,-90.40134524472644
7.458333184,1.0000097154840464,-91.98020133567134
7.500000256,1.00001212650171,-93.55969306197527
7.541666816,1.0000145945480965,-95.13976005595018
7.583333376,1.0000167261480593,-96.72043547875062
7.624999936,1.0000185632124068,-98.3017286192849
7.666666496,1.0000205368982302,-99.88356715910531
7.708333568,1.0000220088883813,-101.46598770806564
7.750000128,1.0000233468334303,-103.04895509362774
7.791666688,1.0000243621508367,-104.63247029007199
7.833333248,1.0000251635674677,-106.21652879243834
7.874999808,1.000025598203826,-107.80111027702007
7.91666688,1.0000257282845004,-109.3862227327015
7.95833344,1.0000256053277408,-110.9718182116867
8.0,1.0000250770749886,-112.55793585027999
8.04166656,1.000024294557028,-114.14453154972583
8.08333312,1.0000231739679162,-115.7315771672785
8.125000192,1.0000217499034803,-117.31910361058632
8.166666752,1.0000199931004639,-118.90706641492442
8.208333312,1.000018119874469,-120.4955014347529
8.249999872,1.0000158591561614,-122.08434706052473
8.291666432,1.000013604474079,-123.67360392227766
8.333333504,1.0000109333567213,-125.26328516473141
8.375000064,1.0000082792217653,-126.85331954771301
8.416666624,1.0000053555970319,-128.44375862301035
8.458333184,1.0000024335137818,-130.0345819904212
8.499999744,0.9999994932576928,-131.62576761796512
8.541666816,0.9999965191367678,-133.21728634240966
8.583333376,0.9999936031319249,-134.80914664997468
8.625000448,0.9999906879101432,-136.4013737426365
8.666667008,0.999987876959205,-137.99389051613105
8.708333568,0.9999852346373768,-139.58673353168822
8.750000128,0.9999828352248435,-141.17988779304724
8.791666688,0.999980598322114,-142.77330590008856
8.833333248,0.9999786073636344,-144.3670171018664
8.874999808,0.9999769716582502,-145.9610297020944
8.916666368,0.9999754719668253,-147.55527465153676
8.958332928,0.9999743689383795,-149.14976487469494
8.999999488,0.9999736651394417,-150.74453837333027
9.041667072,0.9999731559454069,-152.33949133653502
9.083333632,0.9999731758822292,-153.93472558482028
9.125000192,0.9999734631232821,-155.53016192720676
9.166666752,0.9999741356696665,-157.12579240951962
9.208333312,0.999975115476493,-158.72166266055893
9.249999872,0.9999766083914944,-160.31769453739696
9.291666432,0.9999782810376661,-161.91393964513014
9.333332992,0.9999803712109382,-163.5103317448905
9.374999552,0.9999826920420333,-165.10688671702763
9.416667136,0.9999853182284962,-166.70361615313044
9.458333696,0.9999882098635527,-168.3004730704653
9.500000256,0.9999912690064333,-169.89748246649808
9.541666816,0.9999944784016933,-171.49461485570183
9.583333376,0.9999978552822029,-173.09182815885276
9.624999936,1.000001393266851,-174.68919260538036
9.666666496,1.000004862293101,-176.28662029819543
9.708333056,1.0000083872972456,-177.8841290873214
9.749999616,1.000011887276537,-179.48170571530494
9.791666176,1.0000152622613752,178.92061977604018
9.83333376,1.0000185911458703,177.32295157555126
9.87500032,1.0000216726792295,175.72521727063645
9.91666688,1.0000246096770076,174.12748174818444
9.95833344,1.0000272231819085,172.52971695935705
10.0,1.000029545257385,170.93198715721724
10.04166656,1.000031646941077,169.33426822040838
10.08333312,1.0000332432494177,167.7365778816281
10.12499968,1.0000345955924805,166.13892578271887
10.16666624,1.0000355201365545,164.54134817757975
10.208333824,1.0000360646357052,162.94384872108532
10.250000384,1.0000360926193164,161.34643175849536
10.291666944,1.0000358708627635,159.74911885846743
10.333333504,1.0000349736034515,158.15192885363618
10.375000064,1.0000337529289118,156.55485206953034
10.416666624,1.00003205507885,154.9579422496756
10.458333184,1.0000301248849444,153.36119272212704
10.499999744,1.0000276811160334,151.76459735424797
10.541666304,1.0000249437380495,150.16820263936333
10.583332864,1.0000218608489622,148.57202201558414
10.625000448,1.00001850411835,146.97603251464
10.666667008,1.0000147288955126,145.38028448024863
10.708333568,1.0000109678510352,143.78477827030474
10.750000128,1.0000069595066614,142.1894949601822
10.791666688,1.0000028603172473,140.59451688829398
10.833333248,0.9999986743894798,138.99980292169167
10.874999808,0.9999944289434043,137.4053634029994
10.916666368,0.9999902927553287,135.81122203818884
10.958332928,0.9999862097833903,134.21740328583712
11.000000512,0.9999823250733744,132.62386746216933
11.041667072,0.9999786321693165,131.03068830236992
11.083333632,0.9999751347972039,129.43784595087183
11.125000192,0.9999719000846292,127.84532728340466
11.166666752,0.9999690680180184,126.25318117561464
11.208333312,0.9999666162261601,124.66139863607222
11.249999872,0.9999644922538101,123.06996220356233
11.291666432,0.9999629237432877,121.47893255300866
11.333332992,0.9999617466452593,119.88825256766408
11.374999552,0.9999611711739139,118.29796965665692
11.416667136,0.9999609881707233,116.70810164472623
11.458333696,0.9999614080232979,115.11862368797824
11.500000256,0.9999622688704113,113.52954346408043
11.541666816,0.9999637236154045,111.94087945349382
11.583333376,0.9999655227216248,110.35264628301542
11.624999936,0.9999679276732278,108.7648242400546
11.666666496,0.9999707938989302,107.17743393879432
11.708333056,0.9999740894852697,105.59046905067088
11.749999616,0.9999777742777592,104.0039687368744
11.791666176,0.9999818947788143,102.4178968999869
11.83333376,0.9999861460502081,100.83228577776504
11.87500032,0.9999908244851511,99.24713763118982
11.91666688,0.9999956823519854,97.66245130074259
11.95833344,1.0000005712683953,96.07823603665108
12.0,1.0000057056923894,94.49450673468739
12.04166656,1.0000107418752946,92.91127547347745
12.08333312,1.0000157865089143,91.32851116445241
12.12499968,1.000020654906848,89.74625439956696
12.16666624,1.0000254738611836,88.16451242686831
12.208333824,1.0000299570973858,86.5832889184795
12.250000384,1.0000342903178527,85.00259710581751
12.291666944,1.0000381099375648,83.42242267549572
12.333333504,1.0000415862202503,81.84279669915163
12.375000064,1.0000446424916178,80.26374115593238
12.416666624,1.0000471497507104,78.68523680983593
12.458333184,1.0000491120360506,77.1072942766827
12.499999744,1.0000504623134578,75.52994413453914
12.541666304,1.000051279209704,73.95318481413993
12.583332864,1.0000514069815718,72.3770223162139
12.625000448,1.0000508873835434,70.80146824717048
12.666667008,1.000049791505946,69.22652709895063
12.708333568,1.000048045515851,67.65222434086729
12.750000128,1.0000455996175148,66.07856127408043
12.791666688,1.000042601523131,64.50554220955333
12.833333248,1.0000390034701858,62.933175210544476
12.874999808,1.0000348364431724,61.361491937603596
12.916666368,1.0000301596245071,59.7904604459761
12.958332928,1.000025074362437,58.220116289026116
12.999999488,1.00001952229024,56.65047388976999
13.041667072,1.0000136258197552,55.0815088438341
13.083333632,1.000007553848851,53.513252705396575
13.125000192,1.0000012437705863,51.945704972927025
13.166666752,0.9999947959861885,50.3788695691766
13.208333312,0.9999882790527433,48.8127431749487
13.249999872,0.9999819003851761,47.24735181733322
13.291666432,0.9999754579464659,45.682673388285934
13.333332992,0.9999693222537067,44.11871606599681
13.374999552,0.999963454920332,42.55549704814253
13.416667136,0.9999579888524216,40.99300151678565
13.458333696,0.9999529012438836,39.43124828438611
13.500000256,0.9999483914387501,37.870217085903185
13.541666816,0.999944440557317,36.309907781732186
13.583333376,0.9999410270858373,34.75032484328091
13.624999936,0.9999384319925743,33.19147454620741
13.666666496,0.9999364971652976,31.633358160790696
13.708333056,0.9999353556624068,30.075937857172114
13.749999616,0.9999350078478308,28.519235661146688
13.791666176,0.9999354271150529,26.96326252132784
13.83333376,0.9999368264893442,25.407984264994262
13.87500032,0.9999390249811483,23.853414198883556
13.91666688,0.9999420151287258,22.299542984540423
13.95833344,0.9999457528169217,20.746368591537557
14.0,0.9999503764531232,19.193893887651228
