freq,mag,phase
6.0,0.9999570387940605,40.26133599480315
6.041451008,0.9999464608760986,39.29450646840015
6.082901504,0.9999364863732516,38.327717399292354
6.124352512,0.9999274670306098,37.3609410823174
6.165803008,0.9999195202810109,36.394205671232655
6.207254016,0.9999127155000029,35.42747413304543
6.248704512,0.9999073283110163,34.46075398692634
6.29015552,0.9999031537700064,33.49398255178728
6.331606016,0.9999005112132647,32.527283527536895
6.373057024,0.9998994177045821,31.56046761435564
6.41450752,0.9998997682269523,30.59371575831959
6.455958528,0.9999016446089136,29.62686241715061
6.497409536,0.9999050289951956,28.659926283310668
6.538860032,0.999909813685591,27.692956184531063
6.58031104,0.9999160049004622,26.725929904724023
6.621761536,0.9999234140966005,25.758753139840938
6.663212544,0.999932119378989,24.79151444678218
6.70466304,0.9999418215123079,23.824167118480194
6.746114048,0.9999524466095118,22.85671448313594
6.787564544,0.9999638370288333,21.88914083927341
6.829015552,0.9999757741837654,20.921429539058536
6.87046656,0.9999881064429821,19.953592781133903
6.911917056,1.0000007355175913,18.985624403921506
6.953368064,1.0000133645580072,18.01753957151552
6.99481856,1.0000258136329754,17.04931060258996
7.036269568,1.000037954848005,16.080965744928847
7.077720064,1.000049601474305,15.112504917149739
7.119171072,1.0000604804752282,14.14389795588425
7.160621568,1.0000705303950224,13.175176461372413
7.202072576,1.0000795633569521,12.206337367161666
7.243523072,1.000087423740485,11.237356094269076
7.28497408,1.0000940469479114,10.26832965946017
7.326425088,1.000099201528824,9.299217383464926
7.367875584,1.0001029728322897,8.33002110052195
7.409326592,1.0001052414568268,7.360716849599609
7.450777088,1.0001058549094153,6.391414200545443
7.492228096,1.0001048647874777,5.422040224323776
7.533678592,1.000102379197304,4.452606596629342
7.5751296,1.0000983388373412,3.483172614677217
7.616580096,1.000092791009979,2.513670565758831
7.658031104,1.0000857511880994,1.5442284085679965
7.699482112,1.0000776238162552,0.5747963595630675
7.740932608,1.0000679530202101,-0.39467481818527445
7.782383616,1.0000575099559086,-1.3640936254260294
7.823834112,1.000046120500847,-2.33348246623885
7.86528512,1.0000339068260906,-3.302859291530384
7.906735616,1.0000212051522321,-4.27217865414233
7.948186624,1.000008056384082,-5.241444725712873
7.98963712,0.9999948246311873,-6.210714886923949
8.031088128,0.9999815958267776,-7.179898156742823
8.072538624,0.9999685643869143,-8.14904673897236
8.113989632,0.9999559124497205,-9.118193385301183
8.15544064,0.9999439302733881,-10.087262866897435
8.196891136,0.9999327014864501,-11.056310784848824
8.238342144,0.9999223943065298,-12.025353642262083
8.27979264,0.9999133392195663,-12.994341342000306
8.321243648,0.9999054031051418,-13.963331988913989
8.362694144,0.9998990254530541,-14.932350561211528
8.404145152,0.9998939985907308,-15.901337874852898
8.445595648,0.999890538713664,-16.87037929682851
8.487046656,0.9998888278078131,-17.839449197865424
8.528497664,0.9998887716579004,-18.808546404938806
8.56994816,0.9998902728906572,-19.77774313251842
8.611398656,0.9998935905583965,-20.74695296299943
8.652850176,0.9998983554165413,-21.716255299223373
8.694300672,0.9999047420438992,-22.685679579133602
8.735751168,0.9999125710877473,-23.655197375771404
8.777201664,0.9999217528094329,-24.624823000404437
8.818653184,0.9999321373318889,-25.594563791188797
8.86010368,0.9999436905963508,-26.56443412253376
8.901554176,0.9999561411421565,-27.53444444294714
8.943004672,0.9999691972906566,-28.504618772357148
8.984456192,0.9999828460560668,-29.474918995280543
9.025906688,0.9999968633131922,-30.445393579574887
9.067357184,1.0000108179697367,-31.416022606936078
9.108808704,1.000024903450371,-32.38678405929215
9.1502592,1.0000386036121398,-33.35771509377714
9.191709696,1.0000516995599311,-34.32879252370435
9.233160192,1.0000642471041319,-35.30003746079837
9.274611712,1.0000757883605274,-36.271418352253725
9.316062208,1.0000862955940673,-37.24292482697154
9.357512704,1.0000954304085334,-38.214548010568684
9.398964224,1.0001032991265704,-39.186334855984065
9.44041472,1.0001096981802997,-40.15820730608165
9.481865216,1.0001143291948478,-41.130197820554336
9.523315712,1.0001173933433376,-42.10224761613739
9.564767232,1.000118670484168,-43.07439124628472
9.606217728,1.000118127129349,-44.046594560875434
9.647668224,1.0001158987553012,-45.01886010268786
9.68911872,1.0001118205642203,-45.9911686366038
9.73057024,1.000106075453857,-46.96348887467888
9.772020736,1.0000986950371984,-47.93585201586465
9.813471232,1.0000897718100379,-48.90820416109647
9.854922752,1.0000794955157302,-49.880543420334924
9.896373248,1.0000679184951602,-50.85288701231004
9.937823744,1.000055189138422,-51.825207195922175
9.97927424,1.0000416568956882,-52.797502570119214
10.02072576,1.0000273569013596,-53.76976516647807
10.062176256,1.0000126115186903,-54.74198569187261
10.103626752,0.999997549193966,-55.71414984740139
10.145077248,0.999982450985994,-56.686289233365784
10.186528768,0.9999675315582678,-57.65838514751275
10.227979264,0.9999529711445431,-58.63042463580778
10.26942976,0.999939085758542,-59.602445532516384
10.31088128,0.9999260832433483,-60.574442976893394
10.352331776,0.9999140555313483,-61.54641441702912
10.393782272,0.9999031688444544,-62.5183617768375
10.435232768,0.9998937506948699,-63.49030474897314
10.476684288,0.9998858381644614,-64.46224222532382
10.518134784,0.9998795881357756,-65.43419714445768
10.55958528,0.9998751690679121,-66.40617494354584
10.601035776,0.999872611680013,-67.37821604974314
10.642487296,0.999871922562815,-68.35028577788957
10.683937792,0.9998731170511426,-69.32243646209936
10.725388288,0.999876326037976,-70.2946688627188
10.766839808,0.9998813759645403,-71.26697913889461
10.808290304,0.9998882410265686,-72.23939019377106
10.8497408,0.9998968678130026,-73.21195606571862
10.891191296,0.9999070849185059,-74.18462669864779
10.932642816,0.9999187500427179,-75.15746348369856
10.974093312,0.9999317821802142,-76.13045577025882
11.015543808,0.9999459011506607,-77.10358966496808
11.056995328,0.9999609380115057,-78.07691205357582
11.098445824,0.9999766746954686,-79.05038799115007
11.13989632,0.9999928412330804,-80.02407911071343
11.181346816,1.000009353738457,-80.99793443609433
11.222798336,1.0000257183903178,-81.97198796383825
11.264248832,1.000041798538907,-82.94623028276168
11.305699328,1.000057475947571,-83.92065674006989
11.347149824,1.0000722687983499,-84.89524768151028
11.388601344,1.0000862558974806,-85.87002498458585
11.43005184,1.0000989451327884,-86.84498426338668
11.471502336,1.000110259518461,-87.8200817324352
11.512953856,1.0001199573287884,-88.79534772529345
11.554404352,1.0001279297577959,-89.77075674056266
11.595854848,1.0001341874082432,-90.74627430302327
11.637305344,1.0001383375032453,-91.72190936100262
11.678756864,1.0001404311639472,-92.69765191044134
11.72020736,1.000140472298729,-93.67348549940586
11.761657856,1.0001382895420134,-94.6493881388527
11.803108352,1.0001341554846626,-95.62534964327243
11.844559872,1.0001278799761488,-96.60135780920002
11.886010368,1.0001197431467088,-97.57738890852698
11.927460864,1.0001096139735608,-98.55344379567886
11.968912384,1.000097761809532,-99.5294838650564
12.01036288,1.0000844142998462,-100.50553555848165
12.051813376,1.000069649447789,-101.48156378500074
12.093263872,1.0000536681136876,-102.45756688012517
12.134715392,1.0000368039149685,-103.43353684216065
12.176165888,1.000019246255078,-104.40945372725909
12.217616384,1.0000012033430543,-105.38533654758379
12.25906688,0.9999830655225771,-106.36116650170008
12.3005184,0.9999649687382742,-107.33695371388646
12.341968896,0.999947288414835,-108.31268572258203
12.383419392,0.9999303318209867,-109.28839509631702
12.424870912,0.9999141222665657,-110.26405640092547
12.466321408,0.9998991608832312,-111.23968420133632
12.507771904,0.9998855294354222,-112.21529574549916
12.5492224,0.9998735457397596,-113.19087844122527
12.59067392,0.9998634338848377,-114.1664690382055
12.632124416,0.9998551584754459,-115.14209247577698
12.673574912,0.9998490532701925,-116.1177222296675
12.715025408,0.9998452876301965,-117.09342237617422
12.756476928,0.999843725327926,-118.06915147429669
12.797927424,0.9998445957236133,-119.04497624109386
12.83937792,0.9998477819184843,-120.02090111756807
12.88082944,0.9998532406408259,-120.99691227935095
12.922279936,0.9998611030860376,-121.97307933174146
12.963730432,0.9998711307034662,-122.94936336055731
13.005180928,0.9998832456929041,-123.9258063488134
13.046632448,0.9998972569209326,-124.90245008178192
13.088082944,0.9999129683752819,-125.87925213998231
13.12953344,0.9999301597398351,-126.85626500206251
13.17098496,0.9999486135553691,-127.83349390129763
13.212435456,0.9999680269649861,-128.81092839770739
13.253885952,0.9999882391297418,-129.78859740919944
13.295336448,1.0000088075152618,-130.76651548707693
13.336787968,1.0000294895851816,-131.74464473473168
13.378238464,1.000050038802181,-132.7230119696024
13.41968896,1.000070087324691,-133.7016067803197
13.461139456,1.0000892102267886,-134.6804425536184
13.502590976,1.0001073287690971,-135.65950566999481
13.544041472,1.0001240930237958,-136.6387837177224
13.585491968,1.0001391799841761,-137.61826833491176
13.626943488,1.0001522194367936,-138.5979600765925
13.668393984,1.0001632564130782,-139.57782770889787
13.70984448,1.000171998951719,-140.55786582856126
13.751294976,1.0001782082855601,-141.53805998225192
13.792746496,1.0001818623658425,-142.51838983269198
13.834196992,1.0001828125025558,-143.49883082381015
13.875647488,1.0001810888317852,-144.47938838710542
13.917097984,1.000176438675388,-145.46000647527717
13.958549504,1.0001691824744254,-146.44070326874623
14.0,1.0001593258516097,-147.421454555778
