freq,mag,phase
6.0,1.0000490918795957,37.87037660510435
6.005943296,1.0000903953292897,37.726600322363936
6.011887104,1.0001267566441518,37.58230254210637
6.0178304,1.0001559508852482,37.43751641447684
6.023774208,1.0001759250375755,37.292450558339745
6.029717504,1.0001857998075736,37.14710987171134
6.035661312,1.0001849899231867,37.00172539616664
6.041604608,1.0001733460491982,36.856421969385856
6.047548416,1.000151804147093,36.71134091293397
6.053491712,1.0001214215254668,36.56658386618146
6.05943552,1.0000838798025213,36.42234902129278
6.065378816,1.0000415801407556,36.27861747837204
6.071322624,0.999996861206659,36.13550558689044
6.07726592,0.9999522840346629,35.992981691332496
6.083209728,0.9999104826591717,35.85106760798459
6.089153024,0.9998739378077769,35.70970450371552
6.095096832,0.9998445924403458,35.56874403879053
6.101040128,0.9998243403368875,35.428209687114936
6.106983424,0.9998143117683348,35.287822031039326
6.112927232,0.999815034097096,35.14747475696764
6.118870528,0.9998265161650698,35.00708340418026
6.124814336,0.9998480913077523,34.866482849999436
6.130757632,0.9998785326726152,34.72542296054923
6.13670144,0.9999159521776813,34.58397948182558
6.142644736,0.9999584769562876,34.44191539953452
6.148588544,1.0000032335407436,34.29925664611282
6.15453184,1.000047998059861,34.15597320525064
6.160475648,1.000089910019551,34.01205860389636
6.166418944,1.0001267604820083,33.86760307195922
6.172362752,1.000156341305716,33.72269077441542
6.178306048,1.0001766949204267,33.57737805948676
6.184249856,1.000187028101358,33.43192116265722
6.190193152,1.0001863670823374,33.28632764068044
6.196136448,1.0001751454052192,33.14087799441614
6.202080256,1.0001536239042164,32.99557255667264
6.208023552,1.0001232360297134,32.850673280786424
6.21396736,1.0000857322788286,32.70622265417249
6.219910656,1.0000432458727975,32.56233096977846
6.225854464,0.9999982034555854,32.418985139768395
6.23179776,0.9999534239086985,32.27630480571971
6.237741568,0.9999112319938047,32.134258906315544
6.243684864,0.9998741607628062,31.992713810098248
6.249628672,0.9998445212321062,31.851650597868076
6.255571968,0.999823838585657,31.710906954204987
6.261515776,0.9998133651735558,31.570352055663466
6.267459072,0.9998138081461337,31.429887676021423
6.27340288,0.9998250869383664,31.289340095622833
6.279346176,0.9998464475861994,31.14856791216892
6.285289984,0.9998768333391496,31.007404733004748
6.29123328,0.999914385536086,30.865783680670322
6.297176576,0.9999570236017056,30.723620971076116
6.303120384,1.0000020941636738,30.58078808649333
6.30906368,1.0000471404002684,30.43734720480719
6.315007488,1.0000894713548976,30.29330327169534
6.320950784,1.0001267464505055,30.148687464500927
6.326894592,1.0001566619664086,30.003595199894047
6.332837888,1.0001775861002105,29.85815494184528
6.338781696,1.0001881378759645,29.712473411567565
6.344724992,1.0001879417270558,29.566711517409217
6.3506688,1.0001767900432783,29.42105688630166
6.356612096,1.000155432841528,29.275588857327655
6.362555904,1.0001251150189394,29.13050973628882
6.3684992,1.0000875263583275,28.985860939914843
6.374443008,1.0000448394035506,28.841757149883072
6.380386304,0.9999996626944196,28.698298095111436
6.386330112,0.9999544189844184,28.555417276920544
6.392273408,0.9999119187924442,28.413125313091214
6.398216704,0.9998744099308504,28.27143233986742
6.404160512,0.9998443215631132,28.13017375997025
6.410103808,0.9998232178721295,27.989308321034127
6.416047616,0.999812415871559,27.84862178570593
6.421990912,0.9998124796189759,27.708005449327985
6.42793472,0.9998234888176257,27.567317819201783
6.433878016,0.9998448028027462,27.42637227090328
6.439821824,0.9998751191663674,27.285098443175723
6.44576512,0.9999127715346461,27.14333076944188
6.451708928,0.9999554674031993,27.00098706550327
6.457652224,1.0000008941285565,26.85804037774492
6.463596032,1.000046329650324,26.714430416978324
6.469539328,1.0000890231616604,26.570220548616614
6.475483136,1.0001267478296096,26.425434405571174
6.481426432,1.0001570366138421,26.28020569746133
6.48737024,1.0001783539161029,26.134599862835575
6.493313536,1.0001893208017505,25.988708986483278
6.499256832,1.0001893986383066,25.84278832970961
6.50520064,1.0001786042953225,25.69693604006643
6.511143936,1.000157344649492,25.551267492518598
6.517087744,1.0001270729774496,25.405971343949492
6.52303104,1.0000893905522037,25.26111517474572
6.528974848,1.0000465788574129,25.116860201088613
6.534918144,1.0000011545041494,24.973183037091054
6.540861952,0.9999555559151864,24.83011664117717
6.546805248,0.9999125583463481,24.687656307409178
6.552749056,0.9998746905313565,24.545767859057783
6.558692352,0.9998441381556388,24.404341372525803
6.56463616,0.999822613339926,24.263305234851934
6.570579456,0.9998113991273366,24.122465393883004
6.576523264,0.9998111285579138,23.98166650266552
6.58246656,0.9998219431604084,23.84086379729457
6.588409856,0.9998430249623123,23.699775819578964
6.594353664,0.9998733355016736,23.55834166646726
6.60029696,0.9999110554543735,23.416420881888964
6.606240768,0.9999539452023433,23.273916437541832
6.612184064,0.9999996436150083,23.1308244315563
6.618127872,1.0000453667707014,22.987099828681696
6.624071168,1.000088576224022,22.842710640528576
6.630014976,1.0001266877288402,22.697757877335796
6.635958272,1.0001574267020454,22.552368332735686
6.64190208,1.0001791790769325,22.40652940950428
6.647845376,1.0001906134198055,22.2604921247606
6.653789184,1.0001909821398123,22.114368565462943
6.65973248,1.000180425865614,21.968289868404394
6.665676288,1.0001593053105642,21.822449703341487
6.671619584,1.0001290785745098,21.676955564979878
6.677563392,1.000091406099279,21.531910821863693
6.683506688,1.000048348590799,21.387434295007402
6.689449984,1.000002634137665,21.243568429478344
6.695393792,0.9999566830356268,21.100312674377324
6.701337088,0.999913226146057,20.957666568889604
6.707280896,0.999874960602756,20.81559725694211
6.713224192,0.999843903553942,20.674007937339383
6.719168,0.9998218941732523,20.532763359741903
6.725111296,0.9998103325130558,20.39177560007774
6.731055104,0.999809698629918,20.250851687147257
6.7369984,0.999820314469399,20.1098484120577
6.742942208,0.9998412689836539,19.968654403910353
6.748885504,0.9998715541378478,19.82703857226371
6.754829312,0.9999093021101596,19.684980003224865
6.760772608,0.9999523944197518,19.542344131736126
6.766716416,0.9999983322951407,19.399063107600792
6.772659712,1.0000444624888027,19.25515419153835
6.77860352,1.0000880480667662,19.110650967133484
6.784546816,1.0001266082223277,18.965513450801126
6.790490112,1.0001578519118521,18.819889622001146
6.79643392,1.0001800361172941,18.673916745098225
6.802377216,1.0001918918126815,18.52769803577192
6.808321024,1.000192658794901,18.381351075770343
6.81426432,1.0001822562210747,18.235092997150115
6.820208128,1.0001613271145993,18.08905476725208
6.826151424,1.0001310901865135,17.94332971301694
6.832095232,1.0000932615028069,17.79808134866957
6.838038528,1.0000500881207497,17.653417438632093
6.843982336,1.0000040348657229,17.509342554057145
6.849925632,0.9999578165315679,17.365874332897324
6.85586944,0.9999139613819157,17.223044201179274
6.861812736,0.9998751726528078,17.08081399047473
6.867756544,0.9998436853146699,16.93901076185386
6.87369984,0.9998212585117588,16.797626788171915
6.879643136,0.9998091590310981,16.656453446672526
6.885586944,0.9998083599772933,16.515363245071683
6.89153024,0.9998185332913135,16.374189223238183
6.897474048,0.9998393926974175,16.232815621130907
6.903417344,0.9998696138611382,16.091076489170742
6.909361152,0.9999074595312724,15.94887811285938
6.915304448,0.999950761143822,15.806072738870418
6.921248256,0.9999970133093277,15.662639603691671
6.927191552,1.000043491461918,15.518574232005522
6.93313536,1.0000874744725516,15.373858130559771
6.939078656,1.0001265209438066,15.228594300264326
6.945022464,1.0001583237223837,15.082772288707352
6.95096576,1.000180958064639,14.93660767860001
6.956909568,1.0001931775514306,14.790162762741558
6.962852864,1.0001943096929162,14.643654408701732
6.968796672,1.0001841165652832,14.497172140116488
6.974739968,1.0001633829112675,14.350900252382583
6.980683264,1.0001331937035707,14.20497377646321
6.986627072,1.000095289071024,14.05954330866033
6.992570368,1.0000519403764738,13.914619780545152
6.998514176,1.0000056087066014,13.770346400328194
7.004457472,0.9999589266480648,13.62671137888881
7.01040128,0.999914667091137,13.483678863498053
7.016344576,0.9998755145419669,13.341236074638003
7.022288384,0.9998434406128933,13.199271749558847
7.02823168,0.9998204895782049,13.057703957528224
7.034175488,0.9998080895978645,12.916340176967168
7.040118784,0.9998067727712222,12.775093579083743
7.046062592,0.999816805205953,12.63377448323021
7.052005888,0.9998375288032382,12.492230016590824
7.057949696,0.9998676150160487,12.350348047242969
7.063892992,0.9999056180323406,12.207963249259272
7.0698368,0.9999491379088726,12.06500537101775
7.075780096,0.9999956004083008,11.921418155825467
7.081723392,1.000042456335649,11.77716462730168
7.0876672,1.0000869205074558,11.632291122878247
7.093610496,1.0001264979472344,11.486840599541953
7.099554304,1.0001587009517339,11.340858702206749
7.1054976,1.0001818168773184,11.194475544236507
7.111441408,1.0001945050541747,11.047847068203556
7.117384704,1.000195950300035,10.901094461735351
7.123328512,1.0001861539534675,10.754408354524218
7.129271808,1.000165546197187,10.607917086022537
7.135215616,1.000135342725648,10.46177456799309
7.141158912,1.0000973710116352,10.316088879971872
7.14710272,1.000053872648358,10.170991647430231
7.153046016,1.0000070963327228,10.02650803817793
7.158989824,0.99996013916817,9.882666448790053
7.16493312,0.9999153522315316,9.739451534827708
7.170876416,0.9998756532248692,9.596794492521576
7.176820224,0.9998431244810714,9.454648391212608
7.18276352,0.9998197285244069,9.312880421435661
7.188707328,0.9998068347998363,9.171375821920964
7.194650624,0.9998052481737868,9.029940322599332
7.200594432,0.9998149789165087,8.888452358838357
7.206537728,0.9998354740402642,8.746752337610301
7.212481536,0.9998656325592786,8.604690551797525
7.218424832,0.9999036093050688,8.462144849673997
7.22436864,0.9999472787325236,8.319015297062787
7.230311936,0.9999941149394197,8.175274074013473
7.236255744,1.0000413732374978,8.030849746860321
7.24219904,1.0000862989883128,7.885809095287135
7.248142848,1.0001264312125098,7.7401683595967485
7.254086144,1.000159148747782,7.593952120781973
7.260029952,1.0001828073447665,7.447349927956053
7.265973248,1.000195829982481,7.300541812643881
7.271916544,1.00019766420538,7.1535861079084855
7.277860352,1.0001880675086028,7.006690339271703
7.283803648,1.0001676465377445,6.859998171334166
7.289747456,1.000137513638554,6.713620405792603
7.295690752,1.0000994613443217,6.5677184798817265
7.30163456,1.0000557430087833,6.4223989384134414
7.307577856,1.0000087165427616,6.277677868898211
7.313521664,0.9999612959088977,6.133583062334256
7.31946496,0.9999161600417001,5.990181894706466
7.325408768,0.9998758538233684,5.847340599884592
7.331352064,0.9998427995833935,5.705014798392918
7.337295872,0.9998188796572298,5.563050434655803
7.343239168,0.9998055805767877,5.4213645718276435
7.349182976,0.9998036091620012,5.279753678944122
7.355126272,0.9998130120551691,5.138105235923633
7.36107008,0.999833417997949,4.996215947123209
7.367013376,0.9998634610856272,4.853994469047576
7.372956672,0.9999015994714213,4.711298205156833
7.37890048,0.9999455257430644,4.568016883031079
7.384843776,0.9999926273662136,4.4240639216598705
7.390787584,1.0000402955168852,4.279479289073536
7.39673088,1.000085706240761,4.134230810510805
7.402674688,1.0001262146527126,3.9883776599366576
7.408617984,1.0001594594275405,3.8420241986019006
7.414561792,1.0001836775370747,3.6952377037079
7.420505088,1.0001972473687955,3.5481710569540685
7.426448896,1.0001993820317174,3.401001635551005
7.432392192,1.0001900855817805,3.253893600755361
7.438336,1.0001697452933038,3.1069431506848106
7.444279296,1.0001397966401613,2.9603696528661203
7.450223104,1.0001017258512594,2.8142204565253293
7.4561664,1.000057652103741,2.668672442996199
7.462110208,1.0000103135207241,2.523741060669173
7.468053504,0.9999625007652003,2.379437273455056
7.4739968,0.9999168462984033,2.2358067216128026
7.479940608,0.9998760612359002,2.092751361041286
7.485883904,0.9998424967062213,1.9502420758127843
7.491827712,0.9998180571094214,1.8080797529179005
7.497771008,0.9998043342982932,1.6662042534812214
7.503714816,0.9998019834194559,1.5244420288451828
7.509658112,0.9998110772024267,1.3825806027219067
7.51560192,0.9998313647647773,1.2405573681141187
7.521545216,0.9998613556118927,1.0981346003387449
7.527489024,0.9998995382245375,0.9552677899201558
7.53343232,0.9999435490623013,0.8118075131493729
7.539376128,0.9999910773954619,0.6677314013284287
7.545319424,1.0000392067411363,0.5229267980522088
7.551263232,1.0000851274062839,0.37751175606215653
7.557206528,1.0001260570961987,0.2314365343528801
7.563149824,1.0001600027989184,0.0848535090026033
7.569093632,1.0001846471473306,-0.06212806068216332
7.575036928,1.0001987250559772,-0.20938563606579377
7.580980736,1.0002011858165845,-0.3567812572539702
7.586924032,1.0001922593123698,-0.5041413591170025
7.59286784,1.0001721480971413,-0.6513141237827849
7.598811136,1.000142092792826,-0.798117929283973
7.604754944,1.0001039308662392,-0.944487209111783
7.61069824,1.0000596454140143,-1.0902913834295735
7.616642048,1.0000120373855783,-1.2354159772628988
7.622585344,0.99996379906849,-1.3799598009096699
7.628529152,0.9999175940868191,-1.5237921069219318
7.634472448,0.9998763258429328,-1.6670623576815005
7.640416256,0.9998421509346056,-1.8098138238757957
7.646359552,0.9998172049511931,-1.95214019136365
7.65230336,0.9998029169673743,-2.0942157812752518
7.658246656,0.9998001807816411,-2.236171581115808
7.664189952,0.9998090553174735,-2.3781890438847313
7.67013376,0.9998291259129007,-2.520413028088709
7.676077056,0.9998591001120242,-2.6629784053114935
7.682020864,0.9998973157921038,-2.8060490038678907
7.68796416,0.9999417230678532,-2.9496578506581193
7.693907968,0.999989427244302,-3.093949296946157
7.699851264,1.000038005063758,-3.238915900382101
7.705795072,1.0000843582079906,-3.3845346872914015
7.711738368,1.0001260444157205,-3.5307871098126036
7.717682176,1.0001604074570778,-3.6775745368434745
7.723625472,1.0001855402550492,-3.824791460940046
7.72956928,1.0002001029125716,-3.9722749630093683
7.735512576,1.0002031380694905,-4.119905550158887
7.741456384,1.000194403797761,-4.267487982694751
7.74739968,1.0001745081086495,-4.4149075822490795
7.753343488,1.0001445427377356,-4.561939512928483
7.759286784,1.0001061315764441,-4.708548701570299
7.76523008,1.0000618102857628,-4.854592224788397
7.771173888,1.0000137681026497,-4.999989788190525
7.777117184,0.9999650640817188,-5.144727220627527
7.783060992,0.9999183786511143,-5.288814980173981
7.789004288,0.9998764798147289,-5.432277363073703
7.794948096,0.9998418219735503,-5.575231510996794
7.800891392,0.999816312410223,-5.71777669373452
7.8068352,0.9998016275004339,-5.860039607804218
7.812778496,0.999798402787451,-6.002187187344071
7.818722304,0.9998068890722392,-6.144388989714273
7.8246656,0.9998267627198594,-6.286780861610058
7.830609408,0.9998567246931578,-6.429539639244229
7.836552704,0.9998951462082721,-6.5727528510741395
7.842496512,0.9999396901148512,-6.716565405141366
7.848439808,0.9999877996183424,-6.861063728595191
7.854383104,1.0000368049883899,-7.006191683231373
7.860326912,1.0000837914414935,-7.152006536255003
7.866270208,1.000125902011558,-7.29848086191749
7.872214016,1.0001609135870286,-7.445473551132918
7.878157312,1.000186635956966,-7.592895666428734
7.88410112,1.0002016765126371,-7.740622268035097
7.890044416,1.000205010397139,-7.8884917165936885
7.895988224,1.000196650415479,-8.036311963357546
7.90193152,1.0001768305403846,-8.183969047429654
7.907875328,1.0001469273375958,-8.331285599217262
7.913818624,1.0001085150399522,-8.478125450329822
7.919762432,1.0000639084940754,-8.624367252796572
7.925705728,1.0000155152209653,-8.77004272627674
7.931649536,0.9999662690887416,-8.914997710915033
7.937592832,0.9999191853716086,-9.059310476460944
7.94353664,0.9998766701964161,-9.203007967374054
7.949479936,0.9998414878844772,-9.346175582314853
7.955423232,0.9998154675970536,-9.488902786009783
7.96136704,0.9998002012580794,-9.631355828629097
7.967310336,0.999796461826585,-9.773719702481422
7.973254144,0.9998047217461001,-9.91610947685731
7.97919744,0.9998243350409839,-10.058682740840297
7.985141248,0.9998543157337098,-10.201596016839252
7.991084544,0.999892834303143,-10.34503717167674
7.997028352,0.999937676379555,-10.489009349616902
8.002971648,0.9999861690326519,-10.633691309317673
8.008915456,1.0000355240682508,-10.779036362982291
8.014858752,1.000083031106645,-10.925042870273098
8.02080256,1.0001257974510034,-11.07172850641504
8.026745856,1.0001614591359245,-11.21893091996013
8.032689664,1.0001876746213014,-11.3665905030751
8.03863296,1.0002031582509723,-11.51455561960898
8.044576768,1.0002070437977963,-11.662647498494973
8.050520064,1.0001989375596645,-11.810742904669313
8.05646336,1.0001793392182103,-11.95863704948525
8.062407168,1.0001494377539573,-12.106204949146582
8.068350464,1.0001110159659106,-12.253290492101337
8.074294272,1.0000660875525005,-12.399803997893843
8.080237568,1.0000173938091386,-12.545704541930641
8.086181376,0.9999676835764917,-12.69092223127801
8.092124672,0.9999198969171279,-12.835452058503371
8.09806848,0.9998769573685438,-12.979359357569788
8.104011776,0.9998410412360081,-13.122746853278901
8.109955584,0.9998143976612237,-13.26569950412237
8.11589888,0.9997986431941972,-13.40838095147088
8.121842688,0.9997946447550635,-13.550914609137223
8.127785984,0.9998025726421554,-13.693485287835902
8.133729792,0.9998219519822743,-13.836248558351409
8.139673088,0.9998519125194719,-13.979361873036042
8.145616896,0.9998905267354142,-14.122945966869203
8.151560192,0.9999355221421073,-14.267150899477256
8.157503488,0.9999843500930963,-14.412005529848855
8.163447296,1.000034212915416,-14.557551922299453
8.169390592,1.0000822358238368,-14.703788280043597
8.1753344,1.000125675687197,-14.850676311535684
8.181277696,1.0001617925488087,-14.998089095336919
8.187221504,1.0001887356804169,-15.145989835129171
8.1931648,1.0002047450601703,-15.294182065262504
8.199108608,1.000209004167611,-15.442545251737426
8.205051904,1.0002011669804447,-15.590869967923659
8.210995712,1.0001818512702791,-15.739024827040241
8.216939008,1.0001520853796433,-15.886828366132207
8.222882816,1.00011350626949,-16.034214032866725
8.228826112,1.000068350170653,-16.180965424696083
8.23476992,1.000019309384286,-16.327107320247936
8.240713216,0.9999691322834646,-16.472576538107962
8.246656512,0.9999208264024055,-16.617348186279905
8.25260032,0.9998771658590437,-16.761494089479815
8.258543616,0.9998406425741765,-16.90511103244759
8.264487424,0.9998134109835649,-17.04828632255403
8.27043072,0.9997970418579739,-17.191145275224564
8.276374528,0.9997925713647609,-17.33387058688509
8.282317824,0.9998001613337987,-17.476649977513574
8.288261632,0.9998194510074633,-17.619593370943655
8.294204928,0.9998493345031128,-17.762909203240916
8.300148736,0.9998879386817644,-17.906708328283408
8.306092032,0.9999331942129513,-18.051097704977526
8.31203584,0.9999825734246068,-18.196145927672625
8.317979136,1.0000329212201242,-18.34189922900033
8.323922944,1.0000814483438176,-18.48833763803001
8.32986624,1.0001254455378537,-18.635414220912104
8.335810048,1.000162226543774,-18.783110131507186
8.341753344,1.0001897974185785,-18.931208597240776
8.34769664,1.000206362665261,-19.079648359261736
8.353640448,1.000211107595131,-19.228262658491083
8.359583744,1.0002037695493082,-19.376846370875764
8.365527552,1.000184493655895,-19.525286924592038
8.371470848,1.0001546844002895,-19.673342076257196
8.377414656,1.0001160524602752,-19.820995583354584
8.383357952,1.0000706576027254,-19.96801572159631
8.38930176,1.0000211739511518,-20.114401198026833
8.395245056,0.9999705636524686,-20.260124811663953
