freq,mag,phase
6.0,0.9999007920691437,-163.55355110590924
6.008528896,0.9998964621062878,-164.05447086107563
6.017057792,0.999897556422293,-164.55521769829792
6.025586176,0.999904198554237,-165.0558989979333
6.034115072,0.9999161047425399,-165.55658930401637
6.042643968,0.999932606565345,-166.05734881908305
6.051172864,0.9999527939297012,-166.55821687749264
6.059701248,0.9999758299562699,-167.0592520035651
6.068230144,1.0000003362300063,-167.5604730958986
6.07675904,1.0000251568733265,-168.06187657833237
6.085287936,1.0000488442975257,-168.5634902169055
6.093816832,1.0000705481981025,-169.06527908409063
6.102345216,1.0000888106647565,-169.56718312377666
6.110874112,1.0001028141166763,-170.06917903646098
6.119403008,1.0001118438986667,-170.57120228503442
6.127931904,1.0001154209992744,-171.07319669889833
6.1364608,1.0001134191750256,-171.5750707561782
6.144989184,1.0001057638483979,-172.07673498093885
6.15351808,1.0000930375651171,-172.57812690197454
6.162046976,1.0000757042685118,-173.079245066849
6.170575872,1.0000547823689792,-173.57995271156946
6.179104256,1.0000314518020619,-174.0802360144543
6.187633152,1.0000066589023746,-174.5800654127511
6.196162048,0.999981859459087,-175.07949158962813
6.204690944,0.9999582471086451,-175.57841997129688
6.21321984,0.9999371045890034,-176.07692562086802
6.221748224,0.9999193369285683,-176.57508088236366
6.23027712,0.9999060972589028,-177.07285583241045
6.238806016,0.9998979042355332,-177.5704001498075
6.247334912,0.9998951556435061,-178.06770897085204
6.255863296,0.9998983021114068,-178.56491382621672
6.264392192,0.9999067653980018,-179.0620494034092
6.272921088,0.9999203983496828,-179.55918308149015
6.281449984,0.9999384356002976,179.94362460107857
6.28997888,0.9999598568499367,179.44625441256318
6.298507264,0.99998364884028,178.94877778607338
6.30703616,1.000008541027611,178.45107736052753
6.315565056,1.000033389832468,177.95322361632105
6.324093952,1.0000567357172976,177.45516895336996
6.332622848,1.0000775331241714,176.95695652949058
6.341151232,1.0000946095398322,176.45865957987687
6.349680128,1.0001070196820403,175.96026851392944
6.358209024,1.0001143642081398,175.46189461598382
6.36673792,1.0001159600325935,174.96362818170485
6.375266304,1.0001120057968784,174.46549540498344
6.3837952,1.0001024709754633,173.96760151109027
6.392324096,1.0000881178254672,173.4699791904002
6.400852992,1.000069264277694,172.97274454521468
6.409381888,1.000047265169361,172.4758958473631
6.417910272,1.000023102548118,171.97948517200302
6.426439168,0.9999979260410352,171.48353395540838
6.434968064,0.9999732836141287,170.9880677482673
6.44349696,0.9999501491276439,170.49303561936506
6.452025344,0.9999298853004479,169.99842800208992
6.46055424,0.9999135528689564,169.5042193683749
6.469083136,0.9999018504228321,169.01033534646442
6.477612032,0.9998954590869441,168.51670243975104
6.486140928,0.9998947724739107,168.02323854053085
6.494669312,0.999899824105656,167.5299202478249
6.503198208,0.9999101504210381,167.03660719556936
6.511727104,0.9999256260659316,166.5433021788689
6.520256,0.999944939431489,166.0498835945963
6.528784896,0.9999675182763058,165.55633854673704
6.53731328,0.9999920764898101,165.06263491458606
6.545842176,1.0000172502528442,164.568770165825
6.554371072,1.0000419960463571,164.07469900127225
6.562899968,1.0000646812180876,163.58046868976118
6.571428352,1.0000845006276533,163.0860899812337
6.579957248,1.0001000823458293,162.59163893774303
6.588486144,1.000110911684387,162.09716079357125
6.59701504,1.0001163075444968,161.60271159665172
6.605543936,1.0001160164395275,161.10836242989598
6.61407232,1.0001100188921028,160.61420952202954
6.622601216,1.0000985644727673,160.12031609245065
6.631130112,1.0000824696321604,159.62672983680895
6.639659008,1.0000622565863058,159.1335676442861
6.648187392,1.0000391813710197,158.64080991326472
6.656716288,1.0000143373198285,158.14850946052985
6.665245184,0.999989044463436,157.65665752453154
6.67377408,0.9999645234871022,157.16531432578972
6.682302976,0.9999420957703447,156.67440300201204
6.69083136,0.9999228907696337,156.1839220194659
6.699360256,0.9999080309013898,155.69378970533486
6.707889152,0.9998980794337728,155.2039691027208
6.716418048,0.9998937612281459,154.7144151547941
6.724946944,0.9998950345432347,154.22501318376803
6.733475328,0.9999020870192904,153.73569127450415
6.742004224,0.9999143452699985,153.2464007114318
6.75053312,0.9999314957351145,152.7570582490594
6.759062016,0.9999522196312773,152.2676139634905
6.7675904,0.99997580268446,151.7780330986792
6.776119296,1.0000009011053126,151.2882689001755
6.784648192,1.000026283115273,150.7983119093751
6.793177088,1.000050600499184,150.308189566399
6.801705984,1.0000726232774726,149.81793319419387
6.810234368,1.0000910992852101,149.3275379384949
6.818763264,1.0001052653095432,148.83705537292994
6.82729216,1.0001143041613312,148.3465890672941
6.835821056,1.000117672656696,147.85619681042465
6.84434944,1.00011525755148,147.3659120852154
6.852878336,1.0001072646934923,146.87586269185826
6.861407232,1.0000939623336806,146.3860840403091
6.869936128,1.0000761249365409,145.89669478972272
6.878465024,1.000054556801646,145.4076618742128
6.886993408,1.0000304956843316,144.91909194086998
6.895522304,1.000005116763693,144.43099377063348
6.9040512,0.999979877385297,143.9433613261808
6.912580096,0.9999557464288572,143.45621773237013
6.921108992,0.9999341664362033,142.96951109214606
6.929637376,0.9999164024781853,142.48319649230547
6.938166272,0.999903030156612,141.99725613623528
6.946695168,0.9998950462709534,141.51158328979548
6.955224064,0.9998926826451547,141.02613173463115
6.963752448,0.9998961142032708,140.54080773815667
6.972281344,0.9999051315955012,140.05556386516048
6.98081024,0.999919445065962,139.57030678350785
6.989339136,0.9999381026498604,139.08497946740232
6.997868032,0.9999602386737799,138.59953494514397
7.006396416,0.9999847106535662,138.11391822525098
7.014925312,1.000010246860133,137.62813774038995
7.023454208,1.0000355851413627,137.1421630836253
7.031983104,1.0000593663279276,136.65599291076472
7.040511488,1.0000804644085075,136.16969773316873
7.049040384,1.000097612610583,135.6833023585951
7.05756928,1.0001100725307592,135.1968506831752
7.066098176,1.0001171136246638,134.71040201778115
7.074627072,1.0001183338052275,134.22405071775438
7.083155456,1.0001139098497986,133.73786458195073
7.091684352,1.000103799562901,133.25191631640854
7.100213248,1.0000886648861125,132.76628512947508
7.108742144,1.000069177313581,132.2810251978881
7.11727104,1.0000464530611344,131.79617192578368
7.125799424,1.0000214799795024,131.31177719269974
7.13432832,0.9999958073751877,130.82785630885078
7.142857216,0.9999705038996666,130.34442803148946
7.151386112,0.9999470784185003,129.86143814684044
7.159914496,0.9999264808413724,129.378880793854
7.168443392,0.9999100972891175,128.89674508711192
7.176972288,0.9998986449760945,128.41491400949704
7.185501184,0.9998925311609371,127.93332784521255
7.19403008,0.9998923623392646,127.45192905843756
7.202558464,0.9998979883786205,126.97063550593873
7.21108736,0.9999090862585591,126.48939959550768
7.219616256,0.9999251660567972,126.00808828438794
7.228145152,0.999945459444492,125.52670380810419
7.236673536,0.9999688802413021,125.04516772474186
7.245202432,0.999994144235965,124.56348779282611
7.253731328,1.0000198966403242,124.08156032440674
7.262260224,1.0000450983701947,123.59948642394194
7.27078912,1.000068162018705,123.11720376007192
7.279317504,1.0000880466227207,122.63479424913552
7.2878464,1.0001036804069052,122.15228845058017
7.296375296,1.000114272792964,121.66975615067734
7.304904192,1.0001192511515655,121.18726431574908
7.313433088,1.000118375943832,120.7048618928681
7.321961472,1.0001116625106932,120.22266669695063
7.330490368,1.0000995079173995,119.74073243050584
7.339019264,1.0000824678352584,119.25912687337967
7.34754816,1.0000615210165487,118.7779041900459
7.356076544,1.0000375266122583,118.29711918214477
7.36460544,1.0000119926355182,117.81677872345801
7.373134336,0.999986024148937,117.33692362451998
7.381663232,0.9999610783962365,116.85754190693916
7.390192128,0.999938429114937,116.37860317076407
7.398720512,0.9999192024399534,115.90008412618941
7.407249408,0.9999044733395076,115.42190874992684
7.415778304,0.9998948636429652,114.94403147863565
7.4243072,0.9998909323130938,114.46639719484017
7.432835584,0.9998929343749478,113.9889006543453
7.44136448,0.9999007488177069,113.51147411961496
7.449893376,0.9999138960634967,113.03405746777541
7.458422272,0.9999319185913889,112.55654371974859
7.466951168,0.9999537179722227,112.07891688329262
7.475479552,0.9999780823426594,111.60113216820044
7.484008448,1.0000039896637276,111.12313873582487
7.492537344,1.0000299362594178,110.64494213566316
7.50106624,1.0000546556517802,110.16654344221004
7.509595136,1.0000768926332715,109.68798439669823
7.51812352,1.0000954209651745,109.20927232976635
7.526652416,1.0001093499363125,108.73048115202604
7.535181312,1.000117899324025,108.25168894730166
7.543710208,1.000120692922665,107.77295311382578
7.552238592,1.000117554217523,107.29431708771203
7.560767488,1.0001086653736833,106.81590995561537
7.569296384,1.0000944030205183,106.33778180049515
7.57782528,1.0000756060941889,105.86000912704891
7.586354176,1.0000530761573498,105.38263451644238
7.59488256,1.0000282321971479,104.90569586943703
7.603411456,1.000002035023008,104.42920679730219
7.611940352,0.9999761507479411,103.9531929251396
7.620469248,0.9999516655933088,103.47763736280429
7.628997632,0.9999299546299859,103.00251997405678
7.637526528,0.9999121482574641,102.52778989348838
7.646055424,0.9998991803000793,102.0533716125775
7.65458432,0.9998916626244154,101.57922631265605
7.663113216,0.9998900373488094,101.10526115786435
7.6716416,0.9998943647942866,100.63140021656886
7.680170496,0.9999044342430364,100.15758397127827
7.688699392,0.9999196705786122,99.68372091685424
7.697228288,0.9999393290205787,99.20974735147567
7.705757184,0.9999625336380953,98.73562638917747
7.714285568,0.9999879649456425,98.26130344517635
7.722814464,1.0000142335789517,97.78675575808933
7.73134336,1.0000401516933564,97.31201668762564
7.739872256,1.000064238874627,96.83704599298416
7.74840064,1.0000853681944402,96.36191093117857
7.756929536,1.0001023674518226,95.88664260324441
7.765458432,1.0001143879719447,95.41129878173129
7.773987328,1.0001208192410231,94.93596116501328
7.782516224,1.0001213410995606,94.46069970813343
7.791044608,1.000115880070785,93.98558000353775
7.799573504,1.0001047066656445,93.51069630700495
7.8081024,1.0000884015012745,93.03609379379012
7.816631296,1.0000678471522138,92.5618660492643
7.82515968,1.0000441208739386,92.08804149273816
7.833688576,1.0000182820310288,91.61466087753932
7.842217472,0.9999918231804901,91.1417261467244
7.850746368,0.9999661141315295,90.66925775048092
7.859275264,0.9999423271119711,90.1972442563975
7.867803648,0.9999218209454928,89.7256106417422
7.876332544,0.9999056798438416,89.25435415033711
7.88486144,0.9998947271047223,88.78336927758781
7.893390336,0.9998893336241702,88.31261649760103
7.901919232,0.999890044875868,87.84200372334556
7.910447616,0.999896725388044,87.37145917146452
7.918976512,0.9999089993133196,86.90089075930011
7.927505408,0.9999262991400677,86.43026379366866
7.936034304,0.9999476857534632,85.95947053065078
7.944562688,0.9999721517160763,85.48849423184446
7.953091584,0.9999982282411389,85.01730935707994
7.96162048,1.0000248187621166,84.54588671139068
7.970149376,1.000050470996717,84.0742000512222
7.978678272,1.0000737365155825,83.60234653054859
7.987206656,1.0000935898877417,83.13030467628643
7.995735552,1.0001088384203447,82.65812847604603
8.004264448,1.0001188920028934,82.18587890162061
8.012793344,1.0001229740938364,81.71367275527466
8.021321728,1.0001211046897533,81.2415483532685
8.029850624,1.000113223575704,80.76958336646496
8.03837952,1.0000998500549543,80.29786675517227
8.046908416,1.0000816151793104,79.82647291988185
8.055437312,1.0000593909777902,79.35542595444655
8.063965696,1.0000344261677163,78.8847953537897
8.072494592,1.0000080056413803,78.41461311101892
8.081023488,0.9999813710170122,77.94486991850142
8.089552384,0.9999559742521359,77.47558352379944
8.098080768,0.9999331106470173,77.00670347281685
8.106609664,0.9999141096913076,76.53819434164447
8.11513856,0.999899709890683,76.07000768070922
8.123667456,0.9998908322234443,75.60207508563776
8.132196352,0.9998878502328273,75.13432289045832
8.140724736,0.9998909945260477,74.66666473605423
8.149253632,0.9999001053613189,74.19902808967615
8.157782528,0.9999145962549324,73.73133415032302
8.166311424,0.999933786336603,73.26352920613675
8.17484032,0.9999568402125434,72.79552283510938
8.183368704,0.9999823735313653,72.32728558592754
8.1918976,1.0000090941972157,71.85881555456399
8.200426496,1.0000357846504855,71.39008457478978
8.208955392,1.0000608326572054,70.92111907974729
8.217483776,1.0000830833151988,70.4519266880885
8.226012672,1.0001013668313765,69.98256350695677
8.234541568,1.000114790068963,69.51309370222269
8.243070464,1.0001225344893865,69.0435621323283
8.25159936,1.000124252074506,68.57405086698442
8.260127744,1.0001199724349736,68.10465304993659
8.26865664,1.0001097670250043,67.63544766400652
8.277185536,1.000094106259859,67.16648769345517
8.285714432,1.0000739034399972,66.6978668137576
8.294242816,1.0000502194001717,66.22961112395174
8.302771712,1.0000242010274492,65.76176847088462
8.311300608,0.9999972447315536,65.29437013385747
8.319829504,0.9999706152491468,64.8273830983943
8.3283584,0.9999459008174887,64.36083465068853
8.336886784,0.9999242178168674,63.89466834344786
8.34541568,0.9999068042606366,63.42886511272577
8.353944576,0.9998944399923307,62.96331036646158
8.362473472,0.9998877410803809,62.49798255697309
8.371002368,0.9998872779642691,62.03277267911977
8.379530752,0.9998929077885993,61.5676188181842
8.388059648,0.9999043518412407,61.10243399125407
8.396588544,0.9999211645118955,60.637131660688745
8.40511744,0.9999422212607848,60.17168328555814
8.413645824,0.9999665538980664,59.70600362078057
8.42217472,0.999993137127596,59.24007558964299
8.430703616,1.0000202218889667,58.77387670184831
8.439232512,1.0000467481392492,58.307383066989686
8.447761408,1.000071036704615,57.84063883355848
8.456289792,1.0000920738266779,57.37368603328579
8.464818688,1.000108699488902,56.906556229922046
8.473347584,1.0001199632956679,56.43932035911341
8.48187648,1.0001253649670878,55.97204197120196
8.490404864,1.0001246502657721,55.504819844330584
8.49893376,1.0001177164685697,55.03771083772268
8.507462656,1.0001051566814267,54.57078901906592
8.515991552,1.0000873535093167,54.104148202877006
8.524520448,1.0000653263109065,53.63784029046181
8.533048832,1.0000402252814682,53.17191782600354
8.541577728,1.0000133970704566,52.706389968321425
8.550106624,0.9999861363612232,52.24128831338991
8.55863552,0.9999598694140767,51.7766192188182
8.567164416,0.9999359683695499,51.312324118639594
8.5756928,0.999915631199838,50.84839933772328
8.584221696,0.999899959598294,50.38478585825355
8.592750592,0.9998897902947652,49.92139921522495
8.601279488,0.9998856368358356,49.458165529031405
8.609808384,0.9998876553369757,48.99503291844856
8.61833728,0.9998957675158668,48.531863669788564
8.626866176,0.9999096538765632,48.06863220975974
8.635394048,0.9999284888305268,47.605243606880926
8.643922944,0.9999514052333175,47.14165234381422
8.65245184,0.9999770948305661,46.67780960770412
8.660980736,1.0000042745229827,46.21366408919572
8.669509632,1.0000316611422069,45.749232060878015
8.678038528,1.000057662392236,45.28451046416167
8.686567424,1.0000811047360343,44.81950289443747
8.69509632,1.0001005787499673,44.354304665183605
8.703625216,1.0001152401700213,43.88890758544099
8.712153088,1.0001243564952942,43.423417925570305
8.720681984,1.000127222074241,42.95792617843088
8.72921088,1.0001239195985299,42.49246316700359
8.737739776,1.000114539712162,42.02716392011076
8.746268672,1.000099448277186,41.56206327092417
8.754797568,1.0000797013531615,41.09723348222298
8.763326464,1.0000559519203565,40.63276183343344
8.77185536,1.0000297195741001,40.16865657377781
8.780384256,1.0000021844760345,39.704948999395775
8.788912128,0.999974847718529,39.24166987431723
8.797441024,0.9999490456032204,38.77877184344424
8.80596992,0.999926309568574,38.316250256501434
8.814498816,0.9999075744646837,37.854026143348285
8.823027712,0.9998939471325976,37.39209406602492
8.831556608,0.9998860797215603,36.930342154799575
8.840085504,0.9998844057560776,36.468701419545845
8.8486144,0.9998890451292426,36.00707611411979
8.857143296,0.9998997263923756,35.545405710314604
8.865671168,0.9999159508671864,35.083602076652674
8.874200064,0.9999367433177536,34.62159275387502
8.88272896,0.9999612695746685,34.15932423644915
8.891257856,0.999988062179722,33.69678308980551
8.899786752,1.0000158461269524,33.23391336845574
8.908315648,1.0000431427748937,32.770718027745765
8.916844544,1.0000684897645402,32.30722465127227
8.92537344,1.0000907402698496,31.843450058599093
8.933902336,1.0001085458607148,31.379463351064818
8.942430208,1.000121096807172,30.915307008155143
8.950959104,1.0001277920188734,30.451065361186316
8.959488,1.000128139265766,29.986824036250376
8.968016896,1.0001221627899797,29.522635418983757
8.976545792,1.0001102151872743,29.058610633471023
8.985074688,1.000092822277418,28.59480138023513
8.993603584,1.0000709829442647,28.131293211788485
9.00213248,1.0000457816475008,27.6681154182093
9.010661376,1.0000184709732154,27.20532068120376
9.019190272,0.9999906382742094,26.74290755732096
9.027718144,0.9999634238163003,26.280911166268577
9.03624704,0.9999384473404805,25.819263860250278
9.044775936,0.9999169530988664,25.357963286246846
9.053304832,0.9999000105776664,24.89695574596322
9.061833728,0.999888551382578,24.436135794317117
9.070362624,0.9998832433202852,23.97546779411848
9.07889152,0.9998841205824095,23.514857294040777
9.087420416,0.9998915031202543,23.05421538811381
9.095949312,0.9999046812525153,22.59348319105935
9.104477184,0.9999231574715727,22.132526243538344
9.11300608,0.9999460700009145,21.67136797413904
9.121534976,0.999971926528298,21.209882628062424
9.130063872,0.9999996116206372,20.74808468394082
9.138592768,1.000027724181262,20.28593399252359
9.147121664,1.0000546396951622,19.823459868594277
9.15565056,1.0000791838015854,19.36065185340341
9.164179456,1.0000999880136452,18.89758041978706
9.172708352,1.0001158653839426,18.434276633342733
9.181236224,1.0001262388304266,17.97082568267243
9.18976512,1.0001302647786434,17.507295711812894
9.198294016,1.0001279620721009,17.04374800405893
9.206822912,1.0001192909792085,16.580324288107523
9.215351808,1.0001048310877727,16.117047873327245
9.223880704,1.0000852260217472,15.654010994581004
9.2324096,1.0000615451253878,15.191265983313496
9.240938496,1.00003498262359,14.728875418105932
9.249467392,1.000006883929536,14.266864401238804
9.257995264,0.999978705288248,13.805205195851794
9.26652416,0.9999520143065364,13.343926817740808
9.275053056,0.99992794774323,12.883004497149477
9.283581952,0.9999080167200395,12.42235165438394
9.292110848,0.9998931686010335,11.961967086648173
9.300639744,0.9998840823003675,11.501742132936934
9.30916864,0.9998812770861163,11.041594549701871
9.317697536,0.9998850835772995,10.581464717617374
9.326226432,0.9998949572128502,10.121255232425238
9.334754304,0.9999106678057607,9.660853901588807
9.3432832,0.9999313932236978,9.20025882315567
9.351812096,0.9999559416112427,8.739328953308235
9.360340992,0.9999831319654092,8.278084628342361
9.368869888,1.0000114524575305,7.816486902094551
9.377398784,1.0000396162936438,7.354505310588257
9.38592768,1.0000660685077543,6.892172462606134
9.394456576,1.000089485458282,6.429524878017319
9.402985472,1.000108559020918,5.966585925804283
9.411514368,1.000122437339345,5.503444973398951
9.42004224,1.0001301984185955,5.040141745049742
9.428571136,1.0001316053464966,4.576796952432563
9.437100032,1.0001265919764584,4.113440756114764
9.445628928,1.0001153054519634,3.6502087997358768
9.454157824,1.000098380087587,3.1871483772642044
9.46268672,1.0000766275465944,2.7243463170631896
