freq,mag,phase
6.0,0.9998816457430086,-151.77746902475943
6.013961728,0.999893170077225,-152.57141616734253
6.027923456,0.9999096142978185,-153.36540713811112
6.041884672,0.9999301226699882,-154.15951455345981
6.0558464,0.9999537098225326,-154.95379421773848
6.069808128,0.9999794523435162,-155.7482669294712
6.083769856,1.0000062804481717,-156.5429142648405
6.097731072,1.0000330164519178,-157.3378089751813
6.1116928,1.000058443429867,-158.13288257416096
6.125654528,1.0000816860710613,-158.9281282254216
6.139616256,1.0001018261167942,-159.723522180916
6.153577472,1.0001177015695428,-160.51902211278448
6.1675392,1.0001289099243516,-161.3145644941676
6.181500928,1.0001348628360325,-162.1101019286629
6.195462656,1.0001353788145388,-162.90555488693627
6.209423872,1.0001302942907637,-163.70085394085896
6.2233856,1.000119968488352,-164.49595264331313
6.237347328,1.0001047230440017,-165.2907652363322
6.251309056,1.0000852832068206,-166.08526684035687
6.265270272,1.0000624108921794,-166.87937440400214
6.279232,1.0000370033706392,-167.67309453131514
6.293193728,1.0000102621578975,-168.46638660456318
6.307155456,0.9999833120928481,-169.2592049623656
6.321117184,0.9999571340115535,-170.0515990107703
6.3350784,0.999932852400986,-170.843545709691
6.349040128,0.9999116205996511,-171.6351249087007
6.363001856,0.9998941706465023,-172.42630111152766
6.376963584,0.9998815067053239,-173.2171906592102
6.3909248,0.9998738469951621,-174.00778987480743
6.404886528,0.9998716866467009,-174.79819948769108
6.418848256,0.999875123609474,-175.5885073039341
6.432809984,0.9998838610930214,-176.37872070605906
6.4467712,0.9998978643925275,-177.16893296435344
6.460732928,0.9999161881370702,-177.95916724729625
6.474694656,0.999938264855663,-178.74953361390905
6.488656384,0.9999632044988935,-179.54000347209634
6.5026176,0.9999898282156255,179.66936292644021
6.516579328,1.000017144684298,178.87855104934246
6.530541056,1.0000438714433721,178.0875992116902
6.544502784,1.0000689511186325,177.29647076136487
6.558464,1.0000913793843156,176.50518669140655
6.572425728,1.0001101546416722,175.71385521063868
6.586387456,1.0001245373260512,174.9224740598828
6.600349184,1.0001338860348263,174.131096165473
6.6143104,1.0001376594947666,173.33979568887364
6.628272128,1.0001358967422662,172.54865706934334
6.642233856,1.00012873503536,171.7577007216502
6.656195584,1.0001162627682625,170.96705146468096
6.670157312,1.000098955456186,170.17671260650496
6.684118528,1.0000777784916435,169.3867479920891
6.698080256,1.0000534640905734,168.59726162942553
6.712041984,1.0000271102759484,167.80822584109248
6.726003712,0.9999997268403266,167.01962031973403
6.739964928,0.9999725168131675,166.23155095458745
6.753926656,0.9999466622624223,165.4439522955539
6.767888384,0.9999231929590218,164.6568135085893
6.781850112,0.9999029807158007,163.87010483327566
6.795811328,0.9998872024542202,163.08377657584717
6.809773056,0.9998762348978841,162.29776111211197
6.823734784,0.9998707051964335,161.5120199591846
6.837696512,0.9998707603712803,160.726503550544
6.851657728,0.9998763527270966,159.94111678986258
6.865619456,0.9998874594316384,159.15578944377566
6.879581184,0.9999034108229112,158.37047618223772
6.893542912,0.9999236585395292,157.5851505994496
6.907504128,0.999947258584366,156.79971547577077
6.921465856,0.9999734077815906,156.0141865910689
6.935427584,1.0000007529121233,155.22850915065072
6.949389312,1.0000283237651537,154.44267553096793
6.96335104,1.0000549535336867,153.6567176252628
6.977312256,1.0000793515347055,152.8706175453257
6.991273984,1.000100835469782,152.08441661548125
7.005235712,1.0001180882623817,151.29819077190257
7.01919744,1.0001306995197863,150.51197786688073
7.033158656,1.0001379187489776,149.7257995937382
7.047120384,1.0001395858301516,148.93976546850183
7.061082112,1.0001355779501917,148.15392866682976
7.07504384,1.000126041194942,147.36833505007945
7.089005056,1.0001113702776765,146.58307646041467
7.102966784,1.0000922342654526,145.79819997383237
7.116928512,1.000069274506447,145.01377410916476
7.13089024,1.0000436961796328,144.22980481854106
7.144851456,1.0000162560465191,143.4463276983693
7.158813184,0.9999884740672156,142.6633747417764
7.172774912,0.9999612423113966,141.8809189692784
7.18673664,0.9999358694652128,141.09896085355012
7.200697856,0.9999132768161585,140.3174709719295
7.214659584,0.9998944967841441,139.53641550679762
7.228621312,0.999880338007534,138.75575309408651
7.24258304,0.9998714811908479,137.97538770962004
7.256544256,0.9998680626680954,137.19532871757679
7.270505984,0.9998704969841431,136.41543836792354
7.284467712,0.9998784342350479,135.63567529282878
7.29842944,0.9998917477704974,134.85597548033635
7.312391168,0.9999097923343073,134.07628620665278
7.326352384,0.9999319546852402,133.29653346337065
7.340314112,0.9999570590943976,132.5167147514851
7.35427584,0.9999841781408421,131.73675936765778
7.368237568,1.0000122086507977,130.95666295788007
7.382198784,1.0000399633041948,130.17645601001638
7.396160512,1.0000662325735867,129.39609250134617
7.41012224,1.0000898803942926,128.61562005881225
7.424083968,1.0001100399544127,127.83509718317816
7.438045184,1.0001256431431587,127.0545542006322
7.452006912,1.0001362441419883,126.2740313494423
7.46596864,1.0001413744327003,125.49360706453159
7.479930368,1.0001405830130454,124.71335716325306
7.493891584,1.000134148054353,123.93333598510979
7.507853312,1.000122287566118,123.15360171691987
7.52181504,1.000105447628726,122.37422994273228
7.535776768,1.0000842588037964,121.59529945849032
7.549737984,1.0000597316915032,120.81679890489514
7.563699712,1.0000328178065614,120.03879254205603
7.57766144,1.0000047356889976,119.261322563376
7.591623168,0.999976549371853,118.48434849481757
7.605584896,0.9999495329603313,117.70789307701453
7.619546112,0.9999247536737852,116.93194385267546
7.63350784,0.9999033563557899,116.1564494822112
7.647469568,0.9998861924548043,115.3813730326456
7.661431296,0.9998739477197497,114.60667575759533
7.675392512,0.9998671538037824,113.83227514129467
7.68935424,0.9998661679429518,113.05811287918678
7.703315968,0.9998709295078628,112.28411484280478
7.717277696,0.9998813879866797,111.51020218963423
7.731238912,0.9998970189774181,110.73633295359159
7.74520064,0.9999171886709788,109.96244434434143
7.759162368,0.9999410552671086,109.18849449478817
7.773124096,0.9999675718740926,108.4144124104394
7.787085312,0.9999957204858547,107.64020098052744
7.80104704,1.0000242187825261,106.86585126843498
7.815008768,1.0000519094769946,106.09135483327638
7.828970496,1.0000776422910613,105.31670602124014
7.842931712,1.0001002312797458,104.5419889804516
7.85689344,1.0001189370587373,103.76718550446581
7.870855168,1.0001327160019013,102.99238648250763
7.884816896,1.0001412357250787,102.21764194260689
7.898778112,1.0001438796980868,101.443013552342
7.91273984,1.0001407480807787,100.66856876636146
7.926701568,1.0001317505834417,99.8943667332989
7.940663296,1.0001174198354088,99.1205073995066
7.954625024,1.000098283127061,98.34700173286487
7.96858624,1.0000752213716841,97.5739327958057
7.982547968,1.0000491425662001,96.80134057845291
7.996509696,1.0000210835766963,96.02924904437893
8.010471424,0.9999923106324865,95.2576791736622
8.02443264,0.9999639682792917,94.48660784242759
8.038394368,0.9999373013670052,93.71606263497489
8.052356096,0.9999134545795948,92.94596273479168
8.066317824,0.9998934402968485,92.17632450033437
8.08027904,0.9998780033516018,91.407066513196
8.094240768,0.9998678266720371,90.63815999218362
8.108202496,0.9998634173031918,89.86948367951453
8.122164224,0.9998649239229804,89.10101921013153
8.13612544,0.9998723447065829,88.33267515663701
8.150087168,0.9998853168876043,87.56436419175186
8.164048896,0.9999032868975916,86.79606717886512
8.178010624,0.9999254698244292,86.02770086910705
8.19197184,0.9999511209403614,85.25922859784323
8.205933568,0.9999789112311522,84.49060674574764
8.219895296,1.000007896436773,83.72181234792377
8.233857024,1.0000367351840307,82.95286044173169
8.247818752,1.0000642254630567,82.18373512247713
8.261779968,1.000089200363147,81.41446535888997
8.275741696,1.0001105689068979,80.64509182336255
8.289703424,1.000127523251863,79.87565392839775
8.303665152,1.0001393327958346,79.10619788312655
8.317626368,1.0001454427416148,78.33683153744205
8.331588096,1.00014555435854,77.56757411491203
8.345549824,1.0001396885937162,76.79851652478536
8.359511552,1.0001281099848771,76.02970751438971
8.373472768,1.0001113457770974,75.2612285159259
8.387434496,1.0000900345943464,74.49314157768602
8.401396224,1.0000650478946778,73.7254951716481
8.415357952,1.0000374149333753,72.95831915181165
8.429319168,1.0000083122509584,72.19162037229684
8.443280896,0.9999790242195358,71.42543786745165
8.457242624,0.9999507392218345,70.65973674492014
8.471204352,0.9999246141683434,69.89451107835643
8.485165568,0.9999019527957489,69.12974262743063
8.499127296,0.9998833796360325,68.36537491385917
8.513089024,0.9998699343362659,67.60133535445294
8.527050752,0.9998621369676177,66.83756909820623
8.541011968,0.9998602721295423,66.07403154005104
8.554973696,0.9998644509368899,65.31060467458673
8.568935424,0.9998745924695857,64.54725999619905
8.582897152,0.9998901302971898,63.783901797003644
8.59685888,0.999910488638185,63.02048615113794
8.610820096,0.9999348182654123,62.25695476943549
8.624782336,0.9999620938277399,61.4932539282138
8.638743552,0.9999911339588817,60.72936588901224
8.652704768,1.0000207757641353,59.96526611847364
8.666667008,1.0000496886024812,59.200968474759
8.680628224,1.0000768032940563,58.4364931769394
8.69458944,1.0001007538028954,57.671821697443114
8.70855168,1.0001207581220377,56.90704721794486
8.722512896,1.0001358500640154,56.142192011058256
8.736475136,1.0001452267048268,55.37731708739219
8.750436352,1.0001488458149506,54.61252396449973
8.764397568,1.0001461938569787,53.84783629660217
8.778359808,1.0001376143191438,53.08335408827376
8.792321024,1.0001233895335542,52.31913408744856
8.80628224,1.0001040087515638,51.555234533242135
8.82024448,1.0000803516682375,50.7917247157544
8.834205696,1.000053503788781,50.028629292650166
8.848167936,1.000024425988579,49.26599141919716
8.862129152,0.9999944880954148,48.503836527766126
8.876090368,0.99996492979115,47.7421586089696
8.890052608,0.9999368242533981,46.98093444054034
8.904013824,0.999911613371769,46.22014166792662
8.917976064,0.9998901389486891,45.4597582155508
8.93193728,0.9998734498642499,44.69971916834119
8.945898496,0.999862253856637,43.939945905574206
8.959860736,0.999856984933953,43.18040763293559
8.973821952,0.9998578807636259,42.421006914643804
8.987783168,0.999864967393695,41.66167054366355
9.001745408,0.9998778487476176,40.90232603301237
9.015706624,0.999896066207268,40.14291377611651
9.029668864,0.9999188348673835,39.38335860101677
9.04363008,0.9999452277377701,38.623635130960785
9.057591296,0.9999740909911281,37.863681733379316
9.071553536,1.000004234271114,37.103495920673545
9.085514752,1.0000344925335873,36.34305218969966
9.099475968,1.000063335513692,35.582356943239176
9.113438208,1.0000897371718172,34.82144413163198
9.127399424,1.0001125891979967,34.06032435188615
9.141361664,1.0001307984307983,33.29907178873847
9.15532288,1.0001436389457865,32.53773573552727
9.169284096,1.0001506701463803,31.776358065010953
9.183246336,1.000151417916221,31.015049409826595
9.197207552,1.0001458132953918,30.25385712638756
9.211169792,1.0001343092550987,29.492861765989346
9.225131008,1.00011717784041,28.732102668745373
9.239092224,1.0000953202242098,27.97167416255281
9.253054464,1.0000694356623696,27.211620099888265
9.26701568,1.0000407338109532,26.451962395727655
9.280976896,1.0000103602993275,25.69275754129203
9.294939136,0.999979657325751,24.933979251767543
9.308900352,0.9999499017038876,24.175665251540742
9.322862592,0.9999223826508858,23.41774765551815
9.336823808,0.999898097283074,22.660233644157522
9.350785024,0.9998783700961115,21.903048138007037
9.364747264,0.9998637674291254,21.146134539958855
9.37870848,0.9998549881659332,20.389474286781294
9.392669696,0.9998525293899853,19.63290826743635
9.406631936,0.9998563827471719,18.876448473408203
9.420593152,0.9998664731917601,18.119947598869107
9.434555392,0.9998823081966013,17.363378661283726
9.448516608,0.9999032065571152,16.606664680542774
9.462477824,0.9999285010250231,15.849732394629331
9.476440064,0.9999568791596629,15.09257004708632
9.49040128,0.9999872916549472,14.335113510034528
9.504362496,1.0000183996320824,13.577349732063157
9.518324736,1.0000488929395772,12.819287807777338
9.532285952,1.0000774830304509,12.060948333050032
9.546248192,1.00010296914787,11.302317304862838
9.560209408,1.000124296473051,10.543483504118297
9.574170624,1.0001405462923034,9.784475035832546
9.588132864,1.0001508818058538,9.025368350076365
9.60209408,1.0001550987104024,8.266219712369402
9.61605632,1.0001528770526558,7.507125251058886
9.630017536,1.000144298500175,6.748115810799856
9.643978752,1.0001296580461094,5.989309639397937
9.657940992,1.0001096500298947,5.230755731022615
9.671902208,1.0000851063632628,4.472491516281134
9.685863424,1.0000570139271987,3.7145986764066854
9.699825664,1.0000265432848099,2.9570920188988565
9.71378688,0.9999951055353536,2.1999763753078745
9.72774912,0.9999637884925011,1.4432903548033567
9.741710336,0.9999341899314946,0.6869869217752667
9.755671552,0.9999073827204326,-0.06892952611044627
9.769633792,0.9998844844979199,-0.8245231573584914
9.783595008,0.9998665785170613,-1.5798418143233421
9.797556224,0.9998544191424514,-2.3349460250400065
9.811518464,0.9998484556099723,-3.0899177979736594
9.82547968,0.9998489876863034,-3.844819409243641
9.83944192,0.9998560207890008,-4.599734178699608
9.853403136,0.9998692717661081,-5.35475596992074
9.867364352,0.9998881570141891,-6.109913260539639
9.881326592,0.9999118703021324,-6.865329147350299
9.895287808,0.9999395352919923,-7.6210094829387796
9.909250048,0.999969793669054,-8.377017470646841
9.923211264,1.0000015606475605,-9.133377424533949
9.93717248,1.000033456860281,-9.890081658093372
9.95113472,1.0000639884686853,-10.64715834903685
9.965095936,1.0000920244065516,-11.404571931490722
9.979057152,1.0001162802903636,-12.162250799201285
9.993019392,1.000135811094596,-12.92022178275092
10.006980608,1.000149670419533,-13.678343486626737
10.020942848,1.0001574205730943,-14.436614196406682
10.034904064,1.0001585021375883,-15.194898831505299
10.04886528,1.0001530130838057,-15.953191138840912
10.06282752,1.000141157338441,-16.71137065880112
10.076788736,1.0001234320331889,-17.469351393364477
10.090749952,1.0001004103545272,-18.22712303461146
10.104712192,1.0000733390054197,-18.984583340377256
10.118673408,1.0000430790203747,-19.741696675282046
10.132635648,1.0000111064998671,-20.498460920727304
10.146596864,0.9999786127616969,-21.254832553797478
10.16055808,0.9999471090862307,-22.010847119341534
10.17452032,0.9999178685741312,-22.766511331309452
10.188481536,0.9998919935491284,-23.521842559919353
10.202443776,0.9998707978182286,-24.276916168273768
10.216404992,0.9998552105075718,-25.031775059174894
10.230366208,0.999845630620435,-25.78650449054826
10.244328448,0.9998427111134987,-26.541173030802554
10.258289664,0.999846518528968,-27.295852195034893
10.27225088,0.9998568426949423,-28.05064427851688
10.28621312,0.9998733226244401,-28.805600741702435
10.300174336,0.9998953607650996,-29.56081022944799
10.314136576,0.9999218183979913,-30.31631816353711
10.328097792,0.9999517391165362,-31.072195931168263
10.342059008,0.99998387891728,-31.828455449772978
10.356021248,1.0000167256812522,-32.585128182427994
10.369982464,1.0000491032811631,-33.342217575434844
10.38394368,1.0000794931935004,-34.099710422618486
10.39790592,1.000106585271018,-34.8575594974959
10.411867136,1.0001293345001672,-35.615766888725204
10.425829376,1.0001466698001127,-36.37422356836898
10.439790592,1.0001580222171274,-37.13289510823737
10.453751808,1.0001625925673192,-37.891687164297124
10.467714048,1.0001604629970626,-38.65055828099671
10.481675264,1.0001515141751938,-39.4093667874048
10.495637504,1.0001362529466247,-40.16812079316509
10.50959872,1.0001152180089352,-40.92667460292597
10.523559936,1.0000893417955012,-41.684989209666305
10.537522176,1.0000595602460263,-42.44303247815654
10.551483392,1.000027379366049,-43.20076312060115
10.565444608,0.9999938946531887,-43.95813468831115
10.579406848,0.9999607086095285,-44.71517456977503
10.593368064,0.9999291183989226,-45.47188335290965
10.607330304,0.9999004790000628,-46.22826693658217
10.62129152,0.9998760375584549,-46.98439705184881
10.635252736,0.9998568589806146,-47.74032984772427
10.649214976,0.9998436179893091,-48.49612430076926
10.663176192,0.9998369983783909,-49.251854197318316
10.677137408,0.9998372767169005,-50.00760065964702
10.691099648,0.9998443991621422,-50.763443691971005
10.705060864,0.9998581483585927,-51.5194624539603
10.719023104,0.9998780072945043,-52.27575159725048
10.73298432,0.9999029162975616,-53.03236852081478
10.746945536,0.9999321466675489,-53.78939100503081
10.760907776,0.9999641759774003,-54.54680218892372
10.774868992,0.9999977578327924,-55.30469009198391
10.788830208,1.0000314443249303,-56.06303415634602
10.802792448,1.0000638940271773,-56.82184901687108
10.816753664,1.0000936799961,-57.581102851126026
10.830715904,1.0001194204061215,-58.340752426468484
10.84467712,1.0001402433816955,-59.10076332696971
10.858638336,1.0001551274726048,-59.861058097331934
10.872600576,1.0001633286837792,-60.62156548833579
10.886561792,1.0001646233600614,-61.38220138448513
10.900524032,1.0001589433793887,-62.14290440694451
10.914485248,1.000146331541817,-62.90357553258053
10.928446464,1.0001275551203266,-63.664140000205904
10.942408704,1.000103172808621,-64.4245407034808
10.95636992,1.0000744478472332,-65.1847097479372
10.970331136,1.0000422579449435,-65.94460350954772
10.984293376,1.000008319999022,-66.70418320546435
10.998254592,0.9999737075647711,-67.46343904678943
11.012216832,0.9999400388433605,-68.22238398975291
11.026178048,0.9999087921214405,-68.98103410320871
11.040139264,0.9998812960544793,-69.73942149681433
11.054101504,0.9998586713529501,-70.49760776954518
11.06806272,0.9998417776704146,-71.25563619003579
11.082023936,0.9998315741651844,-72.01362064283283
11.095986176,0.9998284020140797,-72.77159337114014
11.109947392,0.9998323405391264,-73.52967362811336
11.123909632,0.9998432986817403,-74.2879319031632
11.137870848,0.9998608241534646,-75.04645942218383
11.151832064,0.9998842457184528,-75.80531495750208
11.165794304,0.9999125640155252,-76.56457225363326
11.17975552,0.9999445012361529,-77.32429728003368
11.19371776,0.9999788285172323,-78.08450725094332
11.207678976,1.0000140056993647,-78.8452228626923
11.221640192,1.000048598939954,-79.60647212967704
11.235602432,1.0000812617194332,-80.3681962452984
11.249563648,1.000110391280846,-81.1304260432563
11.263524864,1.0001349197302976,-81.89305389132988
11.277487104,1.000153702307871,-82.65605740894662
11.29144832,1.0001659646104084,-83.41935530483802
11.30541056,1.000171267170026,-84.18285332606241
11.319371776,1.0001691762541383,-84.94649007171806
11.333332992,1.0001599690039968,-85.71018312467622
11.347295232,1.0001438681820805,-86.47384753606816
11.361256448,1.0001217025986,-87.2373880648821
11.375217664,1.0000942181346977,-88.00073120061661
11.389179904,1.0000628052716707,-88.7638642382923
11.40314112,1.0000284554205685,-89.52671407520361
11.41710336,0.9999928364469265,-90.28926728186586
11.431064576,0.9999574564104818,-91.05152707373004
11.445025792,0.9999237291827366,-91.81348404919449
11.458988032,0.9998930710102127,-92.57517859696658
11.472949248,0.9998669239232418,-93.33666452561175
11.486911488,0.9998463767997676,-94.09797818969953
11.500872704,0.999832145576339,-94.85921898329623
11.51483392,0.9998249864116857,-95.62043367959434
11.52879616,0.9998252962469666,-96.38174966580122
11.542757376,0.9998328165229916,-97.14322488304622
11.556718592,0.9998474746941665,-97.9049574590045
11.570680832,0.9998686979295183,-98.66701372261544
11.584642048,0.9998953830575729,-99.42949513610965
11.598604288,0.999926564089786,-100.19243156688204
