freq,mag,phase
6.0,1.000365350579496,-41.87862753401073
6.003272192,1.0003224600962362,-42.02318223870972
6.006543872,1.0002632565376819,-42.16699042273672
6.009816064,1.0001877553297744,-42.30986927799475
6.013087744,1.000101084453817,-42.451639270400946
6.016359936,1.0000083164231224,-42.592151560785396
6.019632128,0.9999149444481952,-42.73134232946445
6.022903808,0.9998270728022639,-42.869228109238506
6.026176,0.999750170067688,-43.00597303882241
6.02944768,0.9996888150877797,-43.14172212303755
6.032719872,0.9996472629220505,-43.276801034594044
6.035992064,0.9996276195459834,-43.41146932770285
6.039263744,0.9996315548592973,-43.54602102914554
6.042535936,0.9996584813114406,-43.68082355133022
6.045807616,0.9997070541015749,-43.816175939428945
6.049079808,0.9997739022801074,-43.952411915220274
6.052351488,0.9998551952242256,-44.08975287645751
6.05562368,0.9999457240311451,-44.22835346604789
6.058895872,1.0000398234693495,-44.36825972579057
6.062167552,1.0001318726674837,-44.50957157579254
6.065439744,1.0002160385213585,-44.652189237201554
6.068711424,1.0002869399217205,-44.79595130428045
6.071983616,1.0003403927289471,-44.9405959125103
6.075255808,1.0003728433124983,-45.08593617230978
6.078527488,1.0003823753527576,-45.23156976818258
6.08179968,1.0003685360634442,-45.37725434942827
6.08507136,1.0003318504456766,-45.52254694144775
6.088343552,1.0002748758661484,-45.66723212777065
6.091615744,1.0002008681177026,-45.811005360434685
6.094887424,1.000114564723144,-45.95362134616637
6.098159616,1.000021558485131,-46.094995137481256
6.101431296,0.9999270034034863,-46.235029351105524
6.104703488,0.9998372616637222,-46.37382728232748
6.10797568,0.9997577683739146,-46.511357236580466
6.11124736,0.9996935781024052,-46.64792589712366
6.114519552,0.9996485421674168,-46.783699364737636
6.117791232,0.9996256690437301,-46.91901018625444
6.121063424,0.9996260793801396,-47.05418367719976
6.124335616,0.999650109064126,-47.18955123406522
6.127607296,0.9996959567862272,-47.3255047261883
6.130879488,0.9997610794138932,-47.462259957295146
6.134151168,0.9998414897019667,-47.6000813695879
6.13742336,0.9999317463598933,-47.73910658203616
6.140695552,1.0000265978897203,-47.879567548104156
6.143967232,1.0001201692429604,-48.02138917530871
6.147239424,1.000206415402131,-48.16450995389686
6.150511104,1.0002803422096789,-48.308834582907735
6.153783296,1.0003368220450373,-48.45411884763259
6.157054976,1.0003728219595391,-48.60010675526247
6.160327168,1.0003857640580052,-48.746464963946444
6.16359936,1.000375118623183,-48.892858375259976
6.16687104,1.000341126705636,-49.03897548373517
6.170143232,1.0002863802010455,-49.18447028799267
6.173414912,1.000214105466036,-49.32907443326052
6.176687104,1.000128426840779,-49.47259077608842
6.179959296,1.000034864839684,-49.61484449531185
6.183230976,0.9999396416617408,-49.755782405463115
6.186503168,0.9998478557373821,-49.895365314297074
6.189774848,0.9997660408927631,-50.03374511773481
6.19304704,0.9996987202752529,-50.171092847381416
6.196319232,0.9996503553164947,-50.307572770795296
6.199590912,0.9996238378758016,-50.443607913109894
6.202863104,0.9996209231068879,-50.57940811737818
6.206134784,0.9996417412317717,-50.715395756711445
6.209406976,0.9996851109169406,-50.851836077573026
6.212679168,0.999748183419911,-50.98907803549429
6.215950848,0.9998275019080074,-51.12743237286556
6.21922304,0.9999175659692742,-51.26693564968937
6.22249472,1.000012990767337,-51.407877031743084
6.225766912,1.0001077769586297,-51.55017382610735
6.229039104,1.0001962595712661,-51.693853888291926
6.232310784,1.0002728710213995,-51.83868761434972
6.235582976,1.0003329095511329,-51.984554347538264
6.238854656,1.000372143711774,-52.131172263434884
6.242126848,1.0003888624542538,-52.278233665300206
6.245398528,1.0003813608433474,-52.42542178957329
6.24867072,1.0003506008816343,-52.57231250711259
6.251942912,1.0002980621851822,-52.718588510181824
6.255214592,1.0002272006295017,-52.86413961791002
6.258486784,1.0001423124140614,-53.008475951683295
6.261758464,1.0000489104968566,-53.15160888544336
6.265030656,0.9999523725644062,-53.29340856484644
6.268302848,0.9998593523248548,-53.433848127228046
6.271574528,0.9997746976435629,-53.57305417279594
6.27484672,0.9997044617278317,-53.71116225585414
6.2781184,0.9996526843777479,-53.84841818891844
6.281390592,0.9996225671286078,-53.985117674563654
6.284662784,0.9996162099211764,-54.12157024001848
6.287934464,0.9996338166440458,-54.25810494920547
6.291206656,0.9996744608818708,-54.39509869544791
6.294478336,0.999735726599325,-54.53286534401955
6.297750528,0.9998135354971867,-54.67164604869344
6.30102272,0.9999030953203655,-54.81167441550118
6.3042944,0.9999988667344697,-54.953054774077124
6.307566592,1.0000952463758086,-55.095853691114954
6.310838272,1.0001859162012485,-55.2399914520286
6.314110464,1.0002651567914274,-55.3853955016386
6.317382656,1.000328279268091,-55.531855525876935
6.320654336,1.0003711449468202,-55.67912097225515
6.323926528,1.0003912967686146,-55.82689551047552
6.327198208,1.0003874110053015,-55.9747531897732
6.3304704,1.0003596465581703,-56.122448138465586
6.33374208,1.000309689588654,-56.26956871750874
6.337014272,1.0002405300602886,-56.4158980268543
6.340286464,1.0001567685753145,-56.56117327226325
6.343558144,1.0000632826925713,-56.705206316143304
6.346830336,0.9999660001691989,-56.84785469743832
6.350102016,0.9998709732582286,-56.98912864082856
6.353374208,0.9997840325172141,-57.12919331721607
6.3566464,0.9997108625569652,-57.26806207808549
6.35991808,0.9996555035119963,-57.406057806660485
6.363190272,0.9996219364674255,-57.54341611930865
6.366461952,0.9996120088119597,-57.68050999587911
6.369734144,0.9996262316212661,-57.81765289223907
6.373006336,0.9996639808726897,-57.95519593662959
6.376278016,0.9997229098689829,-58.09346714485384
6.379550208,0.9997991067335699,-58.23273813719991
6.382821888,0.9998882820118337,-58.37321139056361
6.38609408,0.9999845562139851,-58.515034579413474
6.389366272,1.000082024647606,-58.658284816934604
6.392637952,1.000174548980049,-58.80295411028419
6.395910144,1.0002567007128256,-58.94889119210493
6.399181824,1.0003231174276994,-59.095919441121495
6.402454016,1.0003695362687892,-59.24379684780998
6.405726208,1.0003934292231154,-59.392185711574506
6.408997888,1.0003930107429548,-59.54079290268843
6.41227008,1.0003683650384543,-59.68923265513565
6.41554176,1.000320976280669,-59.83723915539767
6.418813952,1.0002539414646232,-59.984387675700916
6.422086144,1.000170995135,-60.130523017717735
6.425357824,1.0000778692404124,-60.27538084086761
6.428630016,0.9999799510254163,-60.41893095286795
6.431901696,0.999883165518944,-60.561084927909015
6.435173888,0.9997940518288055,-60.70191012042534
6.438445568,0.9997177042007384,-60.84162700423347
6.44171776,0.9996589766975529,-60.9803272179173
6.444989952,0.9996218157294141,-61.11840805074844
6.448261632,0.9996081149817141,-61.256124015560445
6.451533824,0.9996190555070975,-61.39382951841086
6.454805504,0.9996536834854971,-61.53193832302748
6.458077696,0.9997102993967772,-61.67072103373129
6.461349888,0.9997849895422396,-61.81043775358809
6.464621568,0.99987327584948,-61.951343601434054
6.46789376,0.9999697236069724,-62.09363666309278
6.47116544,1.0000683074178394,-62.23737366757687
6.474437632,1.0001629289213076,-62.38250627423314
6.477709824,1.0002476386691272,-62.528957843444886
6.480981504,1.0003171886849835,-62.67650932014156
6.484253696,1.000367400421218,-62.82500822874863
6.487525376,1.0003948852948912,-62.97408528636092
6.490797568,1.0003981573964587,-63.12339997058192
6.49406976,1.0003768273416105,-63.272617496576885
6.49734144,1.0003322966889503,-63.42134378077841
6.500613632,1.0002672213610537,-63.56936072618192
6.503885312,1.0001857546954218,-63.71634729337059
6.507157504,1.0000927978294525,-63.86212604072452
6.510429696,0.9999943118615067,-64.0065051596912
6.513701376,0.9998961448883406,-64.14947105603605
6.516973568,0.9998045341017755,-64.29117290849409
6.520245248,0.9997252474433206,-64.43165757318667
6.52351744,0.9996631467805088,-64.57113478268562
6.52678912,0.9996221045232712,-64.70988021239133
6.530061312,0.9996047436632536,-64.8481891927569
6.533333504,0.9996120726939863,-64.9865279065309
6.536605184,0.9996435781667486,-65.12517819461937
6.539877376,0.9996977291342416,-65.26439960834603
6.543149056,0.9997706749457501,-65.40460077868327
6.546421248,0.999858148563194,-65.5459732146071
6.54969344,0.999954526462704,-65.68870466546863
6.55296512,1.0000542760760318,-65.83286203099186
6.556237312,1.0001506331680885,-65.9784574084297
6.559508992,1.0002382503984195,-66.12537468817756
6.562781184,1.0003109944010955,-66.27352463588447
6.566053376,1.0003647592703286,-66.42258793014787
6.569325056,1.0003960879472604,-66.57227475828654
6.572597248,1.0004031417736885,-66.72227369621
6.575868928,1.0003850844459616,-66.87225404926025
6.57914112,1.0003434040079637,-67.02180822665528
6.582413312,1.0002806958813593,-67.17063950803826
6.585684992,1.0002006008985898,-67.31847579204559
6.588957184,1.000108080884426,-67.46510291016514
6.592228864,1.0000090111839113,-67.61036850312311
6.595501056,0.9999094607068106,-67.75421217669447
6.598773248,0.9998156534732424,-67.89671017573208
6.602044928,0.9997335604447037,-68.0379824147818
6.60531712,0.9996678685993647,-68.1781762343035
6.6085888,0.999623076738828,-68.31761536532376
6.611860992,0.9996018461236758,-68.45660767372502
6.615132672,0.9996054365406347,-68.59551316695699
6.618404864,0.999633909086093,-68.73463187910157
6.621677056,0.999685165204037,-68.8743832474599
6.624948736,0.9997562007787952,-69.01503818020306
6.628220928,0.9998426536768158,-69.15683113537543
6.631492608,0.9999392048141653,-69.29995717203562
6.6347648,1.0000396713136652,-69.44457669919517
6.638036992,1.0001379074067358,-69.59060784791025
6.641308672,1.0002279648713597,-69.73801872414889
6.644580864,1.0003039877496995,-69.88666673152645
6.647852544,1.0003614494409414,-70.03629946238176
6.651124736,1.0003966204465493,-70.1866140665864
6.654396928,1.000407363435814,-70.33734021651121
6.657668608,1.0003930919870143,-70.48801150368354
6.6609408,1.0003545874165858,-70.6382852392204
6.66421248,1.0002940268703062,-70.78798288651325
6.667484672,1.0002153819824666,-70.93663192611811
6.670756864,1.0001235769927614,-71.08413133873509
6.674028544,1.0000242375255486,-71.2302557705843
6.677300736,0.9999234096893028,-71.37497626932735
6.680572416,0.9998274562093341,-71.51827002386487
6.683844608,0.9997422536989499,-71.66032446734611
6.6871168,0.9996732281069615,-71.80126608555119
6.69038848,0.9996245408060986,-71.94141172203746
6.693660672,0.999599386016051,-72.08104628061805
6.696932352,0.9995993197943102,-72.22049728184379
6.700204544,0.999624340028733,-72.36015696969837
6.703476736,0.9996728009563455,-72.50039913999845
6.706748416,0.9997416800807483,-72.64148486537908
6.710020608,0.999827123903638,-72.78370053137593
6.713292288,0.9999233881666492,-72.92724319298202
6.71656448,1.000024713178129,-73.07224077065867
6.71983616,1.0001245842488173,-73.21873609173497
6.723108352,1.000217169885091,-73.36661096217337
6.726380544,1.000296384164501,-73.51573612023441
6.729652224,1.0003575188629157,-73.66591889999084
6.732924416,1.00039662496765,-73.81686201124853
6.736196096,1.0004113458995014,-73.96821438585918
6.739468288,1.0004007566814193,-74.1195621746071
6.74274048,1.0003653080122763,-74.2706751517856
6.74601216,1.0003072315592059,-74.42116405634232
6.749284352,1.000230457998956,-74.57065549877709
6.752556032,1.000139415569457,-74.71893987813687
6.755828224,1.0000399160286941,-74.86592228289919
6.759100416,0.9999378547134695,-75.01150928632187
6.762372096,0.9998397801834654,-75.15561935626758
6.765644288,0.9997516666215551,-75.29847827418943
6.768915968,0.9996791500972567,-75.44014754506648
6.77218816,0.9996268779410876,-75.58096357735187
6.775460352,0.9995976304180269,-75.72120927604499
6.778732032,0.9995936379533619,-75.86126047259383
6.782004224,0.9996151027961742,-76.0014363378436
6.785275904,0.9996605918646037,-76.1421349033266
6.788548096,0.9997273695151752,-76.28365920844188
6.791820288,0.9998113242302733,-76.42627457523218
6.795091968,0.999907317653293,-76.57024169531802
6.79836416,1.0000092415246271,-76.71562518812466
6.80163584,1.0001107595081276,-76.8625074812774
6.804908032,1.000205707334114,-77.01081471595467
6.808179712,1.0002881827689363,-77.16042348285683
6.811451904,1.0003529511088727,-77.31114773038333
6.814724096,1.0003959892224679,-77.46265714190817
6.817995776,1.000414626933868,-77.61465319484225
6.821267968,1.0004077343621445,-77.76672359671984
6.824539648,1.0003757970085256,-77.91859100300884
6.82781184,1.0003206531303908,-78.06979496853643
6.831084032,1.000245650561411,-78.22012126359427
6.834355712,1.000155499380423,-78.36930200694601
6.837627904,1.0000557247080282,-78.51714863087605
6.840899584,0.9999526683372361,-78.6635389422411
6.844171776,0.9998525953175154,-78.80848639065445
6.847443968,0.9997617646288172,-78.95209286482859
6.850715648,0.9996858950866789,-79.09451487510502
6.85398784,0.999629455267741,-79.2360170170753
6.85725952,0.9995963795088694,-79.37689085537747
6.860531712,0.9995884823018502,-79.51749748739985
6.863803904,0.9996060735941857,-79.65819452730511
6.867075584,0.9996485256120882,-79.7993299349518
6.870347776,0.9997129620017109,-79.94127440765308
6.873619456,0.9997954911763506,-80.08427830971452
6.876891648,0.9998909473745037,-80.228610500785
6.88016384,0.9999932438894669,-80.37440072645933
6.88343552,1.0000963274658718,-80.52165504991206
6.886707712,1.0001935738754728,-80.67041492031055
6.889979392,1.000279328404933,-80.82049259576405
6.893251584,1.0003477149321758,-80.97168493328587
6.896523264,1.000394776077356,-81.12373922152516
6.899795456,1.0004175045088435,-81.2763709543763
6.903067648,1.0004144878857677,-81.42910644106934
6.906339328,1.0003860639539648,-81.5816705461454
6.90961152,1.0003337168725648,-81.73369523668755
6.9128832,1.0002607036133933,-81.88484545098449
6.916155392,1.000171734221465,-82.03482884446747
6.919427584,1.000072114358044,-82.18348091447074
6.922699264,0.999968032810737,-82.33070631038638
6.925971456,0.999866089021121,-82.47645562807878
6.929243136,0.999772564897283,-82.62086612048208
6.932515328,0.9996931750940787,-82.76401376217592
6.93578752,0.9996329998377148,-82.90618745066595
6.9390592,0.9995956769790155,-83.04769815850855
6.942331392,0.9995835741572342,-83.18885701376006
6.945603072,0.999597518210766,-83.33007925800399
6.948875264,0.9996367615294396,-83.47164289423601
6.952147456,0.99969850602059,-83.61397994525358
6.955419136,0.9997793240459433,-83.75739098747633
6.958691328,0.999874164813994,-83.90208137327735
6.961963008,0.999976841225513,-84.0482131507031
6.9652352,1.0000813707402914,-84.19585421073995
6.968507392,1.0001809548015377,-84.34496746533775
6.971779072,1.0002697145823285,-84.4954689153807
6.975051264,1.000341833792106,-84.6471950954372
6.978322944,1.0003928926953762,-84.7998047574548
6.981595136,1.0004198540431093,-84.95299217785252
6.984867328,1.0004208524802198,-85.10639159527781
6.988139008,1.000396004042933,-85.2596679100561
6.9914112,1.0003466736547757,-85.41244529909886
6.99468288,1.0002759397436145,-85.5643536212432
6.997955072,1.0001881138652662,-85.71516747590533
7.001226752,1.0000887756284789,-85.864662777185
7.004498944,0.9999839461223382,-86.01270708508599
7.007771136,0.9998802446522386,-86.15924620098176
7.011042816,0.9997839311988364,-86.30442774377174
7.014315008,0.9997011457063029,-86.44831178062122
7.017586688,0.9996371211319098,-86.59115004621235
7.02085888,0.9995955222208364,-86.73325307393024
7.024131072,0.999579350939512,-86.8749936882147
7.027402752,0.9995893446640736,-87.0166798778382
7.030674944,0.9996250309120114,-87.1587004855034
7.033946624,0.9996842630579353,-87.30145905870387
7.037218816,0.9997631586410746,-87.44522927413117
7.040491008,0.999857099663172,-87.59021873586467
7.043762688,0.9999600238756807,-87.73671196959026
7.04703488,1.0000657524842933,-87.88470521292591
7.05030656,1.0001676392846923,-88.03418528351854
7.053578752,1.0002592946583202,-88.18511021294783
7.056850944,1.0003350787602585,-88.3372454136114
7.060122624,1.0003903679839956,-88.49039198217504
7.063394816,1.0004214821718866,-88.64414646309287
7.066666496,1.000426668969733,-88.79817140974149
7.069938688,1.0004054779801457,-88.95214595905938
7.07321088,1.0003594574009553,-89.10562786403763
7.07648256,1.0002909871347803,-89.25834300979291
7.079754752,1.0002046693575628,-89.40996608515815
7.083026432,1.0001057479297335,-89.56026831411823
7.086298624,1.0000003114741731,-89.70910804776763
7.089570304,0.9998948942597092,-89.85649435169482
7.092842496,0.9997960933579538,-90.00235945018896
7.096114688,0.9997099154618795,-90.14698304618982
7.099386368,0.9996418096592579,-90.29049812746683
7.10265856,0.9995960823664114,-90.43322089586708
7.10593024,0.9995757870080216,-90.57547680027355
7.109202432,0.9995816646410438,-90.71765607385157
7.112474624,0.9996136913264403,-90.86015242221774
7.115746304,0.9996700323729323,-91.00325459096526
7.119018496,0.999747027971789,-91.1473411480913
7.122290176,0.9998398507818483,-91.29268280260796
7.125562368,0.9999429196386709,-91.43948731493977
7.12883456,1.0000497187367547,-91.58780048239254
7.13210624,1.0001536717956585,-91.7376498714644
7.135378432,1.0002483217812366,-91.88895047265858
7.138650112,1.0003277935874286,-92.04152415423579
7.141922304,1.0003871329437002,-92.19510482451287
7.145194496,1.0004227080537016,-92.34942922805993
7.148466176,1.0004321301633368,-92.50405434953007
7.151738368,1.0004149358691143,-92.6586624339259
7.155010048,1.0003720420601157,-92.8128770660388
7.15828224,1.0003062969937264,-92.96635837860836
7.161554432,1.000221711665893,-93.11873680143283
7.164826112,1.0001231714230223,-93.26986740380738
7.168098304,1.000017221002175,-93.41950073977104
7.171369984,0.9999103071126266,-93.56766315487583
7.174642176,0.9998089142233156,-93.71429932018111
7.177913856,0.999719396712473,-93.85965224837051
7.181186048,0.9996474309338689,-94.00380972035731
7.18445824,0.9995975136351963,-94.14713855124755
7.18772992,0.9995726219185022,-94.28993369897024
7.191002112,0.9995744685103861,-94.43257574194469
7.194273792,0.9996028612573356,-94.57544520181499
7.197545984,0.9996559244000207,-94.71895277653272
7.200818176,0.9997307161022161,-94.86338750196711
7.204089856,0.9998224129051512,-95.00906636526975
7.207362048,0.9999253647944146,-95.15612706639688
7.210633728,1.0000332145825168,-95.30470070162546
7.21390592,1.0001391359841092,-95.45487633968547
7.217178112,1.0002366407492622,-95.60654896674299
7.220449792,1.0003197862810433,-95.75952906357911
7.223721984,1.0003833117866558,-95.91356280792989
7.226993664,1.0004231646113233,-96.06836561549868
7.230265856,1.0004369774159578,-96.2235928216226
7.233538048,1.0004237621940355,-96.37887365331062
7.236809728,1.0003844785778797,-96.53373754890283
7.24008192,1.0003213876630226,-96.68792389512652
7.2433536,1.0002385382552554,-96.84110200996047
7.246625792,1.000140910612121,-96.99298181611093
7.249897984,1.0000345665273669,-97.14343172673931
7.253169664,0.9999261723628595,-97.29235517765777
7.256441856,0.999822424836818,-97.4397773113182
7.259713536,0.9997296439041573,-97.58578726117348
7.262985728,0.99965385446399,-97.7306177505904
7.26625792,0.9995994853970076,-97.8745171628596
7.2695296,0.9995701947781441,-98.01786484173479
7.272801792,0.9995676127778323,-98.16097079368299
7.276073472,0.9995921567305973,-98.30423759535408
7.279345664,0.999642064011153,-98.44810568571144
7.282617344,0.9997144011085864,-98.59283975473787
7.285889536,0.9998047100863467,-98.7387717167478
7.289161728,0.9999073943862822,-98.88610575123677
7.292433408,1.0000160006053802,-99.03498732258788
7.2957056,1.0001238070687446,-99.18546031708932
7.29897728,1.0002243186286284,-99.33743744647151
7.302249472,1.0003108323058851,-99.49078978126697
7.305521664,1.0003785835148604,-99.64527926512126
7.308793344,1.0004228552412935,-99.80056100792088
7.312065536,1.0004411415228964,-99.9563449113165
7.315337216,1.0004321154833018,-100.11219474302177
