freq,mag,phase
6.0,0.9993640901209299,-9.364189996795345
6.011034624,0.9992413181222703,-9.734694009407093
6.022068736,0.9991566293997085,-10.104040804276071
6.03310336,0.9991137848540408,-10.472724986471935
6.044137984,0.9991153158210757,-10.841307269795013
6.055172608,0.9991607870843281,-11.210360250157445
6.06620672,0.9992481496830141,-11.580475516171346
6.077241344,0.999373213376399,-11.952136957802141
6.088275968,0.9995296395615201,-12.325770595351463
6.099310592,0.9997098890199191,-12.701749274902559
6.110344704,0.9999048119420318,-13.080346797528868
6.121379328,1.0001048785094773,-13.461609615950428
6.132413952,1.000300017310136,-13.845637216603933
6.143448064,1.0004807631470756,-14.232281006219285
6.154482688,1.000637812640378,-14.621282121973929
6.165517312,1.0007634151023281,-15.012254200130025
6.176551936,1.0008515326617555,-15.404795156983273
6.187586048,1.0008975201759636,-15.798422092729114
6.198620672,1.0008989679559575,-16.192512527952623
6.209655296,1.0008559674768815,-16.586558793278908
6.220689408,1.0007703523354317,-16.979984336039742
6.231724032,1.0006465360450667,-17.372220606747653
6.242758656,1.0004904666692047,-17.762916177153453
6.25379328,1.0003096850279047,-18.151602593652918
6.264827392,1.0001133198171226,-18.538077060249048
6.275862016,0.9999111787368589,-18.9221677910001
6.28689664,0.9997131837172221,-19.303894868766385
6.297931264,0.9995290414043893,-19.683337982272793
6.308965376,0.9993682894864909,-20.06074791808952
6.32,0.9992385894630504,-20.436503797528708
6.331034624,0.9991466186167911,-20.810980237419017
6.342068736,0.9990971650344395,-21.184765558581375
6.35310336,0.9990923649912306,-21.558369372064337
6.364137984,0.9991329947146045,-21.932399413636468
6.375172608,0.999216795377851,-22.30738497290816
6.38620672,0.9993398422111571,-22.683887710031943
6.397241344,0.99949589312148,-23.062370806844594
6.408275968,0.9996774119861098,-23.44323451070563
6.419310592,0.9998750752692618,-23.826759538188718
6.430344704,1.0000794798219506,-24.213012743977057
6.441379328,1.000280370834437,-24.602054397690953
6.452413952,1.0004676416163063,-24.993813467604586
6.463448064,1.0006321584416238,-25.38804611251896
6.474482688,1.0007654468492502,-25.784349230925265
6.485517312,1.0008612162877157,-26.18237202288549
6.496551936,1.0009142904007773,-26.581510862440794
6.507586048,1.000922292331698,-26.981264716397988
6.518620672,1.0008843790846464,-27.381053089134316
6.529655296,1.0008028681940817,-27.780277588418848
6.540689408,1.0006811454937858,-28.17836728174054
6.551724032,1.000525733104434,-28.57492010683642
6.562758656,1.0003437395288737,-28.969513272254076
6.57379328,1.0001447638016665,-29.361861652079824
6.584827392,0.9999381224025953,-29.75180827499439
6.595862016,0.9997341306702782,-30.139334534134168
6.60689664,0.999543185213848,-30.524501259075244
6.617931264,0.9993746685528299,-30.90755194883733
6.628965376,0.9992369696749916,-31.288834217929555
6.64,0.9991369177680336,-31.668776026239502
6.651034624,0.9990798753666876,-32.04793157782975
6.662068736,0.9990684714767302,-32.42677386911946
6.67310336,0.9991032183408827,-32.806004861662835
6.684137984,0.9991827400966178,-33.186155585180465
6.695172608,0.999303139126604,-33.567790730700715
6.70620672,0.9994584385175213,-33.951402492795985
6.717241344,0.9996408425102956,-34.33734919346286
6.728275968,0.9998416586863861,-34.72598984316691
6.739310592,1.0000505571032117,-35.11746554799263
6.750344704,1.0002574474766894,-35.51180582608091
6.761379328,1.0004518420804827,-35.90894789214941
6.772413952,1.00062444947112,-36.308613191738736
6.783448064,1.000766165377811,-36.710563968962234
6.794482688,1.0008702928107118,-37.114237930659826
6.805517312,1.0009316256327725,-37.51925647386637
6.816551936,1.0009467677200021,-37.924931651037696
6.827586048,1.0009150380172305,-38.33069949379931
6.838620672,1.0008380398511163,-38.73604517601811
6.849655296,1.0007193996567596,-39.140353030821736
6.860689408,1.000564913663885,-39.54308246682997
6.871724032,1.0003820010832216,-39.94390312484984
6.882758656,1.000179991510679,-40.3424645028342
6.89379328,0.9999687690869385,-40.738584871010865
6.904827392,0.9997588197233921,-41.1322307414806
6.915862016,0.9995602704701053,-41.52339612976398
6.92689664,0.9993835112232989,-41.91240786410673
6.937931264,0.9992368464223885,-42.299536385760305
6.948965376,0.9991279961644919,-42.68522128048701
6.96,0.9990623194049414,-43.06996741695742
6.971034624,0.9990431820304415,-43.454369455064864
6.982068736,0.9990713984236943,-43.83905938100731
6.99310336,0.9991460802947669,-44.224608104640275
7.004137984,0.9992631208614265,-44.6115837937012
7.015172608,0.9994172184539916,-45.000529157585426
7.02620672,0.9996004940580647,-45.39179535185909
7.037241344,0.9998040375586702,-45.78578772496346
7.048275968,1.0000176205050355,-46.18266655277028
7.059310592,1.0002308100780481,-46.58252227105165
7.070344704,1.0004330502439913,-46.9852384373904
7.081379328,1.0006139982184221,-47.390614645937404
7.092413952,1.0007651536970659,-47.79836651087157
7.103448064,1.0008785943737157,-48.208055862205754
7.114482688,1.0009489864404975,-48.61909160387758
7.125517312,1.0009722936535022,-49.030994977345586
7.136551936,1.000947590554043,-49.443095797273266
7.147586048,1.000875970020614,-49.85481355296161
7.158620672,1.0007608334209737,-50.265561728977644
7.169655296,1.0006078245762895,-50.67482775524873
7.180689408,1.0004244159012627,-51.08214654439675
7.191724032,1.0002196238600545,-51.487234637491646
7.202758656,1.0000036199529783,-51.889847075713334
7.21379328,0.999787123741591,-52.28988940039667
7.224827392,0.9995806545156016,-52.68741850878803
7.235862016,0.9993946643260481,-53.08264068678088
7.24689664,0.9992386528252655,-53.47589606262969
7.257931264,0.9991198339054103,-53.86756341660346
7.268965376,0.9990445086597796,-54.258238411847465
7.28,0.9990166612705307,-54.64843417796117
7.291034624,0.9990375765542524,-55.03876850716977
7.302068736,0.9991062978760624,-55.429918232945376
7.31310336,0.9992195948329612,-55.82242257515829
7.324137984,0.9993717780498864,-56.2168934244475
7.335172608,0.9995555567313993,-56.61368263630256
7.34620672,0.9997617064587894,-57.013221279237435
7.357241344,0.9999800938319741,-57.415682512779334
7.368275968,1.0002000429509306,-57.8211927377681
7.379310592,1.0004105423160539,-58.229733231276846
7.390344704,1.0006010476262328,-58.64098489722277
7.401379328,1.0007622187658936,-59.05474985828289
7.412413952,1.0008860367138206,-59.47062176556143
7.423448064,1.0009662556546153,-59.88797920001324
7.434482688,1.0009988028680388,-60.3062921669502
7.445517312,1.0009821272516837,-60.72496811094541
7.456551936,1.000916779315935,-61.1433498257319
7.467586048,1.0008059255880895,-61.56080918260973
7.478620672,1.0006551001714465,-61.97686431371201
7.489655296,1.0004715313975612,-62.39103756023895
7.500689408,1.0002641533196486,-62.802903556000246
7.511724032,1.0000434067554098,-63.212264181253545
7.522758656,0.9998199921436577,-63.61896870989418
7.53379328,0.9996050397354928,-64.0231395478462
7.544827392,0.9994093577565261,-64.42488693650522
7.555862016,0.9992426156196085,-64.82446546563497
7.56689664,0.9991129403750032,-65.22241982556972
7.577931264,0.9990272252394745,-65.61918249827605
7.588965376,0.9989894334244317,-66.0153958261644
7.6,0.9990017671204167,-66.41159327037509
7.611034624,0.9990636727127372,-66.80854453744627
7.622068736,0.999172176386227,-67.20677610348832
7.63310336,0.9993219580934779,-67.6068956336055
7.644137984,0.9995056707369103,-68.0093670613349
7.655172608,0.9997144224612626,-68.4145812292398
7.66620672,0.9999376532584475,-68.82279542228514
7.677241344,1.0001644671813155,-69.2341352666663
7.688275968,1.000383625351543,-69.64857405654152
7.699310592,1.0005843402917622,-70.0658927748281
7.710344704,1.000756561743113,-70.48587819027983
7.721379328,1.000891788789478,-70.90800905444512
7.732413952,1.0009831416170836,-71.33190682204017
7.743448064,1.0010259644708457,-71.7568602734766
7.754482688,1.0010184961753557,-72.18230819056862
7.765517312,1.0009605006018807,-72.60756317918923
7.776551936,1.0008548972723466,-73.03203571417573
7.787586048,1.0007068062485729,-73.45511156055214
7.798620672,1.0005235594036979,-73.87631393173126
7.809655296,1.000313799933796,-74.29524878037206
7.820689408,1.0000882085795013,-74.7116176395524
7.831724032,0.9998577993854073,-75.125303069484
7.842758656,0.999633814272233,-75.5363366724122
7.85379328,0.9994276571917979,-75.9447680643441
7.864827392,0.9992493322671246,-76.35100866384072
7.875862016,0.9991077782186625,-76.755391395468
7.88689664,0.9990101332674737,-77.15845421484548
7.897931264,0.9989612718449699,-77.5608279344134
7.908965376,0.9989639804120631,-77.96309460915954
7.92,0.999017867386584,-78.36595200265761
7.931034624,0.9991206590368852,-78.77002474905007
7.942068736,0.9992671657906125,-79.17594697899924
7.95310336,0.999450461443964,-79.58419218657133
7.964137984,0.999661252379554,-79.99517152878246
7.975172608,0.9998893506832203,-80.40923900086527
7.98620672,1.0001234168206545,-80.82647211106017
7.997241344,1.0003519361766147,-81.24689604430593
8.008275968,1.0005635620221967,-81.67040580028404
8.019310592,1.000747830212633,-82.09668234523326
8.030344704,1.000895406669191,-82.52533352943328
8.041379328,1.0009991941658958,-82.95579767260828
8.052413952,1.0010538600998464,-83.38757155411427
8.063448064,1.0010565961648237,-83.81994770196212
8.074482688,1.001007161890609,-84.25227864495515
8.085517312,1.0009078958061408,-84.68387581625011
8.096551936,1.0007635590612918,-85.11421026569883
8.107586048,1.0005810627560834,-85.54270320382828
8.118620672,1.0003695280898528,-85.96889280714024
8.129655296,1.0001391653883716,-86.39249249876067
8.140689408,0.9999013879159684,-86.81333501754362
8.151724032,0.9996679095523331,-87.23140778087307
8.162758656,0.9994504625360738,-87.6468113354249
8.17379328,0.9992594597945521,-88.05983350615959
8.184827392,0.9991047720497089,-88.4708274902389
8.195862016,0.9989940456642339,-88.88038050651063
8.20689664,0.9989328501221276,-89.28904818793798
8.217931264,0.9989244113616493,-89.69747297544929
8.228965376,0.9989691293613123,-90.10632970018928
8.24,0.9990650209941346,-90.51635201785325
8.251034624,0.9992074004482274,-90.9281226031791
8.262068736,0.9993893108769865,-91.34219331299424
8.27310336,0.9996019492672018,-91.75902556086857
8.284137984,0.9998347380445244,-92.17891787630425
8.295172608,1.000076243562655,-92.60209677162403
8.30620672,1.0003145037085326,-93.02861009787544
8.317241344,1.0005378808131662,-93.4582896636187
8.328275968,1.0007351300357061,-93.8909341323686
8.339310592,1.0008965729950372,-94.32608894641965
8.350344704,1.0010140822676694,-94.76331912992947
8.361379328,1.0010819070290586,-95.2019324767093
8.372413952,1.00109643387114,-95.64135662270947
8.383448064,1.0010569392672823,-96.08085418853142
8.394482688,1.0009651715477765,-96.51978429451466
8.405517312,1.0008254351017551,-96.95749309298272
8.416551936,1.000644648601482,-97.39341541592381
8.427586048,1.0004316907033681,-97.82704493475082
8.438620672,1.0001966598171705,-98.25804697316366
8.449655296,0.9999514443670562,-98.68624331103669
8.460689408,0.9997079703855271,-99.11154699818395
8.471724032,0.9994782681838008,-99.53404490441781
8.482758656,0.9992739111843283,-99.95397358662146
8.49379328,0.9991048033143524,-100.37174580530107
8.504827392,0.9989794901096108,-100.78784877083649
8.515862016,0.9989044379675834,-101.20290565876913
8.52689664,0.9988833082466289,-101.61753783979238
8.537931264,0.9989173869873303,-102.03248611314656
8.548965376,0.9990050272198873,-102.44841881809056
8.56,0.9991422511769384,-102.86605401164978
8.571034624,0.9993220573010035,-103.28589854880018
8.582068736,0.9995359395553005,-103.7085421394223
8.593103872,0.9997731350442873,-104.13426726365671
8.604137472,1.00002212449534,-104.56337536410288
8.615172096,1.0002707401190079,-104.99590643372775
8.62620672,1.0005064885246344,-105.43174500868642
8.637241344,1.0007178952746079,-105.87071493500537
8.648275968,1.0008943588286758,-106.31241293131826
8.659310592,1.0010271002598907,-106.75633573103352
8.670345216,1.001109614167137,-107.20184693764436
8.681378816,1.0011374806451177,-107.6483808457393
8.69241344,1.0011093993466387,-108.09512787078616
8.703448064,1.0010265229079471,-108.54143581377721
8.714482688,1.0008927786496193,-108.98662968170953
8.725517312,1.0007146003255034,-109.4300660014502
8.736551936,1.0005005784864707,-109.871257818728
8.74758656,1.0002614121364106,-110.30978565449814
8.758621184,1.0000086134813801,-110.74542611371301
8.769654784,0.9997545771454245,-111.17805481315155
8.780689408,0.9995120614970405,-111.60774461305425
8.791724032,0.9992929249866016,-112.03468540353265
8.802758656,0.9991081831951594,-112.45928143411079
8.81379328,0.9989668452650329,-112.88198484595154
8.824827904,0.9988762065085398,-113.30342971707348
8.835862528,0.998840833680026,-113.72429638804219
8.846896128,0.9988626728243144,-114.14526848908596
8.857930752,0.9989406493808444,-114.56711109027515
8.868965376,0.9990712411678447,-114.99051419284392
8.88,0.999247997300831,-115.41608530661382
8.891034624,0.9994622995820086,-115.84442070878937
8.902069248,0.9997037361049966,-116.27589203434793
8.913103872,0.9999604396657826,-116.71078220840413
8.924137472,1.00021968113259,-117.14922017264388
8.935172096,1.0004687774171486,-117.5911474383471
8.94620672,1.00069535441678,-118.03631057957627
8.957241344,1.0008882963416752,-118.48446214902559
8.968275968,1.0010378527858221,-118.9350172307998
8.979310592,1.0011367384599692,-119.38741649427602
8.990345216,1.0011798106707974,-119.84099136977161
9.001378816,1.001164815667542,-120.29497237253676
9.01241344,1.0010924339985197,-120.7486602230516
9.023448064,1.0009659655357326,-121.20137098556435
9.034482688,1.0007914380572027,-121.65235376072742
9.045517312,1.0005774280466413,-122.10113723088998
9.056551936,1.0003342794495997,-122.54725161778828
9.06758656,1.000073914919146,-122.990382554478
9.078621184,0.999809073368444,-123.43038452468898
9.089654784,0.9995528552682866,-123.86729753625755
9.100689408,0.9993179475189553,-124.30127064058352
9.111724032,0.9991159911587295,-124.73266649771186
9.122758656,0.9989570293238303,-125.16198364265581
9.13379328,0.9988490022786533,-125.58977131973822
9.144827904,0.9987974847285334,-126.01677348336956
9.155862528,0.9988051765748693,-126.44370593381339
9.166896128,0.9988718274262446,-126.87130351880484
9.177930752,0.9989942877478034,-127.30032913988632
9.188965376,0.9991667799036195,-127.73148677736175
9.2,0.9993808690012624,-128.16532275586823
9.211034624,0.9996258621473346,-128.60232273856641
9.222069248,0.9998900974476213,-129.0428158519846
9.233103872,1.0001604530504828,-129.48692941545718
9.244137472,1.0004236393850876,-129.93473367209458
9.255172096,1.0006665738502514,-130.38594456975937
9.26620672,1.0008773795503874,-130.84033591775403
9.277241344,1.0010455424324987,-131.29739882418914
9.288275968,1.0011626646661829,-131.75651841107404
9.299310592,1.0012228025776375,-132.21701574983092
9.310345216,1.001222916923309,-132.67814280257775
9.321378816,1.0011627623597477,-133.13917136068315
9.33241344,1.0010451590922131,-133.59926780629598
9.343448064,1.0008755696450982,-134.0578225822904
9.354482688,1.0006624677448597,-134.51417802778357
9.365517312,1.000415919229136,-134.96783085151532
9.376551936,1.0001480792351276,-135.41843534561275
9.38758656,0.9998720025896147,-135.86579263297548
9.398621184,0.9996014290392558,-136.30987840111547
9.409654784,0.9993494887582246,-136.7508637421933
9.420689408,0.999128777033155,-137.18902052315138
9.431724032,0.9989503465146209,-137.6247961177766
9.442758656,0.9988230975965635,-138.05884854688213
9.45379328,0.9987534078421318,-138.4918473759966
9.464827904,0.9987449415405669,-138.92452374090712
9.475862528,0.998798317592752,-139.3576803008685
9.486896128,0.9989110819238503,-139.79214477523885
9.497930752,0.9990778474611492,-140.22858665059266
9.508965376,0.9992904880938475,-140.667670326385
9.52,0.9995387532668832,-141.109914242577
9.531034624,0.9998103661032601,-141.5556876454616
9.542069248,1.0000921133377223,-142.00521725395228
9.553103872,1.0003701257475675,-142.45858982961536
9.564137472,1.0006305855075368,-142.91557999114332
9.575172096,1.000860928865491,-143.3759585716838
9.58620672,1.0010494021105751,-143.839269258181
9.597241344,1.0011869035512346,-144.30485953533662
9.608275968,1.0012662342237149,-144.77208831601095
9.619310592,1.0012835260315731,-145.2401908954341
9.630345216,1.0012376856797454,-145.7083392020717
9.641378816,1.0011307516853876,-146.17578951571576
9.65241344,1.0009678078036572,-146.64173791630841
9.663448064,1.0007566092748588,-147.1055680669773
9.674482688,1.000507405329609,-147.5666629743389
9.685517312,1.0002323257392103,-148.02466227101021
9.696551936,0.9999447821663776,-148.4792900180272
9.70758656,0.9996589517642763,-148.9304673780268
9.718621184,0.9993889205723138,-149.37830122447983
9.729654784,0.9991479180189269,-149.8230786839417
9.740689408,0.9989480760091196,-150.265210345501
9.751724032,0.9987993674879779,-150.70531580977857
9.762758656,0.9987091672443189,-151.14406987777514
9.77379328,0.9986823277537751,-151.58226207398044
9.784827904,0.9987202496334388,-152.0207288810189
9.795862528,0.9988213083473451,-152.46025153962051
9.806896128,0.9989807264818592,-152.90164830098732
9.817930752,0.9991908068614757,-153.34560563880535
9.828965376,0.9994413709662991,-153.7927246746908
9.84,0.9997201152988499,-154.24341538341235
9.851034624,1.0000134110230265,-154.69796526319715
9.862069248,1.000307120758087,-155.15648822264515
9.873103872,1.0005864409942233,-155.61888101553913
9.884137472,1.000837804921711,-156.0849043408711
9.895172096,1.0010487384242748,-156.55407377291831
9.90620672,1.001208677815325,-157.02584512188213
9.917241344,1.001309615681764,-157.49953046711335
9.928275968,1.0013465794789742,-157.9743257349299
9.939310592,1.0013173339349721,-158.4493971331695
9.950345216,1.0012230970918268,-158.92393386090555
9.961378816,1.001068419342187,-159.39710126482103
9.97241344,1.0008605555917713,-159.86819708816847
9.983448064,1.0006095837387314,-160.33660113405688
9.994482688,1.000327559933224,-160.8018457251727
10.005517312,1.0000283587174141,-161.2635839064083
10.016551936,0.9997264938476772,-161.72168717406282
10.02758656,0.9994369729909451,-162.1761993704573
10.038621184,0.9991740774606175,-162.62738903194543
10.049654784,0.9989506419113539,-163.07563634657745
10.060689408,0.9987781624498079,-163.52152838355585
10.071724032,0.9986650438725205,-163.96577081925557
10.082758656,0.9986172182618205,-164.40914862299215
10.09379328,0.9986372675965015,-164.852533074591
10.104827904,0.9987243678515105,-165.29675303875763
10.115862528,0.9988744596052422,-165.74269710453046
10.126896128,0.9990804199961726,-166.19107614852038
10.137930752,0.9993323905843053,-166.6425745460209
10.148965376,0.9996179508193949,-167.09770236996093
10.16,0.999923145351633,-167.55677374929078
10.171034624,1.0002330391740677,-168.02000367538903
10.182069248,1.000532468207436,-168.48729619016044
10.193103872,1.0008067249577848,-168.958476367781
10.204137472,1.0010422062927284,-169.4331257767342
10.215172096,1.0012271564633535,-169.91066971509423
10.22620672,1.0013523769028054,-170.3903957261171
10.237241344,1.0014115191571091,-170.87153807986024
10.248275968,1.00140146263822,-171.35322212105015
10.259310592,1.0013224442969322,-171.83456062022904
10.270345216,1.0011780225278242,-172.31470537639188
10.281378816,1.0009750288933446,-172.79287359975953
10.29241344,1.0007233227486387,-173.26833880299972
10.303448064,1.0004348553480444,-173.74059397980977
10.314482688,1.0001238862531758,-174.20921933266544
10.325517312,0.9998053984261579,-174.6740147328156
10.336551936,0.9994950888484931,-175.13499812841806
10.34758656,0.9992083715226874,-175.59233483012454
10.358621184,0.9989592836810975,-176.04639755924882
10.369654784,0.9987603440399433,-176.49776440717005
10.380689408,0.9986215056814923,-176.94715737757818
10.391724032,0.9985498893530675,-177.395310835111
10.402758656,0.998549248899318,-177.84317297880895
