freq,mag,phase
6.0,0.9999932348244683,38.46457552510983
6.007042048,1.0000711717482667,38.29647223774676
6.014084608,1.0001452788909022,38.127306334717034
6.021126656,1.0002115587544411,37.95717414001616
6.028169216,1.000265998342978,37.786225132666594
6.035211264,1.0003058046598456,37.614654143010604
6.042253312,1.0003285748181383,37.4425963464085
6.049295872,1.0003331982136132,37.27036353199626
6.05633792,1.0003191239611775,37.09818389408599
6.06338048,1.0002873148582891,36.92634183045961
6.070422528,1.0002395477658745,36.75499554924194
6.077464576,1.0001784631100792,36.58440247708444
6.084507136,1.0001075201114074,36.41471720342158
6.091549184,1.0000306715566154,36.24602814383313
6.098591744,0.9999523209462249,36.078411155619605
6.105633792,0.9998767219382545,35.91179470872951
6.11267584,0.9998082902421056,35.7462387576591
6.1197184,0.9997507053464549,35.58146633055729
6.126760448,0.9997074043283074,35.41742040882454
6.133803008,0.9996807198379756,35.253819521769415
6.140845056,0.9996721846369288,35.09046829034849
6.147887104,0.9996822977229437,34.92713195291502
6.154929664,0.9997105630189264,34.76347202371129
6.161971712,0.9997553485550856,34.59933846553152
6.169014272,0.9998140703759711,34.4344738983004
6.17605632,0.999883480256083,34.2687713242296
6.183098368,0.9999597770282985,34.10201200128084
6.190140928,1.000038511561318,33.934203159375514
6.197182976,1.000115234666154,33.76534901070912
6.204225536,1.0001858606173601,33.5954696782829
6.211267584,1.0002461750759297,33.424701702179256
6.218309632,1.000292980913684,33.25315160110419
6.225352192,1.0003234763126674,33.08107912006305
6.23239424,1.0003360026377808,32.908709734767996
6.2394368,1.0003297770925677,32.736331078057056
6.246478848,1.0003052324013824,32.56412274157151
6.253520896,1.0002637891623998,32.39234458807963
6.260563456,1.0002075240546766,32.22121974514578
6.267605504,1.0001398942549329,32.050961960790964
6.274648064,1.000064531920995,31.881659010656858
6.281690112,0.9999856687305687,31.713419531288174
6.28873216,0.9999077704699483,31.546241917283393
6.29577472,0.9998352729631205,31.380124692284316
6.302816768,0.9997721686576931,31.214869117703095
6.309859328,0.9997220449794899,31.050422043361156
6.316901376,0.999687739333144,30.886519926535865
6.323943424,0.9996712159829042,30.72299221264516
6.330985984,0.9996734461073901,30.559549670088966
6.338028032,0.9996942946370677,30.395958706722546
6.345070592,0.9997324816451522,30.23192270062473
6.35211264,0.9997859132125136,30.06727589438124
6.359154688,0.9998517494700148,29.901766611913004
6.366197248,0.9999261225837989,29.735363577555244
6.373239296,1.0000049445513362,29.567871531363455
6.380281856,1.0000837102671443,29.399303304529724
6.387323904,1.0001580006654498,29.229677579346657
6.394365952,1.0002236342385618,29.059062852939824
6.401408512,1.0002769289070794,28.88762737035267
6.40845056,1.0003149875253974,28.715586887198608
6.41549312,1.000335490757369,28.54314921157122
6.422535168,1.00033728647359,28.370541177447993
6.429577216,1.0003204265527956,28.19801421705958
6.436619776,1.000285672706499,28.025858396022965
6.443661824,1.000235086790029,27.854234323730893
6.450704384,1.0001713236174827,27.683424076986512
6.457746432,1.000098258473297,27.513527207415738
6.46478848,1.0000198006789067,27.344652093413888
6.47183104,0.9999403226848804,27.17686680834347
6.478873088,0.9998643565998768,27.01014155611308
6.485915648,0.9997963036499213,26.844396171300808
6.492957696,0.9997398082714315,26.679525992980427
6.499999744,0.9996981129614634,26.515265247064956
6.507042304,0.9996736650338311,26.35149825191932
6.514084352,0.9996677231368475,26.187876685178495
6.521126912,0.9996807969081495,26.024252745340767
6.52816896,0.9997119866507828,25.860293094501383
6.53521152,0.9997596460044201,25.69581900568832
6.542253568,0.9998210672760317,25.53058237582232
6.549295616,0.9998927792934291,25.364410348726697
6.556338176,0.999970788800527,25.19725234663462
6.563380224,1.0000507215036012,25.02898272761325
6.570422784,1.0001280718234973,24.859623896196165
6.577464832,1.0001984714752672,24.689229008346167
6.58450688,1.0002579710984316,24.517951380457035
6.59154944,1.0003031561856182,24.3459717647126
6.598591488,1.0003315475540842,24.173450884793443
6.605634048,1.000341589402977,24.000670829281393
6.612676096,1.000332555799905,23.82790120908222
6.619718144,1.000304995172421,23.655338554433
6.626760704,1.0002605253062111,23.48327498243305
6.633802752,1.0002016583560969,23.311941171572997
6.640845312,1.0001315176469256,23.14142352850632
6.64788736,1.0000541736248831,22.971941189942882
6.654929408,0.9999739538677718,22.80354591780037
6.661971968,0.9998954505183404,22.63619711268726
6.669014016,0.9998229399119463,22.46989271557642
6.676056576,0.9997604594772781,22.304509961614098
6.683098624,0.9997118224929844,22.13986633277447
6.690140672,0.9996794756820107,21.975810569471683
6.697183232,0.9996654094046303,21.81202201941602
6.70422528,0.9996704219096727,21.64831465653969
6.71126784,0.9996940979645146,21.484395376464743
6.718309888,0.999735296315562,21.32004342484644
6.725351936,0.9997916299293718,21.155016548550417
6.732394496,0.9998600077608446,20.989120510569368
6.739436544,0.9999363973830571,20.822222527317745
6.746479104,1.0000167344021411,20.654265122737858
6.753521152,1.0000963749343168,20.485175259998556
6.7605632,1.0001708401879648,20.315037428475417
6.76760576,1.000235961409472,20.143944284573934
6.774647808,1.0002880551021112,19.972054931389607
6.781690368,1.0003241830423493,19.79953876990751
6.788732416,1.0003424008469874,19.62664712071469
6.795774464,1.0003414841559604,19.4536323071136
6.802817024,1.0003216129411756,19.280736426684516
6.809859072,1.0002838565069092,19.108242648892684
6.816901632,1.0002303348968367,18.93636799684003
6.82394368,1.000163996111798,18.765308644276498
6.830985728,1.0000886760474175,18.59518556664209
6.838028288,1.0000084587213176,18.426137063909515
6.845070336,0.9999280290874099,18.258173754971452
6.852112896,0.9998517514553541,18.09129748688936
6.859154944,0.9997839850004917,17.925367766879084
6.866196992,0.9997285486692766,17.76031302995666
6.873239552,0.9996886863112886,17.595867079020014
6.8802816,0.9996664642067675,17.431848838462376
6.88732416,0.9996632472808994,17.268034473469417
6.894366208,0.9996791137425862,17.10409228367471
6.901408256,0.9997134011361993,16.939808319107104
6.908450816,0.9997639944420685,16.774944152909363
6.915492864,0.9998281387467955,16.60929499358576
6.922535424,0.9999021902070501,16.442666505024025
6.929577472,0.9999820542914816,16.275021430532618
6.93661952,1.0000631589721054,16.10624784931121
6.94366208,1.0001411201034867,15.936350597009275
6.950704128,1.0002112433211179,15.765469523720183
6.957746688,1.0002698233812735,15.593721323731613
6.964788736,1.0003135014952373,15.421207071647471
6.971830784,1.0003397727365635,15.24826119357538
6.978873344,1.0003471244498574,15.075035438214393
6.985915392,1.0003352342985175,14.901850797118138
6.992957952,1.000304664042152,14.728953664841148
7.0,1.0002572238219778,14.55659268235274
7.007042048,1.0001954174059517,14.384937254014883
7.014084608,1.0001229215964327,14.214195682940066
7.021126656,1.0000435645726422,14.044496939519899
7.028169216,0.9999619966839915,13.875913225822726
7.035211264,0.9998827897511667,13.70840398586091
7.042253312,0.999810168704695,13.541919993874252
7.049295872,0.9997485892328192,13.376364452132487
7.05633792,0.9997012655663733,13.211559587472747
7.06338048,0.9996709473060026,13.047266223652045
7.070422528,0.9996594018967966,12.88324907406546
7.077464576,0.9996672725241521,12.71924012575188
7.084507136,0.9996940058653568,12.554979895366644
7.091549184,0.9997382805667131,12.390281002127448
7.098591744,0.9997975376760141,12.224843535972418
7.105633792,0.9998684302709269,12.058497776346654
7.11267584,0.9999470057158175,11.891129329411381
7.1197184,1.000028932068221,11.722660881769414
7.126760448,1.0001093956429843,11.55305987476737
7.133803008,1.0001839673046835,11.382397553012586
7.140845056,1.0002485383793807,11.210803495435808
7.147887104,1.0002993618315197,11.038375633290563
7.154929664,1.0003336637731086,10.865360770518816
7.161971712,1.000349398190406,10.692019527989864
7.169014272,1.0003456845001342,10.518576321624849
7.17605632,1.000322817658687,10.345296778238263
7.183098368,1.0002820293314145,10.172454745978477
7.190140928,1.000225424024015,10.000254061700867
7.197182976,1.0001564414480626,9.828895980014181
7.204225536,1.0000788889424332,9.658559479903747
7.211267584,0.9999969841166292,9.489310338747696
7.218309632,0.9999154288483885,9.321158976346965
7.225352192,0.9998388548928823,9.154094595974765
7.23239424,0.9997715373492808,8.988022873579192
7.2394368,0.9997171610927605,8.822716004914382
7.246478848,0.9996789620848922,8.658102350272003
7.253520896,0.9996590289527161,8.493851167722697
7.260563456,0.9996584790084534,8.32974534756288
7.267605504,0.9996774110442033,8.165504775967644
7.274648064,0.9997147765385497,8.000873804098344
7.281690112,0.9997683758050052,7.835621169988612
7.28873216,0.9998354210213267,7.669525184638769
7.29577472,0.9999118748941774,7.502426438886086
7.302816768,0.9999935886720429,7.334258657346223
7.309859328,1.0000759806948512,7.164967629238734
7.316901376,1.0001543204138506,6.994560797605502
7.323943424,1.0002243959571597,6.823147064885251
7.330985984,1.0002819433399148,6.6508174755778695
7.338028032,1.000323977133952,6.477830227746521
7.345070592,1.0003481795605176,6.304380479240768
7.35211264,1.0003528452948867,6.1307228796948054
7.359154688,1.0003380109618334,5.957077347628483
7.366197248,1.0003043749247178,5.783827845835797
7.373239296,1.0002537470442163,5.611112031822729
7.380281856,1.0001891031506505,5.439176003788152
7.387323904,1.0001139968959494,5.2681759983194
7.394365952,1.0000326594422368,5.098227342916396
7.401408512,0.9999497452410674,4.929427310922096
7.40845056,0.9998697465905817,4.7617370137832955
7.41549312,0.9997972327960547,4.595083892590678
7.422535168,0.9997363144552074,4.429312744828402
7.429577216,0.999690527289383,4.264309620397604
7.436619776,0.9996622278101907,4.099765301660572
7.443661824,0.9996531795405809,3.9354726843472787
7.450704384,0.9996640102650103,3.7711883179218177
7.457746432,0.9996938567804007,3.6066259703045738
7.46478848,0.9997413060685183,3.4414883783149266
7.47183104,0.9998034930904864,3.2756363670524395
7.478873088,0.9998769866766036,3.10880443836231
7.485915648,0.9999577683065375,2.9409399010096102
7.492957696,1.0000412054639733,2.7719523694253057
7.500000256,1.0001226793329256,2.601815431208793
7.507042304,1.0001974173372534,2.4306047431717315
7.514084352,1.0002614281728568,2.2584223835859625
7.521126912,1.0003109605743405,2.085496388595686
7.52816896,1.0003432953149949,1.9119609439633791
7.53521152,1.0003564979476078,1.7381331656991537
7.542253568,1.000350073468542,1.5642388536131207
7.549295616,1.0003241552946203,1.3905542487171856
7.556338176,1.0002799972506606,1.2173224803587848
7.563380224,1.000220538781857,1.0448164494628849
7.570422784,1.0001488056037893,0.8731817621131446
7.577464832,1.000068809798242,0.7025839403071539
7.58450688,0.9999851700644831,0.5331004964053743
7.59154944,0.9999025431361493,0.36475730678899226
7.598591488,0.9998255754957153,0.19748672181458013
7.605634048,0.9997585706985719,0.03121012855778991
7.612676096,0.9997054383415547,-0.13430013750028263
7.619718144,0.9996689913375949,-0.2991469248462027
7.626760704,0.9996515009377007,-0.4636629619404453
7.633802752,0.99965373222031,-0.6280542063390028
7.640845312,0.9996756813802457,-0.7926235530360066
7.64788736,0.9997162033906558,-0.9576374761901535
7.654929408,0.9997729344448938,-1.1233003912278383
7.661971968,0.9998427886129083,-1.2898448041021284
7.669014016,0.9999217364429437,-1.457419286080679
7.676056576,1.0000054042094888,-1.6261378615635074
7.683098624,1.000089021721485,-1.7960010088340224
7.690140672,1.0001679649720396,-1.9669551981043878
7.697183232,1.000237720511318,-2.1389520376133895
7.70422528,1.0002944539307468,-2.311822723437233
7.71126784,1.0003348503710223,-2.4853460655849045
7.718309888,1.0003566494423282,-2.6593371361344
7.725351936,1.0003587528436668,-2.833484311967914
7.732394496,1.0003408025337066,-3.007511119860788
7.739436544,1.0003040088367774,-3.1812197030789457
7.746479104,1.0002502574189203,-3.3542964557103967
7.753521152,1.0001826496400803,-3.5265639874092307
7.7605632,1.0001049373897932,-3.697817406962747
7.76760576,1.0000215014296125,-3.867962645582595
7.774647808,0.9999371116467142,-4.0369913885770785
7.781690368,0.9998562891587429,-4.2049318041604
7.788732416,0.9997838916924983,-4.37178741410395
7.795774464,0.9997237422105296,-4.537759812240513
7.802817024,0.9996793389421945,-4.703000988267494
7.809859072,0.9996533058883292,-4.867775661723497
7.816901632,0.9996468230680774,-5.032345424225586
7.82394368,0.9996605322574152,-5.196937738968528
7.830985728,0.9996936348606776,-5.361895276594002
7.838028288,0.9997442089172278,-5.527421916471766
7.845070336,0.9998095050501988,-5.693739284655758
7.852112896,0.9998858409655227,-5.861025853523668
7.859154944,0.9999688560804292,-6.029431609888454
7.866196992,1.000053856751132,-6.198979880500672
7.873239552,1.0001361714525672,-6.369705260581242
7.8802816,1.0002110804579432,-6.5414973253007735
7.88732416,1.000274497476424,-6.714246756709195
7.894366208,1.000322728584642,-6.88775922642727
7.901408256,1.0003532049732062,-7.061799166913987
7.908450816,1.0003638395185839,-7.236183264412828
7.915492864,1.000354469779163,-7.410536095181917
7.922535424,1.0003252526267719,-7.584654539187438
7.929577472,1.000278026605766,-7.758251650847093
7.93661952,1.0002153788621206,-7.931124848842638
7.94366208,1.000140803607449,-8.10306445839133
7.950704128,1.0000584639769383,-8.273925624752227
7.957746688,0.9999729893713352,-8.443658990853386
7.964788736,0.9998891821655624,-8.61223541145364
7.971830784,0.9998118722117083,-8.779701639465793
7.978873344,0.999745300499843,-8.946190443668364
7.985915392,0.9996932468688674,-9.11189424899337
7.992957952,0.9996586427560427,-9.277030382956415
8.0,0.9996435116109234,-9.441777478247154
8.007042048,0.9996486280753236,-9.606491648771128
8.014084608,0.9996737796577134,-9.771437545805037
8.021126656,0.9997176076561877,-9.936863351234566
8.028169216,0.9997775208317318,-10.102955707622279
8.035211264,0.9998503637245942,-10.269980318047152
8.042253312,0.9999317737964762,-10.438094919867343
8.049295872,1.0000174486010975,-10.607338232044699
8.05633792,1.0001024289051772,-10.777770455481678
8.06338048,1.0001818679043277,-10.949304567944392
8.070422528,1.0002514338117665,-11.121905803592435
8.077464576,1.0003071720037182,-11.295356214202702
8.084507136,1.0003458511940044,-11.469451865565407
8.091549184,1.0003654315049684,-11.643979261298606
8.098591744,1.00036464814842,-11.818651202003364
8.105633792,1.0003436379229051,-11.993165363629274
8.11267584,1.0003034982605534,-12.167265135348888
8.1197184,1.0002465111025447,-12.340714215981402
8.126760448,1.000175916001867,-12.513298492756924
8.133803008,1.0000954824383734,-12.684870164530693
8.140845056,1.0000099647734713,-12.8553188245252
8.147887104,0.9999239724293307,-13.024576132977623
8.154929664,0.9998425296805552,-13.192705111451838
8.161971712,0.9997699662006372,-13.359801353691022
8.169014272,0.9997106789021389,-13.52598328197921
8.17605632,0.9996678392497027,-13.691505203387655
8.183098368,0.9996438191256144,-13.856535545092628
8.190140928,0.9996402223183863,-14.021381224633528
8.197182976,0.9996570417255966,-14.18634504676502
8.204225536,0.9996934641663889,-14.351686973307295
8.211267584,0.99974727160261,-14.517630851808422
8.218309632,0.9998156335739313,-14.684432993739618
8.225352192,0.9998948156862665,-14.852251194452357
8.23239424,0.999980067450031,-15.02117961053839
8.2394368,1.000066732583225,-15.191317978931774
8.246478848,1.0001501641378447,-15.362611831674565
8.253520896,1.0002253032177353,-15.535016380394131
8.260563456,1.0002881064344311,-15.708371101117965
8.267605504,1.000334997613207,-15.88245704219444
8.274648064,1.0003632240383888,-16.057119945284818
8.281690112,1.000371405729153,-16.231995711184005
8.28873216,1.0003589813468552,-16.406871648015684
8.29577472,1.0003265452386072,-16.581443724949864
8.302816768,1.0002759029674662,-16.755472770017114
8.309859328,1.0002100591025314,-16.92868394289042
8.316901376,1.000132485345235,-17.100944509297815
8.323943424,1.0000477737217055,-17.272123765489063
8.330985984,0.9999603576319384,-17.442086505514336
8.338028032,0.9998754745494157,-17.61091218146687
8.345070592,0.9997977700518942,-17.778612539800516
8.35211264,0.999731588848125,-17.94534187990694
8.359154688,0.9996806829199176,-18.111284930648136
8.366197248,0.999647859800608,-18.276682166952963
8.373239296,0.9996352507820678,-18.441744712937584
8.380281856,0.9996433957742814,-18.606778742219063
8.387323904,0.999671748226797,-18.77209800545678
8.394365952,0.9997190343292047,-18.93789487563948
8.401408512,0.9997823114041922,-19.104486790985273
8.40845056,0.999857990443972,-19.27202456264866
8.41549312,0.9999421610282344,-19.44067572508023
8.422535168,1.0000298295301497,-19.610511781676863
8.429577216,1.0001160899531478,-19.78152813964328
8.436619776,1.0001961897993756,-19.953707730580607
8.443661824,1.0002656740081184,-20.126905116479495
8.450704384,1.0003202666590212,-20.3009809593945
8.457746432,1.0003572802724385,-20.47568611409022
8.46478848,1.000374549512012,-20.650773818917873
8.47183104,1.000370789660191,-20.825947541671297
8.478873088,1.0003467565946726,-21.00094951844213
8.485915648,1.000303183998936,-21.17551701445316
8.492957696,1.0002429206595733,-21.349367384044264
8.499999744,1.000168968605864,-21.522302775851973
8.507042304,1.0000858572482225,-21.694192063061266
8.514084352,0.9999979783017882,-21.864921784303572
8.521126912,0.9999106554452575,-22.034419516243208
8.52816896,0.9998281610714332,-22.20281600911113
8.53521152,0.9997556744467464,-22.37013713633415
8.542253568,0.9996971345679541,-22.53657180512759
8.549295616,0.9996559751572943,-22.70233793574255
8.556338176,0.9996341399158517,-22.86766238417571
8.563380224,0.9996333259508186,-23.032844728747968
8.570422784,0.9996531862691098,-23.198153372963098
8.577464832,0.9996928681728842,-23.363911729635536
8.58450688,0.9997503197423899,-23.530311336796235
8.59154944,0.999821947741192,-23.69756800130201
8.598591488,0.9999039487035171,-23.865951129129456
8.605633536,0.9999917050947822,-24.03547811466427
8.612675584,1.0000800990316396,-24.2062049750528
8.619718656,1.0001644017195257,-24.378147751388703
8.626760704,1.0002398108332455,-24.5511927323108
8.633802752,1.00030200195789,-24.725145057067323
8.6408448,1.0003476272607454,-24.8998575145483
8.647886848,1.0003737200132192,-25.07509895003639
8.65492992,1.000379213440869,-25.250565105919726
8.661971968,1.0003637459396937,-25.42595801422823
8.669014016,1.0003278450822815,-25.600999207400633
8.676056064,1.0002738825548123,-25.77547083497862
8.683098112,1.000204582356224,-25.949083275275612
8.690141184,1.0001240257955606,-26.12169512350482
8.697183232,1.0000365836664733,-26.293168190882554
8.70422528,0.9999472760459597,-26.463423826646505
8.711267328,0.9998611900206845,-26.632503568768392
8.718309376,0.9997830230359734,-26.800453205302304
8.725352448,0.9997172856541635,-26.967443772784723
8.732394496,0.9996676257340352,-27.133610241058317
8.739436544,0.9996368568258043,-27.29927989066474
8.746478592,0.9996267271372145,-27.464682946922753
8.75352064,0.9996378027994222,-27.63003911236092
8.760563712,0.9996695535889708,-27.795758596897844
8.76760576,0.9997203073622591,-27.962002967902105
8.774647808,0.9997868962564495,-28.12908240216765
8.781689856,0.9998658780562559,-28.29717211083847
8.788731904,0.9999527240153088,-28.46637372788327
8.795774976,1.0000424240694985,-28.63681740356166
8.802817024,1.0001303104649504,-28.808470926814515
8.809859072,1.0002110099986548,-28.981296365451993
8.81690112,1.0002801781079653,-29.155134661782753
8.823943168,1.000333886842864,-29.32984093797736
8.83098624,1.00036913102054,-29.505175641805497
8.838028288,1.0003838678268113,-29.68084481388646
