freq,mag,phase
6.0,1.000720735884897,92.09926767867476
6.002287104,1.0005689786807332,91.93132371986334
6.004574208,1.0003812570987212,91.76584689907172
6.006861312,1.000169711262133,91.60329697044394
6.009147904,0.9999476598966219,91.44389943777392
6.011435008,0.9997292711143632,91.2877146828118
6.013722112,0.999528045959684,91.13461428090247
6.016009216,0.9993569673437067,90.98422957289323
6.01829632,0.9992267389106025,90.83608059685652
6.020583424,0.9991456690542418,90.68948131569645
6.022870016,0.9991189015093597,90.54366949730161
6.02515712,0.9991481415839845,90.39788262332534
6.027444224,0.9992315906471995,90.25128600343403
6.029731328,0.9993640286789605,90.1031513475809
6.032018432,0.9995369126901044,89.95282499043373
6.034305536,0.9997394924158569,89.79978279116139
6.036592128,0.9999589552372422,89.64369949483898
6.038879232,1.0001813983734733,89.48442761309954
6.041166336,1.000392733113405,89.32203383256994
6.04345344,1.000579831167135,89.15676810877206
6.045740544,1.0007305889191596,88.98908404705698
6.048027648,1.0008357531858922,88.8195457851482
6.05031424,1.0008886177083143,88.64890774703342
6.052601344,1.0008856666563604,88.47790009924711
6.054888448,1.0008271076106272,88.30736198484966
6.057175552,1.0007169405836316,88.13807329279395
6.059462656,1.0005615756578967,87.97070713065058
6.06174976,1.0003711474571724,87.80587537309825
6.064036352,1.0001575515420302,87.64398711486123
6.066323456,0.9999341722657997,87.4852877378251
6.06861056,0.9997152557436687,87.32980395666023
6.070897664,0.9995144608157974,87.17742639115232
6.073184768,0.9993446436423563,87.02772067230154
6.075471872,0.999216513482524,86.88022367221792
6.077758464,0.9991381797736191,86.73424082053658
6.080045568,0.9991146484839504,86.58903104296624
6.082332672,0.9991473448468102,86.44375678692758
6.084619776,0.9992342906954488,86.29766069456036
6.08690688,0.999370048736431,86.14994407507326
6.089193984,0.9995459594331638,85.99997236002103
6.091481088,0.9997510017199774,85.84727445897843
6.09376768,0.9999720508377798,85.69150042117722
6.096054784,1.0001954569645297,85.53251430892803
6.098341888,1.0004068598305034,85.37040404576808
6.100628992,1.0005929759929735,85.20540594075194
6.102916096,1.0007420322329983,85.03802686760481
6.1052032,1.0008447278742636,84.86880463657471
6.107489792,1.000894430702411,84.69851381047984
6.109776896,1.0008882336006377,84.52792709395625
6.112064,1.0008261902668134,84.35784421924396
6.114351104,1.0007123556927047,84.18904490661889
6.116638208,1.0005538562785377,84.02224804183264
6.118925312,1.000360696318058,83.85800462193943
6.121211904,1.000145004223315,83.69674224398102
6.123499008,0.9999203254403268,83.53868698654138
6.125786112,0.9997009586359775,83.38386224189398
6.128073216,0.9995007561865774,83.23211240812492
6.13036032,0.9993322910179729,83.08306142866047
6.132647424,0.9992062634450841,82.93618598014778
6.134934016,0.9991307071799581,82.7907790248815
6.13722112,0.9991103750128609,82.6460774651539
6.139508224,0.9991466898685866,82.50128586780848
6.141795328,0.9992371897042096,82.35560889882672
6.144082432,0.9993763762712825,82.20827190236567
6.146369536,0.9995552179762569,82.05862364671667
6.148656128,0.9997627493693487,81.9062072930398
6.150943232,0.999985532826103,81.75069322513542
6.153230336,1.0002096669211649,81.59192842678549
6.15551744,1.0004209813381255,81.43002899489683
6.157804544,1.0006060591498251,81.26526531054812
6.160091648,1.000753434231885,81.09811643188492
6.162378752,1.0008535945660566,80.9291846835985
6.164665344,1.0009002569222722,80.75920344900605
6.166952448,1.000890443176604,80.58897984151308
6.169239552,1.0008248401184043,80.4192891838229
6.171526656,1.0007074807005496,80.25094725034204
6.17381376,1.0005457028096079,80.08464605374823
6.176100864,1.0003498797547077,79.92093811732424
6.178387456,1.000132053223837,79.76026252889554
6.18067456,0.9999061567063711,79.60281086726681
6.182961664,0.9996863970069941,79.44859788060462
6.185248768,0.9994867099350409,79.29747382080078
6.187535872,0.9993196492579965,79.14901357933364
6.189822976,0.9991959044575026,79.00267532414563
6.192109568,0.9991232482618253,78.85779375363802
6.194396672,0.999106289368069,78.71356880607084
6.196683776,0.9991461497485395,78.56921475983371
6.19897088,0.9992403754953804,78.42389690690152
6.201257984,0.9993829195374742,78.2768721031531
6.203545088,0.9995648826138975,78.12749548531693
6.20583168,0.9997748444589594,77.9753046879956
6.208118784,0.9999992391971919,77.8199563446519
6.210405888,1.000224165822895,77.66138239589057
6.212692992,1.0004354056071916,77.49964151317826
6.214980096,1.000619502673208,77.33505499959321
6.2172672,1.0007649041346225,77.16810269178782
6.219553792,1.000862438086427,76.99938564144227
6.221840896,1.0009059647297742,76.82966972996525
6.224128,1.000892669080927,76.65973266241448
6.226415104,1.0008233012839507,76.49041098634152
6.228702208,1.0007023285236614,76.32247777287569
6.230989312,1.0005374008168455,76.1566462798874
6.233275904,1.0003386826269225,75.99343459725672
6.235563008,1.00011881570058,75.83327193666263
6.237850112,0.999891765018365,75.67636499929313
6.240137216,0.9996716994365434,75.52274099300041
6.24242432,0.9994725672373744,75.37216068049229
6.244711424,0.9993070798956876,75.22423111985634
6.246998528,0.9991856122363599,75.07840911076377
6.24928512,0.9991159260286342,74.93399895984258
6.251572224,0.9991023849114212,74.79021850317056
6.253859328,0.9991459241284054,74.64620682983791
6.256146432,0.9992438233974228,74.50121341531751
6.258433536,0.9993898495897224,74.35443521477771
6.26072064,0.9995748323790794,74.20527736114082
6.263007232,0.999787136998151,74.05324740960964
6.265294336,1.0000132295288273,73.89804642351122
6.26758144,1.0002389514519183,73.7395765047065
6.269868544,1.000449912742228,73.57795060826159
6.272155648,1.0006330140142787,73.4134757945818
6.274442752,1.0007764346385417,73.24665799836025
6.276729344,1.0008712510781481,73.07811066503233
6.279016448,1.0009115011441694,72.90860888349367
6.281303552,1.000894562404923,72.73893356126267
6.283590656,1.000821542054272,72.56992829307616
6.28587776,1.000696932179308,72.40235924167754
6.288164864,1.0005286390752226,72.2369059794802
6.290451456,1.000327123767751,72.07416606678424
6.29273856,1.000105401365079,71.91449677709831
6.295025664,0.9998770650530352,71.7581094532508
6.297312768,0.9996567004166776,71.6049613905033
6.299599872,0.9994583585457036,71.45489833433516
6.301886976,0.9992944086428406,71.30746841982601
6.304173568,0.9991753728939009,71.16210728578224
6.306460672,0.9991087199390993,71.01809967848534
6.308747776,0.999098644997969,70.874691730923
6.31103488,0.9991459761025078,70.73100179956211
6.313321984,0.9992475590759651,70.58624646704631
6.315609088,0.9993971585466696,70.43969148233496
6.317896192,0.9995852693287234,70.29067867651574
6.320182784,0.9997998725166863,70.13876293428548
6.322469888,1.0000276283768055,69.98364487591572
6.324756992,1.0002540090714005,69.82523279390158
6.327044096,1.0004647856324806,69.66365905116184
6.3293312,1.0006466164850785,69.49925880533243
6.331618304,1.0007880938078397,69.33251919755823
6.333904896,1.0008800876517578,69.1640800079993
6.336192,1.0009170651571828,68.99474178375421
6.338479104,1.0008963771958848,68.8252750689236
6.340766208,1.0008195404892446,68.65652698302043
6.343053312,1.0006913071349255,68.4892598242609
6.345340416,1.0005197014586897,68.32418936494611
6.347627008,1.0003154846376214,68.16183721731213
6.349914112,1.0000916728818237,68.00259971760985
6.352201216,0.999862143519384,67.84666073042185
6.35448832,0.9996416102532325,67.6940027794773
6.356775424,0.9994440156746242,67.54438625410809
6.359062528,0.9992816855592518,67.3973915738868
6.36134912,0.9991650844144123,67.25243855794594
6.363636224,0.999101497289194,67.10881896686436
6.365923328,0.9990950049676518,66.96570979593895
6.368210432,0.9991461401103384,66.82228126128828
6.370497536,0.9992515701857354,66.67773703626445
6.37278464,0.9994046624837102,66.53132229754284
6.375071232,0.9995958557600393,66.38239998143413
6.377358336,0.9998129516709205,66.23053485282618
6.37964544,1.000042160820278,66.07543472531684
6.381932544,1.000269303526324,65.91702510924111
6.384219648,1.0004796725712464,65.75545907514518
6.386506752,1.000660323411376,65.59107592567271
6.388793344,1.0007995718803313,65.424360268291
6.391080448,1.0008888808564185,65.25600495308242
6.393367552,1.0009223757873604,65.08675567271412
6.395654656,1.0008979931277082,64.91745608460289
6.39794176,1.000817309241771,64.74892502915185
6.400228864,1.0006853368492798,64.58192983801545
6.402515968,1.0005103706407614,64.41715467571288
6.40480256,1.0003034165414384,64.25516423741043
6.407089664,1.0000775940548898,64.09630854369216
6.409376768,0.999846990211627,63.940787425302425
6.411663872,0.9996263394735931,63.78853014801533
6.413950976,0.9994294166121275,63.63931927424501
6.41623808,0.9992688817257376,63.49271143339345
6.418524672,0.9991548336858136,63.34812303476449
6.420811776,0.9990944528029677,63.204811347418236
6.42309888,0.9990916495663816,63.06196102920939
6.425385984,0.9991465891442122,62.91874454182278
6.427673088,0.9992558622113341,62.77434597992163
6.429960192,0.999412471300958,62.62801235182661
6.432246784,0.99960672217073,62.479158990651115
6.434533888,0.9998261542143093,62.32727571794628
6.436820992,1.0000570749427111,62.17212959981869
6.439108096,1.000284652966005,62.01368103601683
6.4413952,1.000494754773017,61.85207597132261
6.443682304,1.0006741235580439,61.68762175726122
6.445968896,1.0008111958486638,61.52088979732153
6.448256,1.0008975539593468,61.35254268722503
6.450543104,1.000927558169311,61.183365201566964
6.452830208,1.0008994211822406,61.01417344028597
6.455117312,1.000814862998644,60.84580397476973
6.457404416,1.000679144200298,60.67900895971793
6.459691008,1.0005008725980908,60.51450928537478
6.461978112,1.0002911683118296,60.352834407475605
6.464265216,1.0000632732645394,60.19431360263168
6.46655232,0.9998316834999004,60.03914140872935
6.468839424,0.9996108616869531,59.88724322544416
6.471126528,0.9994148461500648,59.738393822804746
6.473413632,0.99925608933572,59.59213065624506
6.475700224,0.9991445390759821,59.44784642935352
6.477987328,0.9990874431802966,59.30479540878565
6.480274432,0.9990882646741154,59.16214510137611
6.482561536,0.9991470358739424,59.01908117593516
6.48484864,0.9992602439781637,58.87476964860907
6.487135744,0.9994204879139109,58.728486474303146
6.489422336,0.9996177686075484,58.57959670929545
6.49170944,0.9998396267223706,58.427662162224834
6.493996544,1.0000719991346485,58.272446821521086
6.496283648,1.0003002150570597,58.113883734309425
6.498570752,1.000509870945008,57.9521509440506
6.500857856,1.0006878204991807,57.78762018322006
6.503144448,1.0008227202553275,57.62082253760311
6.505431552,1.0009059859518015,57.45242964899179
6.507718656,1.0009325969539324,57.283262855226624
6.51000576,1.000900629054708,57.11411423514723
6.512292864,1.0008120915319054,56.9458580531814
6.514579968,1.0006726621957656,56.77924556327794
6.51686656,1.0004909494476175,56.61495695735128
6.519153664,1.0002784950273258,56.45352536871454
6.521440768,1.0000486919209914,56.29528793896805
6.523727872,0.9998160409355473,56.14043027468494
6.526014976,0.9995951104472061,55.98887077298133
6.52830208,0.9994000765775161,55.84033453826136
6.530588672,0.9992431298683775,55.6943505213115
6.532875776,0.9991343337864272,55.55032535523397
6.53516288,0.9990804777336874,55.40747047829534
6.537449984,0.9990851448879645,55.264971577951
6.539737088,0.9991478864689142,55.12199515888046
6.542024192,0.999264919300531,54.977730624880515
6.544310784,0.9994287310306033,54.83141420773954
6.546597888,0.9996290867243729,54.68245132185889
6.548884992,0.9998533069552564,54.53041873222145
6.551172096,1.000087119486787,54.37504410249428
6.5534592,1.0003159195446298,54.21632910991977
6.555746304,1.0005251131125619,54.05443465124919
6.558033408,1.0007016296849633,53.889749341729825
6.56032,1.0008341823143587,53.72281906420301
6.562607104,1.0009145107087263,53.554351797496004
6.564894208,1.0009374348360305,53.38512673906702
6.567181312,1.0009015838643016,53.215991077396694
6.569468416,1.000809152120948,53.04780707912661
6.57175552,1.000665944019335,52.881299352117715
6.574042112,1.00048081259699,52.71718220256658
6.576329216,1.0002657030228805,52.55595752533042
6.57861632,1.0000339328149146,52.39797656425304
6.580903424,0.9998003140103038,52.243362074475044
6.583190528,0.9995793540125978,52.09207316359172
6.585477632,0.999385301294463,51.943787511628315
6.587764224,0.9992302376365442,51.798055120280935
6.590051328,0.9991241968688077,51.6541959820167
6.592338432,0.9990737520303182,51.511502637919506
6.594625536,0.9990821199594683,51.369115632915836
6.59691264,0.9991488897317917,51.22617412709506
6.599199744,0.9992697383772702,51.08188839638794
6.601486336,0.9994372615265026,50.93548859006637
6.60377344,0.9996406712235112,50.78641140657935
6.606060544,0.9998671985113213,50.634201826223745
6.608347648,1.0001025413622002,50.478639654387464
6.610634752,1.0003317338880826,50.319706044834916
6.612921856,1.0005404638507984,50.157589710416694
6.615208448,1.0007154759494328,49.99270870009674
6.617495552,1.0008456212342152,49.82560368272254
6.619782656,1.0009228975485425,49.65698292755668
6.62206976,1.0009422196122542,49.487684730449004
6.624356864,1.000902511055996,49.31851086780365
6.626643968,1.0008060266567125,49.150322874839226
6.628931072,1.0006590426353077,48.98389504036175
6.631217664,1.0004706095207594,48.81987704235457
6.633504768,1.0002527549908768,48.65883201532279
6.635791872,1.0000191168809662,48.50104050030964
6.638078976,0.999784475874367,48.34663359688165
6.64036608,0.9995636224358951,48.19556069226299
6.642653184,0.9993705529530711,48.04749457474695
6.644939776,0.9992174822875484,47.90193242511827
6.64722688,0.999114182664389,47.75821784583039
6.649513984,0.9990671053921347,47.61561639904962
6.651801088,0.9990793624587632,47.47326995219023
6.654088192,0.9991501776828269,47.33033631903709
6.656375296,0.9992749893417252,47.1859552453106
6.658661888,0.9994461229301282,47.039435715869175
6.660948992,0.9996525417395631,46.89017197739634
6.663236096,0.9998813920933932,46.737720364508355
6.6655232,1.0001181146973945,46.58192285619491
6.667810304,1.0003478533282493,46.42270728200806
6.670097408,1.0005559052122994,46.26032487261014
6.672384,1.0007293970229567,46.095185935227576
6.674671104,1.0008571148072207,45.92786345151572
6.676958208,1.0009312624431852,45.75906155182972
6.679245312,1.0009469547663534,45.58959226634013
6.681532416,1.0009032365814474,45.42035140841434
6.68381952,1.0008027907107049,45.252110203443166
6.686106112,1.0006519340011102,45.08570466305976
6.688393216,1.0004601895575125,44.92177353727974
6.69068032,1.0002396198898424,44.760830833167965
6.692967424,1.000004073275459,44.60317801475817
6.695254528,0.9997685180753693,44.4489358920964
6.697541632,0.9995477044574823,44.29801244945132
6.699828224,0.9993557944243993,44.15009676567716
6.702115328,0.9992048029846032,44.00467568754369
6.704402432,0.9991042502270645,43.86106285946714
6.706689536,0.9990606507310222,43.71849769426915
6.70897664,0.9990768076182964,43.576149665125804
6.711263744,0.9991516921029064,43.43313276132179
6.713550848,0.9992804318221421,43.288631311548684
6.71583744,0.9994551759857748,43.14191126305671
6.718124544,0.9996646040748974,42.99240902701448
6.720411648,0.9998957265548349,42.83969638767553
6.722698752,1.0001337892371356,42.68357530546704
6.724985856,1.0003639674152827,42.52405356440128
6.72727296,1.0005714324414943,42.36135634351312
6.729559552,1.0007432649538386,42.195892381959915
6.731846656,1.0008686438277226,42.02827029772697
6.73413376,1.0009395280315603,41.85923482578781
6.736420864,1.0009514916140627,41.68959731575809
6.738707968,1.000903774779863,41.520171794665245
6.740995072,1.000799298384102,41.351877800281706
6.743281664,1.000644576953004,41.1854342678324
6.745568768,1.0004495688301296,41.02153136800323
6.747855872,1.0002262896747907,40.86063646578849
6.750142976,0.99998892105922,40.70308771272309
6.75243008,0.9997524716484882,40.54895592180296
6.754717184,0.9995318861144268,40.39815394305688
6.757003776,0.9993410074693572,40.250331405997066
6.75929088,0.9991920642637309,40.10497231990649
6.761577984,0.9990944462343255,39.96141388016861
6.763865088,0.9990543440743974,39.818849621444706
6.766152192,0.9990744078729016,39.67642490208438
6.768439296,0.9991532485944736,39.53328541857834
6.770725888,0.999286009712877,39.38858768882439
6.773012992,0.9994642733750069,39.24164693045035
6.775300096,0.9996768445782492,39.09183490465524
6.7775872,0.9999101896839999,38.938794171566805
6.779874304,1.0001495829526335,38.782314497316214
6.782161408,1.0003800871922284,38.622420355081665
6.784448512,1.000586935825652,38.459341260135034
6.786735104,1.0007571243050228,38.29353687492968
6.789022208,1.0008799244436797,38.12558531019794
6.791309312,1.0009475877803766,37.95625578055464
6.793596416,1.0009558080567238,37.78635452699225
6.79588352,1.0009040141262744,37.61676208207324
6.798170624,1.000795546300881,37.4483338426125
6.800457216,1.0006371527518105,37.28181470410197
6.80274432,1.0004387377452524,37.117871657688234
6.805031424,1.000212799673975,36.95698932992449
6.807318528,0.999973646989753,36.79948198626238
6.809605632,0.9997363646182875,36.645416999056096
6.811892736,0.9995158793277817,36.49466967107288
6.814179328,0.9993262220387471,36.34689602368301
6.816466432,0.9991794602648619,36.20156563894377
6.818753536,0.9990847991108759,36.05799056747382
6.82104064,0.9990481814286397,35.91537067683865
6.823327744,0.9990720969537363,35.77282141325026
6.825614848,0.9991550700456627,35.62951128216058
6.82790144,0.9992917890193818,35.48458236911731
6.830188544,0.999473657746654,35.337339515166406
6.832475648,0.9996892483111994,35.18718655073795
6.834762752,0.9999248171339907,35.033756884393554
6.837049856,1.0001655711288848,34.876846125531465
6.83933696,1.0003962914415088,34.716513128905255
6.841623552,1.0006024318013906,34.5530370993422
6.843910656,1.0007709459700382,34.38680420162359
6.84619776,1.0008911771619693,34.21848302033017
6.848484864,1.000955583815944,34.048814104923906
6.850771968,1.0009599981555906,33.87863077089312
6.853059072,1.0009042268159258,33.708793328819226
6.855345664,1.0007916641070986,33.54016647858503
6.857632768,1.0006294189283864,33.37351596961191
6.859919872,1.0004276704572104,33.20948425543654
6.862206976,1.0001991123207945,33.048578480711534
6.86449408,0.9999581916002835,32.89106363185595
6.866781184,0.9997201333701707,32.73700969448151
6.869068288,0.9994998368735063,32.586277000860214
6.87135488,0.9993114354615531,32.43849662810341
6.873641984,0.99916679287009,32.293145748270476
6.875929088,0.9990750399689318,32.14950695900611
6.878216192,0.9990420834198416,32.00676592194465
6.880503296,0.9990699401012169,31.8640498066151
6.8827904,0.9991570088798417,31.72048806387732
6.885076992,0.9992976841994796,31.575272068142006
6.887364096,0.9994831367613387,31.42768087690079
6.8896512,0.9997017534986843,31.277135041955322
6.891938304,0.9999394297237482,31.123251050193875
6.894225408,1.0001814899584944,30.965906773068962
6.896512512,1.0004124910309096,30.805093828217615
6.898799104,1.0006178398448058,30.641122273993506
6.901086208,1.0007846595028462,30.474430177225983
6.903373312,1.0009022253227988,30.305671588784016
6.905660416,1.0009633840760324,30.13560591583119
6.90794752,1.0009640761990284,29.96507060875972
6.910234624,1.0009041843259208,29.79494783137777
6.912521216,1.0007876048916806,29.626100909399785
6.91480832,1.0006215766243893,29.45927478519329
6.917095424,1.0004164906784472,29.295118067888748
6.919382528,1.0001853605827,29.134135153206934
6.921669632,0.9999426830935622,28.97655180285607
6.923956736,0.9997037923660745,28.822474739136265
6.926243328,0.9994838548102079,28.671690469824892
6.928530432,0.9992967103001519,28.523877766589287
6.930817536,0.9991542550475027,28.378437584649124
6.93310464,0.999065489253245,28.23467953708316
6.935391744,0.9990361232427186,28.091768462682786
6.937678848,0.9990679402809449,27.948818071486997
