freq,mag,phase
6.0,1.0001911020123173,108.60478483418335
6.002286592,0.9998686128364366,108.44434776302246
6.004572672,0.9995539805302159,108.28853640394028
6.006859264,0.9992677627080406,108.13715306843318
6.009145344,0.9990279130521523,107.98960860670007
6.011431936,0.9988498066884783,107.84514314051133
6.013718016,0.9987445348615577,107.70279277631194
6.016004608,0.9987191614497954,107.56138086645736
6.018290688,0.9987750104616344,107.41982325080964
6.02057728,0.9989085838110734,107.27689518824415
6.022863872,0.9991115234006438,107.13157525823291
6.025149952,0.9993710558527057,106.98288728853888
6.027436544,0.999670707507785,106.83018642297941
6.029722624,0.9999914161058396,106.67301233742506
6.032009216,1.0003130679040662,106.51115033343567
6.034295296,1.0006152480278703,106.34487171892643
6.036581888,1.0008790970538335,106.17446555259164
6.03886848,1.001087586607674,106.00067988639213
6.04115456,1.0012277851903209,105.82438049433003
6.043441152,1.0012908150865645,105.64666788107483
6.045727232,1.0012726436804178,105.46863768208203
6.048013824,1.0011745600451138,105.2914862293612
6.050299904,1.0010023976420057,105.11627878516005
6.052586496,1.0007672351253694,104.94406962087986
6.054872576,1.0004837143788494,104.77567323526107
6.057159168,1.0001698550788387,104.61155636566613
6.05944576,0.9998453174803323,104.45214385412775
6.06173184,0.9995306455857406,104.29743734109823
6.064018432,0.9992457547184336,104.14708004765308
6.066304512,0.9990088322062312,104.00056380921423
6.068591104,0.998834603895483,103.85701686750002
6.070877184,0.9987344212380805,103.71557903953004
6.073163776,0.9987144879300973,103.57499480523468
6.075450368,0.9987761971399168,103.43414286412289
6.077736448,0.9989157510337113,103.29185915652985
6.08002304,0.9991239813133216,103.14708225515007
6.08230912,0.9993881147745166,102.99889740990513
6.084595712,0.9996911289837859,102.8466085718451
6.086881792,1.0000141703379772,102.6898008565606
6.089168384,1.0003365515895954,102.52832151261384
6.091454464,1.000637964898698,102.3623612337261
6.093741056,1.0008994987746904,102.19235816729868
6.096027648,1.0011045101393974,102.01898917832175
6.098313728,1.0012401459524816,101.84319042480733
6.10060032,1.001297866822042,101.66597329545668
6.1028864,1.0012738722801189,101.4885905819281
6.105172992,1.0011697357477305,101.31213439743222
6.107459072,1.0009920299372637,101.13772046849951
6.109745664,1.0007518147595866,100.96637826801707
6.112032256,1.0004642584033139,100.79887739909374
6.114318336,1.0001475045796222,100.63578724100972
6.116604928,0.9998215974509499,100.47738998547285
6.118891008,0.9995069751813038,100.32367837028276
6.1211776,0.9992236951865949,100.17431643224998
6.12346368,0.998989520944164,100.02877867480018
6.125750272,0.9988196472139882,99.88616499060188
6.128036352,0.9987244932724325,99.74552699388951
6.130322944,0.9987103290535361,99.60574787193195
6.132609536,0.9987781753330771,99.46558731056369
6.134895616,0.998923438130696,99.32390067744916
6.137182208,0.999137202833972,99.17962972295922
6.139468288,0.9994058416428059,99.03188040442977
6.14175488,0.9997124176788548,98.87998001205189
6.14404096,1.0000374081570031,98.72348975485659
6.146327552,1.0003604770735588,98.56232145742086
6.148614144,1.0006610450834776,98.39668503033158
6.150900224,1.0009202808748636,98.22699994509664
6.153186816,1.0011215380541507,98.05399934986552
6.155472896,1.0012524643801697,97.87864587009548
6.157759488,1.0013045668480485,97.70195580901805
6.160045568,1.0012746107796489,97.5251498163757
6.16233216,1.0011644337274161,97.3493619290577
6.16461824,1.0009809636006648,97.1757241739204
6.166904832,1.0007357304263322,97.00519742466005
6.169191424,1.0004441873502135,96.83862712403081
6.171477504,1.00012452089828,96.67649687334409
6.173764096,0.9997972335519234,96.51906157440018
6.176050176,0.9994828734626386,96.36632090009047
6.178336768,0.9992012515067492,96.21795149660912
6.180622848,0.9989702292527518,96.0733236875083
6.18290944,0.9988045760167926,95.93162748264015
6.18519552,0.9987147596166284,95.79181155260085
6.187482112,0.9987065696597337,95.65271767326524
6.189768704,0.9987803281326557,95.51320285708421
6.192054784,0.9989317363729566,95.37207084359902
6.194341376,0.999151042291099,95.22825092021401
6.196627456,0.999424183366966,95.08088843310279
6.198914048,0.9997342163024809,94.92932390474814
6.201200128,1.0000613461224435,94.77313531722717
6.20348672,1.0003849355215046,94.61223828537078
6.205773312,1.0006844612456325,94.44685486614685
6.208059392,1.0009410980758846,94.27745893186037
6.210345984,1.0011386424172526,94.10480753986059
6.212632064,1.0012645460345615,93.92982797063189
6.214918656,1.0013109960078521,93.75362060183531
6.217204736,1.0012748957582798,93.57738603040116
6.219491328,1.0011585797260556,93.40222757336733
6.221777408,1.000969241012191,93.22933599505424
6.224064,1.0007188777206517,93.05963551829353
6.226350592,1.0004231764234013,92.89392168007913
6.228636672,1.0001009502373763,92.73271076811251
6.230923264,0.9997723363229878,92.57620122451112
6.233209344,0.9994581753313393,92.42445227612438
6.235495936,0.9991783048297973,92.27702146581296
6.237782016,0.9989506914200634,92.13329115493752
6.240068608,0.9987894769758645,91.9924357372586
6.2423552,0.9987051639804395,91.85336211646454
6.24464128,0.9987030280269386,91.71499651773544
6.246927872,0.9987832384423019,91.57605195600974
6.249213952,0.9989406030880214,91.43542963036549
6.251500544,0.999165352323803,91.29202716661166
6.253786624,0.9994432413117571,91.14500556096922
6.256073216,0.999756668635197,90.99370665374691
6.258359296,1.0000858038773193,90.83776012643861
6.260645888,1.000409721823883,90.67710106350184
6.26293248,1.0007082320271559,90.51193543566693
6.26521856,1.0009621726203997,90.34280567835953
6.267505152,1.001155752825576,90.17043730859147
6.269791232,1.0012766149553687,89.99581296769128
6.272077824,1.0013170758363483,89.82003846051653
6.274363904,1.001274806870065,89.64430321574756
6.276650496,1.0011522265940238,89.46979934639658
6.278937088,1.000957012757229,89.29756839700444
6.281223168,1.000701512990095,89.12865325675224
6.28350976,1.0004017865402592,88.96376934202317
6.28579584,1.0000768692774722,88.80345382630438
6.288082432,0.9997470485714914,88.64789795664568
6.290368512,0.9994333143896161,88.49703739021697
6.292655104,0.9991555360773461,88.35050416977305
6.294941184,0.9989312585989518,88.20765696453127
6.297227776,0.9987747950693723,88.06759165735554
6.299514368,0.9986960540249704,87.92927974785239
6.301800448,0.9987001029099725,87.79153508942045
6.30408704,0.9987866816934537,87.65314909358142
6.30637312,0.9989502186836106,87.51295267749869
6.308659712,0.999180570695142,87.36992734527124
6.310945792,0.9994631824882464,87.22319572285862
6.313232384,0.9997798724998472,87.07211591620722
6.315518464,1.0001108636052132,86.91635536828699
6.317805056,1.000435166473598,86.75585494909286
6.320091648,1.0007323140468787,86.59087585549733
6.322377728,1.0009835305552663,86.42194541360169
6.32466432,1.0011728699796243,86.24984068754205
6.3269504,1.0012884557744464,86.07554068580524
6.329236992,1.001323007815253,85.90018866860882
6.331523072,1.0012743030392106,85.72493425430491
6.333809664,1.0011452424021112,85.5510182966915
6.336096256,1.0009441645846653,85.3794561107315
6.338382336,1.000683492262908,85.21127697927437
6.340668928,1.0003796852779892,85.04720740594304
6.342955008,1.0000521442623334,84.887742046874
6.3452416,0.9997211559234754,84.73308678550484
6.34752768,0.9994079844644852,84.58311184890997
6.349814272,0.9991322644876827,84.43745152418549
6.352100352,0.9989116330109391,84.2953980281377
6.354386944,0.9987600330419796,84.15611611866855
6.356673536,0.9986869932579845,84.01848804289551
6.358959616,0.9986974715998959,83.88131929385521
6.361246208,0.9987904710885802,83.74343969314619
6.363532288,0.9989603358036749,83.60367928796279
6.36581888,0.9991962881149666,83.4609496933233
6.36810496,0.9994834681804152,83.31446163599469
6.370391552,0.9998035650968087,83.16356461889599
6.372678144,1.0001363467160207,83.00794378407853
6.374964224,1.0004609160021014,82.84758574660869
6.377250816,1.0007565731107269,82.68270818419826
6.379536896,1.0010048770681532,82.5139600545348
6.381823488,1.0011898486977373,82.34205523275489
6.384109568,1.0013000880279503,82.16805892694009
6.38639616,1.0013284100758102,81.99303318439392
6.38868224,1.0012732031931608,81.818265349197
6.390968832,1.001137682962022,81.64485970606
6.393255424,1.000930484329899,81.47397324531852
6.395541504,1.0006647072979038,81.30649869823228
6.397828096,1.0003570103109567,81.14323061439322
6.400114176,1.0000268294303385,80.98457449267858
6.402400768,0.9996948715049847,80.83075524460129
6.404686848,0.9993823763318866,80.681648567842
6.40697344,0.9991089934987016,80.53681072043305
6.409260032,0.9988920992546617,80.39556675593089
6.411546112,0.9987454793873638,80.25699823274492
6.413832704,0.9986784008277729,80.12000194827442
6.416118784,0.9986952055151272,79.98339042580814
6.418405376,0.9987947925260457,79.84596289997869
6.420691456,0.9989710644549142,79.70651579025784
6.422978048,0.9992126808715251,79.5640884620799
6.425264128,0.9995044021316865,79.41777553769587
6.42755072,0.9998278355172024,79.26701109696297
6.429837312,1.0001622779031378,79.11147449946318
6.432123392,1.000486912899666,78.95119334641777
6.434409984,1.0007811323351332,78.78642465506111
6.436696064,1.0010262143241828,78.61776428011079
6.438982656,1.0012066799416774,78.4460477896413
6.441268736,1.0013114030346117,78.2722955121316
6.443555328,1.0013333561643387,78.09762098327988
6.44584192,1.0012714424945113,77.92324241236545
6.448128,1.0011295354357028,77.75038049055559
6.450414592,1.0009163003084287,77.58007282700456
6.452700672,1.0006453766954153,77.41328694978354
6.454987264,1.0003336852414475,77.25075717775088
6.457273344,1.000000915103528,77.09290298763572
6.459559936,0.9996682104957838,76.93990356338061
6.461846016,0.9993564230788742,76.7916162106003
6.464132608,0.9990855279297993,76.64757095386443
6.4664192,0.9988725283833582,76.50706103078954
6.46870528,0.9987310215461427,76.36918091856157
6.470991872,0.9986700542167015,76.23276941902026
6.473277952,0.9986934682742593,76.09665503914599
6.475564544,0.9987998097394618,75.95961760861454
6.477850624,0.9989824583194644,75.82049837405634
6.480137216,0.9992296654475885,75.67829746150855
6.482423296,0.9995259636592164,75.53211142712074
6.484709888,0.9998526781315116,75.38142147159489
6.48699648,1.0001888413432418,75.22592747113762
6.48928256,1.0005133422323977,75.06568270080676
6.491569152,1.0008058067280676,74.90096566520238
6.493855232,1.00104765554763,74.73238179324107
6.496141824,1.0012235346923608,74.56080483420553
6.498427904,1.001322482114181,74.38723807641229
6.500714496,1.0013380988389022,74.21285031378044
6.503001088,1.0012694082489726,74.03887312010872
6.505287168,1.001120780839066,73.8664583542495
6.50757376,1.000901438269021,73.69672482763087
6.50985984,1.0006253539911996,73.530617085502
6.512146432,1.0003097471009004,73.36877945507457
6.514432512,0.9999745272559187,73.21169145620115
6.516719104,0.9996410104882977,73.05947432118157
6.519005184,0.9993303302990517,72.91195929034933
6.521291776,0.9990618874719907,72.76867337632962
6.523578368,0.9988529847237337,72.62888115378234
6.525864448,0.9987168095037571,72.49160613089866
6.52815104,0.9986620244949103,72.35574335076839
6.53043712,0.9986921519721241,72.22012588523236
6.532723712,0.9988053877588969,72.0834125227623
6.535009792,0.9989943821120151,71.94454961067585
6.537296384,0.9992474086622536,71.80248858639143
6.539582976,0.9995481893705263,71.65639936866032
6.541869056,0.9998780031995559,71.5057510217948
6.544155648,1.00021570411254,71.3502635422485
6.546441728,1.0005401056988867,71.19000270484906
6.54872832,1.0008306624987187,71.0252509639983
6.5510144,1.0010690220024154,70.85673012430738
6.553300992,1.0012400371623187,70.68524170871096
6.555587072,1.0013331186995784,70.51182420038333
6.557873664,1.0013421980713493,70.33769098377181
6.560160256,1.0012666864568702,70.16407472423987
6.562446336,1.0011113268955798,69.99209597288744
6.564732928,1.0008859291060368,69.8229042040981
6.567019008,1.0006046578279468,69.65740023500392
6.5693056,1.0002851549925629,69.49626865721352
6.57159168,0.9999476957658702,69.33991484990787
6.573878272,0.9996134575066632,69.18842106508347
6.576164864,0.9993037717153903,69.04164089233572
6.578450944,0.9990382229721959,68.89907050952887
6.580737536,0.9988334676844423,68.75994654545268
6.583023616,0.9987028205212882,68.6232642116317
6.585310208,0.998654372068467,68.48790601781658
6.587596288,0.9986913727892484,68.35265997560376
6.58988288,0.9988114647845846,68.21627467254886
6.59216896,0.9990069854887795,68.07760690607321
6.594455552,0.9992656685036776,67.93564456578217
6.596742144,0.9995710442061428,67.78959828958526
6.599028224,0.9999038640851683,67.63894538454488
6.601314816,1.000243075556362,67.48338273381408
6.603600896,1.00056710081664,67.32304076929998
6.605887488,1.0008556193546299,67.15828616151634
6.608173568,1.001090396236819,66.98973219563076
6.61046016,1.0012565608955326,66.81826720319765
6.612746752,1.001343490680645,66.64500670207235
6.615032832,1.0013458632811252,66.47108176593412
6.617319424,1.0012634685702826,66.29776111390595
6.619605504,1.0011013474096475,66.12624850800188
6.621892096,1.0008698649584267,65.95754763577808
6.624178176,1.0005832644065062,65.79261732303253
6.626464768,1.0002599991937353,65.63212061961877
6.628750848,0.9999203594974839,65.47646460046565
6.63103744,0.9995855811695968,65.32568323608669
6.633324032,0.9992770971774315,65.17961383578509
6.635610112,0.9990144651087917,65.03771115761147
6.637896704,0.9988141728965665,64.89920878958792
6.640182784,0.9986890576695401,64.76306371912987
6.642469376,0.9986471139204369,64.6281679299746
6.644755456,0.9986910696789081,64.49324674477826
6.647042048,0.9988180792220992,64.35711802403347
6.649328128,0.9990201693664931,64.21861856594491
6.65161472,0.9992845294163296,64.07670809029082
6.653901312,0.9995944559688243,63.9306565339314
6.656187392,0.9999302936399682,63.77991651161269
6.658473984,1.0002708221284238,63.62426341117811
6.660760064,1.000594423926174,63.46380331161637
6.663046656,1.0008808028834675,63.29895604864325
6.665332736,1.0011117641429914,63.130334701034975
6.667619328,1.0012727987567163,62.95890755872936
6.66990592,1.0013536108805414,62.78571463638771
6.672192,1.0013491959583223,62.61197951155811
6.674478592,1.0012597436077189,62.4389500340568
6.676764672,1.0010908518462147,62.267769950332934
6.679051264,1.0008531033011019,62.099555621799766
6.681337344,1.0005615127757566,61.9351862899586
6.683623936,1.000234515817163,61.77528598993232
6.685910016,0.999892561286799,61.62027485410735
6.688196608,0.9995574933953032,61.4701832747885
6.6904832,0.9992502932822555,61.32478399329843
6.69276928,0.9989906753893087,61.18350334633509
6.695055872,0.9987949882479688,61.04555936310443
6.697341952,0.9986756699531686,60.909934466391945
6.699628544,0.9986404207945646,60.775440957646154
6.701914624,0.9986913301748828,60.64083839821237
6.704201216,0.9988253942088832,60.504904220568854
6.706487808,0.9990340139084661,60.36648171839118
6.708773888,0.9993041479953751,60.2245877261959
6.71106048,0.9996184440599104,60.07847590407677
6.71334656,0.9999572318729416,59.927601914828905
6.715633152,1.0002990293167175,59.77179095738727
6.717919232,1.0006220354366622,59.611188758125294
6.720205824,1.0009060840611126,59.44616994668108
6.722491904,1.0011331075046153,59.277481099236084
6.724778496,1.0012889077883118,59.1059957989895
6.727065088,1.0013635278915451,58.932863574295794
6.729351168,1.0013521404879828,58.75928442577778
6.73163776,1.0012555747051628,58.58648935682707
6.73392384,1.0010797919110568,58.415664173358245
6.736210432,1.0008359338291888,58.24786769152464
6.738496512,1.0005392330323701,58.084024436182155
6.740783104,1.000208488042613,57.92471009809656
6.743069696,0.9998645117814119,57.77031603938766
6.745355776,0.9995291768164977,57.62084728112399
6.747642368,0.9992234941262159,57.4760709477034
6.749928448,0.9989670286125071,57.33538120991353
6.75221504,0.9987761196293262,57.19796847479348
6.75450112,0.9986626540547532,57.062790117021216
6.756787712,0.9986341037367691,56.92863679478521
6.759073792,0.9986922080002534,56.79430436649895
6.761360384,0.9988332937265884,56.658513092502744
6.763646976,0.9990485410655101,56.52014383831516
6.765933056,0.9993242706456065,56.378214195296586
6.768219648,0.9996429962289192,56.231961433636435
6.770505728,0.999984570381941,56.080921813952266
6.77279232,1.000327364998242,55.92491363209771
6.7750784,1.0006497670743937,55.76410356970738
6.777364992,1.0009313198445973,55.59890846560655
6.779651584,1.0011543412148194,55.43005329822426
6.781937664,1.0013046356855388,55.25850071006173
6.784224256,1.001372783054175,55.08539596919478
6.786510336,1.0013543989275702,54.911909365502424
6.788796928,1.0012506066775833,54.73930289619688
6.791083008,1.0010679192808427,54.56880256296476
6.7933696,1.0008179113353426,54.40142626446567
6.79565568,1.0005161904686617,54.2380401938757
6.797942272,1.00018177776482,54.079275275911066
6.800228864,0.9998358802006647,53.92544543960478
6.802514944,0.9995003046493911,53.776609169103054
6.804801536,0.9991963601396836,53.63238790929986
6.807087616,0.9989432802947474,53.49225457299151
6.809374208,0.9987571396780401,53.35533035962493
6.811660288,0.9986498520425697,53.22054966257951
6.81394688,0.9986281755798332,53.08670731841614
6.81623296,0.9986934553886684,52.95258506314676
6.818519552,0.9988417873143683,52.8168743659968
6.820806144,0.9990636119254018,52.67851623986667
6.823092224,0.9993449348849878,52.536490712529385
6.825378816,0.9996680702299366,52.390066552432394
6.827664896,1.0000124285358307,52.2388136132946
6.829951488,1.0003561963334122,52.08256021803644
6.832237568,1.000677779378886,51.92145806514982
6.83452416,1.0009567446678906,51.75604431375712
6.836810752,1.0011755601733712,51.586998313798645
6.839096832,1.0013203076357524,51.415357019714435
6.841383424,1.0013818450293348,51.24220437213563
6.843669504,1.0013563437805708,51.06879394581289
6.845956096,1.001245338471271,50.89637457789656
6.848242176,1.0010557034799126,50.72613327739746
6.850528768,1.0007994820840356,50.559112117025315
6.852814848,1.000492709283892,50.39616387383214
6.85510144,1.0001547911460615,50.23792716898428
6.857388032,0.999807024769708,50.084651949137005
6.859674112,0.9994714727652665,49.9363412962725
6.861960704,0.9991693383108357,49.79266888281194
6.864246784,0.9989197423837507,49.65304838508756
6.866533376,0.9987385943339239,49.516541755102814
6.868819456,0.9986374602394105,49.382130968196755
6.871106048,0.9986227199689668,49.24854682865687
6.87339264,0.998695361202583,49.11457030697819
6.87567872,0.9988508849148233,48.97892601693495
6.877965312,0.9990793621530122,48.84049493961438
6.880251392,0.9993663508201428,48.698322208658055
6.882537984,0.9996936060009035,48.55166934028662
6.884824064,1.0000406022813482,48.40013124529381
6.887110656,1.000385302552697,48.24358447603831
6.889396736,1.0007059238027158,48.08220060213081
6.891683328,1.0009821013050457,47.916508875224935
6.89396992,1.0011964826495452,47.747248957733134
6.896256,1.0013354997297508,47.575416581345294
6.898542592,1.001390431816158,47.40221094675877
6.900828672,1.0013577582963944,47.22884317476564
6.903115264,1.0012394072308946,47.05654618981972
6.905401344,1.001042780486272,46.886558799040586
6.907687936,1.0007804486839742,46.71986153620809
6.909974528,1.0004686538805505,46.55733099605307
6.912260608,1.0001273081562088,46.39955197871642
6.9145472,0.9997778246711204,46.2467763488587
6.91683328,0.999442340062338,46.09898892177237
6.919119872,0.9991421112951456,45.955828303672526
6.921405952,0.9988962129534504,45.81664148199271
6.923692544,0.9987202143429628,45.680537837814235
6.925978624,0.9986253447376221,45.54643763364479
6.928265216,0.9986176402724092,45.41307213566167
6.930551808,0.9986977415063586,45.279174442849644
6.932837888,0.9988604319651859,45.1435373956178
6.93512448,0.9990955153111789,45.00499356890344
