freq,mag,phase
6.0,1.000551550771866,-91.24132712644364
6.009767936,1.0005046865170428,-91.73611172139171
6.019535872,1.0004313901132509,-92.23029093148449
6.029303808,1.0003360941475272,-92.7235710023161
6.039072256,1.000223771349887,-93.2157279522849
6.048840192,1.0000999368881782,-93.70650529080352
6.058608128,0.9999707318484871,-94.19587973276282
6.068376064,0.9998427698226241,-94.6837437715931
6.078144,0.9997224142738683,-95.17020363031854
6.087911936,0.9996158289272153,-95.65537591361932
6.097679872,0.9995281774640942,-96.13949849419046
6.10744832,0.9994642098564073,-96.62276168331671
6.117216256,0.9994269062940797,-97.10561199100113
6.126984192,0.999418312451671,-97.5883348812804
6.136752128,0.9994387712965399,-98.07132918429345
6.146520064,0.9994875049460589,-98.55491005503676
6.156288,0.9995617960095312,-99.03953893708666
6.166055936,0.9996581510580924,-99.52538345066161
6.175824384,0.9997716215688224,-100.01279878212063
6.18559232,0.9998966143039424,-100.50193938665639
6.195360256,1.0000267518412806,-100.99290789007632
6.205128192,1.0001556195970085,-101.48575680310856
6.214896128,1.0002766989874297,-101.98036700448195
6.224664064,1.0003838721629275,-102.47670854198891
6.234432,1.0004717609088394,-102.97445237034225
6.244200448,1.0005359712758273,-103.47334651924582
6.253968384,1.0005731811596348,-103.9730941511544
6.26373632,1.0005814588506934,-104.47334803599132
6.273504256,1.0005604700848616,-104.97368088263174
6.283272192,1.0005113083651151,-105.4737508851283
6.293040128,1.0004360841910573,-105.97323981543784
6.302808064,1.0003389714156303,-106.47177221290289
6.312576512,1.0002244045930202,-106.96911740226551
6.322344448,1.0000984444482894,-107.46513202311291
6.332112384,0.9999672238649201,-107.95964603632416
6.34188032,0.9998374430956577,-108.45263638251261
6.351648256,0.9997154961614254,-108.94422881782566
6.361416192,0.9996076272472286,-109.43448967894419
6.371184128,0.9995192556973599,-109.92362675854822
6.380952576,0.9994547751572976,-110.41199261354797
6.390720512,0.9994175687622677,-110.89987169359223
6.400488448,0.9994094770329733,-111.38763700942762
6.410256384,0.9994309088567677,-111.87568674937188
6.42002432,0.9994808883867015,-112.36434385425711
6.429792256,0.9995568653295809,-112.85402602427068
6.439560192,0.9996551545402543,-113.34499685214305
6.44932864,0.9997708337815717,-113.83749748478141
6.459096576,0.999897927276383,-114.33176716826424
6.468864512,1.000030244710748,-114.82789018619138
6.478632448,1.000161027420082,-115.32592023809698
6.488400384,1.000283858820494,-115.82574228711577
6.49816832,1.0003924246103644,-116.32724450108869
6.507936256,1.0004812337862143,-116.83021096063334
6.517704704,1.0005459956063156,-117.33430401676463
6.52747264,1.0005832649795796,-117.83929661298954
6.537240576,1.0005912389845506,-118.34474326176033
6.547008512,1.0005694067972062,-118.85027550663344
6.556776448,1.00051895749078,-119.3555085567979
6.566544384,1.0004422374128463,-119.86012090324714
6.576312832,1.0003431346001668,-120.36378241203242
6.586080768,1.000226566490868,-120.86622121772261
6.595848704,1.000098447161215,-121.36726571435938
6.60561664,0.9999649962531697,-121.86680307934164
6.615384576,0.9998330552951592,-122.3648153095672
6.625152512,0.9997093384938469,-122.86131070954198
6.634920448,0.9995999281349851,-123.35649563994592
6.644688896,0.999510319516104,-123.85057061590555
6.654456832,0.9994451350313369,-124.34379279251188
6.664224768,0.9994076195983473,-124.83655853641751
6.673992704,0.9993997489167978,-125.32917656074434
6.68376064,0.9994218699062706,-125.8220520975523
6.693528576,0.9994730804826758,-126.31557637104927
6.703296512,0.9995506007364175,-126.81010524305889
6.71306496,0.999650663682856,-127.30595412499201
6.722832896,0.9997683648629644,-127.80335843464968
6.732600832,0.9998977041826678,-128.3025503905551
6.742368768,1.0000321894276551,-128.80362004283128
6.752136704,1.000165265516818,-129.306570963131
6.76190464,1.0002900222518865,-129.8113801298224
6.771672576,1.00040024684415,-130.31786599011107
6.781441024,1.0004904474638108,-130.8258327460464
6.79120896,1.0005561728298058,-131.33495602487562
6.800976896,1.0005938958858938,-131.84492272578225
6.810744832,1.0006018297495691,-132.35536285794024
6.820512768,1.0005795203941006,-132.86587782421532
6.830280704,1.0005279667845983,-133.3760851314656
6.84004864,1.0004498360880147,-133.8856361951906
6.849817088,1.0003488575131598,-134.3942185451959
6.859585024,1.0002302746182472,-134.9015528318627
6.86935296,1.00009986927324,-135.4074374317371
6.879120896,0.9999641619674895,-135.9117782041146
6.888888832,0.9998299342652165,-136.41454632167392
6.898656768,0.9997041102281491,-136.915768335248
6.908424704,0.9995928016059945,-137.41565408118527
6.918193152,0.9995016005827888,-137.9143855597774
6.927961088,0.9994353766389777,-138.4122642918076
6.937729024,0.999397246704481,-138.90962080218637
6.94749696,0.9993892146987725,-139.40683583253198
6.957264896,0.9994117125778557,-139.90429236622666
6.967032832,0.9994637354952286,-140.40240812850934
6.976800768,0.9995426411423031,-140.9015362440594
6.986569216,0.9996445116006172,-141.4020058508574
6.996337152,0.9997642097198225,-141.90402040152796
7.006105088,0.9998958508937429,-142.40783707659256
7.015873024,1.0000328679864308,-142.91355166135557
7.02564096,1.000168223238854,-143.42116618423248
7.035408896,1.000295193391285,-143.93065595656324
7.045176832,1.0004075309397091,-144.44184234902184
7.05494528,1.0004995020002836,-144.95451511209401
7.064713216,1.0005664480318182,-145.46837564497022
7.074481152,1.0006049870793103,-145.98307775943545
7.084249088,1.0006131537375,-146.49823923668137
7.094017024,1.000590586941681,-147.01346227118816
7.10378496,1.0005382546782309,-147.52838414119773
7.113552896,1.000458840051788,-148.04260167957588
7.123321344,1.000356184332513,-148.5558400901422
7.13308928,1.0002355417343036,-149.06775579692584
7.142857216,1.0001028294636074,-149.57820994792547
7.152625152,0.9999645579775576,-150.0870776031426
7.162393088,0.9998278623923649,-150.5943211810664
7.172161024,0.9996995084019243,-151.10000783161001
7.18192896,0.9995860567063973,-151.6042663051733
7.191697408,0.9994930291961359,-152.10736899295296
7.201465344,0.9994252245603498,-152.6095713612894
7.21123328,0.999386099396529,-153.1112131122937
7.221001216,0.9993776487580749,-153.6127125684611
7.230769152,0.9994003101804484,-154.11444833682646
7.240537088,0.9994529846141728,-154.61678936141942
7.250305024,0.9995329989137423,-155.12016781856403
7.260073472,0.9996365993359305,-155.62486974080375
7.269841408,0.9997584312288554,-156.13117535091584
7.279609344,0.9998924407118925,-156.6392946692907
7.28937728,1.000032008925121,-157.14929087971254
7.299145216,1.0001699656014063,-157.66122555772645
7.308913152,1.0002996683986602,-158.17505094099997
7.318681088,1.0004143249206314,-158.69061041423979
7.328449536,1.0005083653188287,-159.20764899212878
7.338217472,1.0005769883634028,-159.72589695813002
7.347985408,1.0006167191295816,-160.24499611177328
7.357753344,1.0006255381564078,-160.76454537145685
7.36752128,1.0006030384956797,-161.28412742331818
7.377289216,1.0005501730388662,-161.80341098311737
7.387057152,1.0004695916737372,-162.3220084141295
7.3968256,1.0003653603608063,-162.8395149697516
7.406593536,1.0002425033685904,-163.3557215639156
7.416361472,1.000107345257516,-163.8704035615683
7.426129408,0.9999664773924398,-164.38345156296253
7.435897344,0.9998271136252869,-164.89482869288688
7.44566528,0.9996959467076189,-165.40460401757719
7.455433216,0.9995798370561395,-165.91291508720195
7.465201664,0.9994845284382697,-166.4200097319102
7.4749696,0.9994148522218091,-166.9261453656166
7.484737536,0.9993743815671782,-167.43171472347225
7.494505472,0.9993651045151422,-167.937104096467
7.504273408,0.9993875086426259,-168.4427072862348
7.514041344,0.9994406401824261,-168.94891449365412
7.52380928,0.9995218476387252,-169.4561386433106
7.533577728,0.9996270160834462,-169.9646911095211
7.543345664,0.9997509942672156,-170.47484001718536
7.5531136,0.9998874300211542,-170.98681633202642
7.562881536,1.0000297171428587,-171.50071945269283
7.572649472,1.0001707290201611,-172.0165833794907
7.582417408,1.0003031904933266,-172.53434884318312
7.592185344,1.0004207137172847,-173.05384765729815
7.601953792,1.000517231124216,-173.5748889700906
7.611721728,1.000587850230815,-174.09710317595835
7.621489664,1.0006291294730807,-174.62019005236183
7.6312576,1.0006389281042503,-175.14372650524794
7.641025536,1.0006166911586512,-175.6673219734902
7.650793472,1.0005635177353724,-176.19057504584796
7.660561408,1.0004819273659502,-176.71311366199453
7.670329856,1.0003760466815568,-177.23454034686833
7.680097792,1.000251144103181,-177.75464657142
7.689865728,1.0001134245785863,-178.2731861896996
7.699633664,0.9999695979643521,-178.7900076134639
7.7094016,0.9998270051261516,-179.30511976762602
7.719169536,0.9996929216570895,-179.81857726380875
7.728937984,0.999573887108773,179.66949178272102
7.73870592,0.9994758994338068,179.15883596479915
7.748473856,0.9994038907788869,178.6491482050464
7.758241792,0.9993616962657478,178.14009608506225
7.768009728,0.9993513299491107,177.63127936752707
7.777777664,0.9993733636318455,177.12226481091454
7.7875456,0.9994267083949919,176.61264705296543
7.797314048,0.9995087784756012,176.10204004678184
7.807081984,0.9996155224864998,175.59008347907505
7.81684992,0.9997417598919667,175.07651978797057
7.826617856,0.9998809162453643,174.56115685554676
7.836385792,1.0000261360474771,174.0438156811167
7.846153728,1.0001703009246228,173.52449452390576
7.855921664,1.0003060720581234,173.00325213397787
7.865690112,1.0004266583488721,172.48021534148876
7.875458048,1.000526106523384,171.95568187397217
7.885225984,1.00059914971857,171.42991919085438
7.89499392,1.0006425042206775,170.90327029911128
7.904761856,1.0006535960930825,170.37615831370348
7.914529792,1.0006318701136432,169.84901614569736
7.924297728,1.0005785331561874,169.3222011055983
7.934066176,1.0004960668619516,168.796158257206
7.943834112,1.0003886501010444,168.27123829860224
7.953602048,1.0002615290428685,167.74769626089994
7.963369984,1.000121003572663,167.22574937315184
7.97313792,0.999974145472767,166.70558269328447
7.982905856,0.9998282329424435,166.18717570198166
7.992673792,0.999690692973956,165.6704916090108
8.00244224,0.9995682618212405,165.15539650795694
8.012210176,0.9994672587476991,164.6416303176056
8.021978112,0.9993926597391671,164.1288881900336
8.031746048,0.9993482049557058,163.6168277868335
8.041513984,0.9993364551405174,163.10502614947228
8.05128192,0.9993576498555121,162.59309448435022
8.061049856,0.9994111650455194,162.08056478537713
8.070818304,0.9994940397539062,161.56706521867463
8.08058624,0.9996022946785926,161.05220754230902
8.090354176,0.999730764512147,160.53576719190642
8.100122112,0.9998726876891132,160.01743405310887
8.109890048,1.0000211906804444,159.49720496956945
8.119657984,1.0001688586638056,158.97489592034987
8.12942592,1.0003081691010156,158.45066484363724
8.139194368,1.0004324142883725,157.92466844049088
8.148962304,1.000534997645007,157.39706250090603
8.15873024,1.0006109776686256,156.8682201632924
8.168498176,1.0006564986768334,156.33848065288234
8.178266112,1.0006692797678072,155.80830113952126
8.188034048,1.0006483822016616,155.27804926229263
8.197801984,1.0005950122821747,154.74817421576796
8.207570432,1.0005118847791261,154.21906068219437
8.217338368,1.0004028152813897,153.69110214723497
8.227106304,1.0002733526199337,153.16458683319902
8.23687424,1.0001299549481562,152.63972934828263
8.246642176,0.9999797106634297,152.11666667866143
8.256410112,0.999830207017363,151.59545951900589
8.266178048,0.9996887736207175,151.07605182134427
8.275946496,0.9995626533669396,150.55824877331915
8.285714432,0.9994580939471294,150.0418797363907
8.295482368,0.99938038604975,149.5265949890001
8.305250304,0.9993335110737246,149.01204327888598
8.31501824,0.9993198778277025,148.49778865805902
8.324786176,0.9993402775994168,147.98343920527915
8.334554112,0.9993935090834337,147.46851457710514
8.34432256,0.9994771500188171,146.95264214961423
8.354090496,0.9995871378391601,146.4354341701036
8.363858432,0.999717833528803,145.91660078588936
8.373626368,0.9998628466799067,145.39590658165818
8.383394304,1.0000148847940573,144.87321832543785
8.39316224,1.0001663754742152,144.3484808372536
8.402930176,1.0003097776899745,143.82176139631972
8.412698624,1.0004377862372593,143.29323716067503
8.42246656,1.0005441640407418,142.76310311708409
8.432234496,1.0006234515551584,142.2316839485372
8.442002432,1.0006715761681522,141.69939486620942
8.451770368,1.0006862750768721,141.1665628709787
8.461538304,1.00066655115279,140.63371680407772
8.47130624,1.0006134463419283,140.10127134159566
8.481074688,1.0005294187901579,139.56959684889102
8.490842624,1.000418850485034,139.03909674031038
8.50061056,1.0002869982567018,138.51008358100356
8.510378496,1.0001403691525186,137.9827832769656
8.520146432,0.999986429639181,137.45735638153292
8.529914368,0.999832942347562,136.93381991019646
8.539682304,0.9996872927037157,136.4121603125446
8.549450752,0.9995569448900343,135.89218941022577
8.559218688,0.9994485952506749,135.3737283957162
8.568986624,0.9993674626638761,134.8564049443459
8.57875456,0.9993176538731615,134.33987165716084
8.588522496,0.9993019720942975,133.82370363114555
8.598290432,0.9993210600666901,133.30746346567693
8.608058368,0.9993741365476226,132.79068498666712
8.617826304,0.9994584709911362,132.27297187848885
8.62759424,0.9995701584183433,131.75392242977688
8.637362176,0.9997033064122706,131.2332490278909
8.647131136,0.9998515901170761,130.71070939062736
8.656899072,1.0000075511417836,130.1861236983639
8.666667008,1.0001631882843136,129.65946925553297
8.676434944,1.0003110335456824,129.13079590501104
8.68620288,1.0004435831054663,128.60026766436474
8.695970816,1.0005540728689504,128.06811017448902
8.705738752,1.0006370307993557,127.53462454833958
8.715506688,1.0006881973554833,127.00022984322825
8.725274624,1.0007050147465009,126.4653057178631
8.73504256,1.0006866096267302,125.93035102731297
8.744810496,1.0006338268536217,125.39576981880869
8.754578432,1.0005491539672897,124.86200737073054
8.764346368,1.0004368485562396,124.3294413635317
8.774114304,1.0003024023776048,123.79842216154906
8.783883264,1.0001524661296628,123.26917411861183
8.7936512,0.9999945778700865,122.74185343112039
8.803419136,0.9998364697065032,122.21650108890125
8.813187072,0.9996863327037422,121.69309768257787
8.822955008,0.9995513021484327,121.17147512858845
8.832722944,0.9994384635925406,120.65139894446585
8.84249088,0.9993534771201937,120.13257605700815
8.852258816,0.999300624309451,119.61457435334333
8.862026752,0.9992824262144856,119.09700680825178
8.871794688,0.9993000830130327,118.57940490523038
8.881562624,0.9993528142217656,118.06131857601108
8.89133056,0.9994378920472428,117.54228632783138
8.901098496,0.9995512524377329,117.02193511149336
8.910866432,0.999687185513374,116.49994131615314
8.920635392,0.999838902354267,115.97605855888452
8.930403328,0.9999990702316056,115.45011511127574
8.940171264,1.0001594542899945,114.92204059934592
8.9499392,1.0003121026099047,114.39191638682448
8.959707136,1.0004493762374358,113.85989536804534
8.969475072,1.0005644423590834,113.32619070660807
8.979243008,1.0006514941045936,112.7911157249992
8.989010944,1.0007061399536488,112.25510870009425
8.99877888,1.0007254431385355,111.71854619140466
9.008546816,1.0007085271787697,111.18194364206693
9.018314752,1.0006561628076527,110.64573252696509
9.028082688,1.0005707881585248,110.11035726468384
9.037850624,1.0004566653069504,109.57621524941659
9.04761856,1.000319342659512,109.04363934632573
9.05738752,1.0001657786322862,108.51290221046081
9.067155456,1.0000034158333655,107.98415770972373
9.076923392,0.9998405199655377,107.45747382712015
9.086691328,0.9996851576273105,106.93280393221146
9.096459264,0.999545127289316,106.41001385566736
9.1062272,0.9994274712163098,105.88884220538384
9.115995136,0.9993380912693574,105.36898915944381
9.125763072,0.9992815785868028,104.85004211924743
9.135531008,0.9992608191266579,104.33159740106728
9.145298944,0.9992768995542399,103.81314862920087
9.15506688,0.9993290566055514,103.2942277036422
9.164834816,0.9994149611314791,102.77438603194541
9.174602752,0.9995301753335555,102.25324397215799
9.184370688,0.9996690737477101,101.73043500060287
9.194139648,0.9998247202877246,101.20569321155155
9.203907584,0.9999894456557131,100.67886573242512
9.21367552,1.0001548767656803,100.1498726173872
9.223443456,1.0003128853025947,99.61878133470796
9.233211392,1.0004554682849442,99.08572311474724
9.242979328,1.0005756876055294,98.55092938387843
9.252747264,1.000667191481712,98.01474800041922
9.2625152,1.0007255652818252,97.47757117661888
9.272283136,1.0007477626319627,96.93982017574878
9.282051072,1.0007324842648417,96.40200477129206
9.291819008,1.0006805596157948,95.86458298155021
9.301586944,1.000594376338931,95.32799640447904
9.31135488,1.0004783049130832,94.79270982097266
9.321122816,1.0003379580352063,94.25902712279543
9.330891776,1.0001803181291418,93.72724473952478
9.340659712,1.0000132075295214,93.19752769581739
9.350427648,0.9998448694818937,92.66991717667047
9.360195584,0.999683914449986,92.14445047344248
9.36996352,0.9995382015224932,91.62092778924858
9.379731456,0.9994152856461288,91.09912591521876
9.389499392,0.9993211753341548,90.5787138350251
9.399267328,0.9992606624543052,90.0592841466407
9.409035264,0.9992370210487335,89.54040549292729
9.4188032,0.9992513339051324,89.02155211331687
9.428571136,0.9993030747618503,88.50229837424729
9.438339072,0.9993897175991454,87.98214451694928
9.448107008,0.9995069852204957,87.46065286078601
9.457875968,0.9996491154777489,86.93748869039861
9.467643904,0.9998089659132893,86.4123533947495
9.47741184,0.9999787645094906,85.88507142238844
9.487179776,1.0001498606534887,85.35560669327344
9.496947712,1.0003137301321994,84.82395506233784
9.506715648,1.0004622564991663,84.29027290447385
9.516483584,1.0005880157955176,83.7548131390664
9.52625152,1.0006844060273599,83.21790916713105
9.536019456,1.0007469375116278,82.67993133143565
9.545787392,1.000772142596247,82.14137976304012
9.555555328,1.000758766949044,81.60275584084921
9.565323264,1.0007073857474322,81.06450881094646
9.5750912,1.0006203724700395,80.52710769782634
9.584859136,1.0005021366295852,79.99104320559053
9.594628096,1.0003583303049677,79.45662576134005
9.604396032,1.0001962258335941,78.92415441198577
9.614163968,1.0000237275088815,78.39384505242226
9.623931904,0.9998496405657068,77.86574811513799
9.63369984,0.9996823996248081,77.33983070965677
9.643467776,0.9995306147234257,76.81599493889733
9.653235712,0.9994018059227885,76.29395672365162
9.663003648,0.9993024771300648,75.77338604646074
9.672771584,0.9992377918920426,75.2538896600745
9.68253952,0.9992109114926054,74.73498906217739
9.692307456,0.9992233192046515,74.21618934211881
9.702075392,0.9992745399491505,73.6969838862917
9.711843328,0.9993620619396746,73.17687786517907
9.721611264,0.9994816861739658,72.6554660373239
9.731380224,0.9996274092766682,72.1323248174407
9.74114816,0.9997920805263047,71.60719950481412
9.750916096,0.9999674509341626,71.07988520825656
9.760684032,1.0001447240149046,70.55028083790799
9.770451968,1.0003151384440494,70.01844112847499
9.780219904,1.0004701123047646,69.48449475235991
9.78998784,1.0006019187004624,68.94870487148943
9.799755776,1.0007038712635317,68.41139010744772
9.809523712,1.000770818122574,67.87297708353064
9.819291648,1.0007994058174687,67.3339376388402
9.829059584,1.0007879611139872,66.79478677550152
9.83882752,1.000737007547901,66.25598996069158
9.848595456,1.0006490773469723,65.71812297687308
9.858363392,1.0005283142051091,65.18155015998296
9.868132352,1.0003807796509017,64.64670858804365
9.877900288,1.0002136465038995,64.11388965913362
9.887668224,1.0000353931314014,63.58328049093833
9.89743616,0.9998547332275535,63.05499297555713
9.907204096,0.9996807357628321,62.52897728414319
9.916972032,0.9995220991697935,62.005137517661794
9.926739968,0.9993869391182975,61.48317859161136
