freq,mag,phase
6.0,1.0001097544772486,-61.690702475393344
6.009291776,1.0001832403098,-62.10543821216876
6.01858304,1.0002451121251597,-62.521147517914144
6.027874816,1.0002942117335925,-62.93776937307181
6.03716608,1.0003283088009474,-63.35508927909506
6.046457856,1.0003452059788498,-63.77291056626234
6.05574912,1.0003446468641268,-64.1909626641829
6.065040896,1.0003262618215791,-64.60906724774176
6.07433216,1.0002908195239557,-65.0269592015703
6.083623936,1.0002402417221434,-65.44446424572934
6.0929152,1.000177182092049,-65.86140735195467
6.102206976,1.000104747068481,-66.27767306335743
6.11149824,1.000026399807224,-66.69304123324248
6.120790016,0.9999467103108854,-67.10756736754938
6.13008128,0.9998688725358945,-67.52121601482413
6.139373056,0.9997976460896584,-67.93404014533984
6.14866432,0.9997363574768042,-68.34615620109689
6.157956096,0.9996880488287458,-68.75774427279876
6.16724736,0.9996554942888608,-69.16888920913286
6.176539136,0.9996400884379232,-69.57991967179792
6.1858304,0.9996425635686761,-69.9910227961478
6.195122176,0.9996634660161147,-70.402409516663
6.20441344,0.9997013480456354,-70.81433470309598
6.213705216,0.999754061874082,-71.22698347030749
6.22299648,0.9998193584379198,-71.64055696465074
6.232288256,0.9998938897509808,-72.05521806634937
6.24157952,0.9999734416692873,-72.47100176181738
6.250871296,1.0000545513612356,-72.88801147876032
6.26016256,1.0001327556575086,-73.30620137023428
6.269454336,1.0002041829026715,-73.72552242743102
6.2787456,1.000265211635904,-74.1458891719193
6.288037376,1.0003126174912558,-74.56707917683735
6.29732864,1.0003437767224066,-74.98895943973258
6.306620416,1.0003574260972181,-75.41124853916996
6.31591168,1.0003527591399355,-75.83379427930699
6.325203456,1.00032964288117,-76.25633980573512
6.33449472,1.0002895587766936,-76.67857433871099
6.343786496,1.000234533038288,-77.10041897642044
6.35307776,1.000167030675183,-77.52157012933547
6.362369536,1.0000908148386254,-77.94194897835648
6.3716608,1.0000094636683665,-78.36147456677192
6.380952576,0.9999273386018619,-78.7800655858151
6.39024384,0.9998483640314778,-79.19782356045373
6.399535616,0.9997768790346317,-79.61470985089986
6.40882688,0.9997163269261898,-80.03088456539935
6.418118656,0.9996698644698805,-80.44650351317445
6.42740992,0.9996400303534824,-80.8617720693127
6.436701696,0.9996280665368388,-81.27694199888364
6.44599296,0.9996349680421436,-81.69217429020154
6.455284736,0.999660317588567,-82.10779912483737
6.464576,0.9997027010662923,-82.52405324427147
6.473867776,0.9997601814476829,-82.94105800315765
6.48315904,0.999829862867479,-83.35905805423833
6.492450816,0.9999080872046082,-83.7781720084853
6.50174208,0.999990949183334,-84.19846337052061
6.511033856,1.0000743334319175,-84.62000547501387
6.52032512,1.000153790713476,-85.04276912544394
6.529616896,1.0002254451716428,-85.46660989889124
6.53890816,1.0002854858467662,-85.89151554403037
6.548199936,1.000330954823938,-86.31724400234103
6.5574912,1.000359401754756,-86.74363691915642
6.566782976,1.0003694720195402,-87.17041205292674
6.57607424,1.000360565792888,-87.59735071128007
6.585366016,1.0003329309831102,-88.0242082857811
6.59465728,1.0002881582715288,-88.4507635504651
6.603949056,1.0002283168299853,-88.87677269180858
6.61324032,1.000156450519506,-89.30209403165293
6.622532096,1.0000764745648778,-89.72659112358382
6.63182336,0.9999918720144277,-90.1501837121994
6.641115136,0.9999075683274554,-90.57277934047299
6.6504064,0.9998274786114586,-90.99445786582133
6.659698176,0.9997557062160584,-91.41536271936224
6.66898944,0.9996960625468483,-91.83551219445619
6.678281216,0.9996515556098274,-92.25512424789336
6.68757248,0.9996245747978841,-92.67439314634173
6.696864256,0.9996163205068471,-93.09359683077197
6.70615552,0.9996274816078347,-93.51295608743354
6.715447296,0.9996573860024257,-93.93275429856791
6.72473856,0.9997046444726447,-94.35316428458844
6.734030336,0.9997668301066254,-94.77444783822745
6.7433216,0.9998407911743515,-95.19677976887215
6.752613376,0.9999228934443155,-95.62024922282345
6.76190464,1.000008910263106,-96.04496164871028
6.771196416,1.0000944466196384,-96.4709468016375
6.78048768,1.0001751749941525,-96.89812459592679
6.789779456,1.000246859033902,-97.32648251501496
6.79907072,1.0003060039974079,-97.75582557135613
6.808362496,1.0003494728934461,-98.18600633513483
6.81765376,1.0003750604893025,-98.61676566119776
6.826945536,1.000381408253395,-99.04790094503184
6.8362368,1.0003680536180222,-99.47912379652114
6.845528576,1.0003358571678767,-99.91021685261796
6.85481984,1.0002862161304942,-100.34094050413367
6.864111616,1.0002215521459883,-100.77105477563217
6.87340288,1.0001454347886238,-101.20040519312516
6.882694656,1.0000613720511506,-101.62887237776727
6.89198592,0.9999738979416212,-102.05631371329342
6.901277696,0.9998871851946224,-102.48283740761458
6.91056896,0.9998059088835544,-102.9083814947272
6.919860736,0.9997341216782464,-103.33308910328111
6.929152,0.9996754921600032,-103.75707537046927
6.938443776,0.9996329457304609,-104.18051788436404
6.94773504,0.9996088419805746,-104.60368808091658
6.957026816,0.9996045184906169,-105.02682871428027
6.96631808,0.9996199385650352,-105.4501251056163
6.975609856,0.9996546654426844,-105.87393676092745
6.98490112,0.9997068270731049,-106.29843929833632
6.994192896,0.9997737701185855,-106.7238462643709
7.00348416,0.999852258878289,-107.15037381778264
7.012775936,0.9999383267693293,-107.57805672331011
7.0220672,1.0000274456155325,-108.00706617869568
7.031358976,1.0001152158841082,-108.43730715705041
7.04065024,1.0001970266301135,-108.86882396226159
7.049942016,1.0002689296574823,-109.30152621060118
7.05923328,1.0003270617781683,-109.73515037900324
7.068525056,1.0003684385082714,-110.16960963900446
7.07781632,1.0003909054901525,-110.60461776861918
7.087108096,1.0003934064553894,-111.03995644163601
7.09639936,1.000375768205392,-111.47528583821597
7.105691136,1.0003386739448488,-111.91046141708988
7.1149824,1.0002840834942353,-112.34515029178819
7.124274176,1.000214721249328,-112.77919869421416
7.13356544,1.000133905505626,-113.21239204979535
7.142857216,1.0000459618232937,-113.644665928771
7.15214848,0.9999553121197804,-114.07589031273986
7.161440256,0.9998664287660829,-114.5060909811884
7.17073152,0.9997839486229257,-114.93529661111752
7.180023296,0.9997121208559672,-115.36363866561726
7.18931456,0.9996545558954175,-115.79129857054413
7.198606336,0.9996142278536376,-116.21843582327816
7.2078976,0.9995931440925442,-116.64526739522911
7.217189376,0.9995926217949562,-117.07214155437676
7.22648064,0.9996125958475609,-117.49923908788337
7.235772416,0.9996522156850082,-117.92689335057966
7.24506368,0.9997093722090263,-118.35525059838949
7.254355456,0.9997812611544201,-118.78463524084613
7.26364672,0.9998643207502977,-119.21509917008548
7.272938496,0.9999541949229321,-119.64684545555971
7.28222976,1.0000465401866543,-120.07993223996478
7.291521536,1.0001365329407546,-120.5143219845821
7.3008128,1.000219544481006,-120.94996670382436
7.310104576,1.0002914268279672,-121.38676325502347
7.31939584,1.00034838384197,-121.82450527736552
7.328687616,1.0003876147156647,-122.26306245176261
7.33797888,1.0004070457327672,-122.70210988023359
7.347270656,1.0004056128286445,-123.14141260368321
7.35656192,1.0003834241724543,-123.58067164775792
7.365853696,1.0003412865732897,-124.01968614997782
7.37514496,1.0002816857553205,-124.4581624456724
7.384436736,1.0002073466771069,-124.89591930713677
7.393728,1.0001220188576405,-125.33274964724679
7.403019776,1.000030084636219,-125.76858101725144
7.41231104,0.9999362400747775,-126.20332634511539
7.421602816,0.9998450982354002,-126.63700202136438
7.43089408,0.9997614581557943,-127.06964676985457
7.440185856,0.999689626005036,-127.50142082223255
7.44947712,0.9996330564928053,-127.93249682401539
7.458768896,0.9995949785386489,-128.36305128389589
7.46806016,0.9995771004762024,-128.79336883781843
7.477351936,0.9995805619541384,-129.22370741931073
7.4866432,0.9996051740898397,-129.6543659741686
7.495934976,0.9996497069467981,-130.08559897022639
7.50522624,0.9997120156966541,-130.51762916630474
7.514518016,0.9997889873883201,-130.95071012244483
7.52380928,0.9998766574970638,-131.3849641915767
7.533101056,0.999970629526659,-131.8205144123046
7.54239232,1.0000661261563413,-132.25742285699258
7.551684096,1.000158377839533,-132.69567813073797
7.56097536,1.000242473056238,-133.1352194768211
7.570267136,1.0003143258735052,-133.57585891506184
7.5795584,1.0003701818645423,-134.01750604115955
7.588850176,1.0004071923007027,-134.45987535190127
7.59814144,1.0004233572162808,-134.90271115444125
7.607433216,1.000417875091293,-135.345737076516
7.616724992,1.0003908881858201,-135.7887113335026
7.626016256,1.0003437896867486,-136.23128401626008
7.635308032,1.0002788216253107,-136.67325791116386
7.644599296,1.0001993600097914,-137.11447487284906
7.653891072,1.0001093687084204,-137.55467206451675
7.663182336,1.0000133167866567,-137.99378768454451
7.672474112,0.999916163686321,-138.4317740242199
7.681765376,0.9998228788549784,-138.86864431299617
7.691057152,0.999738078626057,-139.30445269560616
7.700348416,0.9996662062300796,-139.73936949952142
7.709640192,0.9996109403993114,-140.1735517696148
7.718931456,0.999575000032513,-140.60728203711628
7.728223232,0.9995605052448062,-141.04079874505578
7.737514496,0.9995681138802054,-141.4743468714518
7.746806272,0.9995975342896092,-141.90826040488153
7.756097536,0.9996472442285502,-142.34279404415264
7.765389312,0.9997149308641572,-142.77820751984788
7.774680576,0.9997970269272608,-143.21468344164813
7.783972352,0.9998894579419104,-143.65240631981231
7.793263616,0.9999876221887355,-144.0914955147304
7.802555392,1.0000863581792532,-144.5319526059373
7.811846656,1.0001808135162238,-144.97384693142428
7.821138432,1.0002662258287431,-145.41693967951608
7.830429696,1.0003380195268756,-145.861211520559
7.839721472,1.0003926289969733,-146.30644065690112
7.849012736,1.000427310719575,-146.75234176792466
7.858304512,1.0004401091882,-147.19867008077068
7.867595776,1.0004302901513722,-147.64512508470867
7.876887552,1.0003985186293303,-148.09144383387252
7.886178816,1.0003461612884825,-148.53730821770262
7.895470592,1.000275829187728,-148.98252646538563
7.904761856,1.0001911260246552,-149.42684817807762
7.914053632,1.0000963149745017,-149.87008638674885
7.923344896,0.999995973823371,-150.31218969377923
7.932636672,0.9998955260687343,-150.75309898308285
7.941927936,0.9997998443112375,-151.19283417259982
7.951219712,0.9997138846073427,-151.63146289265828
7.960510976,0.9996420554903724,-152.06919422288868
7.969802752,0.9995879944447156,-152.506193264452
7.979094016,0.9995545303866883,-152.94274185583552
7.988385792,0.9995435122424283,-153.37910135597724
7.997677056,0.9995554005819284,-153.81554561218664
8.006968832,0.9995897881521435,-154.25238200321132
8.016260096,0.9996448948914846,-154.68989754239036
8.025551872,0.9997180007455514,-155.12834750515455
8.034843136,0.9998055080549911,-155.56792230790998
8.044134912,0.9999029088302408,-156.0088321617501
8.053426176,1.0000053654714394,-156.4511147919792
8.062717952,1.0001075275083464,-156.8948279270894
8.072009216,1.0002043939708145,-157.33996913644035
8.081300992,1.000290910535377,-157.7863358943979
8.090592256,1.0003627081879591,-158.23388782274574
8.099884032,1.0004160500766066,-158.68233650939445
8.109175296,1.0004481771590428,-159.13144958984006
8.118467072,1.0004574293043345,-159.58093725076876
8.127758336,1.000443305613267,-160.03051344821353
8.137050112,1.0004064036472493,-160.47985195866667
8.146341376,1.0003485882099363,-160.92868688792797
8.155633152,1.0002726490963303,-161.37676792860304
8.164924416,1.0001825093807732,-161.8238348194817
8.174216192,1.0000825337318724,-162.26979385272162
8.183507456,0.9999778978044036,-162.71449777449004
8.192799232,0.9998738698315582,-163.157944393434
8.202090496,0.9997757979582461,-163.60021394203295
8.211382272,0.9996886617896102,-164.04133454257072
8.220673536,0.9996168047431679,-164.481485005769
8.229965312,0.9995641597701181,-164.92093096975336
8.239256576,0.9995332218212032,-165.3599266420957
8.248548352,0.9995257422795518,-165.79874057287574
8.257839616,0.99954221290283,-166.23770890804602
8.267131392,0.9995817583992944,-166.67711237896555
8.276422656,0.9996424552985733,-167.1172436889899
8.285714432,0.9997212976265165,-167.55838927821983
8.295005696,0.9998144018194499,-168.0007261544659
8.304297472,0.9999169602220668,-168.44441852887533
8.313588736,1.000023846073617,-168.88954689749082
8.322880512,1.0001296474556522,-169.33613603753716
8.332171776,1.0002289251066865,-169.78415715963706
8.341463552,1.0003166178334797,-170.23348052987564
8.350754816,1.00038821724217,-170.68393586763685
8.360046592,1.0004402667873353,-171.13529336644228
8.369337856,1.0004698693171024,-171.58724796403584
8.378629632,1.0004754182081856,-172.03953968237687
8.387920896,1.0004566776247636,-172.49182345103782
8.397212672,1.0004144810206486,-172.94383303984407
8.406503936,1.0003508619967416,-173.395221632236
8.415795712,1.000269141636771,-173.84577007610966
8.425086976,1.000173186587522,-174.29524216787522
8.434378752,1.0000680079441642,-174.74348935823411
8.443670016,0.9999587687796077,-175.1904335835426
8.452961792,0.999851177719018,-175.63603458306375
8.462253056,0.9997505566711102,-176.08039322642415
8.471544832,0.9996621784640672,-176.52358366720935
8.480836096,0.9995905165520746,-176.9658031471637
8.490127872,0.9995391598383909,-177.40728813392215
8.499419136,0.9995109068667198,-177.84830734569505
8.508710912,0.9995072828948943,-178.28921988579438
8.518002176,0.9995284269567004,-178.7303145102149
8.527293952,0.9995733900066889,-179.17186619570575
8.536585216,0.9996399959902482,-179.61423253158134
8.545876992,0.9997248945335631,179.94233013132904
8.555168256,0.999823849634522,179.49766680906822
8.564460032,0.9999317741058105,179.0515674939022
8.573751296,1.0000433385204848,178.60395944693173
8.583043072,1.000152766737782,178.1548872139056
8.592334848,1.000254590137971,177.7043373508242
8.6016256,1.0003436226353153,177.25245430418417
8.610917376,1.000415261978648,176.79948386397461
8.620209152,1.000465765309978,176.34562152996602
8.629500928,1.0004926972005854,175.89120607140796
8.63879168,1.000494328444733,175.4364797838239
8.648083456,1.0004708025067979,174.98184735955962
8.657375232,1.0004229544987517,174.52758753366476
8.666667008,1.0003532319318293,174.074056440919
8.67595776,1.0002653408952784,173.62141562653213
8.685249536,1.000163442048309,173.16996996196596
8.694541312,1.0000526885016234,172.71983091445566
8.703833088,0.9999386747848976,172.27105655751456
8.71312384,0.9998273074375019,171.82372016505684
8.722415616,0.9997240149522024,171.37768293800372
8.731707392,0.9996343587946579,170.93285999728815
8.740999168,0.9995627240450717,170.4890160377506
8.75028992,0.9995129198403555,170.04593670321822
8.759581696,0.999487435854347,169.603277053268
8.768873472,0.9994877724210504,169.1607046987964
8.778165248,0.9995139750315993,168.71794188436778
8.787456,0.9995647239648862,168.27462665766137
8.796747776,0.9996374875470464,167.8304463918267
8.806039552,0.9997288314971142,167.38514105237653
8.815331328,0.999833913243503,166.938526302814
8.82462208,0.9999476016737517,166.49042987009344
8.833913856,1.0000640200882578,166.04075121487926
8.843205632,1.0001774738790639,165.5895568739012
8.852497408,1.0002819052791287,165.13686658144337
8.86178816,1.000372352186238,164.68289608901708
8.871079936,1.0004437853530206,164.22776448764128
8.880371712,1.0004927586016885,163.77179262303167
8.889663488,1.0005166026124046,163.31530024980893
8.89895424,1.0005142289076694,162.85859730619188
8.908246016,1.0004855590363553,162.40202391162993
8.917537792,1.00043168856017,161.94593129979083
8.926829568,1.000355758048921,161.4905882521238
8.93612032,1.0002612439452916,161.03633355159067
8.945412096,1.0001528533699042,160.58330089478514
8.954703872,1.000036281321133,160.1317042826453
8.963995648,0.9999172023548304,159.68158511486223
8.9732864,0.99980171720786,159.23292693801804
8.982578176,0.9996957109115943,158.78566306442517
8.991869952,0.9996046895459768,158.3396309623022
9.001161728,0.9995332662617774,157.89464438320837
9.01045248,0.999485021576966,157.45036167373473
9.019744256,0.9994626419803591,157.00653282412296
9.029036032,0.999467239651516,156.56275287643777
9.038327808,0.9994987982728766,156.11872670123148
9.04761856,0.9995556120802792,155.67407931426234
9.056910336,0.999635056909847,155.22851585449752
9.066202112,0.9997331141847666,154.78176640900296
9.075493888,0.9998448520953893,154.33360213073453
9.08478464,0.9999645400775223,153.88390927697682
9.094076416,1.0000862343875263,153.43258785669582
9.103368192,1.0002037726084814,152.97969298918693
9.112659968,1.0003110913914244,152.525283346046
9.12195072,1.0004028166901595,152.06952444201127
9.131242496,1.0004740743878635,151.61267310346446
9.140534272,1.0005213855294308,151.15497848334365
9.149826048,1.0005422053033068,150.69682323513294
9.1591168,1.0005352639078475,150.23851014333957
9.168408576,1.0005010355848962,149.78040763694077
9.177700352,1.0004410048101133,149.32287319097912
9.186992128,1.000358115530641,148.8662273590852
9.19628288,1.000256563948067,148.41072709529848
9.205574656,1.0001415607641353,147.95659486886012
9.214866432,1.000018591137692,147.50395665066466
9.224158208,0.9998942032866992,147.05287330768823
9.233449984,0.9997744056904779,146.6033623981936
9.242740736,0.9996655649137072,146.15531079052386
9.252032512,0.9995730991740761,145.70853229946644
9.261324288,0.9995018475832741,145.26281123850492
9.270616064,0.9994554587720252,144.81780428730883
9.279906816,0.9994362117094702,144.37321168208496
9.289198592,0.9994453485625847,143.9286876161474
9.298490368,0.9994826530057194,143.48382706907563
9.307782144,0.9995461307301877,143.0382751892298
9.317072896,0.999632602868399,142.59175492313176
9.326364672,0.9997378510388297,142.14396049277082
9.335656448,0.9998566504455831,141.6946861494193
9.344948224,0.9999828225973035,141.24377669581972
9.354238976,1.0001101233247767,140.79121679566597
9.363530752,1.0002320152125908,140.3370002575387
9.372822528,1.0003423093715396,139.88125445771567
9.382114304,1.0004354035224325,139.4241450290532
9.391405056,1.0005065785071696,138.9659387917723
9.400696832,1.0005520979181084,138.50693265168184
9.409988608,1.0005693600804195,138.0474651688182
9.419280384,1.000557709191973,137.58797279635132
9.428571136,1.0005173997191534,137.128743120903
9.437862912,1.0004505427225676,136.67016465477727
9.447154688,1.000360397633886,136.21260178000787
9.456446464,1.0002512836628903,135.75629637263046
9.465737216,1.0001288857079393,135.30144522148566
9.475028992,0.9999993193280733,134.8482151684604
9.484320768,0.9998691329636326,134.39664025552767
9.493612544,0.9997447843516567,133.94671379519562
9.502903296,0.9996328444297579,133.49828924033363
9.512195072,0.999538970390704,133.05120136957515
9.521486848,0.9994678678033729,132.6051648040442
9.530778624,0.9994233631257672,132.15988298862968
9.540069376,0.9994078533454503,131.71501520177344
9.549361152,0.9994220726739005,131.27010931609723
9.558652928,0.9994656070131609,130.8248518001356
9.567944704,0.9995360846851662,130.3788531752904
9.577235456,0.999630270199234,129.93173618208064
9.586527232,0.9997432850144903,129.48328956260903
9.595819008,0.999869673806394,129.03328169201217
9.605110784,1.0000028271135162,128.5815865418376
9.614401536,1.0001360282061926,128.12815202054284
9.623693312,1.0002626921913285,127.67298216278537
9.632985088,1.000376132411827,127.21625268297642
9.642276864,1.000470693378776,126.75815022230758
9.651567616,1.0005415080890947,126.29896063510706
9.660859392,1.0005848746461952,125.83900167792953
9.670151168,1.0005984850774214,125.37864061915631
9.679442944,1.000581529140482,124.91827955985904
9.688733696,1.000534757393824,124.45831845447934
9.698025472,1.0004604923867642,123.99909281201036
9.707317248,1.0003623726590167,123.54097513416612
9.716609024,1.000245239333388,123.08423896611686
9.725899776,1.0001150319359262,122.62909672426137
