freq,mag,phase
6.0,0.9997523301582523,-145.53497269152305
6.002286592,0.99980640176011,-145.67773479921274
6.004572672,0.9998732395322194,-145.82139228181586
6.006859264,0.9999485894131688,-145.96601839922755
6.009145344,1.0000275284408016,-146.11177772456716
6.011431936,1.0001050353706007,-146.25862739341508
6.013718016,1.000176348625131,-146.40657865944334
6.016004608,1.0002368574390552,-146.5554098342872
6.018290688,1.000282737580945,-146.70503531759678
6.02057728,1.0003110913797693,-146.85517065369092
6.022863872,1.0003200634806604,-147.00554953825917
6.025149952,1.0003092032113021,-147.15590373011776
6.027436544,1.0002789802372747,-147.30594820262755
6.029722624,1.0002315397906856,-147.45537572111323
6.032009216,1.0001697778315821,-147.60399595745838
6.034295296,1.0000975901893996,-147.75163797044067
6.036581888,1.000019554906376,-147.89816609042128
6.03886848,0.9999407205181166,-148.0435319572139
6.04115456,0.9998659169010042,-148.18774904703835
6.043441152,0.9998000024853169,-148.3309493123989
6.045727232,0.9997470746909258,-148.47325038330195
6.048013824,0.9997105867861216,-148.61485637817185
6.050299904,0.9996927657568944,-148.75602951240995
6.052586496,0.9996948587073802,-148.89711501007213
6.054872576,0.9997167006884269,-149.03831913398204
6.057159168,0.9997569216283597,-149.17998078584122
6.05944576,0.9998128788133174,-149.32228703828142
6.06173184,0.9998810821594188,-149.46549178210552
6.064018432,0.9999572470720847,-149.60972358544603
6.066304512,1.0000364477561476,-149.75506353376264
6.068591104,1.0001138047902856,-149.90151763610925
6.070877184,1.0001843124197614,-150.04902553082394
6.073163776,1.0002435257242228,-150.19745222677423
6.075450368,1.0002877140084174,-150.346618853879
6.077736448,1.000314017375087,-150.49626441737317
6.08002304,1.000320760194541,-150.64610873208827
6.08230912,1.0003076052291582,-150.79591914718063
6.084595712,1.0002752747934607,-150.94536356875045
6.086881792,1.0002258781171027,-151.09419225997482
6.089168384,1.0001625236129874,-151.24218696694444
6.091454464,1.0000892219835824,-151.38915688445974
6.093741056,1.000010539946984,-151.5350183150162
6.096027648,0.9999317243214144,-151.67968294938714
6.098313728,0.9998574594852364,-151.8231975327269
6.10060032,0.9997925283216567,-151.96573459950216
6.1028864,0.99974127364517,-152.1073762762371
6.105172992,0.9997066907815193,-152.2483580462367
6.107459072,0.9996910786707772,-152.3889282762449
6.109745664,0.9996954861816612,-152.5294322253827
6.112032256,0.9997195601227925,-152.67013857619673
6.114318336,0.9997618062274346,-152.81125431488252
6.116604928,0.9998195232257885,-152.95310422955
6.118891008,0.999889072880685,-153.09583241044388
6.1211776,0.9999660283341267,-153.2396168607438
6.12346368,1.0000456637607358,-153.38453113204406
6.125750272,1.0001225843232702,-153.5305232926382
6.128036352,1.0001922844837134,-153.67760243481277
6.130322944,1.0002501130619956,-153.82554223457032
6.132609536,1.0002924805074318,-153.97425457470283
6.134895616,1.0003166924958549,-154.1233582720173
6.137182208,1.000321177546948,-154.2726545841777
6.139468288,1.000305733928983,-154.42188023532614
6.14175488,1.0002712121490132,-154.5706791872454
6.14404096,1.0002199033420633,-154.7188639402698
6.146327552,1.0001549642622272,-154.8661999399101
6.148614144,1.000080621882193,-155.01243511706616
6.150900224,1.0000015694328872,-155.15757668987902
6.153186816,0.99992260810921,-155.3015341224579
6.155472896,0.999849017262499,-155.44436588759498
6.157759488,0.9997852861336305,-155.5861459776646
6.160045568,0.9997355952039844,-155.7270949117039
6.16233216,0.9997030272363461,-155.86740922242512
6.16461824,0.999689687702553,-156.00740566140593
6.166904832,0.9996963774885377,-156.14728881905242
6.169191424,0.9997226906558817,-156.28739946167096
6.171477504,0.9997670057101068,-156.42799820997152
6.173764096,0.9998265079208091,-156.56932133180484
6.176050176,0.999897325155301,-156.71158876992175
6.178336768,0.9999751765911776,-156.8549001685557
6.180622848,1.0000548441998331,-156.99933803734854
6.18290944,1.0001314967855426,-157.14486714969914
6.18519552,1.0002002738088183,-157.29142310917686
6.187482112,1.0002566472135235,-157.43889717403127
6.189768704,1.0002971398161575,-157.58702586835054
6.192054784,1.0003192398067036,-157.73558643121999
6.194341376,1.0003213817799879,-157.88433645069318
6.196627456,1.0003036126130231,-158.03288135172156
6.198914048,1.000266923871464,-158.18107600398312
6.201200128,1.0002137207577468,-158.32853921348502
6.20348672,1.0001472803739448,-158.4751517338372
6.205773312,1.0000718253051775,-158.6206507643784
6.208059392,0.9999922014468908,-158.76505874089304
6.210345984,0.9999134948605765,-158.90825583547806
6.212632064,0.9998404950022647,-159.05033259717564
6.214918656,0.9997780750357821,-159.19141485782984
6.217204736,0.9997300839834746,-159.33163961755193
6.219491328,0.9996995174643231,-159.47127614132208
6.221777408,0.9996884185625704,-159.6105598649246
6.224064,0.9996974719763583,-159.74983390272664
6.226350592,0.9997261205456516,-159.88936638480243
6.228636672,0.9997724376687686,-160.02940893506093
6.230923264,0.9998336130844097,-160.17020045082765
6.233209344,0.9999058027788901,-160.31191027833
6.235495936,0.9999843071512861,-160.45470995242752
6.237782016,1.0000641919578508,-160.59865240171908
6.240068608,1.000140415994034,-160.74369881003102
6.2423552,1.000208061524572,-160.8897815873927
6.24464128,1.0002630105120558,-161.0366589381545
6.246927872,1.0003016115215861,-161.1842494628615
6.249213952,1.000321477509055,-161.33224652890235
6.251500544,1.0003212874571352,-161.4803359456113
6.253786624,1.0003011718509547,-161.62825823362192
6.256073216,1.0002622957931828,-161.77572929265344
6.258359296,1.0002072053050606,-161.92246589529515
6.260645888,1.0001392583183382,-162.06834094103542
6.26293248,1.000062827352937,-162.21308471442762
6.26521856,0.9999828476245994,-162.35668676932596
6.267505152,0.9999041693331348,-162.49910357535606
6.269791232,0.999832009363475,-162.64039208958442
6.272077824,0.9997709515658134,-162.78072541525833
6.274363904,0.9997246896569817,-162.92019002305628
6.276650496,0.9996962267615547,-163.0591205194303
6.278937088,0.9996874684319184,-163.19772643129386
6.281223168,0.9996988534166148,-163.33634915786584
6.28350976,0.9997297616688544,-163.47525739271597
6.28579584,0.999778172926452,-163.61469930233773
6.288082432,0.9998410693102404,-163.7549333969744
6.290368512,0.9999144840946793,-163.89612155806952
6.292655104,0.9999936039011686,-164.03837972607064
6.294941184,1.0000736688810719,-164.1818075312347
6.297227776,1.000149233963109,-164.32630981751444
6.299514368,1.0002158977956452,-164.47181861356907
6.301800448,1.0002692170837608,-164.61818491651715
6.30408704,1.000305806554222,-164.7651643746729
6.30637312,1.000323468942254,-164.91252847973198
6.308659712,1.0003209293504451,-165.05998887336622
6.310945792,1.0002984586132395,-165.20719211988066
6.313232384,1.0002573931591927,-165.3539285374766
6.315518464,1.0002003813435065,-165.49994762036684
6.317805056,1.0001310377208394,-165.64500495672695
6.320091648,1.0000536576214043,-165.7889682984742
6.322377728,0.9999733406489948,-165.93176659460678
6.32466432,0.9998950233024979,-166.07333242964862
6.3269504,0.9998236970915125,-166.2138382466938
6.329236992,0.9997638932312339,-166.35336691834954
6.331523072,0.9997194680952525,-166.49209033286346
6.333809664,0.9996932257737738,-166.63027679898948
6.336096256,0.9996868320625597,-166.76818331633058
6.338382336,0.999700568196744,-166.90610131261937
6.340668928,0.9997338140997685,-167.0443761028307
6.342955008,0.9997843195852248,-167.1832244011758
6.3452416,0.9998488998170604,-167.3228471760439
6.34752768,0.999923386933207,-167.46347346363711
6.349814272,1.0000032243683434,-167.60519189338868
6.352100352,1.0000831142816005,-167.7480361625288
6.354386944,1.0001582461438494,-167.89197993970043
6.356673536,1.0002237666024756,-168.03697744246998
6.358959616,1.0002753279798264,-168.18271203541778
6.361246208,1.0003099750934192,-168.32909260559714
6.363532288,1.000325287568469,-168.4758237758362
6.36581888,1.0003202775281923,-168.6225521966232
6.36810496,1.0002953837835222,-168.76905607144653
6.370391552,1.000252212775475,-168.9150442373011
6.372678144,1.000193322923749,-169.06026865071394
6.374964224,1.0001224857393096,-169.20452118437527
6.377250816,1.000044297075018,-169.34764322197313
6.379536896,0.999963625109813,-169.48958684152427
6.381823488,0.9998856464277008,-169.63037315806056
6.384109568,0.9998152353757165,-169.7700024143566
6.38639616,0.9997569563945917,-169.90872830761376
6.38868224,0.9997144946656995,-170.04666880128718
6.390968832,0.999690394130588,-170.18408437057494
6.393255424,0.9996864117156834,-170.32124941438263
6.395541504,0.999702644274772,-170.45850408551004
6.397828096,0.9997381834643234,-170.59607535433287
6.400114176,0.9997907564871267,-170.73428047562598
6.402400768,0.9998568913397761,-170.87332511886106
6.404686848,0.9999325403050833,-171.01335418640997
6.40697344,1.0000129841332632,-171.15450509569615
6.409260032,1.0000928021454594,-171.296806142222
6.411546112,1.000167225146975,-171.44015789998423
6.413832704,1.0002314461357977,-171.58454211297067
6.416118784,1.0002813502103551,-171.72966972966924
6.418405376,1.0003139246547603,-171.87541973017633
6.420691456,1.0003267783665186,-172.02141009351078
6.422978048,1.000319360995285,-172.1674924356068
6.425264128,1.00029212905457,-172.31323302119466
6.42755072,1.0002466706666304,-172.45845493084116
6.429837312,1.0001859627999696,-172.6028306899213
6.432123392,1.0001137372478324,-172.74623307378567
6.434409984,1.0000347387239747,-172.8885262114576
6.436696064,0.999953811657102,-173.02962645128395
6.438982656,0.9998762512473692,-173.169512420624
6.441268736,0.9998069219167437,-173.30831033857453
6.443555328,0.9997500867455965,-173.44618563747449
6.44584192,0.9997095072492116,-173.58332725966787
6.448128,0.99968780068628,-173.71991043202914
6.450414592,0.999686219056124,-173.85637312137746
6.452700672,0.9997049614328506,-173.99288476981377
6.454987264,0.9997427353535531,-174.12979417359037
6.457273344,0.9997973101970647,-174.26733601686607
6.459559936,0.9998651527863052,-174.40576088341967
6.461846016,0.9999418930694614,-174.5452027332371
6.464132608,1.000022702065436,-174.6857635926493
6.4664192,1.0001024533550682,-174.8274453809722
6.46870528,1.0001761716728819,-174.97023357374425
6.470991872,1.0002390469153721,-175.11396488828896
6.473277952,1.0002871592428244,-175.2584644653256
6.475564544,1.0003174223081923,-175.40354070791264
6.477850624,1.0003280182639207,-175.5488813247084
6.480137216,1.000318125345054,-175.69419339326913
6.482423296,1.00028840235935,-175.8391536415949
6.484709888,1.0002407410588812,-175.9835064350995
6.48699648,1.000178165629862,-176.1271102960289
6.48928256,1.0001047955450657,-176.26967721453866
6.491569152,1.0000249652722633,-176.41105661429958
6.493855232,0.9999439506903326,-176.551254986555
6.496141824,0.9998668063810071,-176.69026052032015
6.498427904,0.9997985304153963,-176.82817790814204
6.500714496,0.9997433932545545,-176.9652062654302
6.503001088,0.9997048549973526,-177.1014852569981
6.505287168,0.9996854182787147,-177.23732635938347
6.50757376,0.9996863083929819,-177.37298644542702
6.50985984,0.9997075555132725,-177.50878105058516
6.512146432,0.9997477055944594,-177.64500621879185
6.514432512,0.9998043105447673,-177.7819147239176
6.516719104,0.9998736420696784,-177.9196841235134
6.519005184,0.9999514668591283,-178.05849268092967
6.521291776,1.000032624923335,-178.19841968779014
6.523578368,1.0001122282472288,-178.33951079071034
6.525864448,1.000185000851435,-178.4816419657907
6.52815104,1.0002466217597856,-178.6247833982849
6.53043712,1.000292754875208,-178.76861853464746
6.532723712,1.0003208039895388,-178.91299325172452
6.535009792,1.0003289044570471,-179.05760327060705
6.537296384,1.0003164514021756,-179.2021349881486
6.539582976,1.000284326527351,-179.3463114232939
6.541869056,1.000234555179398,-179.48984901356494
6.544155648,1.0001701732703328,-179.63257200465875
6.546441728,1.0000953829971158,-179.77423079781298
6.54872832,1.0000149363135182,-179.9147074009044
6.5510144,0.999933806118956,179.9459994498819
6.553300992,0.9998573253849464,179.80786599321075
6.555587072,0.9997902993834404,179.6708357084981
6.557873664,0.9997366684364659,179.53472447727628
6.560160256,0.9997003601224811,179.39926733207633
6.562446336,0.9996833646096599,179.2642680034013
6.564732928,0.9996869172366308,179.1293552514579
6.567019008,0.9997105442965074,178.99429536120246
6.5693056,0.9997530555854818,178.8587986022213
6.57159168,0.9998116319311894,178.72259581732004
6.573878272,0.9998824705809153,178.5854527656214
6.576164864,0.9999612126787379,178.4472597849163
6.578450944,1.0000428408950388,178.3079483423886
6.580737536,1.0001221375901066,178.16750887065044
6.583023616,1.0001940329930492,178.02598538192166
6.585310208,1.00025402658759,177.88354346296143
6.587596288,1.0002982943388419,177.74036232259587
6.58988288,1.0003239819891487,177.5967184204057
6.59216896,1.0003296450030745,177.45285237057672
6.594455552,1.0003145489505936,177.3091043971102
6.596742144,1.000280003419833,177.165727128632
6.599028224,1.0002279865521648,177.0230428090069
6.601314816,1.0001618953483082,176.8812045144971
6.603600896,1.0000859428402453,176.74048065368962
6.605887488,1.0000048351150246,176.6009105272652
6.608173568,0.9999237338056468,176.4625512701906
6.61046016,0.9998478485310323,176.32535919066194
6.612746752,0.9997819956885083,176.18922795334817
6.615032832,0.9997303175049493,176.05398429474513
6.617319424,0.999696121899557,175.91943111567565
6.619605504,0.9996815440833456,175.78519537917015
6.621892096,0.9996876794420395,175.65110462675491
6.624178176,0.9997139748800661,175.51681454006166
6.626464768,0.9997587509134189,175.38201406303935
6.628750848,0.9998192875606526,175.24648466729477
6.63103744,0.9998916262292014,175.11001948104283
6.633324032,0.9999712977703634,174.97249253275533
6.635610112,1.0000531093147351,174.83383116600555
6.637896704,1.0001320192171825,174.69402274587694
6.640182784,1.0002029029763377,174.55313962210013
6.642469376,1.0002613094017618,174.41134118261886
6.644755456,1.0003035173389296,174.26889915800803
6.647042048,1.0003269611241774,174.1259472410875
6.649328128,1.0003299696598307,173.98286769700013
6.65161472,1.0003123352487115,173.83989757408827
6.653901312,1.0002753028904086,173.69740048792292
6.656187392,1.0002211272672328,173.5555918931546
6.658473984,1.0001533278008445,173.41466761737013
6.660760064,1.0000760230278134,173.2748389209796
6.663046656,0.9999944929511769,173.13620696272795
6.665332736,0.9999135231151391,172.99879085176883
6.667619328,0.9998383288073286,172.86255222954472
6.66990592,0.9997737721288996,172.72732079687202
6.672192,0.9997239727791111,172.59300403006847
6.674478592,0.9996921266927216,172.45929379539828
6.676764672,0.999679994930978,172.32592726993713
6.679051264,0.9996887162136749,172.1926441960674
6.681337344,0.9997175500979097,172.05910920083323
6.683623936,0.9997646930336656,171.92502492348726
6.685910016,0.9998271049930721,171.79019725308922
6.688196608,0.9999010311127091,171.65439318357323
6.6904832,0.9999814346754232,171.51753827256107
6.69276928,1.0000634589336086,171.37951535837468
6.695055872,1.0001420274785715,171.2403614231208
6.697341952,1.0002116897030011,171.10015735847145
6.699628544,1.0002685534444178,170.9590453403767
6.701914624,1.0003085581516267,170.8172805929582
6.704201216,1.0003294280916204,170.67508898309828
6.706487808,1.000329889001952,170.5327940495097
6.708773888,1.000309674509175,170.39068560220466
6.71106048,1.0002702476818015,170.24900416615722
6.71334656,1.0002138789415351,170.10806984867168
6.715633152,1.000144423450469,169.96808470466212
6.717919232,1.0000661513092814,169.82922563035305
6.720205824,0.9999840204202273,169.6915224491506
6.722491904,0.9999031679198298,169.555082672368
6.724778496,0.9998288511308941,169.41975146937028
6.727065088,0.9997657882083523,169.28551148441838
6.729351168,0.9997179152057404,169.1520566263979
6.73163776,0.9996882172804946,169.01923522861526
6.73392384,0.9996788585232439,168.88671876885553
6.736210432,0.9996902749278263,168.75422048341244
6.738496512,0.9997215202014547,168.6214626305771
6.740783104,0.9997710760560432,168.48813541365797
6.743069696,0.9998354347140879,168.35402193374262
6.745355776,0.9999106404276048,168.21891953240984
6.747642368,0.9999918719787794,168.0827025087541
6.749928448,1.0000740393967333,167.94535338888113
6.75221504,1.0001518806845424,167.80683398482904
6.75450112,1.000220435445816,167.66731390690103
6.756787712,1.0002755323128893,167.52690639693336
6.759073792,1.0003133654068637,167.38585834550452
6.761360384,1.0003317580753177,167.24445528264116
6.763646976,1.0003293941037252,167.10293730830824
6.765933056,1.0003066550873183,166.96164303948626
6.768219648,1.0002646746319241,166.8208477096284
6.770505728,1.0002063265901264,166.6808392577943
6.77279232,1.000135119081729,166.54178772703207
6.7750784,1.0000557602627271,166.4038647204453
6.777364992,0.9999732435249263,166.26715668989863
6.779651584,0.9998927066604854,166.13165928600247
6.781937664,0.999819353840803,165.99731381900057
6.784224256,0.9997577692467658,165.86401212542648
6.786510336,0.9997120128992785,165.73150745815676
6.788796928,0.9996847741954001,165.59954053942172
6.791083008,0.9996780152513677,165.46790112252825
6.7933696,0.9996920409283658,165.336210696526
6.79565568,0.9997259980629603,165.2042217556127
6.797942272,0.9997778069123251,165.07164053088752
6.800228864,0.9998439795362724,164.9382063923802
6.802514944,0.9999205409960777,164.80380797447216
6.804801536,1.0000024784562243,164.66828159566754
6.807087616,1.0000846778700039,164.53152618843032
6.809374208,1.0001619490052442,164.39371114087203
6.811660288,1.0002291492178177,164.2548870070913
6.81394688,1.0002823737752908,164.1151625088485
6.81623296,1.0003180382173062,163.97487339922665
6.818519552,1.00033386801532,163.83423023960762
6.820806144,1.0003287940706997,163.6935395153583
6.823092224,1.00030324974219,163.55310668940558
6.825378816,1.0002588732915838,163.41321088254952
6.827664896,1.0001983911217247,163.27410545142084
6.829951488,1.000125720664299,163.1360240350187
6.832237568,1.0000452576287313,162.99907061363422
6.83452416,0.9999624067268092,162.86332336529924
6.836810752,0.9998822342542529,162.72882012406114
6.839096832,0.9998099001353754,162.595435023153
6.841383424,0.9997499457269627,162.46308168102357
6.843669504,0.9997063077142102,162.33148370004793
6.845956096,0.9996815702292703,162.20044858383613
6.848242176,0.9996775242780251,162.06963159897666
6.850528768,0.9996942443521015,161.93876899052847
6.852814848,0.9997309206155446,161.80755083893382
6.85510144,0.999784928814474,161.67570705023851
6.857388032,0.999852991436037,161.54298892083165
6.859674112,0.9999307753294152,161.40922587933514
6.861960704,1.0000134445834403,161.27439886564787
6.864246784,1.0000955614157068,161.1383661004576
6.866533376,1.0001720741261022,161.00118499539425
6.868819456,1.0002379122393472,160.8630472281037
6.871106048,1.00028913815528,160.72408528116526
6.87339264,1.0003224476601265,160.58453847647684
6.87567872,1.0003355267110996,160.44466151382463
6.877965312,1.0003278869556291,160.30477324103234
6.880251392,1.0002995676754225,160.16524054568117
6.882537984,1.0002526577491895,160.0262073799998
6.884824064,1.0001901339587307,159.88804354108171
6.887110656,1.0001158687878378,159.75092252077235
6.889396736,1.0000345682387066,159.61496558500363
6.891683328,0.9999515215653048,159.48022391837299
6.89396992,0.9998717787695666,159.34669005208025
6.896256,0.9998005578791797,159.21428611832545
6.898542592,0.999742343950999,159.08287674298896
6.900828672,0.9997009006640571,158.95222092226064
6.903115264,0.9996787579895403,158.82207874568095
6.905401344,0.9996773833604059,158.69210076770764
6.907687936,0.9996970404197362,158.56205674135276
6.909974528,0.9997361755032931,158.4316323293127
6.912260608,0.9997924328673131,158.30049669599012
6.9145472,0.9998623025493919,158.16849069744933
