freq,mag,phase
6.0,0.9991795841759389,79.68223163779268
6.002287104,0.9993048732115655,79.5144879590669
6.004574208,0.9994742411314751,79.34459616233869
6.006861312,0.9996770513596587,79.17202944791525
6.009147904,0.9999003413130757,78.99642040659202
6.011435008,1.0001303741628425,78.81751998703356
6.013722112,1.0003523924389575,78.63536177191429
6.016009216,1.0005524772180527,78.45017753057367
6.01829632,1.000718060850878,78.26234054838368
6.020583424,1.0008387500449034,78.07244500352148
6.022870016,1.000906824745436,77.88122147609262
6.02515712,1.0009181846889652,77.6894237204715
6.027444224,1.0008720069374868,77.49790260364072
6.029731328,1.0007710773691405,77.30744042283806
6.032018432,1.0006218036608672,77.11880287859364
6.034305536,1.0004335316945216,76.93262680692328
6.036592128,1.0002181541592592,76.74939436782493
6.038879232,0.9999890666305669,76.56938862601518
6.041166336,0.9997609218027114,76.39270863327953
6.04345344,0.999547819254733,76.21924635810284
6.045740544,0.9993634089974877,76.04870292825092
6.048027648,0.9992191200996906,75.88054028094945
6.05031424,0.9991243492033599,75.7141298210321
6.052601344,0.9990848738932828,75.54873840633674
6.054888448,0.9991033607914664,75.38348683881728
6.057175552,0.9991784836985538,75.21760067072738
6.059462656,0.999305659202785,75.0502305409076
6.06174976,0.9994769063700948,74.88073312898639
6.064036352,0.9996813505649096,74.70852641386537
6.066323456,0.9999061389806594,74.53321516984929
6.06861056,1.0001370693251384,74.35462794704081
6.070897664,1.0003596586671974,74.17276251774797
6.073184768,1.00055986433298,73.98785437753712
6.075471872,1.0007250919760833,73.80031088604025
6.077758464,1.0008450418493664,73.6107184695807
6.080045568,1.000911975099374,73.41978251947475
6.082332672,1.000921759505177,73.22831309834162
6.084619776,1.0008738229996355,73.03713762636096
6.08690688,1.0007709908749036,72.84704135304997
6.089193984,1.000619977985912,72.65882076933194
6.091481088,1.0004298668978053,72.47306505211905
6.09376768,1.0002129339878594,72.29027975366391
6.096054784,0.9999827519691293,72.11075346878847
6.098341888,0.9997536588146247,71.93454195972403
6.100628992,0.9995403017433145,71.76156981452831
6.102916096,0.9993558814355962,71.59150587841899
6.1052032,0.9992123279067999,71.42382842666015
6.107489792,0.999118520908817,71.25789831115257
6.109776896,0.9990804327468397,71.09293696743744
6.112064,0.9991005085978965,70.9281324264015
6.114351104,0.999177551625791,70.7626361268777
6.116638208,0.9993066814710785,70.5956715962842
6.118925312,0.9994797230033783,70.42650726219405
6.121211904,0.9996858260338569,70.2546064365134
6.123499008,0.9999119684610088,70.0796180081567
6.125786112,1.0001439163361925,69.90128606264783
6.128073216,1.0003671287141525,69.71970811303994
6.13036032,1.0005674956510175,69.53504941539134
6.132647424,1.000732391101702,69.34776664289228
6.134934016,1.0008514627056644,69.15842888541376
6.13722112,1.0009171312478888,68.9677918508962
6.139508224,1.0009254638047729,68.77662557542061
6.141795328,1.0008756298738342,68.5857686131435
6.144082432,1.0007709817521468,68.39603723187172
6.146369536,1.0006179003121167,68.208184924611
6.148656128,1.0004261748806447,68.02283659167053
6.150943232,1.0002076966337996,67.84047322623815
6.153230336,0.9999761939842439,67.66136908517349
6.15551744,0.9997463076853678,67.48564889737449
6.157804544,0.9995325141970092,67.31313160712689
6.160091648,0.9993483527839322,67.14354243630804
6.162378752,0.9992053516214154,66.97633632306334
6.164665344,0.9991125783134822,66.81084305543466
6.166952448,0.9990759534408283,66.64632567392445
6.169239552,0.9990977235900119,66.48191237597959
6.171526656,0.9991766579826242,66.31681073424427
6.17381376,0.9993077471213248,66.15018967797916
6.176100864,0.9994826421717065,65.98134845826536
6.178387456,0.9996904400157487,65.8097516982277
6.18067456,0.9999180632802753,65.63501533739523
6.182961664,1.0001510957009152,65.45693459699727
6.185248768,1.0003748941279538,65.27557470045211
6.187535872,1.0005752336615894,65.0911648260085
6.189822976,1.0007397758473857,64.9041216189631
6.192109568,1.000857931455914,64.71505216049655
6.194396672,1.0009224203721474,64.52465604831006
6.196683776,1.0009290205043502,64.33375488627527
6.19897088,1.0008774439004806,64.14321105498429
6.201257984,1.000770772865022,63.95381785973572
6.203545088,1.0006158148834596,63.76630312316177
6.20583168,1.0004221664337398,63.581351486981774
6.208118784,1.0002021399854741,63.399381153452296
6.210405888,0.9999694198540485,63.22071524760028
6.212692992,0.9997387797931561,63.04541446662131
6.214980096,0.9995245958544399,62.87336200227678
6.2172672,0.999340627433354,62.70420273287489
6.219553792,0.9991982652608283,62.53743830617045
6.221840896,0.9991066029737831,62.372391250973564
6.224128,0.9990715793304522,62.208256954976235
6.226415104,0.9990950490037339,62.044255922995745
6.228702208,0.9991759173144319,61.87947200411348
6.230989312,0.9993090224071023,61.71316801697935
6.233275904,0.9994858850298933,61.544634245431745
6.235563008,0.9996954278917476,61.37330955628824
6.237850112,0.9999243395869688,61.19880123793934
6.240137216,1.0001584220449442,61.02097150492282
6.24242432,1.0003827612538856,60.83982042513812
6.244711424,1.0005832265318046,60.65560655685099
6.246998528,1.0007473224377907,60.46878094371354
6.24928512,1.0008646240843335,60.27991796197111
6.251572224,1.0009277477858343,60.08974655461071
6.253859328,1.0009326819248743,59.89912254440172
6.256146432,1.0008791930150094,59.70883976474046
6.258433536,1.000770558273842,59.51974934341272
6.26072064,1.0006134987485995,59.33258126955521
6.263007232,1.0004180705004855,59.14796874318219
6.265294336,1.0001963798252964,58.966397963905465
6.26758144,0.9999624011528253,58.78812595428317
6.269868544,0.9997309939265895,58.613240983263154
6.272155648,0.9995165678585125,58.44162202756762
6.274442752,0.9993327425763248,58.272883460430954
6.276729344,0.9991910299804506,58.10653369082643
6.279016448,0.9991006264875135,57.94187202283331
6.281303552,0.9990669930832273,57.77813962967812
6.283590656,0.9990923599708195,57.61446581337485
6.28587776,0.9991751913987373,57.450056028771506
6.288164864,0.9993104210739197,57.28404008170516
6.290451456,0.999489181831422,57.11575984206534
6.29273856,0.9997004580813443,56.944678700018876
6.295025664,0.9999309619995372,56.77040039617513
6.297312768,1.0001659340587876,56.59275536650079
6.299599872,1.0003909179777757,56.411782417395976
6.301886976,1.000591487077194,56.22775284571807
6.304173568,1.00075501643974,56.0411049829085
6.306460672,1.0008713422824638,55.852440129079966
6.308747776,1.0009331157118926,55.66247865982059
6.31103488,1.0009363099680701,55.4720595784974
6.313321984,1.000880930083156,55.282028482558815
6.315609088,1.0007701599332777,55.09321632284625
6.317896192,1.0006111816536227,54.90635886871348
6.320182784,1.0004138550705661,54.72209200105621
6.322469888,1.0001905139036549,54.54087330784483
6.324756992,0.9999552860648072,54.36299589621602
6.327044096,0.9997230688771305,54.18851136344124
6.3293312,0.9995083001265683,54.01728556689746
6.331618304,0.999324663119129,53.84894927017989
6.333904896,0.9991837535028341,53.68298244965215
6.336192,0.999094423013843,53.5187084186497
6.338479104,0.9990624612592877,53.3553360472695
6.340766208,0.9990897885717956,53.19201564557884
6.343053312,0.9991746474939452,53.02787381237786
6.345340416,0.9993118507051477,52.86212847711262
6.347627008,0.9994926865187346,52.694108845126074
6.349914112,0.999705805883621,52.52322364872794
6.352201216,0.9999376307487393,52.34912847201562
6.35448832,1.0001737654922047,52.17165905130255
6.356775424,1.0003992050454378,51.99084996207559
6.359062528,1.0005998091870705,51.80695446739903
6.36134912,1.0007628633190158,51.62045992645788
6.363636224,1.0008782038613897,51.43194256354736
6.365923328,1.0009385100736,51.24217216142325
6.368210432,1.0009400201087137,51.051962245938
6.370497536,1.0008825270002235,50.862156898759544
6.37278464,1.000769746938105,50.67360830942243
6.375071232,1.000608595574929,50.48702741952261
6.377358336,1.000409311263494,50.30306193697357
6.37964544,1.0001843893276747,50.12219843122482
6.381932544,0.9999478849479786,49.94466116948732
6.384219648,0.9997148312439361,49.77054207729228
6.386506752,0.9994997959675641,49.59967934136852
6.388793344,0.9993163935208944,49.431745983434354
6.391080448,0.9991762760571732,49.26615606747166
6.393367552,0.9990882241533087,49.102231483178144
6.395654656,0.9990578072641613,48.939181628033275
6.39794176,0.9990870555237503,48.77616049545177
6.400228864,0.9991740446424903,48.61229721830322
6.402515968,0.9993134214380274,48.44682462380864
6.40480256,0.9994962591255612,48.278997188674346
6.407089664,0.9997111785905496,48.10829271680821
6.409376768,0.9999445215394857,47.93438022621494
6.411663872,1.000181665474901,47.75703147524332
6.413950976,1.0004076446176906,47.57635222295747
6.41623808,1.0006082166965635,47.392577753393354
6.418524672,1.0007707906228693,47.20619399373612
6.420811776,1.0008850811022727,47.017823653779594
6.42309888,1.0009439337226265,46.828200193874544
6.425385984,1.0009436565096324,46.63814870001408
6.427673088,1.000884146107693,46.44856045481435
6.429960192,1.0007691385025517,46.26022282856631
6.432246784,1.0006058861706968,46.073898601799414
6.434533888,1.0004047632877568,45.890230993291624
6.436820992,1.0001781104739276,45.709679822467
6.439108096,0.9999403685945774,45.532479481082916
6.4413952,0.9997065083696431,45.35871084739685
6.443682304,0.9994911419149044,45.18821429395463
6.445968896,0.9993080806266156,45.020617651551795
6.448256,0.9991687012399721,44.85535888413998
6.450543104,0.9990819395390392,44.69178284184852
6.452830208,0.9990531855252359,44.52904929215439
6.455117312,0.9990844639838988,44.36629472725247
6.457404416,0.9991734960331894,44.20269696356561
6.459691008,0.999315015666371,44.03740803902592
6.461978112,0.999499944492415,43.86977347469677
6.464265216,0.9997166941185768,43.6992268949691
6.46655232,0.999951508264614,43.52542350026046
6.468839424,1.0001897367283776,43.348193893046464
6.471126528,1.0004162138732673,43.167613406055466
6.473413632,1.0006167453846517,42.9839411784756
6.475700224,1.0007788230442725,42.79766799480606
6.477987328,1.000891989435635,42.60938323628907
6.480274432,1.00094936472292,42.41988463738273
6.482561536,1.0009472190852526,42.23001180587462
6.48484864,1.0008856295530246,42.04055990290901
6.487135744,1.0007684634832525,41.85244562868615
6.489422336,1.0006030306600489,41.66635740346986
6.49170944,1.0003998959045448,41.48295863216807
6.493996544,1.0001715612712732,41.302685069590154
6.496283648,0.9999325618604494,41.12579473459588
6.498570752,0.9996978818965631,40.95236010506654
6.500857856,0.999482361966233,40.782177875194535
6.503144448,0.9992995564328466,40.6149178270757
6.505431552,0.9991609433907318,40.44998172865797
6.507718656,0.9990755581423142,40.28668354028582
6.51000576,0.9990485600789213,40.12422820261745
6.512292864,0.9990818156927481,39.96173096666293
6.514579968,0.9991730651233195,39.79835386421988
6.51686656,0.9993167224601263,39.63327312646198
6.519153664,0.9995038102632938,39.465790482339145
6.521440768,0.9997224228369311,39.29536470621913
6.523727872,0.9999587486416001,39.12165635298813
6.526014976,1.0001979315691512,38.94451406105342
6.52830208,1.0004250187057335,38.7640058584645
6.530588672,1.0006256257643797,38.58039383537341
6.532875776,1.0007869567065952,38.39416788783344
6.53516288,1.0008991392865705,38.205983455060554
6.537449984,1.0009549747935786,38.01657775702942
6.539737088,1.0009509337854776,37.82680915032432
6.542024192,1.0008871953612108,37.63753273457116
6.544310784,1.0007678198779397,37.449566819346906
6.546597888,1.0006002853455649,37.26370069935372
6.548884992,1.0003950127896544,37.080531034620115
6.551172096,1.000165092676587,36.90051301399615
6.5534592,0.9999247584059291,36.72391033459799
6.555746304,0.9996893256791068,36.55077510953517
6.558033408,0.9994735037695051,36.38091578942784
6.56032,0.9992910196423317,36.21394823989458
6.562607104,0.9991534210218671,36.04931248700712
6.564894208,0.9990692269682895,35.88629914512855
6.567181312,0.9990440196812209,35.724086673077814
6.569468416,0.999079292680579,35.5618211430252
6.57175552,0.999172859806051,35.398622135425526
6.574042112,0.9993188180584629,35.233694981426204
6.576329216,0.9995080130970665,35.06633772404647
6.57861632,0.9997283792086303,34.896015709981945
6.580903424,0.9999662765546726,34.722370644869294
6.583190528,1.000206513136269,34.54527827882475
6.585477632,1.0004340438568786,34.36480624079048
6.587764224,1.0006344804227068,34.18122449853381
6.590051328,1.0007953588565128,33.99505696259043
6.592338432,1.0009063701921377,33.80690678762227
6.594625536,1.0009606519302066,33.617584340640924
6.59691264,1.000954576020379,33.427887335928844
6.599199744,1.0008886902635499,33.23873637974376
6.601486336,1.0007671207640518,33.05092363291819
6.60377344,1.0005973329642541,32.865236665119255
6.606060544,1.0003901120206027,32.68227631011791
6.608347648,1.0001583779894392,32.5025131334694
6.610634752,0.9999167987378509,32.32616720898661
6.612921856,0.9996805270581756,32.1533055344128
6.615208448,0.999464505672633,31.983703043741514
6.617495552,0.9992823325231907,31.817021444845018
6.619782656,0.999145614521822,31.652666789886496
6.62206976,0.9990629514073135,31.4898894803345
6.624356864,0.9990394354431288,31.327928596430933
6.626643968,0.9990767952354843,31.165844569496965
6.628931072,0.9991725638697906,31.00281824487891
6.631217664,0.9993207816294878,30.8380113729261
6.633504768,0.999512049054752,30.670749253030756
6.635791872,0.99973444459833,30.500489556106462
6.638078976,0.9999737842244684,30.326909116710752
6.64036608,1.0002150964218743,30.149834658202497
6.642653184,1.0004430652779395,29.969371282430703
6.644939776,1.0006435560894964,29.785807465425904
6.64722688,1.0008037077310519,29.599630355867482
6.649513984,1.0009136031887012,29.411507887674194
6.651801088,1.000966144113664,29.22220765998516
6.654088192,1.000958201224191,29.03259544369844
6.656375296,1.0008901131285861,28.84351988729558
6.658661888,1.0007662052442836,28.655848915775902
6.660948992,1.0005942133669206,28.470313248114564
6.663236096,1.0003848528219277,28.28754579036889
6.6655232,1.0001514158935765,28.107979664179997
6.667810304,0.999908562382212,27.931873287945066
6.670097408,0.9996714942097713,27.75924481784958
6.672384,0.9994552639032954,27.589921529758488
6.674671104,0.9992735266943128,27.423469787727633
6.676958208,0.9991377229833291,27.259371214777197
6.679245312,0.9990563747642007,27.096842153802267
6.681532416,0.9990347742645221,26.935060730275506
6.68381952,0.9990742173139658,26.773152471796386
6.686106112,0.9991723234977918,26.610260864555368
6.688393216,0.9993228196129972,26.445558514145684
6.69068032,0.999516365884457,26.27835602958326
6.692967424,0.9997405737511602,26.10813613024404
6.695254528,0.9999815636248836,25.934559359033468
6.697541632,1.0002238767197689,25.757480494428872
6.699828224,1.000452409239555,25.576994163732003
6.702115328,1.0006527842273962,25.393399740937515
6.704402432,1.000812236159844,25.207204179758754
6.706689536,1.0009209457739392,25.019068803305466
6.70897664,1.0009719315826942,24.82979667564953
6.711263744,1.0009618795472757,24.640207493678062
6.713550848,1.0008915869287651,24.451206670315056
6.71583744,1.000765282214793,24.26364019026319
6.718124544,1.0005910541137752,24.07823368814432
6.720411648,1.000379643192743,23.895620487634293
6.722698752,1.000144486663336,23.716252355545745
6.724985856,0.9999003026517657,23.5403619388123
6.72727296,0.9996624412602871,23.367954853712618
6.729559552,0.9994459803702739,23.198853660046677
6.731846656,0.9992646767283002,23.032636389674487
6.73413376,0.9991296656276832,22.868740099899323
6.736420864,0.9990497874602355,22.70640137912924
6.738707968,0.9990300585522284,22.5447845417083
6.740995072,0.9990716738868199,22.38303090018325
6.743281664,0.9991720877829828,22.220239573187694
6.745568768,0.9993249382456316,22.05561628247928
6.747855872,0.9995206436661423,21.88846722782581
6.750142976,0.9997468561433956,21.718264634102766
6.75243008,0.9999892970659912,21.54464999320083
6.754717184,1.000232675094252,21.367544126721263
6.757003776,1.0004617152863233,21.18698730245852
6.75929088,1.0006619229399651,21.00336230190036
6.761577984,1.0008207764202954,20.817108853570318
6.763865088,1.000928223395361,20.628949201919415
6.766152192,1.0009775482148418,20.439646053655885
6.768439296,1.0009655442688197,20.25007481091024
6.770725888,1.0008929242387556,20.061118221610318
6.773012992,1.0007643098054204,19.873609189933795
6.775300096,1.0005877051865006,19.688318917708248
6.7775872,1.0003742824915371,19.505840233033876
6.779874304,1.0001373520793146,19.326619467152003
6.782161408,0.9998917924068269,19.150897996750317
6.784448512,0.999653204492443,18.978709168189145
6.786735104,0.999436615072146,18.809819779477394
6.789022208,0.9992555800451249,18.64381060482521
6.791309312,0.9991216736562658,18.48007628200383
6.793596416,0.9990432187946093,18.31791136146542
6.79588352,0.9990253791965866,18.156454226487096
6.798170624,0.9990691976896187,17.994818445929077
6.800457216,0.9991719678532028,17.83209930295856
6.80274432,0.9993270940651527,17.667513756995678
6.805031424,0.9995251328005524,17.50038711830993
6.807318528,0.9997531562959381,17.330152681846855
6.809605632,0.9999971290516378,17.15650440214981
6.811892736,1.0002415995275689,16.979326283454423
6.814179328,1.0004710808312978,16.798713762302793
6.816466432,1.0006713065253552,16.61499848322969
6.818753536,1.0008293868962617,16.42867199805573
6.82104064,1.0009356617942362,16.24043136991842
6.823327744,1.0009831497627877,16.051085441445345
6.825614848,1.0009690844173795,15.861500185760505
6.82790144,1.0008942368716494,15.672544719557738
6.830188544,1.0007632754598315,15.48509308596232
6.832475648,1.0005843233609364,15.299870888160633
6.834762752,1.000368770690988,15.117513656048489
6.837049856,1.0001300538910047,14.93843347570335
6.83933696,0.9998832863874688,14.762872909892522
6.841623552,0.9996439152761828,14.590829581315457
6.843910656,0.9994271413920511,14.422117236577513
6.84619776,0.9992465234683706,14.256288886830253
6.848484864,0.9991135021316555,14.092750106292835
6.850771968,0.9990365675608723,13.930713021514649
6.853059072,0.9990206865904038,13.769365421507334
6.855345664,0.9990667189398991,13.607801655285748
6.857632768,0.999171806604869,13.445151811334464
6.859919872,0.9993294798928826,13.280606562166279
6.862206976,0.9995296071138327,13.113450065538023
6.86449408,0.9997597744781029,12.943176932940387
6.866781184,1.0000051297283656,12.769447488166245
6.869068288,1.0002506898693861,12.59215469982085
6.87135488,1.0004806418448837,12.411447874592634
6.873641984,1.0006806705691471,12.227607867872146
6.875929088,1.0008381365763768,12.041188271555582
6.878216192,1.000943134023573,11.852845961097023
6.880503296,1.0009889455168637,11.66344589437801
6.8827904,1.0009727363250578,11.473815407354367
6.885076992,1.0008955821498704,11.28485870101303
6.887364096,1.0007621877959516,11.09741455618448
6.8896512,1.0005808996849987,10.912239507782079
6.891938304,1.0003633088974926,10.729937957276086
6.894225408,1.000122792662079,10.550986366677037
6.896512512,0.9998746585825835,10.375558105942677
6.898799104,0.9996344855863799,10.203663010839014
6.901086208,0.9994174930157202,10.035104301793377
6.903373312,0.9992373455306662,9.869424955763288
6.905660416,0.9991053945971127,9.706015316839748
6.90794752,0.9990300247245595,9.544102874198618
6.910234624,0.9990159973513109,9.3828448403089
6.912521216,0.9990642975705183,9.221351367739029
6.91480832,0.9991718414372383,9.058725546160527
6.917095424,0.9993318243515995,8.89416468745934
6.919382528,0.9995342722994937,8.726968036360168
6.921669632,0.9997662926396146,8.556614668251308
6.923956736,1.000013353176762,8.38278225754332
6.926243328,1.0002599776162204,8.205377650708336
6.928530432,1.0004903492858632,8.024511733583896
6.930817536,1.0006903381587062,7.840539588638785
6.93310464,1.0008470055407142,7.653983710759625
