freq,mag,phase
6.0,1.0004283174383988,35.19527660174543
6.005528576,1.0004433443613396,35.0541789017717
6.011057152,1.0004327241800206,34.91304268453132
6.01658624,1.000396767836143,34.77218071899986
6.022114816,1.0003377125116675,34.63201021185702
6.027643392,1.000258902783683,34.49283710945252
6.033171968,1.0001648725722339,34.35481330105985
6.038700544,1.0000613510585172,34.21817797903106
6.044229632,0.999954159008964,34.08302018684438
6.049758208,0.9998498085738031,33.949351542555824
6.055286784,0.9997543268257444,33.81704135548008
6.06081536,0.9996733339736719,33.68594975038689
6.066343936,0.9996115659917653,33.55591684237779
6.071873024,0.9995727140573084,33.426543176698246
6.0774016,0.9995590515509363,33.29751957726622
6.082930176,0.9995714218022359,33.168589330180716
6.088458752,0.9996090661249021,33.039194694158326
6.093987328,0.9996697960897606,32.90911476835135
6.099516416,0.9997501200034262,32.7781283147765
6.105044992,0.9998451398721874,32.645870686544306
6.110573568,0.9999495549640315,32.512206442841176
6.116102144,1.0000570182552388,32.37702822113905
6.12163072,1.0001612725166136,32.24040441955974
6.127159808,1.000256195896786,32.10237458056609
6.132688384,1.0003363360640793,31.963107578606035
6.13821696,1.0003967999026033,31.822900870418813
6.143745536,1.00043413319437,31.681940142727623
6.149274112,1.0004461329829222,31.540672264033095
6.1548032,1.0004321196939348,31.399358795453416
6.160331776,1.0003927849535135,31.25844723891239
6.165860352,1.000330504621399,31.11824889544641
6.171388928,1.0002489398488408,30.979078308390907
6.176918016,1.000152808811992,30.84107909514852
6.182446592,1.0000478375962996,30.704537330464625
6.187975168,0.9999399983186917,30.56943506574768
6.193503744,0.9998359017096585,30.435819509363846
6.19903232,0.9997414983338033,30.303589283844286
6.204561408,0.999662244161542,30.172568357245375
6.210089984,0.9996030039508941,30.04250142325777
6.21561856,0.9995670884214141,29.913154701582357
6.221147136,0.999556875574319,29.784109382693707
6.226675712,0.9995726365044961,29.654949965057384
6.2322048,0.9996136895013349,29.52546303174266
6.237733376,0.9996776188395219,29.395241044298093
6.243261952,0.9997605915241214,29.263905393247146
6.248790528,0.9998577960981753,29.131382629703374
6.254319104,0.9999634976310442,28.99739429255274
6.259848192,1.000071531657282,28.861948976796302
6.265376768,1.0001755705676172,28.724985042950216
6.270905344,1.0002694735594426,28.58667686043392
6.27643392,1.0003476769853705,28.44708714784765
6.281962496,1.0004056599629907,28.306574401757455
6.287491584,1.0004399930471326,28.1654512522766
6.29302016,1.0004486554437573,28.02398943551802
6.298548736,1.0004311013537979,27.882565859034585
6.304077312,1.0003883679207775,27.741582664325463
6.309605888,1.0003229413974655,27.60131437124006
6.315134976,1.0002386785488728,27.462104513533333
6.320663552,1.0001404977906911,27.324185159193885
6.326192128,1.0000341602235086,27.187657902288315
6.331720704,0.9999258573739507,27.052670202729683
6.33724928,0.9998220626014649,26.91910557500205
6.342778368,0.9997287039034992,26.7869534595098
6.348306944,0.9996514141263374,26.656004758589432
6.35383552,0.999594716437199,26.52593703747792
6.359364096,0.9995618879329639,26.39654139410226
6.364892672,0.9995549256479516,26.267403857027634
6.37042176,0.9995743115946112,26.138174940941447
6.375950336,0.9996187321063005,26.008498302232674
6.381478912,0.9996857004740696,25.878036046446997
6.387007488,0.9997714278672304,25.746492349309353
6.392536064,0.999870641202772,25.613662846715105
6.398065152,0.9999777029287339,25.479379815138483
6.403593728,1.000086205646991,25.343615223006058
6.409122304,1.0001898219018914,25.20632238045715
6.41465088,1.0002825491222163,25.067666898019166
6.420179456,1.0003587932350757,24.9278482357159
6.425708544,1.000414238587843,24.787054148061614
6.43123712,1.0004454828819456,24.64567777521402
6.436765696,1.0004507659237918,24.504020489796087
6.442294272,1.0004297520309078,24.36248666416197
6.447822848,1.0003835989433159,24.221438324870622
6.453351936,1.0003150927849567,24.081153838839377
6.458880512,1.000228175794841,23.941925650889697
6.464409088,1.000127951554112,23.804036695856468
6.469937664,1.0000202853668767,23.667597938635677
6.47546624,0.9999115877530997,23.532635180840714
6.480995328,0.9998081764678507,23.399174427974323
6.486523904,0.9997160387785348,23.267080270247018
6.49205248,0.9996407918151344,23.13615015756279
6.497581056,0.999586594962077,23.006131583626253
6.503109632,0.9995569276858853,22.876667292968282
6.50863872,0.9995533417445637,22.747466110450617
6.514167296,0.9995762366723905,22.61809044848477
6.519695872,0.9996241089221948,22.488249628520553
6.525224448,0.9996942688782128,22.357561316664505
6.530753536,0.9997824895811267,22.225769828999994
6.536282112,0.9998837359840094,22.092633541079632
6.541810688,0.9999920245628721,21.95804165393458
6.547339264,1.0001009385887134,21.821888798797
6.55286784,1.00020410612904,21.68430073343516
6.558396928,1.0002955279795493,21.54534483271122
6.563925504,1.0003698347142482,21.405197127202243
6.56945408,1.0004225343497881,21.264173225479134
6.574982656,1.0004506554754975,21.122573095341256
6.580511232,1.0004525040061547,20.980778995753305
6.58604032,1.0004279321220997,20.839069408745875
6.591568896,1.0003783668744854,20.69793028739319
6.597097472,1.0003068355180145,20.55760999045504
6.602626048,1.0002172813612755,20.418447612596772
6.608154624,1.000115131021629,20.280590097202907
6.613683712,1.0000062702926649,20.14417379600312
6.619212288,0.9998972355366605,20.009304435253362
6.624740864,0.9997942225142084,19.875909245042784
6.63026944,0.9997034955486219,19.743866811897767
6.635798016,0.9996302687905223,19.612988358296562
6.641327104,0.9995788340027194,19.482933109523426
6.64685568,0.9995523161700652,19.353441306139068
6.652384256,0.999552203969364,19.224134482093294
6.657912832,0.9995785484837866,19.094637524621877
6.663441408,0.999629798749822,18.964613561217444
6.668970496,0.9997030963469999,18.833686694557834
6.674499072,0.9997939253780516,18.701668143812505
6.680027648,0.9998970885156848,18.568202287651392
6.685556224,1.0000064399296198,18.433297593474347
6.6910848,1.0001157546966277,18.296847459835615
6.696613888,1.000218352939616,18.158899954216746
6.702142464,1.0003084302084395,18.01961037526426
6.70767104,1.0003805763986946,17.87916051281462
6.713199616,1.0004305658684576,17.73786792974982
6.718728192,1.0004554981082747,17.596070864107926
6.72425728,1.0004539189132124,17.454084016775703
6.729785856,1.000425847078805,17.31227257831755
6.735314432,1.000372955489373,17.17101961628473
6.740843008,1.000298240101408,17.030677763660158
6.746371584,1.0002061235323654,16.891506108680176
6.751900672,1.0001020851181401,16.75367971341801
6.757429248,0.9999921843295451,16.617350432055872
6.762957824,0.9998827774373211,16.482531035881753
6.7684864,0.9997803989074769,16.34922411663117
6.774014976,0.9996910272953892,16.217228033142675
6.779544064,0.9996200130517934,16.086360475555555
6.78507264,0.9995712960160587,15.956326848447878
6.790601216,0.9995480223632829,15.826789552759413
6.796129792,0.9995513727517543,15.697379412218632
6.801658368,0.9995812930989784,15.567729001085947
6.807187456,0.9996359280014812,15.437534048886427
6.812716032,0.9997122513006307,15.30636337455383
6.818244608,0.99980560485733,15.174025015744052
6.823773184,0.999910654485788,15.040252514376144
6.82930176,1.0000210885607104,14.90500791521215
6.834830848,1.0001305554392614,14.768225901003873
6.840359424,1.0002325391113782,14.629974417477927
6.845888,1.000321150996904,14.49032235898184
6.851416576,1.0003911401312162,14.3496454442193
6.856945152,1.000438375299833,14.208069240115352
6.86247424,1.0004600618879425,14.066027215439219
6.868002816,1.0004549341618332,13.923853574217778
6.873531392,1.000423239321764,13.781933480228544
6.879059968,1.0003669562093809,13.640657147971599
6.884589056,1.000289192940489,13.500277603107945
6.890117632,1.0001946152974264,13.361066640498722
6.895646208,1.0000887543870267,13.223312067170099
6.901174784,0.9999777931662849,13.08702483427459
6.90670336,0.9998682362549426,12.9522843575266
6.912232448,0.9997665084179389,12.81901777732365
6.917761024,0.9996786719682041,12.68705981477861
6.9232896,0.9996097603838259,12.556211909279313
6.928818176,0.9995639735069712,12.426195368793953
6.934346752,0.9995439530221861,12.296600603060863
6.93987584,0.9995508610185513,12.167078598651646
6.945404416,0.9995842855777853,12.03728514271029
6.950932992,0.9996423995091289,11.906856997582466
6.956461568,0.9997217179244591,11.775443657769358
6.961990144,0.9998175097536718,11.642804296317069
6.967519232,0.9999243267495913,11.50877344350213
6.973047808,1.0000358029084833,11.373172857451046
6.978576384,1.0001454390624624,11.236018643789182
6.98410496,1.0002467078959736,11.097439287697132
6.989633536,1.0003337192767205,10.957484404286344
6.995162624,1.0004014568795,10.816445952581358
7.0006912,1.0004457566680747,10.674665601312249
7.006219776,1.000464220539985,10.532390967279701
7.011748352,1.0004554698420165,10.39004874914939
7.017276928,1.0004203225772414,10.2480360947002
7.022806016,1.0003605852393755,10.10666273618596
7.028334592,1.0002798332537897,9.96624203908766
7.033863168,1.0001828776516246,9.827075947188183
7.039391744,1.0000752012599596,9.68932631110092
7.04492032,0.9999633077923725,9.553103098349723
7.050449408,0.9998537198634243,9.418427886547155
7.055977984,0.9997526892703331,9.285231434775145
7.06150656,0.9996664178721141,9.153339385890249
7.067035136,0.9995998824825639,9.022476080741228
7.072563712,0.9995570530765775,8.892446919635404
7.0780928,0.9995402717536568,8.762778343075063
7.083621376,0.9995506858425698,8.633178319643628
7.089149952,0.9995878048921556,8.503217853698077
7.094678528,0.9996492449117289,8.372548235410804
7.100207104,0.9997315375580231,8.240916300365816
7.105736192,0.9998298010969662,8.107966126192277
7.111264768,0.9999384036126414,7.973574404634051
7.116793344,1.0000507703481676,7.8376888850538515
7.12232192,1.0001603682765752,7.7001648104987845
7.127850496,1.0002608409704186,7.561229834492645
7.133379584,1.0003462886735535,7.420981110219849
7.13890816,1.0004115828966655,7.279649359151302
7.144436736,1.0004529427092697,7.137546829833266
7.149965312,1.0004679731260833,6.995094949476742
7.155493888,1.0004557892144819,6.8525815544748605
7.161022976,1.0004170237995067,6.710414852102976
7.166551552,1.0003538541912542,6.568971790592496
7.172080128,1.000270108030469,6.428527330610208
7.177608704,1.0001707305567467,6.2893720722008455
7.18313728,1.0000614276866024,6.151688164880499
7.188666368,0.9999486190152266,6.015511113140515
7.194194944,0.9998389718407955,5.880920182899868
7.19972352,0.9997388921519299,5.747753415217635
7.205252096,0.9996542728798395,5.615885706803192
7.210780672,0.99959018760348,5.4850859010061
7.21630976,0.9995502379323328,5.354970468260872
7.221838336,0.9995368579904456,5.225249839298292
7.227366912,0.9995508359190752,5.095509230715842
7.232895488,0.9995915971681563,4.96537827146063
7.238424576,0.999656477000486,4.834529389984375
7.243953152,0.9997416865445306,4.702605062663637
7.249481728,0.9998423562849584,4.569371996237955
7.255010304,0.9999525442080474,4.434655953568739
7.26053888,1.0000657473005679,4.29837506797169
7.266067968,1.0001753912193798,4.1605162227454855
7.271596544,1.0002748921144813,4.021245781682936
7.27712512,1.0003585837735094,3.8806656970102336
7.282653696,1.0004214931538236,3.7390249714011765
7.288182272,1.0004598028428426,3.596681525221384
7.29371136,1.0004714987350969,3.454004537182386
7.299239936,1.0004556020812536,3.3113281409195654
7.304768512,1.0004132140256972,3.169037237431532
7.310297088,1.0003467495500982,3.027526944986676
7.315825664,1.0002600550024774,2.88706762542387
7.321354752,1.0001583676283687,2.7479381329273838
7.326883328,1.0000474508720232,2.610240608427756
7.332411904,0.9999338113971149,2.4741378551522577
7.33794048,0.9998242122279825,2.339605569431915
7.343469056,0.9997250455615909,2.206506007081031
7.348998144,0.9996422907219693,2.074673400339298
7.35452672,0.9995805830998199,1.943842995059434
7.360055296,0.9995436907947857,1.8137223498087018
7.365583872,0.9995338834682435,1.6839131269957393
7.371112448,0.9995515445317084,1.5540551076674354
7.376641536,0.9995958514427234,1.4237613713874866
7.382170112,0.9996639652663207,1.2926648904445288
7.387698688,0.9997522366942814,1.1604651865395215
7.393227264,0.9998551801211366,1.0269279744271715
7.39875584,0.999966894961798,0.8918957777964355
7.404284928,1.0000808062011604,0.7552623190898049
7.409813504,1.0001903265425678,0.6170612029766875
7.41534208,1.0002888783117363,0.477410213377439
7.420870656,1.0003707048386021,0.33646775274822915
7.426399232,1.0004311052467443,0.1945362120446115
7.43192832,1.000466519420978,0.05194090209024174
7.437456896,1.0004746412442131,-0.09097434478185673
7.442985472,1.000455126238846,-0.2338067122694114
7.448514048,1.0004092325513594,-0.3761955376318642
7.454042624,1.0003393447778939,-0.5177658202863624
7.459571712,1.0002497097006138,-0.6582406495931377
7.465100288,1.0001457309794535,-0.7973902073538861
7.470628864,1.0000332047548135,-0.9350287758634629
7.47615744,0.9999188842141521,-1.0710682761160224
7.481686016,0.9998095034233013,-1.2055616063863586
7.487215104,0.9997114062746197,-1.3385981337338821
7.49274368,0.9996304162930254,-1.4703961680970952
7.498272256,0.9995712860225093,-1.6012223145318252
7.503800832,0.9995375880971051,-1.7313945526718655
7.509329408,0.9995311882960497,-1.8612831379533843
7.514858496,0.9995524827254691,-1.9912928236946095
7.520387072,0.9996003670095455,-2.1218054744193178
7.525915648,0.9996718842758018,-2.253108674239154
7.531444224,0.9997629411675393,-2.385586311298956
7.5369728,0.9998681777984166,-2.5194457092382327
7.542501888,0.9999814480448241,-2.6548392409011967
7.548030464,1.0000960158750887,-2.791827851050621
7.55355904,1.0002053700365394,-2.930379387796016
7.559087616,1.000302878511813,-3.0704033703585236
7.564616192,1.0003827424572234,-3.211641453163376
7.57014528,1.000440516690714,-3.353861919401115
7.575673856,1.0004727365045514,-3.4967285762350913
7.581202432,1.0004773352467444,-3.6398747331769963
7.586731008,1.0004541861862444,-3.782860467706184
7.592260096,1.0004045660101972,-3.9253850785300366
7.597788672,1.0003313991556508,-4.067025005573317
7.603317248,1.000238995209609,-4.207513397650833
7.608845824,1.0001326724626076,-4.346654468455066
7.6143744,1.0000187316152245,-4.484248095244532
7.619903488,0.999903768370771,-4.620237578044764
7.625432064,0.9997946516525447,-4.754673435020037
7.63096064,0.9996976780547903,-4.887652917558637
7.636489216,0.9996186451189392,-5.01944022232558
7.642017792,0.999562225290728,-5.150276098490928
7.64754688,0.9995316308730086,-5.280508160393923
7.653075456,0.9995287755080836,-5.410495824897311
7.658604032,0.9995537311517708,-5.540642870805512
7.664132608,0.9996051960647064,-5.671317826807691
7.669661184,0.9996801672936201,-5.802910320399622
7.675190272,0.9997740802606805,-5.935675069952908
7.680718848,0.9998815151512207,-6.069837137698835
7.686247424,0.999996248439647,-6.205590917335476
7.691776,1.0001115046603468,-6.342955265066756
7.697304576,1.00022037294149,-6.4818815346366545
7.702833664,1.0003165764848974,-6.622226263803971
7.70836224,1.000394697052289,-6.763811502661865
7.713890816,1.0004497344143763,-6.9063619312044295
7.719419392,1.0004787202767111,-7.0494835439881305
7.724947968,1.000479718647289,-7.1928205616435035
7.730477056,1.0004529208213986,-7.335976863838069
7.736005632,1.0003996881021113,-7.4785989350008055
7.741534208,1.0003232816474077,-7.620297066503675
7.747062784,1.0002279167730586,-7.7608308478301185
7.75259136,1.000119333535902,-7.899957726257552
7.758120448,1.000003987946027,-8.03751869535382
7.763649024,0.9998885082959793,-8.173453748979512
7.7691776,0.9997797480375041,-8.307837894729156
7.774706176,0.999684009817083,-8.440803401775035
7.780234752,0.9996070047027154,-8.572543329208855
7.78576384,0.9995533258508503,-8.703403997238517
7.791292416,0.9995260030121712,-8.833643638917815
7.796820992,0.9995267734177177,-8.963757641348877
7.802349568,0.9995553982474046,-9.094066466579736
7.807878144,0.9996105417883828,-9.224954118181117
7.813407232,0.9996887286053706,-9.356795645060739
7.818935808,0.9997855054135678,-9.48985991689756
7.824464384,0.9998951860078648,-9.62437409186805
7.82999296,1.000011259182752,-9.760461508458812
7.835521536,1.0001268814301683,-9.898191854763505
7.841050624,1.0002353758496065,-10.037472349095257
7.8465792,1.000330497107136,-10.178220770517804
7.852107776,1.0004063171884436,-10.320138299327235
7.857636352,1.0004586006467104,-10.462981614114158
7.863164928,1.0004843036856934,-10.606330986246556
7.868694016,1.0004818074842363,-10.749891293927138
7.874222592,1.0004511625803887,-10.893248627530266
7.879751168,1.0003943994045092,-11.035967803673897
7.885279744,1.000314521629609,-11.177740490799271
7.89080832,1.0002165103909146,-11.318281006291436
7.896337408,1.0001057753461153,-11.45738389669053
7.901865984,0.9999890608125928,-11.594916746196144
7.90739456,0.9998732913169499,-11.730781842492929
7.912923136,0.9997648137727231,-11.865139188997516
7.918452224,0.9996704021435349,-11.998039296940652
7.9239808,0.9995956434488729,-12.129778901929372
7.929509376,0.999544618706551,-12.260659978295603
7.935037952,0.9995206057845515,-12.39096701399859
7.940566528,0.9995249500585249,-12.52118132589243
7.946095616,0.9995574816803212,-12.651642080119789
7.951624192,0.9996163214764476,-12.782783214997892
7.957152768,0.9996977661198269,-12.914871606703452
7.962681344,0.9997971998029453,-13.048256981429903
7.96820992,0.9999089906800732,-13.183088220750259
7.973739008,1.0000263405551926,-13.31956925699713
7.979267584,1.000142551479765,-13.457629370440431
7.98479616,1.00025051158679,-13.597309093534713
7.990324736,1.0003441491471425,-13.73840575746084
7.995853312,1.0004179244465579,-13.880694784882285
8.0013824,1.0004672939884307,-14.023825867285462
8.006910976,1.0004896741041203,-14.167463696917592
8.012439552,1.0004835021388443,-14.31122712489997
8.017968128,1.0004492142517665,-14.454730124990155
8.023496704,1.000388736720113,-14.59754987676271
8.029025792,1.0003055033583914,-14.739391993322371
8.034554368,1.0002047397470166,-14.879958340534458
8.040082944,1.0000919188206712,-15.019037554579272
8.04561152,0.9999740832455835,-15.156519216845798
8.051140096,0.9998577006226171,-15.292379053850196
8.056669184,0.9997498648979077,-15.42665545694432
8.06219776,0.9996569415604323,-15.559524226466294
8.067726336,0.9995842629662951,-15.691256651791909
8.073254912,0.9995361827356647,-15.82213978731403
8.078783488,0.99951557906893,-15.95256345784269
8.084312576,0.9995236724068097,-16.082882290212993
8.089841152,0.9995598962919882,-16.213527274622745
8.095369728,0.999622253078624,-16.34484267387371
8.100898304,0.9997070906900237,-16.477227568444043
8.10642688,0.9998094690740567,-16.610906259417884
8.111955968,0.9999231569256594,-16.746124853798356
8.117484544,1.0000417071377428,-16.882942646981693
8.12301312,1.0001581764130998,-17.02144384190804
8.128541696,1.0002656602891378,-17.161465984911125
8.134070272,1.000357803670322,-17.302933394079414
8.13959936,1.0004293856801998,-17.445538872240054
8.145127936,1.0004757946858895,-17.589007649503262
8.150656512,1.0004946788406819,-17.732898351102435
8.156185088,1.0004848269228765,-17.87686517142742
8.161713664,1.000446735067754,-18.0205103388508
8.167242752,1.000382625454088,-18.163475603429042
8.172771328,1.0002962040513528,-18.305364749366117
8.178299904,1.0001926354824455,-18.445965947377687
8.18382848,1.0000778960081673,-18.58504787726771
8.189357056,0.9999587246497408,-18.722479082022588
8.194886144,0.9998421844721118,-18.858234790496805
8.20041472,0.9997349813343083,-18.99246855573626
8.205943296,0.9996435181519594,-19.125327929128478
8.211471872,0.9995731665412736,-19.25706339506019
8.217000448,0.9995281157312843,-19.387990932600147
8.222529536,0.9995109121475861,-19.518487908118725
8.228058112,0.9995226316675613,-19.648918254796094
