freq,mag,phase
6.0,0.99991398719736,18.6234216527275
6.006666752,0.9998188661857899,18.442364007259066
6.013333504,0.9997336172694217,18.262540278355775
6.019999744,0.999663438422527,18.083747135495944
6.026666496,0.9996124316855657,17.90579348010931
6.033333248,0.9995834529302714,17.728349691347194
6.04,0.9995782319106418,17.551199431727795
6.046666752,0.9995970729083414,17.37390340816546
6.053333504,0.9996388429487644,17.196189273711266
6.060000256,0.9997012173557552,17.017736263010917
6.066666496,0.9997807737413614,16.8383191009878
6.073333248,0.9998727425409824,16.657680684481242
6.08,0.9999721340144685,16.47575942608219
6.086666752,1.0000731307574826,16.292409975239764
6.093333504,1.0001700738866022,16.10766726731101
6.099999744,1.000257388064875,15.921654561649078
6.106666496,1.0003300912501525,15.734528658030987
6.113333248,1.000383993175877,15.54651073363792
6.12,1.0004161446640014,15.357920404329876
6.126666752,1.0004245090684516,15.169022413082224
6.133333504,1.0004087241161224,14.980161024930409
6.140000256,1.0003696504287571,14.79162871831903
6.146666496,1.0003094861851696,14.603784141751609
6.153333248,1.0002316207087603,14.416915237568984
6.16,1.0001404967781786,14.231121181482695
6.166666752,1.0000413409404338,14.046689329984417
6.173333504,0.9999396898511183,13.863598926116188
6.179999744,0.9998413743534224,13.681872419391738
6.186666496,0.9997520592318249,13.501424641033195
6.193333248,0.9996768107362715,13.322128495666435
6.2,0.9996199854639727,13.143694076574981
6.206666752,0.9995846970618321,12.96592012057265
6.213333504,0.9995731077000535,12.78843304714947
6.220000256,0.9995858991906467,12.61094558853651
6.226666496,0.9996222478996265,12.433096352288219
6.233333248,0.999680244173053,12.254586033452616
6.24,0.9997564308190312,12.075122529859888
6.246666752,0.9998466031539409,11.894521581891071
6.253333504,0.9999456363928089,11.712632729266465
6.259999744,1.000047872936212,11.529278874355374
6.266666496,1.0001474550189946,11.344591547959993
6.273333248,1.0002387009806417,11.158527589458924
6.28,1.0003163554782508,10.97132352262572
6.286666752,1.0003761417926216,10.783138748116071
6.293333504,1.000414442463937,10.59424940837315
6.300000256,1.000429316014662,10.404998908865313
6.306666496,1.0004196954531144,10.215705316756022
6.313333248,1.0003861574901993,10.026693581254902
6.32,1.0003305993621463,9.838231090851561
6.326666752,1.0002561465840059,9.650675520176035
6.333333504,1.0001671254850757,9.464246776877593
6.339999744,1.000068468675982,9.279123154091705
6.346666496,0.9999657608210664,9.09534558316191
6.353333248,0.999865056327779,8.91291346300867
6.36,0.9997718920862768,8.731839582734153
6.366666752,0.999691771026828,8.551967474986954
6.373333504,0.9996290473751708,8.373082063478929
6.380000256,0.999587447546457,8.194869889637575
6.386666496,0.9995694411169502,8.017043719820181
6.393333248,0.9995760138750256,7.839300072037918
6.4,0.9996066583606329,7.661312010147418
6.406666752,0.9996597775300565,7.482691280713479
6.413333504,0.9997324841661132,7.303266239919864
6.419999744,0.9998204324965497,7.122672202559607
6.426666496,0.9999186671718332,6.940752797067989
6.433333248,1.0000218007733026,6.757469528622465
6.44,1.0001236372753972,6.572790079549211
6.446666752,1.0002186197521348,6.386692780084011
6.453333504,1.000301222544982,6.199385931755066
6.460000256,1.0003666176917332,6.011054377857306
6.466666496,1.0004114119482717,5.8219009245852344
6.473333248,1.0004326338235188,5.63232833446232
6.48,1.0004293770066854,5.442595287110111
6.486666752,1.0004016091057273,5.253057627231328
6.493333504,1.0003510392218995,5.064052088684589
6.499999744,1.0002803067737132,4.8758716340814
6.506666496,1.000193660850432,4.68873030194778
6.513333248,1.0000959140400862,4.502856469870125
6.52,0.9999926453376431,4.318377334155272
6.526666752,0.9998897518943379,4.135272291689015
6.533333504,0.9997930136842805,3.953522215496486
6.540000256,0.9997081493312525,3.7730538516503707
6.546666496,0.9996397614267579,3.593635265370389
6.553333248,0.9995918661057817,3.414940247950016
6.56,0.9995673086482809,3.236837403117212
6.566666752,0.9995674055088382,3.0588058387690436
6.573333504,0.9995921454491417,2.8805865443411394
6.579999744,0.9996402503910969,2.7019063919744752
6.586666496,0.9997088764532354,2.5223931786414755
6.593333248,0.9997942762247675,2.341794796780036
6.6,0.9998914998120327,2.159935779072403
6.606666752,0.9999950216260666,1.9767020246594265
6.613333504,1.000098925695023,1.7919738215361767
6.620000256,1.0001972019459446,1.6058621060313905
6.626666496,1.0002844096466472,1.4184645403907907
6.633333248,1.000355660601178,1.2299730464538643
6.64,1.0004066253250339,1.040594733744569
6.646666752,1.0004345169828106,0.8506902860019742
6.653333504,1.0004375793624405,0.6605311438188612
6.659999744,1.0004160317900805,0.47048007823101745
6.666666496,1.0003706054627135,0.28091869265040753
6.673333248,1.0003040827238057,0.09205690388907294
6.68,1.0002201450994168,-0.09572841084355009
6.686666752,1.0001237211563117,-0.28232095106777694
6.693333504,1.00002018247781,-0.46754909536308753
6.700000256,0.999915429736335,-0.6513919032898757
6.706666496,0.9998154052561612,-0.8337672036217012
6.713333248,0.9997258275115528,-1.0148821640460752
6.72,0.9996519082738978,-1.1948913974941706
6.726666752,0.9995977972079279,-1.3740296730101342
6.733333504,0.9995665860823508,-1.5525757202652006
6.739999744,0.9995600985306655,-1.7308844843606632
6.746666496,0.999578740694402,-1.909301055086495
6.753333248,0.9996214749203308,-2.0881245406790345
6.76,0.999685838441593,-2.2677403477398266
6.766666752,0.9997682133085983,-2.4483110523590157
6.773333504,0.9998639175417131,-2.6301903344585775
6.780000256,0.9999674750578562,-2.813410794990693
6.786666496,1.0000730464645622,-2.9981232139010245
6.793333248,1.000174572006687,-3.1842182396893652
6.8,1.0002662408534424,-3.3716811172516032
6.806666752,1.0003429497391472,-3.5603299761751876
6.813333504,1.0004002470202444,-3.7499136690771113
6.819999744,1.0004346365732277,-3.9401331980337204
6.826666496,1.000444498583494,-4.130719458540305
6.833333248,1.0004290478740125,-4.321224941063908
6.84,1.0003891657301205,-4.511404058466711
6.846666752,1.0003271370018805,-4.70090425195185
6.853333504,1.000246534310239,-4.889407599965831
6.860000256,1.00015168938927,-5.076744550321925
6.866666496,1.0000483364954236,-5.262707890952542
6.873333248,0.9999420069283882,-5.447243720935616
6.88,0.9998390021510671,-5.6303650016289915
6.886666752,0.9997450866618418,-5.812146254117149
6.893333504,0.9996657519643098,-5.992727826989575
6.899999744,0.9996054052434897,-6.172384949549374
6.906666496,0.9995674738266702,-6.351347436667047
6.913333248,0.9995543069137328,-6.529998007689378
6.92,0.9995664841585988,-6.70863305424337
6.926666752,0.9996036022921763,-6.88764913791739
6.933333504,0.9996633024136587,-7.06730347803999
6.940000256,0.9997422542752941,-7.247932532126366
6.946666496,0.9998362185649091,-7.4297854681969655
6.953333248,0.999939490600387,-7.613002867840122
6.96,1.00004635099503,-7.797658710641356
6.966666752,1.0001507019010638,-7.983816297887118
6.973333504,1.0002466579402525,-8.171357391592547
6.979999744,1.0003286633120525,-8.36011879532563
6.986666496,1.0003921423792481,-8.549915729554748
6.993333248,1.0004332340122852,-8.740444763883481
7.0,1.0004498951299114,-8.931434421202713
7.006666752,1.0004408709142456,-9.122423856015315
7.013333504,1.0004069022853883,-9.313160910437482
7.020000256,1.0003497096221956,-9.503293706215494
7.026666496,1.0002725947116817,-9.692520154685207
7.033333248,1.0001798995111306,-9.880602339375393
7.04,1.0000769892888772,-10.0673537562786
7.046666752,0.9999695437935203,-10.252619872276066
7.053333504,0.9998638710581232,-10.436466577491156
7.059999744,0.9997659108957951,-10.61894875594178
7.066666496,0.9996811823370934,-10.800168636608262
7.073333248,0.9996147314774512,-10.980346598319896
7.08,0.9995700407742679,-11.159777789157328
7.086666752,0.9995500600589906,-11.338792317112198
7.093333504,0.9995557680701925,-11.517690676159003
7.100000256,0.9995868248304437,-11.696844048189142
7.106666496,0.9996414531994711,-11.87664122298094
7.113333248,0.9997167574453211,-12.057312218099977
7.12,0.99980832105502,-12.239188953812874
7.126666752,0.9999108119255139,-12.422380198995372
7.133333504,1.0000187022600655,-12.60701978288484
7.139999744,1.0001255895490189,-12.793217113144538
7.146666496,1.0002255164559983,-12.980810207296098
7.153333248,1.000312684130317,-13.16968913182513
7.16,1.000382233258912,-13.359685442971726
7.166666752,1.000430188870815,-13.550504266271522
7.173333504,1.0004537618703666,-13.741846098111402
7.180000256,1.0004513877817358,-13.933358408852474
7.186666496,1.0004235056291586,-14.12463346630699
7.193333248,1.0003714659721248,-14.315434274211707
7.2,1.0002983146203375,-14.505365362459825
7.206666752,1.0002080734140062,-14.69416796936181
7.213333504,1.0001061003289944,-14.88166831147643
7.219999744,0.9999979395504006,-15.067762670784772
7.226666496,0.9998899202294771,-15.252356941127134
7.233333248,0.9997880968662037,-15.43551746609146
7.24,0.999698242380552,-15.617422629970237
7.246666752,0.9996255678542764,-15.798187212406662
7.253333504,0.9995743470521445,-15.978089153574093
7.260000256,0.9995473837328256,-16.157505344452144
7.266666496,0.9995462435287726,-16.33671010719935
7.273333248,0.9995710848573981,-16.516101393142602
7.28,0.9996202905742916,-16.69601806367438
7.286666752,0.9996914635471406,-16.876755999443336
7.293333504,0.9997802793087467,-17.05864772881105
7.299999744,0.99988180138259,-17.241821033218226
7.306666496,0.9999901644561161,-17.42649428278529
7.313333248,1.0000992674440667,-17.612646320493276
7.32,1.0002028578623403,-17.800301007918367
7.326666752,1.0002951019999233,-17.98930527355819
7.333333504,1.0003707105700033,-18.179469274548723
7.340000256,1.0004252654746337,-18.370591854332382
7.346666496,1.0004559059494689,-18.562287987194885
7.353333248,1.000460321239607,-18.754272543222683
7.36,1.000438973009163,-18.946105372379147
7.366666752,1.0003923528121879,-19.13753479867049
7.373333504,1.0003235551734837,-19.32815566898017
7.379999744,1.0002362974088048,-19.517737653148846
7.386666496,1.000135635628537,-19.706016968487333
7.393333248,1.0000270595395473,-19.892904351224082
7.4,0.9999169661883389,-20.078312272039245
7.406666752,0.9998115275700109,-20.26223459246237
7.413333504,0.9997168458683573,-20.44477689896228
7.420000256,0.9996382663339817,-20.62615395178343
7.426666496,0.9995803082734569,-20.806579333299595
7.433333248,0.9995462598158764,-20.986425163645407
7.44,0.9995381364809511,-21.165974123495825
7.446666752,0.9995563439075684,-21.345599976368774
7.453333504,0.9996000112756476,-21.525655472140986
7.459999744,0.9996666197672083,-21.706503861916726
7.466666496,0.9997522355299167,-21.8884064641466
7.473333248,0.9998522742165097,-22.071599580356185
7.48,0.9999608549923504,-22.256232644172904
7.486666752,1.0000718184383655,-22.44243355852893
7.493333504,1.0001788391288156,-22.630121269898154
7.500000256,1.0002759022863732,-22.819202488844528
7.506666496,1.000357397240795,-23.009567238862218
7.513333248,1.0004186748599289,-23.20092985849458
7.52,1.0004562274925923,-23.392987897539125
7.526666752,1.0004679527474005,-23.58538813987517
7.533333504,1.0004530422932958,-23.777805896245276
7.539999744,1.000412352605856,-23.969839131007873
7.546666496,1.0003483448194244,-24.161185416241274
7.553333248,1.0002644631054927,-24.35155787677334
7.56,1.0001654083606057,-24.540660283439585
7.566666752,1.0000568894114128,-24.728318303644585
7.573333504,0.9999451198308702,-24.91451746429248
7.580000256,0.9998364477314452,-25.09923107779063
7.586666496,0.9997370792440352,-25.28250695218352
7.593333248,0.999652628434912,-25.464522137397495
7.6,0.9995881102088217,-25.645499501578964
7.606666752,0.9995467128686097,-25.825828135028196
7.613333504,0.9995316372072819,-26.00570692868625
7.619999744,0.9995429100165486,-26.18562314242735
7.626666496,0.9995805985468192,-26.36586380585858
7.633333248,0.9996422086013128,-26.546781464905223
7.64,0.9997244879089935,-26.72877169922072
7.646666752,0.9998225006183322,-26.911971637875304
7.653333504,0.9999306912699446,-27.09660627185503
7.660000256,1.0000432235455492,-27.28277804241914
7.666666496,1.0001535448280081,-27.470511923808267
7.673333248,1.0002550173196956,-27.659717352915948
7.68,1.0003423585687705,-27.850209485135487
7.686666752,1.000410202103708,-28.041832260960515
7.693333504,1.00045504140969,-28.234203267228377
7.699999744,1.0004738239143371,-28.427079503987574
7.706666496,1.0004658594155833,-28.62003984468518
7.713333248,1.0004313687807183,-28.812719543361258
7.72,1.0003724739149822,-29.004754882413234
7.726666752,1.0002921777853226,-29.195872556778955
7.733333504,1.0001953911047317,-29.385809509429375
7.740000256,1.0000873463367679,-29.574323521328708
7.746666496,0.999974426623306,-29.761337144139073
7.753333248,0.9998628321311105,-29.946826675472835
7.76,0.9997589653312264,-30.13081806441806
7.766666752,0.9996688432292712,-30.31353761792103
7.773333504,0.99959754933348,-30.495131564686947
7.779999744,0.9995491070416092,-30.675924729087807
7.786666496,0.9995265192303805,-30.85624076821736
7.793333248,0.9995310526857486,-31.036427732167322
7.8,0.9995622355319799,-31.216871886489773
7.806666752,0.9996186086696119,-31.39795728978589
7.813333504,0.9996967776136192,-31.57997171630141
7.820000256,0.9997923519846237,-31.76321077738424
7.826666496,0.9999001214139903,-31.94783983400087
7.833333248,1.0000136511582909,-32.13400896222279
7.84,1.0001265207662196,-32.321768738712265
7.846666752,1.000232482697539,-32.51105546694909
7.853333504,1.0003254106988015,-32.70169589916031
7.859999744,1.0003998608790967,-32.89354785846046
7.866666496,1.0004517171888632,-33.08626802308737
7.873333248,1.00047813437076,-33.279547378117236
7.88,1.000477172381495,-33.47302176470039
7.886666752,1.000449266620377,-33.66634950736623
7.893333504,1.0003958388032217,-33.85907761553638
7.900000256,1.00031974985258,-34.050992737299765
7.906666496,1.0002255981476136,-34.24170198978984
7.913333248,1.0001184976046296,-34.43108288625308
7.92,1.0000046096780932,-34.61895382805068
7.926666752,0.9998903799043567,-34.805256836197586
7.933333504,0.9997824375206367,-34.990046233076235
7.939999744,0.9996866310927022,-35.17347873080809
7.946666496,0.9996088055505679,-35.35569169572917
7.953333248,0.999553244688177,-35.53701371684365
7.96,0.9995231904936484,-35.71775748349771
7.966666752,0.9995204420885151,-35.8982709008866
7.973333504,0.9995449455817772,-36.078998155012165
7.980000256,0.9995956020859295,-36.26018999548033
7.986666496,0.9996694258851856,-36.44228629711656
7.993333248,0.999762244888528,-36.62554958146664
8.0,0.9998688283944995,-36.8101994151365
8.006666752,0.9999829342876148,-36.99638954654626
8.013333504,1.000098360008896,-37.18417107593111
8.019999744,1.000208378207842,-37.37350310290598
8.026666496,1.0003065817036632,-37.56431833334714
8.033333248,1.0003876283992668,-37.75635560021555
8.04,1.0004467287513055,-37.94940869872771
8.046666752,1.0004805619563013,-38.14309864533011
8.053333504,1.000487081420421,-38.33708755722328
8.060000256,1.0004659662668391,-38.531004845895175
8.066666496,1.0004183045952764,-38.724472617830486
8.073333248,1.000346883882201,-38.91715207842911
8.08,1.000255861861219,-39.108696083129146
8.086666752,1.0001500068395268,-39.29891568473962
8.093333504,1.0000356566075235,-39.48766576846795
8.099999744,0.9999192450255515,-39.67482113605218
8.106666496,0.9998073192880265,-39.860431758958555
8.113333248,0.9997063578158674,-40.04456894885401
8.12,0.9996221147591269,-40.22746054097529
8.126666752,0.9995592962848795,-40.40936154300792
8.133333504,0.9995217747237435,-40.59055847174134
8.140000256,0.999511386091659,-40.771457041153965
8.146666496,0.9995289549852773,-40.95243055617753
8.153333248,0.9995735174184252,-41.13382747754855
8.16,0.9996424446901823,-41.316007361765834
8.166666752,0.9997320411962767,-41.49933957367325
8.173333504,0.9998370448543945,-41.68399209874337
8.179999744,0.9999514658355106,-41.8701898967584
8.186666496,1.0000688949541112,-42.05798436692504
8.193333248,1.0001825654175232,-42.24737270893054
8.2,1.0002860505384654,-42.43830265207962
8.206666752,1.000373423281363,-42.63054704284193
8.213333504,1.0004397591249132,-42.82388346714449
8.220000256,1.0004810663520958,-43.017998952794905
8.226666496,1.000495350522887,-43.21249582386449
8.233333248,1.0004813522927316,-43.40700359140447
8.24,1.000439991625173,-43.60117044288192
8.246666752,1.0003736343112004,-43.79460697962411
8.253333504,1.0002860902056485,-43.98699334210887
8.259999744,1.0001820755014397,-44.17812316958042
8.266666496,1.0000676576141858,-44.367741219208234
8.273333248,0.9999493728872689,-44.55573972722853
8.28,0.9998339294289617,-44.742206325526006
8.286666752,0.9997279327472628,-44.92712936592455
8.293333504,0.9996372796593433,-45.110736342207645
8.300000256,0.9995673283283931,-45.29323135222914
8.306666496,0.9995220291890566,-45.474953091662044
8.313333248,0.999504016330407,-45.656226325411865
8.32,0.999514264177684,-45.837520392191095
8.326666752,0.9995524025147597,-46.01911448059352
8.333333504,0.9996161531811613,-46.20143048068183
8.339999744,0.9997018933322623,-46.38477535411919
8.346666496,0.9998048094229424,-46.569465338057796
8.353333248,0.9999190552908388,-46.755643162315906
8.36,1.0000380734671985,-46.94347659351602
8.366666752,1.000155219467107,-47.13294042175226
8.373333504,1.0002637007893684,-47.3239883470496
8.380000256,1.0003572792114723,-47.51643305375642
8.386666496,1.000430921397606,-47.71001885816305
8.393333248,1.0004799322003095,-47.90451487609344
8.4,1.0005018643001968,-48.09949604157
8.406666752,1.000495201169014,-48.294601275097186
8.413333504,1.000460589696287,-48.48944354667484
8.419999744,1.0003997033855676,-48.683655321272475
8.426666496,1.0003160284007042,-48.876903756394555
8.433333248,1.0002142711187472,-49.06891310148129
8.44,1.0001004102467537,-49.259424613763066
8.446666752,0.9999807683018304,-49.448347279483855
8.453333504,0.9998620614025112,-49.63566797977266
8.460000256,0.9997511552804027,-49.82138467857065
8.466666496,0.9996544470355874,-50.0057083656929
8.473333248,0.999577253930018,-50.18888038093431
8.48,0.9995241702313508,-50.37112791650974
8.486666752,0.9994982986410169,-50.55286315504969
8.493333504,0.9995011152840765,-50.734481717232214
8.499999744,0.9995322884629336,-50.91628983137128
8.506666496,0.9995902963913708,-51.09875953668486
8.513333248,0.9996719399927316,-51.28218549354382
8.52,0.9997722750053878,-51.466912764045766
8.526666752,0.9998858544091749,-51.65312839197717
8.533333504,1.000006108447455,-51.84093165637285
8.540000256,1.0001263362858632,-52.03043270901096
8.546666496,1.0002395524896195,-52.221586030825996
8.553333248,1.0003392152047264,-52.414194892241355
8.56,1.0004197993497363,-52.60806708622081
8.566666752,1.0004767115649114,-52.8029074422222
8.573333504,1.0005066368633466,-52.9983845692397
8.579999744,1.000507751384184,-53.194049646106144
8.586666496,1.0004800771435627,-53.38960234833198
8.593333248,1.0004250768227463,-53.58457299217906
8.600000512,1.0003458955305136,-53.7786505664327
8.606666752,1.0002470187537245,-53.97155500735453
8.613332992,1.0001339257247337,-54.163000027567776
8.620000256,1.0000132991806883,-54.35283945558351
8.626666496,0.9998916609941116,-54.541067512858206
8.63333376,0.9997762099701833,-54.72764221676844
8.64,0.9996734620436727,-54.91274359185716
8.64666624,0.9995891860582241,-55.09658195205233
8.653333504,0.9995283175611563,-55.279436487735246
8.659999744,0.9994944038381941,-55.461637584618735
8.666667008,0.9994893306891927,-55.6435982205698
8.673333248,0.9995133475181366,-55.82568748742668
8.679999488,0.9995653599986477,-56.0083344519142
8.686666752,0.9996421265501017,-56.19186622310645
8.693332992,0.9997395054592731,-56.376603636410636
8.700000256,0.9998520212399555,-56.56282525247279
8.706666496,0.9999730690765999,-56.750650171579615
8.71333376,1.000095907458754,-56.94019207731671
8.72,1.0002134840054842,-57.131398629123
