freq,mag,phase
6.0,0.998946639242917,75.71338559891603
6.002286592,0.9991959718453728,75.55009515390788
6.004572672,0.9994961683815594,75.38285134652182
6.006859264,0.9998284121256211,75.21101452377187
6.009145344,1.0001717647984496,75.03428943841463
6.011431936,1.0005045826450694,74.85269125395935
6.013718016,1.000805928022671,74.6665146225913
6.016004608,1.001056841696789,74.47637219679163
6.018290688,1.001241478074619,74.28307008120542
6.02057728,1.0013484060580136,74.08769665455029
6.022863872,1.0013706490315,73.89140392055674
6.025149952,1.001306946567127,73.69539165759717
6.027436544,1.0011611959745739,73.50092273842294
6.029722624,1.0009426646662256,73.30911952451103
6.032009216,1.0006648507045488,73.12088849905054
6.034295296,1.0003453069383044,72.93700572105652
6.036581888,1.0000041516570348,72.75790874637823
6.03886848,0.9996628490945519,72.58377961271817
6.04115456,0.9993427955598414,72.41447457364734
6.043441152,0.9990643658236019,72.24950698606985
6.045727232,0.9988450225261166,72.08819536710587
6.048013824,0.9986987624369295,71.92955564084723
6.050299904,0.9986346843589966,71.77244986984667
6.052586496,0.9986571250428561,71.61567313584204
6.054872576,0.9987644463635228,71.457977535481
6.057159168,0.9989501050296546,71.29815574462577
6.05944576,0.9992021307464414,71.13517763320434
6.06173184,0.9995047622089808,70.96817032218826
6.064018432,0.9998390302816053,70.79657346519957
6.066304512,1.0001836391101788,70.62006236640477
6.068591104,1.000516937559633,70.4386456657111
6.070877184,1.000818018728231,70.2526552140466
6.073163776,1.0010678913028597,70.06271536271551
6.075450368,1.0012508633665769,69.86962219229275
6.077736448,1.0013554502782023,69.67448148444971
6.08002304,1.0013749607442295,69.47846197100671
6.08230912,1.0013082318816147,69.2827918653045
6.084595712,1.0011593429523244,69.08868108109456
6.086881792,1.000937800643834,68.89727282873642
6.089168384,1.0006572477922862,68.70949565746284
6.091454464,1.0003354380228369,68.52608177594684
6.093741056,0.9999927049792967,68.34748628572684
6.096027648,0.9996504765076683,68.17389280229175
6.098313728,0.9993303082762228,68.00510586266978
6.10060032,0.9990524756928622,67.84067105277262
6.1028864,0.9988346305040433,67.67987103829523
6.105172992,0.9986903496468668,67.52169052589733
6.107459072,0.9986290086021538,67.36504354906103
6.109745664,0.9986543714897198,67.20867333170885
6.112032256,0.9987648741985848,67.05133479693502
6.114318336,0.9989535537689285,66.89182680124678
6.116604928,0.9992086007625923,66.72910465471033
6.118891008,0.9995138179814148,66.56234070072125
6.1211776,0.9998498705078677,66.39092102233194
6.12346368,1.0001957712596152,66.2145812746548
6.125750272,1.000529566973978,66.03332068637567
6.128036352,1.0008303848139948,65.84748770876689
6.130322944,1.0010791498580078,65.65769218043657
6.132609536,1.0012603902753912,65.46479919351063
6.134895616,1.0013625211843638,65.26985370835429
6.137182208,1.0013791600578008,65.07406868515102
6.139468288,1.0013093517128693,64.87868417287696
6.14175488,1.0011572969528684,64.68491765293253
6.14404096,1.000932635821789,64.49386609816439
6.146327552,1.0006493412458932,64.30649916999216
6.148614144,1.0003253154693645,64.12354472570131
6.150900224,0.9999809015181648,63.945434663464574
6.153186816,0.9996376822097729,63.772317089695655
6.155472896,0.9993175198519297,63.60401485855156
6.157759488,0.9990404424109952,63.44008540157911
6.160045568,0.998824003503035,63.27976129096944
6.16233216,0.9986818809986008,63.122038725372995
6.16461824,0.9986232540583216,62.965810148681946
6.166904832,0.9986516191145143,62.809808455486944
6.169191424,0.9987653128850452,62.65279498030909
6.171477504,0.9989571742185326,62.49355608487809
6.173764096,0.9992151765728128,62.33108066620728
6.176050176,0.9995228690167839,62.16448209583205
6.178336768,0.9998610003838206,61.993224313114055
6.180622848,1.0002081515520096,61.817020119058576
6.18290944,1.0005424750144016,61.6358738835851
6.18519552,1.0008429764319402,61.450143338226546
6.187482112,1.001090653984835,61.26047284909288
6.189768704,1.001270027314019,61.067711150842065
6.192054784,1.001369659286766,60.87295871382957
6.194341376,1.0013833907253553,60.677367976956475
6.196627456,1.001310368861885,60.482241201500365
6.198914048,1.001155175531022,60.28874406950603
6.201200128,1.0009273323340733,60.098047757353235
6.20348672,1.00064127535592,59.91107902681524
6.205773312,1.0003149199248242,59.728531506075655
6.208059392,0.9999688792440155,59.55087110986166
6.210345984,0.9996248621873035,59.37821111294845
6.212632064,0.9993045402806857,59.210396720439356
6.214918656,0.9990282070037881,59.046919146164534
6.217204736,0.9988132632911719,58.88702548058053
6.219491328,0.9986733900409615,58.72973297435173
6.221777408,0.9986174348302626,58.57386944295344
6.224064,0.9986489836719996,58.41821808230309
6.226350592,0.9987659803221306,58.26147230456757
6.228636672,0.9989610866708172,58.102485978537764
6.230923264,0.9992220559138335,57.94018766578519
6.233209344,0.9995323680376771,57.77376181004277
6.235495936,0.9998724914222249,57.6026278321561
6.237782016,1.0002208249729767,57.42649321980852
6.240068608,1.0005556310964112,57.24542409498797
6.2423552,1.000855732155134,57.05977936596317
6.24464128,1.0011021872523422,56.87018613575891
6.246927872,1.0012796432520463,56.677533723573085
6.249213952,1.0013768388911637,56.48291331974765
6.251500544,1.001387659957229,56.28750130204158
6.253786624,1.0013113205674495,56.09258982352367
6.256073216,1.0011527354063516,55.899370110096314
6.258359296,1.0009217698671409,55.70897454030276
6.260645888,1.0006328715840704,55.522334152731425
6.26293248,1.0003041668033097,55.34017355935263
6.26521856,0.9999565942581187,55.16294734398166
6.267505152,0.9996116552997372,54.99072270480935
6.269791232,0.9992912831436738,54.82334007311933
6.272077824,0.999015809446853,54.66029762091519
6.274363904,0.9988024189903283,54.500820620472496
6.276650496,0.9986647643178085,54.34391140997222
6.278937088,0.9986115518892024,54.18840417649895
6.281223168,0.998646323441241,54.03303982399715
6.28350976,0.9987666714532586,53.87654348852245
6.28579584,0.9989650675563726,53.71775304468406
6.288082432,0.9992291522644974,53.55562037838418
6.290368512,0.9995419854166216,53.38929580853063
6.292655104,0.9998840596083363,53.21822887680532
6.294941184,1.0002337915441861,53.04215072846243
6.297227776,1.000568937212799,52.86112240536031
6.299514368,1.0008686839434944,52.67552059079914
6.301800448,1.0011139869639312,52.48596612124433
6.30408704,1.0012894791508973,52.29337826864592
6.30637312,1.0013840219370498,52.09884694692043
6.308659712,1.0013918759737053,51.903597140488
6.310945792,1.0013122014210023,51.708857330889366
6.313232384,1.001150284228773,51.51586470630188
6.315518464,1.000916020918476,51.32574590959569
6.317805056,1.000624328727068,51.1394252246033
6.320091648,1.0002933704960577,50.95764035491616
6.322377728,0.9999439985491381,50.78076156921763
6.32466432,0.9995982193905414,50.60894523739422
6.3269504,0.9992778472681249,50.44197363221667
6.329236992,0.9990030688430264,50.27932677205861
6.331523072,0.9987913762415153,50.12023665661214
6.333809664,0.9986560270821463,49.96366565964819
6.336096256,0.9986057749761591,49.8084842769651
6.338382336,0.9986436496938625,49.65337204548172
6.340668928,0.9987674033534758,49.497108119625324
6.342955008,0.9989691609582099,49.338479804503784
6.3452416,0.9992362981255435,49.17646665148909
6.34752768,0.9995518783193981,49.0102106238028
6.349814272,0.9998958682395067,48.83917435509443
6.352100352,1.000246868930074,48.663128261716935
6.354386944,1.0005825600209524,48.482083112660064
6.356673536,1.0008818072322898,48.29647624609075
6.358959616,1.0011258809289785,48.10694220562727
6.361246208,1.0012993399890955,47.91438629345625
6.363532288,1.001391280916206,47.71992344232908
6.36581888,1.0013959822519274,47.52477261887205
6.36810496,1.00131306506195,47.33018515599536
6.370391552,1.0011477065316148,47.13740723236859
6.372678144,1.0009102465104172,46.94751093312356
6.374964224,1.0006155787231767,46.76149030469745
6.377250816,1.0002822579467783,46.58000404549594
6.379536896,0.999931218184131,46.40348631441153
6.381823488,0.9995845337904312,46.23202851311896
6.384109568,0.9992641840061758,46.06543325147089
6.38639616,0.9989903000729242,45.90315877754816
6.38868224,0.9987802146869161,45.744411227923784
6.390968832,0.9986472954230942,45.58814969560362
6.393255424,0.998599919522955,45.43322864336216
6.395541504,0.9986410682133147,45.27835602406708
6.397828096,0.998768323856226,45.12227139008293
6.400114176,0.9989734854348792,44.96376440149094
6.402400768,0.999243691924852,44.801828300414876
6.404686848,0.9995618912901038,44.63562260177661
6.40697344,0.9999079691542487,44.464590577403
6.409260032,1.000260149823044,44.288497573995556
6.411546112,1.0005962163012478,44.107446014823424
6.413832704,1.00089508927177,43.921785814262265
6.416118784,1.0011378078533648,43.73221675367008
6.418405376,1.0013092035941114,43.539664218137546
6.420691456,1.0013986057599857,43.34523567848104
6.422978048,1.0014000792549314,43.15013922301029
6.425264128,1.0013137573553599,42.955658166501955
6.42755072,1.0011448964084753,42.76302577586587
6.429837312,1.0009041207758742,42.5733546040003
6.432123392,1.000606495084168,42.387591420302634
6.434409984,1.0002708843239478,42.206401036655535
6.436696064,0.9999181746864236,42.03018283272804
6.438982656,0.9995707074227459,41.85908623671019
6.441268736,0.9992503520621994,41.69281506545919
6.443555328,0.9989773848251111,41.53087534280213
6.44584192,0.9987689897157991,41.37244129389688
6.448128,0.9986384304958655,41.2164747365107
6.450414592,0.9985940208638316,41.06177110582167
6.452700672,0.9986385451403778,40.90710884998888
6.454987264,0.9987692046381804,40.751158553847155
6.457273344,0.9989778005600423,40.592742188054075
6.459559936,0.9992512273753298,40.430848845968924
6.461846016,0.9995721134201094,40.264634092695395
6.464132608,0.9999202527354754,40.09356861733576
6.4664192,1.0002737062209666,39.91741389921511
6.46870528,1.0006101997174588,39.736277785542015
6.470991872,1.000908566158154,39.55055299775626
6.473277952,1.0011499633548335,39.36092170674647
6.475564544,1.0013192954337895,39.16833900056203
6.477850624,1.0014058879320817,38.97387356980138
6.480137216,1.0014042115797783,38.778821601571906
6.482423296,1.001314383110585,38.58442042111653
6.484709888,1.0011421121219595,38.39191058589072
6.48699648,1.0008979668703786,38.20242803750297
6.48928256,1.0005974237664266,38.01686603450043
6.491569152,1.000259379292285,37.83593649649959
6.493855232,0.999905034882441,37.66003477610103
6.496141824,0.9995566991198097,37.48921111696186
6.498427904,0.9992363326303161,37.323250635082964
6.500714496,0.9989642981903352,37.16160011410194
6.503001088,0.9987576432793366,37.003438825361584
6.505287168,0.9986295613269082,36.84772651990955
6.50757376,0.9985882190038077,36.693226891679366
6.50985984,0.9986360719012748,36.538718143354416
6.512146432,0.9987703164987997,36.382880990435154
6.514432512,0.998982439852529,36.2245360088227
6.516719104,0.9992589337916505,36.06263421096989
6.519005184,0.9995825126109232,35.89637465949019
6.521291776,0.9999327204846938,35.72522403733382
6.523578368,1.0002873947990547,35.54897624646219
6.525864448,1.0006242884822902,35.367721778672156
6.52815104,1.0009221467301934,35.18188685243258
6.53043712,1.001162178190169,34.99215321708142
6.532723712,1.0013293434648045,34.79945905204589
6.535009792,1.0014131704445224,34.60497505424377
6.537296384,1.001408326118363,34.40991026777308
6.539582976,1.0013150190347742,34.21555953688425
6.541869056,1.0011390570792102,34.0231587481411
6.544155648,1.0008916838674196,33.83379578465884
6.546441728,1.000588192713004,33.648434227074986
6.54872832,1.000247656565906,33.46772870328209
6.5510144,0.9998915839239318,33.292057257030486
6.553300992,0.9995425006089071,33.12150904237246
6.555587072,0.9992222197832422,32.955849106657666
6.557873664,0.998951117551011,32.79444434852646
6.560160256,0.9987462378527588,32.63653303277793
6.562446336,0.9986206575976218,32.48103489471458
6.564732928,0.9985822579639502,32.32672461482776
6.567019008,0.9986336439011871,32.17232126935264
6.5693056,0.9987715619142248,32.01654686251362
6.57159168,0.9989871321750883,31.858215208164758
6.573878272,0.999266834590112,31.696269037397055
6.576164864,0.9995931706504936,31.52994477019176
6.578450944,0.9999453248756545,31.35867919957585
6.580737536,1.00030134174467,31.182295961766496
6.583023616,1.0006385767831607,31.000896217972585
6.585310208,1.000935906815104,30.81488950903216
6.587596288,1.0011745859287873,30.625005164408982
6.58988288,1.0013395974356505,30.432213103025735
6.59216896,1.0014205804564569,30.237650212004766
6.594455552,1.0014124226631864,30.042560509581854
6.596742144,1.0013155593668,29.848197846266128
6.599028224,1.001136183720939,29.65586090103287
6.601314816,1.0008852573111833,29.4666201153453
6.603600896,1.0005787532735089,29.281395649348926
6.605887488,1.0002359008212016,29.10088105728157
6.608173568,0.9998782026964635,28.9254287927762
6.61046016,0.9995282268488503,28.755127077675276
6.612746752,0.9992080592643824,28.589678664957002
6.615032832,0.9989378526544362,28.42853624424245
6.617319424,0.9987347600653786,28.27081596091298
6.619605504,0.9986117315717532,28.115498295795774
6.621892096,0.998576500609549,27.961334551328957
6.624178176,0.9986313211632538,27.807007532768463
6.626464768,0.9987726972874968,27.65127394725204
6.628750848,0.9989918614863985,27.492911494853324
6.63103744,0.9992748492442195,27.330909515723526
6.633324032,0.9996038144445355,27.164451767737948
6.635610112,0.999958139608507,26.99303433904691
6.637896704,1.0003153110292573,26.81648616301924
6.640182784,1.0006529774162718,26.634898350681198
6.642469376,1.0009496995234186,26.448702161277865
6.644755456,1.0011869417929375,26.258649174444482
6.647042048,1.0013498125724296,26.06570221926618
6.649328128,1.0014279802902086,25.871022691877513
6.65161472,1.0014164715319163,25.67582683950795
6.653901312,1.001316090093096,25.481468803961405
6.656187392,1.0011330155937777,25.289140395730417
6.658473984,1.0008787457383146,25.099976355879626
6.660760064,1.0005692159043829,24.914875356499607
6.663046656,1.0002238542647446,24.7345235254294
6.665332736,0.9998645381558408,24.559257108595972
6.667619328,0.9995137547891904,24.389156809145604
6.66990592,0.9991936335901106,24.223914289112855
6.672192,0.99892450508256,24.06295945359543
6.674478592,0.9987232362871246,23.905428738034583
6.676764672,0.9986028292480313,23.75023699075696
6.679051264,0.998570688473042,23.59616575172431
6.681337344,0.9986289241707499,23.441904899544635
6.683623936,0.9987740155753283,23.286166356827778
6.685910016,0.9989966825733181,23.127750732336327
6.688196608,0.999282910879763,22.965631405852108
6.6904832,0.9996146013551912,22.799043659317093
6.69276928,0.999970985849326,22.627434330779945
6.695055872,1.0003294331203119,22.4506838476162
6.697341952,1.0006673466545268,22.268843492263798
6.699628544,1.0009635690067122,22.082429741749102
6.701914624,1.0011994315690156,21.892172373032423
6.704201216,1.0013600317936366,21.69903491150794
6.706487808,1.0014353168022074,21.50420107416919
6.708773888,1.0014204542491612,21.308910879798837
6.71106048,1.001316496663978,21.114464463671382
6.71334656,1.0011298208120392,20.922147837079994
6.715633152,1.0008720665466606,20.733016348617376
6.717919232,1.0005595820825102,20.548017607778807
6.720205824,1.0002118658888828,20.367758616413532
6.722491904,0.9998507764888099,20.19266486345493
6.724778496,0.9994991467356785,20.022724098913287
6.727065088,0.9991791594074854,19.85766130649705
6.729351168,0.9989111009453021,19.69685827799985
6.73163776,0.9987116299523143,19.53948747557667
6.73392384,0.9985937889522392,19.384400497869816
6.736210432,0.9985647808504466,19.230392151510394
6.738496512,0.9986266736893268,19.07614484939094
6.740783104,0.9987753432066281,18.920360841171917
6.743069696,0.9990016413092939,18.76186018332191
6.745355776,0.9992911888345866,18.5996098391807
6.747642368,0.9996256033546069,18.432827011177952
6.749928448,0.9999840664646183,18.260994823074885
6.75221504,1.0003436743563419,18.083975160446492
6.75450112,1.0006819864343035,17.901896878688493
6.756787712,1.000977607341856,17.71520522996351
6.759073792,1.0012120138429257,17.52469281634117
6.761360384,1.0013704134452355,17.331335838324563
6.763646976,1.001442730464638,17.136307661719393
6.765933056,1.0014245897697505,16.940889036255424
6.768219648,1.0013169807233135,16.746358832186086
6.770505728,1.0011266239043028,16.55398719507058
6.77279232,1.0008654900167282,16.36486196785879
6.7750784,1.0005499057409444,16.179901228030996
6.777364992,1.0001997041014543,15.999749678032392
6.779651584,0.9998369947801471,15.82476508447979
6.781937664,0.9994845847048647,15.654969358676636
6.784224256,0.9991647206712639,15.490036959928112
6.786510336,0.9988975865953532,15.329386905155882
6.788796928,0.9987000431090794,15.172110119527588
6.791083008,0.9985848036253698,15.017091508300613
6.7933696,0.9985589716434934,14.863121786477825
6.79565568,0.9986242749519332,14.708860550265689
6.797942272,0.9987767406902505,14.553013347230229
6.800228864,0.9990066375205051,14.39435810914695
6.802514944,0.9992994247879227,14.231930062203384
6.804801536,0.9996366349204941,14.064936475994156
6.807087616,0.9999971274350486,13.892823375755425
6.809374208,1.0003580571330608,13.71554060183157
6.811660288,1.0006967062688978,13.53314522579632
6.81394688,1.0009917168744928,13.34616444516763
6.81623296,1.0012245184714414,13.155394684567073
6.818519552,1.001380717619919,12.961769400402652
6.820806144,1.001450124246379,12.76650634942814
6.823092224,1.0014286300087822,12.570913282289998
6.825378816,1.0013173220282086,12.376267858495401
6.827664896,1.0011233033119387,12.183796518284622
6.829951488,1.0008586695630919,11.99466267254393
6.832237568,1.0005400781666127,11.809712611597263
6.83452416,1.0001875216085014,11.629634546872943
6.836810752,0.9998231491127327,11.454732174678742
6.839096832,0.9994699083183263,11.285026313546453
6.841383424,0.999150205335136,11.120212448273055
6.843669504,0.9988840956899839,10.959656147397512
6.845956096,0.9986885741727616,10.802445541881163
6.848242176,0.9985758338919271,10.647486945087097
6.850528768,0.9985532022923498,10.493489314243455
6.852814848,0.9986221529306717,10.339171047361042
6.85510144,0.9987782748852966,10.183209015343577
6.857388032,0.9990117504594304,10.024424740700166
6.859674112,0.9993078751174131,9.861781312476781
6.861960704,0.9996478236713116,9.69450255718856
6.864246784,1.0000103403152696,9.522128231713324
6.866533376,1.0003724751028837,9.344498540598655
6.868819456,1.0007114255811878,9.16178937403573
6.871106048,1.0010059207745887,8.97447829400589
6.87339264,1.0012373855263341,8.783363647186565
6.87567872,1.0013911103867426,8.5894552701845
6.877965312,1.0014576865134417,8.3939560027001
6.880251392,1.0014326765905703,8.198139628460996
6.882537984,1.0013177947614909,8.003333423327492
6.884824064,1.0011200524163524,7.810776262954251
6.887110656,1.000851977233639,7.6215502262146675
6.889396736,1.0005302393010589,7.436591876239072
6.891683328,1.0001751706806494,7.25653644415609
6.89396992,0.9998091852192952,7.081695117929679
6.896256,0.9994551540787289,6.912065167363016
6.898542592,0.9991355191140062,6.747322747869762
6.900828672,0.9988704653267821,6.586827109572521
6.903115264,0.9986767619796296,6.429662530174693
6.905401344,0.9985667587331354,6.274706734515079
6.907687936,0.9985473706323487,6.120671991912206
6.909974528,0.9986198257594132,5.966273628433663
6.912260608,0.9987796597914534,5.810190615714359
6.9145472,0.9990167133214454,5.651191958294107
6.91683328,0.9993162204908642,5.488289829408045
6.919119872,0.9996589966270846,5.320734002831094
6.921405952,1.000023469610364,5.148036930027785
6.923692544,1.0003868782108143,4.970051008443271
6.925978624,1.000726184455698,4.78695493681492
6.928265216,1.0010200481406615,4.599276399049723
6.930551808,1.0012499368191161,4.407819686683706
6.932837888,1.0014015523414839,4.213593695591302
