freq,mag,phase
6.0,0.9998618588837656,-25.95107947828103
6.007820288,0.999819977781469,-26.248647780837704
6.015640064,0.9997880354563924,-26.54587673492424
6.023460352,0.9997677837917002,-26.842853575825213
6.03128064,0.9997602384258918,-27.1397646933172
6.039100928,0.99976576026319,-27.436782114138992
6.046920704,0.999784213017183,-27.73407500770035
6.054740992,0.9998143137515081,-28.031791537194405
6.06256128,0.9998550916924673,-28.330137476273855
6.070381056,0.9999038534205925,-28.629173675542937
6.078201344,0.9999580762588064,-28.92905715952864
6.086021632,1.0000149540177186,-29.229773108952955
6.093841408,1.0000713076926786,-29.53140458273857
6.101661696,1.0001239777514073,-29.83387955106698
6.109481984,1.0001703551757097,-30.137132519998225
6.117302272,1.0002075102557537,-30.44106576225623
6.125122048,1.000233695889816,-30.745609280630898
6.132942336,1.0002473723671734,-31.05050593109602
6.140762624,1.0002477442375,-31.35561914973107
6.1485824,1.0002345873373564,-31.660819439533533
6.156402688,1.0002088087291758,-31.96589913572359
6.164222976,1.0001716064755481,-32.2706319977772
6.172043264,1.00012505163936,-32.57493342165629
6.17986304,1.000071552354055,-32.87868617945283
6.187683328,1.0000141542448278,-33.18184233671381
6.195503616,0.9999556164929484,-33.48438892838759
6.203323392,0.9998996149395376,-33.78620430270837
6.21114368,0.9998488369778681,-34.08742977682577
6.218963968,0.9998060580495941,-34.38821847635109
6.226783744,0.9997740951285462,-34.6885628492642
6.234604032,0.9997541318212533,-34.98871747666688
6.24242432,0.9997476598338728,-35.288763577221474
6.250244608,0.9997549917658152,-35.588947792937894
6.258064384,0.9997755966939962,-35.889453934516794
6.265884672,0.9998087239799945,-36.19047852845423
6.27370496,0.9998523287193821,-36.4920900408352
6.281524736,0.9999046284286872,-36.7944858265112
6.289345024,0.9999620709674202,-37.097748338867845
6.297165312,1.0000217574057313,-37.401898515857845
6.304985088,1.000080712000022,-37.70699926824552
6.312805376,1.0001357621781606,-38.01296246799939
6.320625664,1.0001832477587753,-38.31978124071256
6.328445952,1.0002212760004126,-38.62726308168616
6.336265728,1.0002476223006254,-38.93535728411885
6.344086016,1.0002604377620101,-39.243838782340404
6.351906304,1.000259334743084,-39.55249584340119
6.35972608,1.000244217786087,-39.86117499713989
6.367546368,1.0002156408536755,-40.16972879104602
6.375366656,1.000175498005684,-40.47794518068893
6.383186944,1.000125669455229,-40.78568749079889
6.39100672,1.0000688730258056,-41.09281285584456
6.398827008,1.0000083060990452,-41.3993026874935
6.406647296,0.9999469929297128,-41.70508784599086
6.414467072,0.999888454450952,-42.010215430401416
6.42228736,0.999835811354406,-42.314722177662766
6.430107648,0.999792078598937,-42.61868899745918
6.437927424,0.9997596406300944,-42.92223761106945
6.445747712,0.9997401632477276,-43.22557484613994
6.453568,0.9997347653617252,-43.52888762855544
6.461388288,0.9997437505322596,-43.832362871207685
6.469208064,0.99976696230772,-44.13612140574251
6.477028352,0.9998030858983618,-44.440428493171254
6.48484864,0.9998500754364813,-44.7454009978118
6.492668416,0.999905383562023,-45.051228366545274
6.500488704,0.99996613626158,-45.357922201612844
6.508308992,1.0000289782646719,-45.66558983361325
6.51612928,1.0000906813111732,-45.97420508578423
6.523949056,1.0001475472806165,-46.28375378177231
6.531769344,1.0001969353416647,-46.594157192948764
6.539589632,1.0002357543850204,-46.905270837401694
6.547409408,1.0002620591787061,-47.216985464848825
6.555229696,1.0002740129910097,-47.52906356371772
6.563049984,1.0002713966367733,-47.84134498830711
6.57086976,1.000254057870845,-48.153630863426464
6.578690048,1.0002228004551983,-48.46574314233991
6.586510336,1.000179484457244,-48.7774549371663
6.594330624,1.000126243848811,-49.088658927763795
6.6021504,1.0000662486311067,-49.399230574365035
6.609970688,1.000002250572399,-49.70910842007166
6.617790976,0.9999380887688187,-50.01826306885031
6.625610752,0.999877056154463,-50.32667037030723
6.63343104,0.999822570918008,-50.63445412552345
6.641251328,0.9997777098953988,-50.941707006885245
6.649071104,0.9997447006318197,-51.248520954119996
6.656891392,0.9997256388669588,-51.55513453224823
6.66471168,0.9997214045726496,-51.86170753885621
6.672531968,0.9997324586776628,-52.168450809777305
6.680351744,0.9997583245574521,-52.47553838216562
6.688172032,0.9997971541901792,-52.78321950343892
6.69599232,0.9998474112503984,-53.091609727783926
6.703812096,0.9999063335399999,-53.40087878941098
6.711632384,0.9999703704404547,-53.71108765677961
6.719452672,1.0000364956139853,-54.02229726153831
6.72727296,1.0001010649704023,-54.33451240955138
6.735092736,1.000160301956374,-54.64768272512794
6.742913024,1.0002110166825113,-54.96173707708448
6.750733312,1.0002506251460845,-55.27653819682094
6.758553088,1.0002767665833021,-55.5918928484078
6.766373376,1.0002881434149113,-55.907618076585045
6.774193664,1.0002838636166653,-56.223546969035326
6.78201344,1.0002642879954495,-56.539486077139024
6.789833728,1.0002303162338555,-56.85517491250535
6.797654016,1.0001837683535737,-57.170475010436526
6.805474304,1.0001271395173637,-57.4852115078493
6.81329408,1.0000633833429597,-57.79924148354019
6.821114368,0.9999961341539078,-58.112557065739615
6.828934656,0.9999287981482863,-58.425081693225756
6.836754432,0.99986528985127,-58.73688099897792
6.84457472,0.9998088324300016,-59.04797110141847
6.852395008,0.999762739184421,-59.358489931321095
6.860215296,0.999729285948091,-59.668590078205526
6.868035072,0.9997106018874645,-59.978489411322464
6.87585536,0.9997076571507731,-60.28834870450254
6.883675648,0.9997206663749838,-60.59842459297105
6.891495424,0.999748997681553,-60.90886702456424
6.899315712,0.9997910438019219,-61.219955893340185
6.907136,0.9998447450553283,-61.53176718054559
6.914955776,0.9999071202312453,-61.84447422825042
6.922776064,0.9999749827022801,-62.1582033725826
6.930596352,1.0000442717324807,-62.47300929780435
6.93841664,1.0001115425376959,-62.78884848505581
6.946236416,1.000173203283366,-63.10565903568066
6.954056704,1.0002255447899941,-63.42340979517557
6.961876992,1.0002659760537171,-63.74191236029014
6.969696768,1.0002921657657158,-64.060989325405
6.977517056,1.0003026328745508,-64.3804274354181
6.985337344,1.0002968838372408,-64.70006911899863
6.993157632,1.0002748983342702,-65.01960241154461
7.000977408,1.0002380363680874,-65.33892031376757
7.008797696,1.0001881372394474,-65.65782271764692
7.016617984,1.000127957996295,-65.97607090461173
7.02443776,1.000060621575581,-66.29360007112881
7.032258048,0.9999898339363165,-66.61033780696269
7.040078336,0.9999195356580646,-66.92626712005996
7.047898112,0.9998531027263717,-67.24141546364805
7.0557184,0.9997947170532665,-67.55581180671045
7.063538688,0.9997473049379986,-67.86964013660297
7.071358976,0.9997134543289729,-68.18306577531622
7.079178752,0.999695198154078,-68.49625695256117
7.08699904,0.9996934062417585,-68.80943810217872
7.094819328,0.99970827202254,-69.12283227519656
7.102639104,0.9997393227903271,-69.43663144579754
7.110459392,0.9997846510962327,-69.75106539602993
7.11827968,0.9998416859696226,-70.066345156024
7.126099456,0.9999078165127182,-70.38258276316168
7.133919744,0.9999791398014906,-70.6998541210997
7.141740032,1.0000520538880047,-71.01820578771262
7.14956032,1.0001223470597806,-71.33765706807094
7.157380096,1.0001862473459058,-71.6581583099558
7.165200384,1.000240430795851,-71.97956056634683
7.173020672,1.0002818324558103,-72.30175215067482
7.180840448,1.0003080729451481,-72.62452600600669
7.188660736,1.0003178237484571,-72.94768762006531
7.196481024,1.0003102301424318,-73.27102182774391
7.204301312,1.0002859063320675,-73.59424129565923
7.212121088,1.0002462111105257,-73.91719474796564
7.219941376,1.0001927463798916,-74.23965423457716
7.227761664,1.0001289302653529,-74.56145525803363
7.23558144,1.0000579590864096,-74.88250065762466
7.243401728,0.9999833908199846,-75.20266858258171
7.251222016,0.9999097800392815,-75.52195549177554
7.259041792,0.9998407170273955,-75.84045860306864
7.26686208,0.9997800737574413,-76.15818504965027
7.274682368,0.9997312783686407,-76.4753310355756
7.282502656,0.9996970327009409,-76.79200033872878
7.290322432,0.9996790414186011,-77.1084767599146
7.29814272,0.9996784300344098,-77.42493680183178
7.305963008,0.9996955205545539,-77.7416250285758
7.313782784,0.9997291817546677,-78.05875977695939
7.321603072,0.9997777117461386,-78.37659138978998
7.32942336,0.9998385173579406,-78.6952904503121
7.337243648,0.9999084010291359,-79.01496074897292
7.345063424,0.9999835877714462,-79.33575132697187
7.352883712,1.0000598657662894,-79.65770595228713
7.360704,1.000133395498429,-79.98073974081605
7.368523776,1.000199823379737,-80.30489388702878
7.376344064,1.000255875771637,-80.62997204283113
7.384164352,1.0002981705524652,-80.95585823169611
7.391984128,1.0003245272752588,-81.2823347020898
7.399804416,1.0003334531848196,-81.60918906122748
7.407624704,1.0003242748140768,-81.93618479969304
7.415444992,1.0002975466492945,-82.26305968026595
7.423264768,1.0002547443904135,-82.58962643123097
7.431085056,1.0001979418700424,-82.91560512945452
7.438905344,1.0001301770894264,-83.24094555452764
7.44672512,1.0000552740406952,-83.56542590688841
7.454545408,0.9999770760666983,-83.88904914769867
7.462365696,0.9998998718474867,-84.21169636885612
7.470185984,0.999827998322343,-84.53350809398833
7.47800576,0.9997651331445943,-84.85450226011146
7.485826048,0.9997148732555117,-85.17487365916654
7.493646336,0.9996799778585725,-85.4948253916473
7.501466112,0.9996623392706813,-85.81450332117103
7.5092864,0.9996630634509669,-86.13421021179832
7.517106688,0.9996820881313294,-86.45416854148205
7.524926464,0.9997184468169917,-86.77457900897579
7.532746752,0.9997703776576169,-87.0957570436926
7.54056704,0.9998350004400898,-87.41778220727748
7.548387328,0.9999086900472762,-87.74091615328244
7.556207104,0.9999879040610122,-88.06516078632046
7.564027392,1.0000679891795585,-88.39060542537733
7.57184768,1.0001446635622122,-88.71725296955945
7.579667456,1.0002139207136076,-89.04499236877312
7.587487744,1.0002718342595764,-89.373689837335
7.595308032,1.0003152553190988,-89.70324105384378
7.603127808,1.0003417044700647,-90.03338898816261
7.610948096,1.000349906717823,-90.36387858261592
7.618768384,1.000339091493568,-90.69452876460755
7.626588672,1.0003100295862528,-91.02499878299147
7.634408448,1.000263960785712,-91.35512750342849
7.642228736,1.0002034920087715,-91.68464680082818
7.650049024,1.0001318153777687,-92.01344931483945
7.6578688,1.000052894351464,-92.34131574551135
7.665689088,0.9999707512002256,-92.66827822757205
7.673509376,0.999889902401839,-92.99423907198755
7.681329664,0.9998148962369454,-93.31928329264434
7.68914944,0.9997496302256172,-93.6435190731496
7.696969728,0.9996977808468965,-93.9670778694096
7.704790016,0.9996622416086186,-94.2901783138441
7.712609792,0.9996448289431187,-94.61301491196484
7.72043008,0.9996468400076148,-94.93585945168084
7.728250368,0.9996679436275592,-95.25901816578671
7.736070144,0.9997071429119546,-95.58265104156409
7.743890432,0.9997625172036771,-95.90706814939642
7.75171072,0.9998309497052552,-96.23239183093813
7.759531008,0.9999089288950045,-96.5588550289499
7.767350784,0.999992127408953,-96.88651928397898
7.775171072,1.0000761551255246,-97.21541130777761
7.78299136,1.0001563510767322,-97.54554528215202
7.790811136,1.000228280069106,-97.87683321238607
7.798631424,1.000288305485202,-98.20909414366785
7.806451712,1.000332882841596,-98.54223890735621
7.814272,1.0003595597556396,-98.87595642644898
7.822091776,1.0003670313769644,-99.21004924697343
7.829912064,1.0003545159229978,-99.54424069834573
7.837732352,1.0003228603218979,-99.87825257118958
7.845552128,1.0002737050557646,-100.21188370510474
7.853372416,1.0002094226507068,-100.54486548714215
7.861192704,1.0001336574765636,-100.87701328815606
7.86901248,1.0000504571857813,-101.20824159463731
7.876832768,0.9999642616429009,-101.53846036519721
7.884653056,0.9998795366640979,-101.86762416251123
7.892473344,0.9998012829415637,-102.19582835407259
7.90029312,0.9997334724005729,-102.52316991076746
7.908113408,0.99967996475503,-102.84980991020402
7.915933696,0.9996435608764309,-103.17597376458863
7.923753472,0.9996264389783927,-103.5018736649561
7.93157376,0.9996295441414378,-103.82778325910222
7.939394048,0.9996528241925392,-104.15400237070592
7.947213824,0.9996950214176483,-104.48076843916414
7.955034112,0.9997538590655611,-104.80830561819747
7.9628544,0.9998263895630848,-105.1368493103499
7.970674688,0.9999086027515156,-105.46656503578636
7.978494464,0.999996183646528,-105.79748510800331
7.986314752,1.0000841430726255,-106.12975690967974
7.99413504,1.000168011879028,-106.46327406703783
8.001954816,1.0002431375781393,-106.7979924421755
8.009775104,1.0003054092539163,-107.13374667136944
8.017595392,1.0003512396862768,-107.47034870703469
8.02541568,1.0003782914496084,-107.80756253159112
8.033235456,1.0003850314930702,-108.1451493601294
8.041055744,1.0003710195454216,-108.48279759895149
8.048876032,1.0003366881835571,-108.82025966366814
8.056695808,1.0002841643325513,-109.15725151967112
8.064516096,1.000216062451943,-109.49356433425204
8.072336384,1.0001361272462292,-109.82901842110081
8.08015616,1.0000483638309243,-110.16346172926568
8.087976448,0.9999578060236932,-110.49682617933952
8.095796736,0.9998692215292031,-110.82908755617719
8.103617024,0.9997873763231983,-111.16033941701306
8.1114368,0.9997168287369853,-111.49068905539701
8.119257088,0.9996613953775247,-111.82026300101138
8.127077376,0.999624141988062,-112.14933233839633
8.134897152,0.9996071416127568,-112.47818096632358
8.14271744,0.9996113640176391,-112.80701190280193
8.150537728,0.9996367921059056,-113.13617009414747
8.158358016,0.9996818735541895,-113.46588199636462
8.166177792,0.9997446081022188,-113.79644950424253
8.17399808,0.9998212730845757,-114.12802427809812
8.181818368,0.9999079743192488,-114.46084039847098
8.189638144,0.9999999989223767,-114.79495828784093
8.197458432,1.0000923704031708,-115.13040928959714
8.20527872,1.0001801040725236,-115.46722094742145
8.213098496,1.0002584752764563,-115.8052218514478
8.220918784,1.0003231422901222,-116.14434682220154
8.228739072,1.0003704204512966,-116.48430186809402
8.23655936,1.0003979859202665,-116.8248758877723
8.244379136,1.0004041095848244,-117.1658257132185
8.252199424,1.000388370469054,-117.50682238482533
8.260019712,1.0003515167294397,-117.84758480945688
8.267839488,1.0002956046593985,-118.18783921809322
8.275659776,1.000223502104896,-118.52737124714072
8.283480064,1.0001389765882176,-118.86595249036954
8.291300352,1.0000466714719618,-119.20344901371149
8.299120128,0.9999514675771944,-119.5398402590538
8.306940416,0.9998587065416186,-119.87504984219728
8.314760704,0.9997731162585857,-120.2091675286028
8.32258048,0.999699529466333,-120.54234368989492
8.330400768,0.9996420170818763,-120.87475632451323
8.338221056,0.999603778444867,-121.20658078794052
8.346040832,0.9995868288975441,-121.53816462348443
8.35386112,0.999592206282497,-121.86975577686137
8.361681408,0.9996197291765705,-122.2016727167481
8.369501696,0.9996679257525415,-122.53418882846258
8.377321472,0.9997344257995393,-122.86759655498459
8.38514176,0.999815511141022,-123.20207513593417
8.392962048,0.9999068957876351,-123.53780870497776
8.400781824,1.0000036742721168,-123.87491535377333
8.408602112,1.000100598484305,-124.21343206482034
8.4164224,1.0001924795699177,-124.55331033065468
8.424242176,1.0002743007543013,-124.89448892530798
8.432062464,1.0003415659475745,-125.23677471458258
8.439882752,1.0003906798048208,-125.57990730245751
8.44770304,1.0004187209838447,-125.92371704608577
8.455522816,1.0004242620470265,-126.26786682936637
8.463343104,1.0004069057481078,-126.6120609625145
8.471163392,1.0003674229410033,-126.9559612739755
8.478983168,1.000307951231699,-127.29932548573657
8.486803456,1.0002316103615485,-127.64187733694229
8.494623744,1.0001424072349536,-127.98345991270769
8.502444032,1.0000452980205212,-128.32386873531826
8.510263808,0.9999452441882593,-128.6630847913007
8.518084096,0.9998478945540178,-129.0010716704057
8.525904384,0.9997583387157145,-129.3379033389965
8.53372416,0.9996816568053117,-129.6736974401364
8.541544448,0.9996217962405054,-130.00870180091243
8.549364736,0.9995822878623202,-130.34310795752572
8.557184512,0.9995652463782665,-130.67724395252702
8.5650048,0.9995717378910959,-131.01136722216913
8.572825088,0.9996014903738375,-131.34585671261206
8.580645376,0.9996528734015954,-131.6809631782999
8.588465152,0.9997233001135815,-132.0169943714804
8.59628544,0.9998089238592819,-132.35415379483305
8.604105728,0.9999052749146414,-132.69264125186143
8.611926016,1.0000070661555092,-133.03255214319117
8.619746304,1.000108961646388,-133.37391903421909
8.627565568,1.0002052109703563,-133.7166969731362
8.635385856,1.0002908102763854,-134.06083065984387
8.643206144,1.0003608889128404,-134.40610560584062
8.651026432,1.0004117515691855,-134.7522762138396
8.65884672,1.0004405232764915,-135.09910716390434
8.666667008,1.0004456440087612,-135.44626544770824
8.674487296,1.0004265974817992,-135.79346297247903
8.68230656,1.000384432299169,-136.1403115365086
8.690126848,1.000321289074209,-136.48660308141353
8.697947136,1.0002405491419495,-136.83202492808584
8.705767424,1.000146494106653,-137.1763610805164
8.713587712,1.000044091122641,-137.5194719302437
8.721408,0.9999390329118372,-137.86133901446703
8.729227264,0.9998367730009936,-138.2018736191629
8.737047552,0.9997429804880514,-138.54117443782073
8.74486784,0.9996627671350945,-138.87939753767915
8.752688128,0.9996004459807745,-139.21677551316247
8.760508416,0.9995595808554164,-139.55353405687939
8.768328704,0.9995424125617097,-139.88996398303988
8.776148992,0.9995499697170843,-140.2264449228727
8.783968256,0.9995818014738433,-140.56323795539996
8.791788544,0.9996364837077909,-140.90070825875955
8.799608832,0.9997110826346162,-141.2391506246814
8.80742912,0.9998015249300694,-141.5787408149679
8.815249408,0.9999030729017063,-141.91973098497957
8.823069696,1.0000102276841007,-142.26219868709077
8.830889984,1.000117172635134,-142.6062051149928
8.838709248,1.00021821130996,-142.95166542751912
8.846529536,1.0003079005000812,-143.29853237942004
8.854349824,1.0003810780080218,-143.64655897732237
8.862170112,1.0004340048488054,-143.99556537201394
8.8699904,1.000463692599662,-144.34520564092117
8.877810688,1.0004683400385062,-144.69517184623157
8.885630976,1.000447717245052,-145.04514392339988
8.89345024,1.000402750399011,-145.39476648056163
8.901270528,1.0003358864324594,-145.74372348484582
8.909090816,1.0002504513173782,-146.0917674664505
8.916911104,1.000151232416132,-146.43868937604162
8.924731392,1.0000434036396035,-146.78427482123791
8.93255168,0.9999327923438173,-147.12851249865412
8.940371968,0.9998253934050735,-147.47136074643691
8.948191232,0.999726986192864,-147.8129156307614
8.95601152,0.9996429643086616,-148.15333035331338
8.963831808,0.9995778898140477,-148.49279524839065
8.971652096,0.9995355491758833,-148.8316283567141
8.979472384,0.9995180428628165,-149.1701239980704
8.987292672,0.9995265257484454,-149.50866431981117
8.995111936,0.9995607267248181,-149.8474939681891
9.002932224,0.9996187673074586,-150.18709104041707
9.010752512,0.9996976434231217,-150.5276124392498
9.0185728,0.9997932005776755,-150.86941480081816
9.026393088,0.9999002178136641,-151.2126329405482
9.034213376,1.0000130700084768,-151.55742946263558
9.042033664,1.0001256726425083,-151.903799919218
9.049852928,1.0002317506577216,-152.25172548902415
9.057673216,1.0003257395028593,-152.60105049443294
9.065493504,1.0004024859256384,-152.95164151046149
9.073313792,1.0004576651270678,-153.30318059435476
9.08113408,1.0004883486208502,-153.6554094833543
9.088954368,1.0004926972154435,-154.00795618024975
9.096774656,1.000470373197724,-154.3604576350364
9.10459392,1.000422514786146,-154.7125843849699
9.112414208,1.0003515893447261,-155.06400134383534
9.120234496,1.000261428100707,-155.4144263060112
