freq,mag,phase
6.0,1.0001524270772404,87.37880711504114
6.002285056,0.9997052698524238,87.2464369476516
6.004570112,0.9992773903262465,87.1204365829155
6.006855168,0.9988953196667214,87.00036927770023
6.009140224,0.9985831442724858,86.88540741935206
6.01142528,0.9983609118389305,86.7743710062669
6.013710336,0.9982427618624807,86.66584773368554
6.015995392,0.9982362534961391,86.55828684107446
6.018280448,0.9983419534202692,86.45000544369827
6.020565504,0.9985530113109912,86.33942586020079
6.02285056,0.998856012313121,86.22515403660651
6.025135616,0.9992319149664389,86.10592594835407
6.027420672,0.9996566604256162,85.98088227113153
6.029705728,1.000103274013135,85.84955589330622
6.031990784,1.0005436019685408,85.71176855783222
6.03427584,1.0009493898256832,85.56784998628312
6.036560896,1.001295334575228,85.41855158463397
6.038845952,1.0015592219865606,85.26479503798971
6.041131008,1.001724591144629,85.10797550022485
6.043416064,1.0017807737200646,84.94954768008793
6.04570112,1.0017242644934528,84.79116901343532
6.047986176,1.0015586539023649,84.63438726669662
6.050271232,1.0012941733781169,84.48075742047035
6.052556288,1.0009477144357724,84.33156678833147
6.054841344,1.0005409449907632,84.18783195547455
6.0571264,1.0000996946959253,84.05032021708345
6.059411456,0.9996518447808164,83.91927270212854
6.061696512,0.9992260035823819,83.79459384408763
6.063981568,0.9988489971832692,83.67581702513802
6.066266624,0.9985449876312126,83.56200216505435
6.06855168,0.9983332756734387,83.45199689866241
6.070836736,0.9982274481064026,83.34433251969708
6.073121792,0.9982342457123689,83.23741115127896
6.075406848,0.9983533977029709,83.12961770545458
6.077691904,0.9985771342387296,83.01929457575848
6.07997696,0.9988915291776205,82.90512417012117
6.082262016,0.9992763350079545,82.78582660767361
6.084547072,0.9997072592930274,82.66064553269551
6.086832128,1.0001568377891037,82.52905737138775
6.089117184,1.0005966530917147,82.39101265995198
6.09140224,1.0009987526930146,82.24687804865891
6.093687296,1.0013376791951205,82.0974010243844
6.095972352,1.0015920451361362,81.94361755025001
6.098257408,1.0017456350231146,81.78690980352096
6.100542464,1.0017888711530365,81.62877723831451
6.10282752,1.001718779786189,81.47086384387482
6.105112576,1.0015398842065761,81.31475172126319
6.107397632,1.001263383463816,81.16196731335859
6.1096832,1.0009067288913374,81.01377917903717
6.111968256,1.0004924951046739,80.87120221685609
6.114253312,1.0000468060277903,80.73487969506112
6.116538368,0.9995978189095794,80.60505558044362
6.118823424,0.9991741835843218,80.48163478946103
6.12110848,0.9988028104222,80.36405884997265
6.123393536,0.9985073025238255,80.25132699340449
6.125678592,0.9983065141467217,80.14225030592593
6.127963648,0.9982134455830106,80.0353412052633
6.130248704,0.9982338907481508,79.92898620109949
6.13253376,0.9983664934507723,79.8215656483616
6.134818816,0.9986030855552489,79.71142212894219
6.137103872,0.9989285539731458,79.59720783282533
6.139388928,0.9993221946226137,79.47778813515114
6.141673984,0.9997589876760614,79.35230488791646
6.14395904,1.0002111232684772,79.22039615480212
6.146244096,1.0006501182002265,79.08198756988142
6.148529152,1.0010479668134797,78.93754016513954
6.150814208,1.0013795300620127,78.78781392848337
6.153099264,1.0016239469801185,78.63392805128836
6.15538432,1.0017655789763682,78.4772581959372
6.157669376,1.0017953379015327,78.31937232431227
6.159954432,1.001711682401164,78.16186611450878
6.162239488,1.0015195029146264,78.00637300572609
6.164524544,1.0012309462018165,77.8543510122464
6.1668096,1.0008643355562634,77.7070988591084
6.169094656,1.0004426949838805,77.56560349788116
6.171379712,0.9999928162911622,77.43044377302853
6.173664768,0.9995432563447005,77.3018285680063
6.175949824,0.9991222469260566,77.1795574320596
6.17823488,0.9987569681155496,77.06306586960929
6.180519936,0.9984704132082649,76.95131949574487
6.182804992,0.9982809518359945,76.84308449285696
6.185090048,0.9982007148046024,76.73684577194231
6.187375104,0.9982349296893254,76.63095845492224
6.18966016,0.9983813794527296,76.52374984299678
6.191945216,0.9986307364906816,76.4136871313367
6.194230272,0.998967223847331,76.29936051561049
6.196515328,0.9993694455150076,76.17965735377025
6.198800384,0.9998118088301503,76.05381854993887
6.20108544,1.0002662685082975,75.92147321809074
6.203370496,1.0007040045027438,75.78262911624228
6.205655552,1.0010971897146193,75.63779328818545
6.207940608,1.0014210949602067,75.48777844453588
6.210225664,1.0016549111020503,75.33369435751831
6.21251072,1.0017842530429557,75.17700357732228
6.214795776,1.0018005724226502,75.01928833097952
6.217080832,1.0017029768276087,74.86213793006478
6.219365888,1.0014974962434529,74.70719296521261
6.221650944,1.0011969921906776,74.5559141067544
6.223936,1.0008204901409279,74.40955912242931
6.226221056,1.0003919413771205,74.26904951918098
6.228506112,0.9999382020664036,74.13496158264859
6.230791168,0.999488146533194,74.00744814102464
6.233076224,0.9990704717567741,73.8862846759734
6.23536128,0.9987115129660593,73.7708093426665
6.237646336,0.9984343337482652,73.65996524957373
6.239931392,0.9982565735288556,73.55248472789569
6.242216448,0.9981894707858318,73.4467908620492
6.244501504,0.998237657026096,73.34125688459169
6.24678656,0.9983978093960073,73.23423636661272
6.249071616,0.9986599795408115,73.12410520181865
6.251356672,0.9990073315502824,73.00956747735438
6.253641728,0.9994178634546608,72.88948619799199
6.255926784,0.9998655276699594,72.76318950506047
6.25821184,1.000321909273107,72.63031681819885
6.260496896,1.0007579080995823,72.49095359262256
6.262781952,1.0011460982672327,72.34563684188227
6.265067008,1.001461772134936,72.195215600054
6.267352064,1.0016849743925458,72.0409086794797
6.26963712,1.0018015591192482,71.8841268648129
6.271922176,1.0018041378815388,71.7264882488152
6.274207232,1.0016924445148048,71.56966608287505
6.276492288,1.00147348982886,71.41520712271894
6.278777344,1.0011613109742166,71.26459817636731
6.2810624,1.000775235603243,71.11908294195406
6.283347456,1.0003398138300377,70.97951140468457
6.285632512,0.9998827119186381,70.84644641090308
6.287917568,0.9994326938493178,70.71997881647093
6.290202624,0.9990184918826688,70.59983280649773
6.29248768,0.9986664652577657,70.485261717254
6.294772736,0.9983989360464898,70.37526308841115
6.297057792,0.9982331281410651,70.26842578963117
6.299342848,0.998179683853389,70.16319187991995
6.301627904,0.9982419394232318,70.05792080700057
6.30391296,0.9984160205283603,69.9509236579521
6.306198016,0.9986908087239068,69.84065688181506
6.308483072,0.9990489323009047,69.72578086942106
6.310768128,0.9994676837507757,69.60524771531854
6.313053184,0.9999202275189407,69.47838945403984
6.31533824,1.0003780922890588,69.34489373031147
6.317623296,1.0008120597361463,69.20494496843538
6.319908352,1.001194728549612,69.05906020102783
6.322193408,1.0015018020928503,68.90817867139968
6.324478976,1.001713870319412,68.75353460578253
6.326764032,1.001817559347168,68.59662980494183
6.329049088,1.0018061901650226,68.43903042709113
6.331334144,1.0016804531298464,68.28242101024163
6.3336192,1.0014482179189097,68.12841562422813
6.335904256,1.0011242028014435,67.97843363266912
6.338189312,1.0007287320778306,67.8336808656547
6.340474368,1.000286851645343,67.69500761691624
6.342759424,0.9998265487727312,67.56287540665922
6.34504448,0.999376997847278,67.43739773892418
6.347329536,0.9989667530932879,67.31817085002248
6.349614592,0.9986219955585812,67.20444297633854
6.351899648,0.9983646546738051,67.09515341587976
6.354184704,0.9982111765800197,66.98889086517065
6.35646976,0.9981713997368663,66.88398665561571
6.358754816,0.998247875367771,66.77887661473487
6.361039872,0.9984357723517766,66.67183258505416
6.363324928,0.9987232631604768,66.5613176660506
6.365609984,0.9990919583754706,66.44602650858305
6.36789504,0.9995184789471587,66.3249199130367
6.370180096,0.9999757910377072,66.19741589300402
6.372465152,1.0004346677953377,66.06322057621186
6.374750208,1.0008660992661034,65.92256100438814
6.377035264,1.0012429084767502,65.776062162119
6.37932032,1.0015410197860146,65.6246560457214
6.381605376,1.0017417105533892,65.4696100024909
6.383890432,1.0018321264988435,65.31250355297601
6.386175488,1.0018066192276933,65.1549035694796
6.388460544,1.0016667834391113,64.99848754537742
6.3907456,1.0014212511806473,64.84484864003196
6.393030656,1.0010855493316617,64.69543584603284
6.395315712,1.000680931725477,64.55138891730873
6.397600768,1.0002329971474981,64.41352827669476
6.399885824,0.9997698901598213,64.28228177334216
6.40217088,0.9993212478869329,64.15768631892472
6.404455936,0.9989154547290514,64.03931284144434
6.406740992,0.9985782977959367,63.92635220811398
6.409026048,0.9983314038008033,63.81767673827769
6.411311104,0.9981905329834427,63.71184678792271
6.41359616,0.9981646773873883,63.60725500653175
6.415881216,0.9982555194853681,63.50216547223089
6.418166272,0.9984573281506587,63.39496259309465
6.420451328,0.9987573350140677,63.28408922252849
6.422736384,0.9991364134358762,63.16827039022598
6.42502144,0.9995704332174311,63.046511644527335
6.427306496,1.0000319653306986,62.91823021816374
6.429591552,1.0004915562797618,62.783280516801554
6.431876608,1.0009201441229505,62.641866417668645
6.434161664,1.0012905815900202,62.494628850732006
6.43644672,1.00157940399799,62.342616407702536
6.438731776,1.0017683116564515,62.18716528659524
6.441016832,1.0018453284765743,62.029769324619494
6.443301888,1.0018055285062466,61.872104050220315
6.445586944,1.0016514668060403,61.71580302033238
6.447872,1.0013926653539422,61.562499752521425
6.450157056,1.0010455464707673,61.41359344353375
6.452442112,1.0006319605684586,61.270188819045586
6.454727168,1.0001781732493027,61.133086302490945
6.457012224,0.9997126616754305,61.002646439858715
6.45929728,0.9992653280142273,60.87886603607525
6.461582336,0.9988642820380945,60.76127257748053
6.463867392,0.9985352563930276,60.648981380988005
6.466152448,0.9982992924919263,60.54085709156067
6.468437504,0.9981712304098374,60.43538179221155
6.47072256,0.998159416356723,60.33094223158564
6.473007616,0.9982646669775177,60.22581533646636
6.475292672,0.99848043391285,60.11835051095857
6.477577728,0.9987927312499367,60.00699472363696
6.479862784,0.9991820490969193,59.89055661249669
6.48214784,0.9996232855832687,59.76805587744514
6.484432896,1.0000886704459309,59.638944246189844
6.486717952,1.0005486190843649,59.5030988401281
6.489003008,1.0009739104721493,59.36082727123634
6.491288064,1.0013376017871065,59.21281849874979
6.49357312,1.001616699737169,59.06015927502181
6.495858176,1.0017936014283952,58.9041824246085
6.498143232,1.0018569303719285,58.74645099367554
6.500428288,1.0018027699764647,58.58866202164143
6.502713344,1.0016343886056618,58.43244193582127
6.5049984,1.0013625114096785,58.27941514740395
6.507283456,1.0010040965695062,58.13095050734582
6.509568512,1.000581912977283,57.98812847205786
6.511853568,1.0001225907941569,57.851711770148505
6.514138624,0.9996552264652152,57.722011960279744
6.51642368,0.9992094839940338,57.598973395984416
6.518708736,0.9988137040698811,57.48204221290714
6.520993792,0.9984931219498483,57.37037449148185
6.523278848,0.9982681257320811,57.26268185437425
6.525563904,0.9981532718246219,57.15747865091965
6.52784896,0.9981556990133561,57.053076963841306
6.530134016,0.9982755711357606,56.947779481067165
6.532419072,0.9985049991361595,56.83994755121637
6.534704128,0.9988297004143433,56.72805281520343
6.536989184,0.999228817319454,56.61088890599224
6.53927424,0.9996771094519814,56.48754124266975
6.541559808,1.0001459106495731,56.357494653819344
6.543844864,1.0006057724800779,56.220703709022345
6.54612992,1.00102733573176,56.07750704839882
6.548414976,1.001383902319905,55.92863709537775
6.550700032,1.001653033464215,55.77524069231436
6.552985088,1.0018175181962148,55.61868821071383
6.555270144,1.0018670774532192,55.46055676329318
6.5575552,1.0017983846192355,55.302582218543286
6.559840256,1.0016158461009586,55.14639620297007
6.562125312,1.0013308345400258,54.99358129507686
6.564410368,1.0009613950528164,54.84550231968585
6.566695424,1.0005308441398988,54.70320617362435
6.56898048,1.0000663280931184,54.567412625021646
6.571265536,0.999597420337436,54.43839948141181
6.573550592,0.9991537670452115,54.31600976468726
6.575835648,0.9987637248105766,54.19971124465004
6.578120704,0.9984518946720897,54.08851356584378
6.58040576,0.9982384825968222,53.98114227290592
6.582690816,0.9981369145001675,53.876104281098726
6.584975872,0.9981538296041346,53.771658395806575
6.587260928,0.998288102572853,53.66612323354351
6.589545984,0.9985313516339874,53.55781186095743
6.59183104,0.9988681624613794,53.445259969537425
6.594116096,0.9992768562441772,53.3272648585066
6.596401152,0.9997317292869035,53.20296998765738
6.598686208,1.0002037437261284,53.07191825499456
6.600971264,1.000663081250919,52.93407506769745
6.60325632,1.0010803893154885,52.78986553122871
6.605541376,1.0014295253718724,52.64008192761501
6.607826432,1.0016882449604836,52.485892853613244
6.610111488,1.0018401830888057,52.32869632284523
6.612396544,1.0018756292417383,52.17012357178342
6.6146816,1.001792336376716,52.01192058150541
6.616966656,1.0015956625665614,51.85569503755737
6.619251712,1.0012977820729145,51.70301714411189
6.621536768,1.0009174195336463,51.555282511387645
6.623821824,1.000478814600095,51.413440331782496
6.62610688,1.0000095363093464,51.278209800840166
6.628391936,0.999539430244849,51.14977893658997
6.630676992,0.999098230756434,51.02798585509736
6.632962048,0.9987141818368431,50.9121956895061
6.635247104,0.9984116300597907,50.80140159047946
6.63753216,0.9982098872643217,50.694293526273455
6.639817216,0.9981218669247313,50.58930451284176
6.642102272,0.9981533373404762,50.48472664855493
6.644387328,0.9983021887475764,50.378820057506815
6.646672384,0.9985591156705423,50.269940698672535
6.64895744,0.9989077410492526,50.15661988047339
6.651242496,0.9993258642180894,50.03769284299019
6.653527552,0.9997869980588625,49.91238390818847
6.655812608,1.000261841312044,49.78021950529923
6.658097664,1.000720264742169,49.64126621231646
6.66038272,1.0011331733582594,49.495963163899994
6.662667776,1.0014744269643043,49.3451694631747
6.664952832,1.0017223557198327,49.1901141286127
6.667237888,1.0018614381671458,49.03223457578891
6.669522944,1.0018828286881485,48.87318459126188
6.671808,1.0017849613474779,48.71464787645114
6.674093056,1.0015740684159182,48.5583270853869
6.676378112,1.0012633243642124,48.40577609577937
6.678663168,1.0008724397041382,48.25828727191677
6.680948224,1.0004260862077032,48.11684356728236
6.68323328,0.9999522617404768,47.982082580054865
6.685518336,0.9994815036905113,47.85416373102358
6.687803392,0.9990431392967963,47.73285244498996
6.690088448,0.9986655161009036,47.617501620221155
6.692373504,0.9983723909374043,47.507040958359966
6.69465856,0.9981826847341208,47.40007782897653
6.696943616,0.9981084009426326,47.29506168680806
6.699228672,0.9981544318017522,47.190223836886375
6.701513728,0.9983178676433972,47.083836036448346
6.703798784,0.9985883340097638,46.97428263787778
6.70608384,0.9989486891076822,46.860109874248074
6.708368896,0.999375938431862,46.740175702754684
6.710653952,0.9998429238528469,46.61372489877396
6.712939008,1.0003201549012746,46.48036473532461
6.715224064,1.0007772007039029,46.34021570434306
6.71750912,1.0011851849319926,46.19376216954924
6.719794176,1.0015182750727722,46.0419095697644
6.722079232,1.0017552845087818,45.885932728318956
6.724364288,1.001881381173983,45.72729918915151
6.726649344,1.0018883999250585,45.567653086523855
6.7289344,1.0017758788747841,45.408773447976024
6.731219456,1.001550875891132,45.25228597356993
6.733504512,1.0012275529431989,45.09977935369396
6.735789568,1.0008262365882428,44.952491116667254
6.738074624,1.000372460461441,44.81138182931523
6.74035968,0.9998946552272683,44.6770185154525
6.742644736,0.9994233216922093,44.549554528233486
6.744929792,0.9989883498130971,44.42866351757054
6.747214848,0.9986173978114182,44.313646087155796
6.749499904,0.9983341039966,44.20338608804225
6.75178496,0.9981565470938267,44.09647873263171
6.754070016,0.9980962785568651,43.99132587698987
6.756355072,0.9981569937610676,43.88613224214532
6.75864064,0.9983349592064847,43.77918918532006
6.760925696,0.9986187602666464,43.66884812906918
6.763210752,0.9989905718765159,43.553703428799544
6.765495808,0.9994265627635565,43.432664630850205
6.767780864,0.999899283615809,43.304989856616615
6.77006592,1.0003783997296978,43.17038917261853
6.772350976,1.0008338239434682,43.02893186537094
6.774636032,1.0012364826787004,42.881240963486945
6.776921088,1.001561078758574,42.72826841215136
6.779206144,1.0017869320585917,42.57128900730953
6.7814912,1.0018997170865769,42.41182631268572
6.783776256,1.0018923330650875,42.25158634471322
6.786061312,1.0017651533535066,42.09226568995537
6.788346368,1.001526261666928,41.93557962101392
6.790631424,1.0011905058330204,41.783035174470434
6.79291648,1.000779157913837,41.63588039959353
6.795201536,1.0003182202816532,41.49503019419456
6.797486592,0.9998367713084318,41.36100621516568
6.799771648,0.999365379331534,41.23389382381274
6.802056704,0.9989340871077594,41.11333663965761
6.80434176,0.9985702465183103,40.998572746196366
6.806626816,0.9982970545687143,40.88843432440198
6.808911872,0.9981320820997088,40.78147846188415
6.811196928,0.9980857864102777,40.67607724777684
6.813481984,0.99816113576074,40.57042568510598
6.81576704,0.9983535721468204,40.46279907006006
6.818052096,0.9986506384615726,40.35160010645972
6.820337152,0.9990336861501887,40.235397991921865
6.822622208,0.9994782071926415,40.113149960603025
6.824907264,0.9999560630663752,39.98417159699521
6.82719232,1.0004369195579892,39.84818120407657
6.829477376,1.0008902304555602,39.7053838410756
6.831762432,1.0012872889517093,39.55639249876337
6.834047488,1.001602973846778,39.402210625661255
6.836332544,1.0018173870650995,39.24415616601701
6.8386176,1.0019168436460144,39.08382823533869
6.840902656,1.0018950268898634,38.92290247498984
6.843187712,1.0017532853027227,38.763102084766004
6.845472768,1.0015004735633088,38.60615179496031
6.847757824,1.001152486535277,38.45351554608168
6.85004288,1.0007313412525802,38.30641302735104
6.852327936,1.0002635795553911,38.1657516740534
6.854612992,0.9997788592749458,38.03197432719492
6.856898048,0.9993078122910534,37.9051374982727
6.859183104,0.9988805394949853,37.78481952372912
6.86146816,0.9985241442826936,37.67021300918854
6.863753216,0.9982612923134991,37.56008782364255
6.866038272,0.9981089446272647,37.452992333928286
6.868323328,0.9980767329504793,37.34724536060226
6.870608384,0.9981668178452282,37.241022715922995
6.87289344,0.9983735386218271,37.13263316220795
6.875178496,0.9986837168533643,37.020437998447555
6.877463552,0.9990776784912931,36.90309088001003
6.879748608,0.9995303904576672,36.77952660053123
6.882033664,1.0000130605506492,36.64915100089374
6.88431872,1.0004951236235948,36.51171448746878
6.886603776,1.0009459721086407,36.36749924320472
6.888888832,1.0013370603376603,36.217108585040755
6.891173888,1.0016436319759232,36.061660631903074
6.893458944,1.0018464061148293,35.90250362501082
6.895744,1.0019323460024105,35.741193965663896
6.898029056,1.001895964869303,35.579530028835805
6.900314112,1.0017396661662414,35.419204828821044
6.902599168,1.0014731334945002,35.26189874547237
6.904884224,1.0011131732445504,35.109118919901825
6.90716928,1.0006825750606594,34.96201210118769
6.909454336,1.000208296098868,34.821461553611364
6.911739392,0.9997206267752438,34.687862927175836
6.914024448,0.9992503873763221,34.56121811117057
6.916309504,0.9988274524042494,34.4410445645375
6.91859456,0.9984788427617411,34.326495419908674
6.920879616,0.9982266547160615,34.21631049115594
6.923164672,0.9980870408586624,34.10895356831139
6.925449728,0.9980690799554133,34.00274960438987
6.927734784,0.9981738460786306,33.8958570603856
6.93001984,0.9983948081106108,33.78659301887346
6.932304896,0.9987178618642968,33.67330563159184
6.934589952,0.9991225013736719,33.55470029054305
