freq,mag,phase
6.0,1.0003580113734787,157.8916615161014
6.002285568,1.0004390331979962,157.72774969474762
6.004571648,1.00049165491459,157.56291199248088
6.006857216,1.0005132719912897,157.39754651289059
6.009142784,1.0005028997292287,157.23209957172065
6.011428352,1.0004608817607274,157.0670085535555
6.013714432,1.0003898332773642,156.9027595674793
6.016,1.000294483720539,156.7397446858323
6.018285568,1.0001806907891615,156.57822563144182
6.020571648,1.00005552869848,156.41843847470017
6.022857216,0.999927181323413,156.2605076998546
6.025142784,0.9998034812873171,156.10442030135246
6.027428352,0.9996923556684562,155.95000590047022
6.029714432,0.9996009430564122,155.7971039300572
6.032,0.999534909212916,155.64534271295864
6.034285568,0.9994984228310583,155.49432034528684
6.036571648,0.999493663556911,155.3436412371546
6.038857216,0.999521308775592,155.19275636920102
6.041142784,0.99957944016942,155.04127135020235
6.043428352,0.999664293580681,154.888759972666
6.045714432,0.999770585883453,154.73486026207726
6.048,0.9998916685316839,154.57933267183654
6.050285568,1.0000197840979541,154.4219852836483
6.052571648,1.0001469022384126,154.26275302539025
6.054857216,1.0002649107300652,154.1018039545508
6.057142784,1.0003665397740729,153.93925290179797
6.059428352,1.0004451688780838,153.77537130069373
6.061714432,1.000495917918914,153.610564503728
6.064,1.0005156914123745,153.4452801041224
6.066285568,1.0005029567527053,153.27993470190592
6.068571648,1.0004587951395905,153.11500881695238
6.070857216,1.0003857865707821,152.95090976668186
6.073142784,1.000288580454226,152.7880833275829
6.075428352,1.0001733717684613,152.62678299786475
6.077714432,1.0000472526415671,152.46722171191266
6.08,0.9999183762492924,152.30955584252393
6.082285568,0.9997948612026853,152.15369194368577
6.084571648,0.9996843524443391,151.9995439928222
6.086857216,0.9995941008787113,151.84686488549983
6.089142784,0.9995295572662577,151.69532753356157
6.091428352,0.9994949830643851,151.54448939718338
6.093714432,0.9994926106720956,151.3939396834493
6.096,0.9995223209862598,151.24321005029213
6.098285568,0.9995825994405445,151.0918164516026
6.100571648,0.9996694603747436,150.93936254538286
6.102857216,0.9997773346016913,150.78552188993314
6.105142784,0.9998995657523818,150.6299845969165
6.107428352,1.000028404701928,150.472636858162
6.109714432,1.0001556932867433,150.31345200077232
6.112,1.0002734566296505,150.15249043829294
6.114285568,1.0003739751704537,149.98992441336807
6.116571648,1.0004512782010175,149.82609859963966
6.118857216,1.0005001979583765,149.66136280559223
6.121142784,1.000517910048147,149.4961445697637
6.123428352,1.0005030505239947,149.3309139899183
6.125714432,1.0004566936510262,149.1661235058517
6.128,1.0003815999692145,149.00221591749852
6.130285568,1.000282641984343,148.83957272170477
6.132571648,1.0001659620421575,148.67851793792175
6.134857216,1.0000388941293656,148.5192036945023
6.137142784,0.9999095722179756,148.36178821739276
6.139428352,0.9997862206956873,148.20621019316982
6.141714432,0.9996764764986428,148.05230738472417
6.144,0.9995873792480672,147.89988334837082
6.146285568,0.999524486554375,147.74855742960213
6.148571648,0.9994919650899994,147.5979312727667
6.150857216,0.9994915570563006,147.44755391800172
6.153142784,0.9995236198448706,147.29692947650128
6.155428352,0.9995860642039073,147.14565547111687
6.157714432,0.9996747700176812,146.99329473208678
6.16,0.9997843039074962,146.83946166139353
6.162285568,0.9999077602812343,146.68397092299395
6.164571648,1.0000372311981316,146.52664276707452
6.166857216,1.0001646021887052,146.36748010494406
6.169142784,1.0002819423765954,146.20652039378896
6.171428352,1.0003815983171491,146.04399187089777
6.173714432,1.0004573029357875,145.88018530761573
6.176,1.0005045431656516,145.71551969838492
6.178285568,1.0005201361393246,145.55037112099137
6.180571648,1.0005029072850795,145.38528288412402
6.182857216,1.0004543304999505,145.22065373449445
6.185142784,1.0003771614182613,145.05695057828763
6.187428352,1.0002764237141786,144.89453304522252
6.189714432,1.0001583419102649,144.73373228662408
6.192,1.0000303863593603,144.5746899673284
6.194285568,0.9999007087926289,144.41753136948682
6.196571648,0.9997775682936153,144.26220723868556
6.198857216,0.999668456662216,144.10857788571573
6.201142784,0.9995806061529426,143.95640312923862
6.203428352,0.9995194543287722,143.8053020117111
6.205714432,0.9994888615491309,143.6548695081933
6.208,0.999490684546997,143.5046570894528
6.210285568,0.9995248963014611,143.35421433486837
6.212571648,0.9995894663555359,143.20303980538253
6.214857216,0.999680190465347,143.05074703507177
6.217142784,0.9997913494944646,142.89699404118568
6.219428352,0.9999159808158323,142.74152868508037
6.221714432,1.0000460669198126,142.58422252019682
6.224,1.0001735712092568,142.42505205695417
6.226285568,1.0002902984642015,142.26412368944068
6.228571648,1.0003889915339155,142.1016458243463
6.230857216,1.0004633944779575,141.93791184550977
6.233142784,1.0005086779949246,141.77331240747884
6.235428352,1.0005221087332887,141.60830286984245
6.237714432,1.0005027128394592,141.44332948987935
6.24,1.0004518265088707,141.27885187554563
6.242285568,1.0003726543562776,141.11535989719317
6.244571648,1.0002699972007243,140.95318279270836
6.246857216,1.0001505353103741,140.79260313989988
6.249142784,1.0000217935771734,140.63383999999073
6.251428352,0.9998916645056461,140.47698183809393
6.253714432,0.9997687364966337,140.3219340901526
6.256,0.999660481881877,140.1685843026892
6.258285568,0.9995738871244451,140.01665731978963
6.260571648,0.9995144286129465,139.86579753251695
6.262857216,0.9994857751813344,139.7155837311805
6.265142784,0.999489876281114,139.56558076988063
6.267428352,0.9995264795831523,139.41526055272863
6.269714432,0.9995931698500826,139.2642087845366
6.272,0.9996858111758414,139.1120245988769
6.274285568,0.999798584077613,138.95831671846443
6.276571648,0.9999243820914002,138.8028991047876
6.278857216,1.000055186976118,138.6456381833845
6.281142784,1.0001826624016483,138.48650547619175
6.283428352,1.0002989693687092,138.32561542785652
6.285714432,1.0003965412536873,138.16316089800793
6.288,1.0004692988027266,137.99947237949405
6.290285568,1.0005127407077476,137.83497044771457
6.292571648,1.0005240052172026,137.6700653992264
6.294857216,1.0005023441248142,137.50522520335812
6.297142784,1.0004492220459529,137.34096024209182
6.299428352,1.000368041630773,137.1776809643341
6.301714432,1.0002635452160242,137.01571292553908
6.304,1.0001426203442236,136.85541482992326
6.306285568,1.000012902484611,136.69693621687392
6.308571648,0.9998826813766831,136.54035579430754
6.310857216,0.9997597951510603,136.3856156809958
6.313142784,0.9996523501142953,136.23255381078818
6.315428352,0.9995670991856996,136.0808984826005
6.317714432,0.9995093077900212,135.9303011789691
6.32,0.9994828020046503,135.78028947215705
6.322285568,0.9994891487363926,135.63046223519945
6.324571648,0.9995279934077301,135.4803163286767
6.326857216,0.9995968028074186,135.32938792473274
6.329142784,0.9996915748221634,135.17727739837437
6.331428352,0.999805813500094,135.02368690229366
6.333714432,0.9999327870464735,134.8683027512741
6.336,1.0000640331350865,134.71107242503714
6.338285568,1.000191563309228,134.5519648732382
6.340571648,1.000307368266991,134.39110803242187
6.342857216,1.0004038996275395,134.22872137875368
6.345142784,1.0004751842455455,134.06511481451358
6.347428352,1.0005166710311308,133.9006970042998
6.349714432,1.0005256482130842,133.7359192110146
6.352,1.0005017886102265,133.57125601821937
6.354285568,1.0004463990168966,133.4071773172192
6.356571648,1.0003629635078781,133.24408316222625
6.358857216,1.0002568414833741,133.08242099845367
6.361142784,1.0001346080157816,132.92238150668464
6.363428352,1.0000041299967124,132.76419187587004
6.365714432,0.9998733557255618,132.60791566567468
6.368,0.9997508895941455,132.4534709285134
6.370285568,0.999644287282021,132.30069349446538
6.372571648,0.9995603274303789,132.1493367145588
6.374857216,0.9995043476238314,131.99898644594316
6.377142784,0.9994799210059379,131.84921606051793
6.379428352,0.999488447392454,131.6995741408368
6.381714432,0.999529559112032,131.5496037022095
6.384,0.9996007154314013,131.3987886835017
6.386285568,0.9996973672368143,131.2467902382076
6.388571648,0.9998133093904997,131.09325786914266
6.390857216,0.9999412530659163,130.9379490864732
6.393142784,1.000073184444104,130.78075907815776
6.395428352,1.0002008105954943,130.62170989409023
6.397714432,1.000315841882107,130.4608763339656
6.4,1.000411223744072,130.29854906850656
6.402285568,1.0004809307425777,130.13502395926523
6.404571648,1.0005204887039993,129.97072911265477
6.406857216,1.0005272528386662,129.8060557559083
6.409142784,1.0005011827441843,129.6415894581079
6.411428352,1.0004434610654263,129.47769770024001
6.413714432,1.0003579515833378,129.31484468311155
6.416,1.0002500546333215,129.15343906140316
6.418285568,1.0001264755593346,128.9936929373155
6.420571648,0.9999950517038857,128.835808430565
6.422857216,0.9998640668745359,128.67985260331938
6.425142784,0.9997418592270028,128.5256940485205
6.427428352,0.999636158016504,128.37324842955758
6.429714432,0.9995536510457429,128.2221490164439
6.432,0.9994995087074999,128.07206078223805
6.434285568,0.9994770652830645,127.92252853907868
6.436571648,0.9994880564621925,127.77309161016191
6.438857216,0.9995314539343649,127.62329113923309
6.441142784,0.9996048765619039,127.4726276521441
6.443428352,0.9997033822336274,127.32071648712422
6.445714432,0.9998208361944527,127.16727244313745
6.448,0.9999500287775801,127.01203430080588
6.450285568,1.0000824317515302,126.85489363989143
6.452571648,1.0002099035780512,126.695878828761
6.454857216,1.000324481950915,126.53510722119306
6.457142784,1.0004187345542521,126.37283718446587
6.459428352,1.0004868287428512,126.20942199658245
6.461714432,1.000524325840705,126.04522153431235
6.464,1.000528866257088,125.88069293324125
6.466285568,1.0005003935453092,125.71639476749976
6.468571648,1.0004404415896686,125.55274035800738
6.470857216,1.0003528655283185,125.39012593157497
6.473142784,1.0002431712845905,125.22897250828225
6.475428352,1.0001182719141946,125.0695116544067
6.477714432,0.9999860484101446,124.9119434047703
6.48,0.999854866310487,124.75629436969152
6.482285568,0.9997330092060877,124.60248759365551
6.484571648,0.9996282497237394,124.45031040360038
6.486857216,0.9995471559326764,124.2995166144542
6.489142784,0.9994947994498478,124.1496967811502
6.491428352,0.9994746565332754,124.00041828385267
6.493714432,0.9994877186661125,123.85119686185625
6.496,0.9995336120037125,123.70157161800063
6.498285568,0.9996091570470208,123.55103568979521
6.500571648,0.9997095843858396,123.3992506313976
6.502857216,0.9998286681987817,123.24587944314234
6.505142784,0.9999587394443125,123.09069910261944
6.507428352,1.0000917759697652,122.93363515718164
6.509714432,1.0002192801145788,122.77465882917261
6.512,1.0003331205484345,122.61395782646541
6.514285568,1.0004260871812294,122.45176855365166
6.516571648,1.0004925114012837,122.2884022714994
6.518857216,1.0005279521654302,122.12434151580753
6.521142784,1.000530374372924,121.95999229307775
6.523428352,1.0004993845343726,121.7958666064429
6.525714432,1.0004371516423292,121.63241826466506
6.528,1.000347484370701,121.47006201930441
6.530285568,1.0002360699312876,121.30920304355372
6.532571648,1.000109691263797,121.15005828342338
6.534857216,0.9999766947796377,120.99277023231615
6.537142784,0.9998453712684738,120.8374839568718
6.539428352,0.9997239169321592,120.68397487948046
6.541714432,0.9996200887826572,120.53213096385494
6.544,0.9995403641721703,120.38164301576059
6.546285568,0.9994899592876905,120.23207563556771
6.548571648,0.9994719755695988,120.08306532552493
6.550857216,0.9994876408752833,119.93405023375017
6.553142784,0.999535810947189,119.784572137416
6.555428352,0.9996133992157759,119.63421676617261
6.557714432,0.9997159438539034,119.48252506535484
6.56,0.9998365587209814,119.32925360939285
6.562285568,0.9999676970842016,119.17415226158319
6.564571648,1.000101204185735,119.01713768728085
6.566857216,1.0002285536931728,118.85822932137337
6.569142784,1.0003416364273934,118.69757002066463
6.571428352,1.0004334128812098,118.53547677264773
6.573714432,1.0004980937252814,118.37222107502765
6.576,1.000531481678473,118.2082676619676
6.578285568,1.000531540193661,118.04411002666384
6.580571648,1.0004981533517037,117.88015968211691
6.582857216,1.0004335547030427,117.71692456532568
6.585142784,1.0003418695793562,117.55485278139876
6.587428352,1.0002286456965928,117.39425830774242
6.589714432,1.0001011353112126,117.23542428614245
6.592,0.9999673809268024,117.07849330540772
6.594285568,0.9998358136999018,116.92349395959366
6.596571648,0.9997148423335902,116.7703517151478
6.598857216,0.9996118773996464,116.61885053388487
6.601142784,0.9995338165694686,116.4686457183618
6.603428352,0.999485346447812,116.31936384647207
6.605714432,0.9994695095760395,116.17058911686166
6.608,0.9994874987914043,116.02179025141773
6.610285568,0.9995380839206666,115.87250679257554
6.612571648,0.9996180543745559,115.7222759699505
6.614857216,0.9997224162208109,115.57073387237878
6.617142784,0.999844540711063,115.41754704599198
6.619428352,0.9999767853355271,115.26251130046366
6.621714432,1.000110740058268,115.10556029239905
6.624,1.0002378833576893,114.94671995933145
6.626285568,1.0003503171596688,114.78613704598752
6.628571648,1.0004408309555493,114.6240994372493
6.630857216,1.0005037182056349,114.46095435843854
6.633142784,1.0005350487094342,114.29715455591061
6.635428352,1.0005326710877127,114.13314684839109
6.637714432,1.0004970484734088,113.96939731492445
6.64,1.0004300665972936,113.80640868970083
6.642285568,1.0003360897793672,113.64460558685988
6.644571648,1.0002211643236465,113.484297394474
6.646857216,1.0000923098964605,113.3258057004189
6.649142784,0.9999577832928412,113.16919665508294
6.651428352,0.9998262219789488,113.01455083598425
6.653714432,0.9997056189846494,112.86171005793084
6.656,0.9996038721664653,112.71053882810571
6.658285568,0.9995271673388495,112.56065729353068
6.660571648,0.9994806954004605,112.41166625210569
6.662857216,0.9994671361133887,112.26312301435314
6.665142784,0.9994875768988075,112.11455899599105
6.667428352,0.9995405328934619,111.96546644384331
6.669714432,0.9996227315213332,111.81538006890935
6.672,0.9997290230111255,111.66395664916631
6.674285568,0.9998527296129758,111.51085126233997
6.676571648,0.9999859408335976,111.35591851178232
6.678857216,1.0001203254882087,111.19899813318834
6.681142784,1.000247202210749,111.04024776708907
6.683428352,1.0003589124544505,110.87974705827995
6.685714432,1.0004480404197567,110.71780216719573
6.688,1.0005090822903164,110.55477200285945
6.690285568,1.0005382803593228,110.39108574257033
6.692571648,1.0005336304258203,110.22725834437806
6.694857216,1.0004954611480656,110.06371786375746
6.697142784,1.000426206573784,109.9009887831533
6.699428352,1.0003301880047122,109.73944041883446
6.701714432,1.0002134593640246,109.57946098318678
6.704,1.0000833660045896,109.42125425606665
6.706285568,0.9999481355574192,109.26501419718669
6.708571648,0.9998163727831262,109.11069523239878
6.710857216,0.9996963507814001,108.95823141124956
6.713142784,0.999595647056427,108.80735731163097
6.715428352,0.9995206258140664,108.65777868366195
6.717714432,0.9994761027112421,108.50909154020201
6.72,0.9994648968971068,108.36081878095258
6.722285568,0.9994877300758189,108.21246495480875
6.724571648,0.999543141333043,108.06355423533715
6.726857216,0.9996276700102623,107.91363981521475
6.729142784,0.9997358184458911,107.76231920608025
6.731428352,0.9998610449261969,107.60933452442517
6.733714432,0.9999952882338975,107.45444527942148
6.736,1.0001299672264234,107.29763448996091
6.738285568,1.0002568020699065,107.13892279600311
6.740571648,1.0003674658772703,106.97851542181213
6.742857216,1.000455279404155,106.81663625381037
6.745142784,1.0005145196151537,106.65373144481526
6.747428352,1.000541515228184,106.49021211346096
6.749714432,1.0005343946304044,106.32655119346605
6.752,1.0004938437046746,106.16322957878214
6.754285568,1.0004221784138736,106.0007269731313
6.756571648,1.0003240267572329,105.8394857191692
6.758857216,1.000205571415091,105.6797939147956
6.761142784,1.000074298779675,105.52194362915523
6.763428352,0.9999383713320181,105.36603635507021
6.765714432,0.9998064407824606,105.21207721194523
6.768,0.9996870296993985,105.0599567022835
6.770285568,0.9995874527973461,104.90942483564905
6.772571648,0.9995140859125858,104.7601818561375
6.774857216,0.9994715544044607,104.61176440271042
6.777142784,0.9994627465777532,104.4637580334896
6.779428352,0.9994880897945668,104.31562219414337
6.781714432,0.9995459195344092,104.16689151822779
6.784,0.9996326656658658,104.0171221776497
6.786285568,0.9997428035800168,103.86592283379
6.788571648,0.9998696091711529,103.71303209642232
6.790857216,1.000004764468561,103.55824522707276
6.793142784,1.0001397998241583,103.40149731347256
6.795428352,1.0002662894235386,103.24285892335477
6.797714432,1.0003762344325315,103.08253296824365
6.8,1.0004625308434871,102.9207510697477
6.802285568,1.000519946744255,102.75796178186494
6.804571648,1.0005446741846333,102.59460627133213
6.806857216,1.0005351929016053,102.431106094875
6.809142784,1.000492039591767,102.26801225286552
6.811428352,1.0004180466948662,102.10578642703747
6.813714432,1.0003177638090421,101.94480506215118
6.816,1.0001976008787017,101.78542739633785
6.818285568,1.0000650146037233,101.62792121548183
6.820571648,0.9999285104959982,101.47237148172495
6.822857216,0.9997965950978763,101.31876834175762
6.825142784,0.9996777153529606,101.16698260788239
6.827428352,0.9995793557430621,101.01681329242149
6.829714432,0.999507672326443,100.86787264404039
6.832,0.9994672940833452,100.71975110695834
6.834285568,0.9994607844146304,100.57199855921934
6.836571648,0.9994885574369256,100.42407520924783
6.838857216,0.9995488564957021,100.27554764188467
6.841142784,0.9996378721224255,100.12593835472923
6.843428352,0.9997500926730967,99.97487438033875
6.845714432,0.9998782563221512,99.82207754387731
6.848,1.0000143592143333,99.6673633489422
6.850285568,1.0001497330243776,99.51069465258823
6.852571648,1.0002758983402762,99.35213269941023
6.854857216,1.0003848945579625,99.19187698236662
6.857142784,1.0004697472607325,99.0302073076547
6.859428352,1.0005252712937611,98.86754363625091
6.861714432,1.0005476823200448,98.70431595499177
6.864,1.0005357063032974,98.5410224131313
6.866285568,1.0004901329565183,98.37813511340906
6.868571648,1.0004136663802747,98.21618347094078
6.870857216,1.0003113416076057,98.0554912963408
6.873142784,1.000189380949788,97.89645534055416
6.875428352,1.00005569655446,97.73928293604372
6.877714432,0.9999185137378307,97.58407896188054
6.88,0.9997866826450469,97.43083944847515
6.882285568,0.9996684258012459,97.27941727733753
6.884571648,0.9995712577492737,97.12957952622716
6.886857216,0.9995012637627382,96.98096938439639
6.889142784,0.9994630089745543,96.83313464002303
6.891428352,0.999458942741043,96.68563608059263
6.893714432,0.9994892780182723,96.53795737679602
6.896,0.9995520209702435,96.38960190796823
6.898285568,0.9996433192434779,96.24015004109773
6.900571648,0.9997574139910408,96.08920859470952
6.902857216,0.9998870210919948,95.93648993907877
6.905142784,1.0000240038304582,95.78186543610192
6.907428352,1.0001597305420011,95.6252803883421
6.909714432,1.0002855184421569,95.46677876698162
6.912,1.0003935219067313,95.30662278884884
6.914285568,1.0004768985224068,95.14505315115946
6.916571648,1.0005303942647041,94.98251474889094
6.918857216,1.0005505126477592,94.81944279342223
6.921142784,1.0005360979027054,94.65633743788986
6.923428352,1.0004878605622658,94.49369388933562
6.925714432,1.0004091245049322,94.3319803579995
6.928,1.000304656394853,94.17160675029852
6.930285568,1.0001810604053094,94.01289358266571
6.932571648,1.0000460737411587,93.856063818959
6.934857216,0.9999083875531677,93.70122128933026
6.937142784,0.9997765301593257,93.54834031959257
