freq,mag,phase
6.0,0.999867587413096,-44.086416328155316
6.008998912,0.9999255457839792,-44.45841968928211
6.017997824,0.9999874971939363,-44.83137202752673
6.026996736,1.0000503644228307,-45.205340552538395
6.035995648,1.0001108646283694,-45.580250129529944
6.04499456,1.0001660673398873,-45.95605703502448
6.053993472,1.0002128169443378,-46.33273941039655
6.062991872,1.0002486775487915,-46.710066633693394
6.071990784,1.0002717918792519,-47.08796526090275
6.080989696,1.00028104918575,-47.466230046982645
6.089988608,1.0002759754695905,-47.84472806044794
6.09898752,1.0002563625678984,-48.22319315464018
6.107986432,1.0002233629415238,-48.60148483129292
6.116985344,1.0001789933499114,-48.97943047773795
6.125984256,1.0001250626791225,-49.35685731071424
6.134983168,1.0000644352434198,-49.73373449196795
6.14398208,1.000000470171924,-50.109948911520895
6.152980992,0.9999363024423065,-50.48545836231587
6.161979904,0.999875297981822,-50.860333218659484
6.170978816,0.9998205186201267,-51.234618868474996
6.179977728,0.9997749392502344,-51.60830318807314
6.188976128,0.9997409605497343,-51.98169956011654
6.19797504,0.9997203763282753,-52.35486017274551
6.206973952,0.9997144264136623,-52.72798524013353
6.215972864,0.9997231671554772,-53.10132494661179
6.224971776,0.9997465043604875,-53.474977760806254
6.233970688,0.9997832822252662,-53.84915241666875
6.2429696,0.9998312483200664,-54.22409005961094
6.251968512,0.9998883115076347,-54.59987799788291
6.260967424,0.999951788004439,-54.97658132558583
6.269966336,1.0000175970832026,-55.3542916596609
6.278965248,1.0000829387387822,-55.733027176689696
6.28796416,1.0001444963377235,-56.11274510352829
6.296963072,1.0001985512791454,-56.4933853503137
6.305961984,1.000242705727177,-56.87486273952339
6.314960384,1.000274573415845,-57.25693975778182
6.323959296,1.0002922184354943,-57.6395933285666
6.332958208,1.0002948995442456,-58.02246044622935
6.34195712,1.0002824435711815,-58.40546217065791
6.350956032,1.0002550852767766,-58.788371876117736
6.359954944,1.000214705989807,-59.17096705837221
6.368953856,1.0001630599152405,-59.553172202446156
6.377952768,1.0001027861947758,-59.934742410263574
6.38695168,1.000036861276749,-60.315706844721944
6.395950592,0.9999691223496567,-60.695933253529866
6.404949504,0.9999027647876658,-61.075399697283565
6.413948416,0.9998410412209133,-61.4542291097427
6.422947328,0.9997876448745263,-61.83243296889065
6.43194624,0.9997451730935908,-62.21014402647578
6.44094464,0.9997158455727645,-62.5875395048276
6.449943552,0.999701091531071,-62.964838598648335
6.458942464,0.9997019116280672,-63.342174193473674
6.467941376,0.9997183639305379,-63.719763464662535
6.476940288,0.9997495462018168,-64.09777680188823
6.4859392,0.9997939637597103,-64.47649055111181
6.494938112,0.9998492905391049,-64.85599520930442
6.503937024,0.9999127578366541,-65.23644538524665
6.512935936,0.9999808504580545,-65.61792996750101
6.521934848,1.0000504845619842,-66.00044303121427
6.53093376,1.0001177722821524,-66.38401199779466
6.539932672,1.0001792381850334,-66.7686171906126
6.548931584,1.0002316196029122,-67.15409993985652
6.557930496,1.0002723047526878,-67.54037593850647
6.566928896,1.0002992382502531,-67.92720785075154
6.575927808,1.000310618434203,-68.31450253807641
6.58492672,1.0003060396084387,-68.70199510699557
6.593925632,1.00028555781291,-69.08948561727993
6.602924544,1.0002504013604312,-69.47677406658465
6.611923456,1.0002021499707252,-69.86367712381796
6.620922368,1.0001432257185339,-70.25005172747613
6.62992128,1.0000769199652997,-70.63575179039069
6.638920192,1.0000063234571253,-71.0207101159092
6.647919104,0.999935092418459,-71.40490214424936
6.656918016,0.9998672585656645,-71.78834977723609
6.665916928,0.9998060603250423,-72.17106632012909
6.67491584,0.9997547544850102,-72.55322846752905
6.683914752,0.9997160698688752,-72.93492379883074
6.692913152,0.9996920494260206,-73.31637468899247
6.701912064,0.9996840187855892,-73.6977544838104
6.710910976,0.9996925676926529,-74.0792992162835
6.719909888,0.9997169941239442,-74.46121450009461
6.7289088,0.9997563012099715,-74.84367258253805
6.737907712,0.999808533750321,-75.2269127621674
6.746906624,0.9998709401345565,-75.61100969479924
6.755905536,0.9999403807789397,-75.99615423481039
6.764904448,1.0000132104319932,-76.38239334831714
6.77390336,1.0000856468481498,-76.76974438697219
6.782902272,1.000154063385928,-77.15814784490924
6.791901184,1.0002147142696607,-77.54755779945532
6.800900096,1.000264635023806,-77.9378658112851
6.809899008,1.0003011000169464,-78.3289039328233
6.818897408,1.000322082419976,-78.7204934111009
6.82789632,1.0003263140855856,-79.11240487273123
6.836895232,1.0003140070709031,-79.50442375136728
6.845894144,1.0002851975359,-79.89633719305655
6.854893056,1.0002418851343975,-80.28790672968151
6.863891968,1.0001856157210227,-80.67900693569408
6.87289088,1.0001197594749658,-81.0694585713344
6.881889792,1.0000473114438704,-81.4592083029075
6.890888704,0.9999725103524841,-81.84807380535415
6.899887616,0.9998987714122536,-82.23614886652794
6.908886528,0.9998301185883461,-82.62345706413002
6.91788544,0.9997700658448332,-83.01003382938464
6.926884352,0.9997217834727059,-83.39608713454945
6.935883264,0.9996879116379424,-83.78174038574474
6.944881664,0.9996700097899952,-84.16718082555514
6.953880576,0.9996694980753288,-84.55265886791322
6.962879488,0.9996859728798431,-84.93840250347758
6.9718784,0.9997189193519725,-85.32458570897937
6.980877312,0.9997667536241085,-85.7114883375542
6.989876224,0.9998267838468783,-86.09918197689866
6.998875136,0.9998961720523265,-86.48791316965058
7.007874048,0.9999712543562109,-86.87773439236041
7.01687296,1.0000481558480172,-87.2687031966731
7.025871872,1.000122890438269,-87.66082845075412
7.034870784,1.0001916460111688,-88.05404073687103
7.043869696,1.000250646690402,-88.44825375558236
7.052868608,1.000297052076749,-88.84331527010576
7.06186752,1.0003283109669472,-89.23904043611984
7.07086592,1.0003427377123242,-89.63519452419077
7.079864832,1.0003393027427978,-90.03161796526868
7.088863744,1.0003185447408836,-90.42802466228207
7.097862656,1.0002812421465892,-90.82423829183706
7.106861568,1.0002291348046404,-91.22002948136257
7.11586048,1.0001651567772853,-91.61516622949691
7.124859392,1.0000923052520925,-92.00961036545738
7.133858304,1.0000146872167786,-92.40315607429106
7.142857216,0.9999358231108707,-92.7958638890755
7.151856128,0.9998603596009589,-93.18769235913676
7.16085504,0.9997916215161632,-93.57876957656525
7.169853952,0.9997336944882945,-93.96910608194828
7.178852864,0.9996893828826451,-94.35895237762718
7.187851264,0.9996609414652982,-94.7484226538088
7.196850176,0.9996502042558042,-95.13781966771478
7.205849088,0.9996576154363107,-95.52731401276284
7.214848,0.999682939517397,-95.91715048328295
7.223846912,0.9997247148316422,-96.30759173604366
7.232845824,0.9997810807188418,-96.69879187682001
7.241844736,0.9998490557508253,-97.09096513264507
7.250843648,0.9999250901345482,-97.48422015191824
7.25984256,1.0000054290332394,-97.87866349088368
7.268841472,1.0000858376915713,-98.27429281779621
7.277840384,1.0001620783487293,-98.67113444822793
7.286839296,1.0002303812067495,-99.06903868689449
7.295838208,1.000286882576523,-99.467917859791
7.30483712,1.0003289137874987,-99.86760139890904
7.31383552,1.000354089301006,-100.26788746704115
7.322834432,1.0003610506524625,-100.66851668122573
7.331833344,1.000349299227335,-101.0692740132666
7.340832256,1.0003195782922445,-101.46991569708156
7.349831168,1.0002732040044124,-101.87020495478754
7.35883008,1.0002125659474428,-102.2699770156491
7.367828992,1.0001406848398164,-102.66901274317406
7.376827904,1.000061425594783,-103.06718826843795
7.385826816,0.9999786760338039,-103.46446776299396
7.394825728,0.9998967662596359,-103.86078830586031
7.40382464,0.999819950342426,-104.25625049789137
7.412823552,0.9997522374409028,-104.65085701007813
7.421822464,0.9996971804791598,-105.0448223723877
7.430821376,0.9996577421765837,-105.43831404410459
7.439819776,0.9996358850338922,-105.83152647668544
7.448818688,0.9996329093269685,-106.22469736416913
7.4578176,0.9996490119134573,-106.61810274275018
7.466816512,0.9996834440444285,-107.01196755745872
7.475815424,0.9997344197326411,-107.40651348110082
7.484814336,0.9997994362693655,-107.80195152226953
7.493813248,0.9998751722004963,-108.19849971893524
7.50281216,0.9999576405437033,-108.59616398227563
7.511811072,1.000042704850545,-108.9950989336899
7.520809984,1.0001258419500942,-109.39526721963131
7.529808896,1.0002029842806035,-109.79664387718351
7.538807808,1.000269779612706,-110.19910928865588
7.54780672,1.0003230589048016,-110.60247892731832
7.556805632,1.0003596263489716,-111.00661256644655
7.565804032,1.0003778655332156,-111.4112430481738
7.574802944,1.0003766413288584,-111.81613057135976
7.583801856,1.000355942637213,-112.22103211033313
7.592800768,1.00031677864636,-112.6256939814917
7.60179968,1.000261198947489,-113.02986193961739
7.610798592,1.0001917999650876,-113.43337676044638
7.619797504,1.0001123839364912,-113.83601411721553
7.628796416,1.0000267147997053,-114.23775284790321
7.637795328,0.9999395521820235,-114.63847874511394
7.64679424,0.9998551451434897,-115.03820801915514
7.655793152,0.9997779578012745,-115.4370386500859
7.664792064,0.9997121483828014,-115.83502738036945
7.673790976,0.9996609906989286,-116.232411742817
7.682789888,0.9996272471310012,-116.62936740579485
7.691788288,0.9996127737441479,-117.02611182053919
7.7007872,0.9996183566160342,-117.42289248641485
7.709786112,0.9996438429183419,-117.82003789389873
7.718785024,0.9996878280491241,-118.21776898431456
7.727783936,0.9997482524077902,-118.61629979270867
7.736782848,0.9998219166063199,-119.01583849022182
7.74578176,0.9999051860447256,-119.41652962892039
7.754780672,0.9999938118170763,-119.8185030464651
7.763779584,1.000082969034806,-120.22175109307749
7.772778496,1.0001682518385924,-120.62630164594194
7.781777408,1.0002452385605214,-121.03200185482977
7.79077632,1.000309806476945,-121.43883343230361
7.799775232,1.0003586815304135,-121.84648936110973
7.808774144,1.0003891368433542,-122.25479640713554
7.817772544,1.0003995532782433,-122.66355424888678
7.826771456,1.0003894493492644,-123.07244981128736
7.835770368,1.0003592006597533,-123.48122234270815
7.84476928,1.0003102005085647,-123.88959892251395
7.853768192,1.0002449983248605,-124.29736502554188
7.862767104,1.0001669937561342,-124.70432162045682
7.871766016,1.0000800106501133,-125.1103426813274
7.880764928,0.9999886288433781,-125.51532066905675
7.88976384,0.9998975570232531,-125.91919579119303
7.898762752,0.9998114173886464,-126.3220806357505
7.907761664,0.9997347930984115,-126.72401581910962
7.916760576,0.9996716986030935,-127.12513697900273
7.925759488,0.999625418555652,-127.52564264427913
7.9347584,0.9995983756772946,-127.92581645662237
7.9437568,0.9995920298914719,-128.3258965880658
7.952755712,0.999606861852668,-128.72611671426532
7.961754624,0.999642236173322,-129.1268068163489
7.970753536,0.9996962374537044,-129.5281491322489
7.979752448,0.9997662855367723,-129.93046335329777
7.98875136,0.9998486253694326,-130.33388289718533
7.997750272,0.999939255218826,-130.73856299224968
8.006749184,1.0000333571534783,-131.14456526976716
8.015748096,1.0001261024266697,-131.55192064737867
8.024747008,1.0002127057618768,-131.9605934329847
8.03374592,1.00028867264422,-132.3704337890855
8.042744832,1.0003500646872001,-132.78129877262205
8.051743744,1.0003934946808368,-133.19298592433586
8.060742656,1.0004168737415595,-133.60526457406283
8.069741056,1.000418741365938,-134.01779032497825
8.078739968,1.0003989932964004,-134.43034545429026
8.08773888,1.0003585038888454,-134.84267889036542
8.096737792,1.000299394623578,-135.25443394256956
8.105736704,1.0002246136741877,-135.66547413080264
8.114735616,1.000137878692718,-136.07553861537824
8.123734528,1.0000437496659051,-136.48456880185188
8.13273344,0.9999470367455419,-136.89248080830052
8.141732352,0.9998527401446755,-137.29921824604682
8.150731264,0.9997657884804331,-137.70487110332016
8.159730176,0.9996905274875296,-138.10961736378349
8.168729088,0.9996311399176429,-138.5135511685272
8.177728,0.999590662564513,-138.91696295124768
8.186726912,0.9995712185794661,-139.32007240298728
8.195725312,0.9995739523659372,-139.72319052240027
8.204724224,0.9995988306028778,-140.1265580160513
8.213723136,0.9996446000507989,-140.53049826058128
8.222722048,0.9997089564022514,-140.93529767623104
8.23172096,0.9997886334292644,-141.3411343713633
8.240719872,0.9998796346584493,-141.74816337824907
8.249718784,0.9999771924441935,-142.15656469370413
8.258717696,1.0000763713751684,-142.56637727794472
8.267716608,1.0001720118241557,-142.97754813611618
8.27671552,1.0002590141535446,-143.39006667775928
8.285714432,1.0003331111973237,-143.80372101909316
8.294713344,1.0003902405888343,-144.21835780438863
8.303712256,1.000427375392877,-144.63374660681006
8.312710656,1.000442613707251,-145.04955422089253
8.321709568,1.0004350356733525,-145.46557125630133
8.33070848,1.0004049287661951,-145.88145995203882
8.339707392,1.0003538041769255,-146.29693991043254
8.348706304,1.0002841439729273,-146.71171725172573
8.357705216,1.0001996069097734,-147.12560818786255
8.366704128,1.0001043999219865,-147.5384340488401
8.37570304,1.000003409484643,-147.95007292518832
8.384701952,0.9999019113835748,-148.36051483171497
8.393700864,0.9998051343112575,-148.7697114273851
8.402699776,0.9997180461482591,-149.1778480195441
8.411698688,0.9996452428434851,-149.58501856708367
8.4206976,0.9995906410713099,-149.99142925082106
8.429696512,0.9995568977719405,-150.39736887702492
8.438694912,0.9995460459324415,-150.80311668987656
8.447693824,0.9995586516675746,-151.20896021422502
8.456692736,0.9995942626592245,-151.61519452999397
8.465691648,0.9996509537327766,-152.02210848724167
8.47469056,0.9997259346192414,-152.42999452762768
8.483689472,0.9998154735393306,-152.83906954872612
8.492688384,0.9999149570834359,-153.24946482080713
8.501687296,1.0000190931757613,-153.66129055574729
8.510686208,1.0001227329811455,-154.07455444751903
8.51968512,1.0002205001414661,-154.48925353017867
8.528684032,1.0003071365679301,-154.90527494330675
8.537682944,1.0003782917902415,-155.3224109933118
8.546681856,1.0004301590681157,-155.74046187320562
8.555680768,1.00046002560585,-156.1591717935599
8.564679168,1.0004662001716653,-156.57820528221865
8.57367808,1.0004483785208145,-156.99727185168663
8.582676992,1.0004071863900634,-157.4160650827019
8.591676416,1.000344850938012,-157.83430031583669
8.600675328,1.0002644837815853,-158.25165944614378
8.60967424,1.0001700891533931,-158.66798193625112
8.618673152,1.000066504541361,-159.0831148894685
8.62767104,0.9999591472370263,-159.49695125158388
8.636669952,0.9998534996157589,-159.90948442519866
8.645668864,0.9997549933093043,-160.32076636277947
8.654667776,0.9996687985033375,-160.73092807630428
8.663666688,0.9995994452989222,-161.14015740712466
8.6726656,0.9995504938896811,-161.54868801312213
8.681664512,0.9995247193182429,-161.95675222586695
8.690663424,0.999523414644898,-162.3647761825206
8.699662336,0.9995467681831239,-162.77300108784118
8.708661248,0.999593725161139,-163.1817618409555
8.71766016,0.999661897945949,-163.591325053433
8.726659072,0.999747865563472,-164.00202192248273
8.735657984,0.9998472014125516,-164.41398605134225
8.744656896,0.9999548400466959,-164.82736516620182
8.753655808,1.0000652090347373,-165.24228205505509
8.76265472,1.0001726813154437,-165.65871668029916
8.771653632,1.0002716758018426,-166.07657524955914
8.780652544,1.0003570683432366,-166.4957264267646
8.789651456,1.0004241869903459,-166.9159796869771
8.798650368,1.0004697676114682,-167.33704820810695
8.80764928,1.0004911675760382,-167.75865563004348
8.816648192,1.0004873446312266,-168.1804677572943
8.825647104,1.0004582722026087,-168.60215754099184
8.834646016,1.0004054094966386,-169.02339046233539
8.843644928,1.0003314197866102,-169.44388763978563
8.85264384,1.000239954901932,-169.86338753256288
8.861642752,1.000135724845871,-170.28170573765564
8.870641664,1.0000240963149443,-170.6986799715067
8.879639552,0.9999108383983573,-171.11426819936565
8.888638464,0.9998017250997155,-171.5284531090762
8.897637376,0.9997023813494584,-171.94133650912264
8.906636288,0.9996180544003923,-172.35309085139508
8.9156352,0.9995531199973164,-172.7639329511087
8.924634112,0.9995111274048487,-173.1741186848588
8.933633024,0.9994942586042285,-173.58401978307768
8.942631936,0.9995035056857122,-173.99390701517822
8.951630848,0.9995385345709245,-174.4041364403576
8.96062976,0.9995975276575852,-174.81502113432444
8.969628672,0.9996776163535831,-175.22692997762158
8.978627584,0.9997746866981719,-175.640013123504
8.987626496,0.999883823722163,-176.05451531522746
8.996625408,0.9999995575686301,-176.4706033327421
9.00562432,1.0001155361149927,-176.88821841705828
9.014623232,1.0002260837240684,-177.3074005034821
9.023622144,1.0003254639614965,-177.72805906849788
9.032621056,1.00040839412394,-178.1499645289512
9.041619968,1.000470548946298,-178.5728824544571
9.05061888,1.0005085596725793,-178.99655106399928
9.059617792,1.0005205985905388,-179.4206253273297
9.068616704,1.0005055433505143,-179.84476357561465
9.077615616,1.000464584107007,179.73140956252283
9.086614528,1.0003993195423224,179.30818443783343
9.09561344,1.0003130865255165,178.88587879422928
9.104612352,1.0002105047443524,178.46476082618122
9.113611264,1.000096428527292,178.04496737228882
9.122610176,0.9999770022559246,177.62665073010885
9.131608064,0.9998582906088956,177.2098299873779
9.140606976,0.9997464217139881,176.79445693282258
9.149605888,0.9996471381460982,176.3804315088924
9.1586048,0.9995658821443482,175.96756063342394
9.167603712,0.9995065899450086,175.55552160708174
9.176602624,0.9994726917446819,175.14408817922438
9.185601536,0.9994659390930517,174.73285412636673
9.194600448,0.9994867425676864,174.32148084220523
9.20359936,0.9995341834609517,173.90963378292727
9.212598272,0.9996060330819956,173.49696902989103
9.221597184,0.9996985644932234,173.08316569706452
9.230596096,0.9998069163297638,172.66802189553465
9.239595008,0.9999258389383674,172.25130859205106
9.24859392,1.0000489901632923,171.83298396626063
9.257592832,1.000170214365492,171.41300260253416
9.266591744,1.000283021346773,170.9914164604635
9.275590656,1.0003817332413487,170.56839329433717
9.284589568,1.0004611833218846,170.1441718556732
9.29358848,1.0005170117730575,169.71897291944904
9.302587392,1.0005463380949178,169.2931672528414
9.311586304,1.0005475559902932,168.86707942901097
9.320585216,1.000520551083735,168.4411420076211
9.329584128,1.0004664809552677,168.01562675349606
9.33858304,1.0003882256260375,167.59092292162256
9.347581952,1.000289370490737,167.16734767227413
9.356580864,1.000175289878885,166.74508985295523
9.365579776,1.0000515119994289,166.32434454598084
9.374578688,0.9999247401946135,165.90519256991328
9.383576576,0.9998012700559551,165.4876567970373
9.392575488,0.9996873681218993,165.07162859449159
9.4015744,0.999589383952742,164.65693976528686
9.410573312,0.9995121378481435,164.24338376495726
9.419572224,0.9994597635049987,163.83063701754895
9.428571136,0.9994352743460054,163.41839131057617
9.437570048,0.9994397631044882,163.00624280349024
9.44656896,0.9994733235509894,162.59381626884786
9.455567872,0.9995342642652902,162.1807326009967
9.464566784,0.9996194849268654,161.76669300533874
9.473565696,0.999724839923438,161.35134149782155
9.482564608,0.9998447399063749,160.93451242649192
9.49156352,0.9999732960961454,160.51601186373932
9.500562432,1.0001037342971715,160.09578230012315
9.509561344,1.0002292699985422,159.67382991148256
9.518560256,1.0003435726278564,159.2502919591111
9.527559168,1.0004405232068236,158.82527124403683
9.53655808,1.00051511454449,158.3991447580685
9.545556992,1.0005634535675425,157.9721302371997
9.554555904,1.0005828690213492,157.54463618379276
9.563554816,1.0005720476898718,157.11703574387343
9.572553728,1.0005318947831843,156.68972226122207
9.58155264,1.0004638829086792,156.26307312181814
9.590551552,1.000371754429277,155.83741055530714
