freq,mag,phase
6.0,0.9998315552728614,41.40632465283507
6.009334784,0.9998446235400137,41.19172361619419
6.018669568,0.999865358944274,40.9768731446775
6.028004864,0.999893275684298,40.761666361935994
6.037339648,0.9999267062084681,40.546077782988405
6.046674432,0.9999642046623787,40.32998940288577
6.056009216,1.0000034454233646,40.1134108033428
6.065344,1.000042648805233,39.896296558298154
6.074679296,1.0000796402931718,39.67866781906644
6.08401408,1.0001124590396007,39.46056441397542
6.093348864,1.0001393090002109,39.24206909434276
6.102683648,1.0001589035208505,39.023273447753134
6.112018432,1.000170144035822,38.80424491694757
6.121353728,1.0001724604269147,38.58513849987862
6.130688512,1.0001655810705543,38.36604530267485
6.140023296,1.0001500491736923,38.14710087891696
6.14935808,1.0001266106986797,37.928408911285096
6.158692864,1.0000963451967353,37.71004477367961
6.16802816,1.000061055676555,37.49211236538989
6.177362944,1.0000224673131193,37.274702204479624
6.186697728,0.9999827011133625,37.057751241779656
6.196032512,0.9999437619384227,36.841353361865565
6.205367808,0.9999076903400806,36.625431429435714
6.214702592,0.9998764818698417,36.40995106169856
6.224037376,0.999851709514367,36.19483424190644
6.23337216,0.9998347133094183,35.97997267207398
6.242706944,0.9998264751159032,35.76527519113868
6.25204224,0.9998272598510531,35.550686047419795
6.261377024,0.9998372222918148,35.33593290365418
6.270711808,0.9998557122117441,35.121046182016975
6.280046592,0.999881818320449,34.9058618070941
6.289381376,0.9999141488547377,34.690285572893565
6.298716672,0.9999510491629789,34.474191989115354
6.308051456,0.9999904982375359,34.257626761330414
6.31738624,1.000030579864548,34.040485055125046
6.326721024,1.0000689855710458,33.82289434752403
6.336055808,1.0001037591707027,33.60476034113722
6.345391104,1.0001331457793659,33.38622571269439
6.354725888,1.0001554563180992,33.167297094348704
6.364060672,1.0001696079517162,32.94814009816316
6.373395456,1.000174827498712,32.72889409265543
6.38273024,1.0001708190642014,32.50959793736691
6.392065536,1.0001577876413146,32.29036861660498
6.40140032,1.000136381317327,32.071398910078365
6.410735104,1.0001077886158216,31.852768626008686
6.420069888,1.000073390677908,31.63455909712909
6.429404672,1.0000351286421816,31.4167765123608
6.438739968,0.9999948559260186,31.19951960303439
6.448074752,0.9999548793039308,30.98278860346781
6.457409536,0.9999171260711003,30.76660270672782
6.46674432,0.999883671502587,30.550822964160986
6.476079104,0.9998563737362226,30.33546321923264
6.4854144,0.9998364913033858,30.120432398151486
6.494749184,0.9998252428532153,29.905538221192774
6.504083968,0.9998231474664546,29.69081058430898
6.513418752,0.9998303762549048,29.476016219849285
6.522754048,0.9998464905623637,29.261063003347545
6.532088832,0.9998706308596852,29.045798393076005
6.541423616,0.9999016266104936,28.830216670246827
6.5507584,0.999937824025717,28.61417453840462
6.560093184,0.9999772931405461,28.397608848940642
6.56942848,1.0000180217881018,28.18052367937894
6.578763264,1.0000576757176471,27.962886633574694
6.588098048,1.0000944039877955,27.74472225431593
6.597432832,1.0001261693971022,27.526122310502593
6.606767616,1.0001512961104464,27.307115344015575
6.616102912,1.000168347977576,27.087861098160953
6.625437696,1.0001766218305195,26.868409337108726
6.63477248,1.0001754559494975,26.648899260519276
6.644107264,1.000164990213841,26.429466519947894
6.653442048,1.000145928581228,26.210231830192527
6.662777344,1.0001190411601808,25.991281475876622
6.672112128,1.0000858070776488,25.77270303313001
6.681446912,1.0000479968964813,25.55459948503235
6.690781696,1.0000075262173709,25.337040495291465
6.70011648,0.9999665960088286,25.119981781536726
6.709451776,0.9999273617327017,24.903414539736477
6.71878656,0.9998918634003001,24.687374442990183
6.728121344,0.9998619556232997,24.471777843618657
6.737456128,0.9998392405378351,24.256516093898405
6.746790912,0.9998248952500582,24.041482325253924
6.756126208,0.9998198470125651,23.826568402831068
6.765460992,0.9998241628541578,23.611661313595697
6.774795776,0.999837732999532,23.396655107908927
6.78413056,0.9998597994654678,23.181361894275742
6.793465344,0.9998892389819616,22.96576459933951
6.80280064,0.9999245610984447,22.749705979667898
6.812135424,0.9999637914435385,22.53315094743874
6.821470208,1.0000049103521502,22.31606398136969
6.830804992,1.0000458536178407,22.0984182578383
6.840139776,1.0000843116663067,21.880259010979298
6.849475072,1.0001183951835013,21.661617726861607
6.858809856,1.000146172648282,21.442528604474827
6.86814464,1.0001662392640847,21.223122047863708
6.877479424,1.0001775077729187,21.00353219623045
6.88681472,1.0001794342777688,20.78380652940865
6.896149504,1.000171775549035,20.564156670878454
6.905484288,1.0001550780526156,20.344581185652142
6.914819072,1.0001300983374994,20.125360185055822
6.924153856,1.0000982072832347,19.90644238652995
6.933489152,1.000061041681489,19.68802100263119
6.942823936,1.000020571082538,19.47007648173049
6.95215872,0.9999788823751624,19.252702737905345
6.961493504,0.9999382407666381,19.03581992620558
6.970828288,0.9999007328290291,18.819496632819785
6.980163584,0.9998683886434889,18.603604021690508
6.989498368,0.9998428749335566,18.38813058700492
6.998833152,0.9998254817592078,18.172868513600484
7.008167936,0.9998173082324905,17.957811368613278
7.01750272,0.9998186564460974,17.74276570032704
7.026838016,0.9998294819592288,17.527647622911097
7.0361728,0.9998493475848702,17.31231982002098
7.045507584,0.9998770595295264,17.096694332094213
7.054842368,0.9999112436258959,16.88065538917318
7.064177152,0.9999500545616362,16.664073267327428
7.073512448,0.9999914817298164,16.447006976733956
7.082847232,1.000033445943106,16.229368800094583
7.092182016,1.000073558352837,16.011188353457772
7.1015168,1.0001097439814226,15.792445315297659
7.110851584,1.0001402763972758,15.573340651535716
7.12018688,1.0001632159978573,15.35382128056061
7.129521664,1.0001776233958648,15.13401517229902
7.138856448,1.0001825469125425,14.914107362535926
7.148191232,1.0001779305448886,14.694206018603305
7.157526016,1.000163831595275,14.474410073581845
7.166861312,1.0001409171498057,14.25483742660106
7.176196096,1.00011056259035,14.035607417597245
7.18553088,1.0000743073468075,13.8168150054207
7.194865664,1.0000339703370207,13.598541777469418
7.204200448,0.9999917895185733,13.38081493405516
7.213535744,0.9999498021989934,13.163601382240603
7.222870528,0.9999104522344797,12.946923302099066
7.232205312,0.9998756570728335,12.730750495031884
7.241540096,0.9998473362097217,12.514974058460757
7.250875392,0.9998269964853538,12.299515007231216
7.260210176,0.9998155748405914,12.084267990127163
7.26954496,0.9998138921087497,11.86912235963159
7.278879744,0.9998218603726112,11.653910397882019
7.288214528,0.9998392749242015,11.438521959902197
7.297549824,0.9998650575286069,11.222849170836234
7.306884608,0.9998979667670191,11.00674449650225
7.316219392,0.9999360733334142,10.790223744826923
7.325554176,0.9999776904969401,10.573116002140898
7.33488896,1.0000203677022093,10.35547000961778
7.344224256,1.0000620608289719,10.137272525144917
7.35355904,1.0001003746687336,9.918511165250264
7.362893824,1.0001333903825114,9.699309660956956
7.372228608,1.000159390367475,9.479663109116032
7.381563392,1.000176929791153,9.259724237612362
7.390898688,1.0001850660452127,9.03964466204808
7.400233472,1.0001834248023067,8.819488501799233
7.409568256,1.0001720297176724,8.599385850852133
7.41890304,1.0001515182826062,8.379532090286844
7.428237824,1.0001228401747704,8.160004621727497
7.43757312,1.0000877059670241,7.940832372308829
7.446907904,1.0000477025214665,7.722175079846264
7.456242688,1.000005174496516,7.504071637184364
7.465577472,0.9999621385634708,7.286501672203605
7.474912256,0.9999210054090973,7.069515266173411
7.484247552,0.9998839115938426,6.8530116359356565
7.493582336,0.9998527627055037,6.636971824944415
7.50291712,0.9998293747669197,6.421269168802829
7.512251904,0.9998147347688467,6.205829487079075
7.521586688,0.9998098751152438,5.990495164292686
7.530921984,0.9998149774181049,5.775180751693889
7.540256768,0.9998296650373025,5.559705545241338
7.549591552,0.9998532651283952,5.343971002061501
7.558926336,0.9998846758145669,5.127892783187955
7.568261632,0.9999220238320322,4.911334667163839
7.577596416,0.9999634811908957,4.694248303584509
7.5869312,1.0000068411897773,4.476603051747693
7.596265984,1.0000498330450278,4.258356355851432
7.605600768,1.0000901683419878,4.0395852841886235
7.614936064,1.0001256594803758,3.8202638360932917
7.624270848,1.0001546262161458,3.6005478390193355
7.633605632,1.00017532680848,3.380456942108395
7.642940416,1.0001867619909555,3.1601662809705346
7.6522752,1.0001881858130208,2.9397865546867665
7.661610496,1.000179782149525,2.7194347758565907
7.67094528,1.000161651730232,2.499239985787444
7.680280064,1.0001350012459314,2.2793432493068915
7.689614848,1.0001011028019389,2.059862810374709
7.698949632,1.0000617399290512,1.8408246211261343
7.708284928,1.000018958414761,1.6223197648594325
7.717619712,0.9999751244808801,1.404411867925461
7.726954496,0.9999323012471979,1.1870353961792839
7.73628928,0.9998930756353861,0.9702268238492472
7.745624064,0.9998592199714006,0.7538936866383554
7.75495936,0.9998326453853625,0.53791406201642
7.764294144,0.9998149486256124,0.32227791238521797
7.773628928,0.9998067089521983,0.10675130619590097
7.782963712,0.9998086207275898,-0.10870283207133619
7.792298496,0.999820627478891,-0.3242598921814531
7.801633792,0.9998418785084788,-0.5400560759511969
7.810968576,0.999871488415505,-0.7561778454930055
7.82030336,0.9999078238651762,-0.9727244797902769
7.829638144,0.9999489975823965,-1.1898442376571587
7.838972928,0.9999927839541635,-1.407500132914867
7.848308224,1.000036995216669,-1.6257522104526019
7.857643008,1.0000791792998156,-1.8445874882397022
7.866977792,1.000117148621699,-2.063946693448201
7.876312576,1.0001489536170434,-2.283794498871474
7.88564736,1.0001727431471463,-2.504004595874405
7.894982656,1.0001875443542834,-2.7244736098498215
7.90431744,1.0001922937830454,-2.945096485896948
7.913652224,1.0001869190118553,-3.1657129095141947
7.922987008,1.0001714917267377,-3.386229350827249
7.932322304,1.0001469713853646,-3.606460167274673
7.941657088,1.0001145373688811,-3.826348489979493
7.950991872,1.0000759859628392,-4.04571997339809
7.960326656,1.0000332551259363,-4.264589801889178
7.96966144,0.999988638782079,-4.482923147534178
7.978996736,0.9999443955648188,-4.700665251314096
7.98833152,0.9999030095805417,-4.917839562575785
7.997666304,0.9998665302928512,-5.134491462989449
8.007001088,0.9998370299420583,-5.350744232101958
8.016335872,0.9998159105626568,-5.566622881951171
8.025671168,0.9998043838315054,-5.782310702037426
8.035005952,0.9998030348233793,-5.9979484789418445
8.044340736,0.9998119593338118,-6.213620068576761
8.05367552,0.9998308137085029,-6.42947924549878
8.063010304,0.9998585648640996,-6.645645392536697
8.0723456,0.9998936032130344,-6.862234797822859
8.081680384,0.9999342262595835,-7.079335474019946
8.091015168,0.999978300446497,-7.296994632547733
8.100349952,1.000023548551015,-7.515271591031683
8.109684736,1.00006738386192,-7.734115633113422
8.119020032,1.0001077106199134,-7.953586394196419
8.128354816,1.0001422858522726,-8.173512165624915
8.1376896,1.0001694088645945,-8.393834824463564
8.147024384,1.0001874619654225,-8.614512492604149
8.156359168,1.0001956518158814,-8.835346156613582
8.165694464,1.000193437833508,-9.056247989748057
8.175029248,1.0001808224653448,-9.277054427964153
8.184364032,1.0001587409333486,-9.497647059694044
8.193698816,1.0001280140958988,-9.717899626649032
8.2030336,1.0000904542866538,-9.937684332346562
8.212368896,1.000047945672289,-10.156983377554297
8.22170368,1.0000028447219917,-10.37568023450991
8.231038464,0.9999573415088531,-10.593819250686764
8.240373248,0.9999139295362302,-10.811330089918053
8.249708032,0.9998749117065135,-11.028339590405224
8.259043328,0.9998423609166045,-11.24486151717096
8.268378112,0.9998179012017252,-11.46103767186314
8.277712896,0.9998029832852654,-11.676949897777474
8.28704768,0.9997981867051081,-11.8927340603079
8.296382976,0.9998042074998403,-12.10853063872054
8.30571776,0.9998201475937906,-12.324467583650938
8.315052544,0.9998456476720423,-12.540693419296945
8.324387328,0.9998792442432358,-12.757314895045559
8.333722112,0.9999191074387178,-12.974432969732153
8.343057408,0.9999632206076331,-13.19209781752697
8.352392192,1.000009312685552,-13.410385239137954
8.361726976,1.0000546646189021,-13.629305760639989
8.37106176,1.0000972483776278,-13.848789649169117
8.380396544,1.0001346603383148,-14.068841919976524
8.38973184,1.0001649162783366,-14.289314797362675
8.399066624,1.0001865122082774,-14.510136633928518
8.408401408,1.0001980486753665,-14.731210586743945
8.417736192,1.0001992352809528,-14.952367181147672
8.427070976,1.0001897192730789,-15.17348612349256
8.436406272,1.0001701170947526,-15.394424539340152
8.445741056,1.0001413246550923,-15.61504097302101
8.45507584,1.0001052451058345,-15.835241796870047
8.464410624,1.0000631505853241,-16.05495939103416
8.473745408,1.0000176471859585,-16.274061415099496
8.483080704,0.9999709658680076,-16.4925881053828
8.492415488,0.9999257217205205,-16.710494597481453
8.501750272,0.9998842960038044,-16.927867873097345
8.511085056,0.9998486978275772,-17.144719374420653
8.52041984,0.9998208776520775,-17.361161876557823
8.529755136,0.9998024689997016,-17.577300209073492
8.53908992,0.9997943326419095,-17.793284792412717
8.548424704,0.9997968323365487,-18.009192687549376
8.557759488,0.9998100407188811,-18.225264750116224
8.567094272,0.9998332083022013,-18.441567846632662
8.576429568,0.999864844929211,-18.65823284069054
8.585764352,0.9999038312781933,-18.875363640138694
8.595099648,0.9999477006107457,-19.093067102756688
8.604434432,0.9999944086021523,-19.311371964310702
8.613769216,1.00004137015837,-19.53030181781947
8.623104,1.000085983921646,-19.749848569629005
8.632438784,1.00012616115991,-19.96995761407633
8.641773568,1.0001595039633944,-20.19058974305683
8.651108352,1.0001845090573742,-20.411582985703344
8.660443136,1.0001997255062047,-20.6328786847443
8.66977792,1.0002043541406793,-20.854289843476028
8.679112704,1.0001979990307817,-21.075726298321314
8.688448512,1.000181173908833,-21.296991246650567
8.697783296,1.0001546051640051,-21.51800067823377
8.70711808,1.000119815578551,-21.73861257181702
8.716452864,1.0000785223247404,-21.958707565924318
8.725787648,1.0000329213082504,-22.178281842591673
8.735122432,0.999985353779533,-22.39722454342915
8.744457216,0.9999384174814833,-22.615550892505915
8.753792,0.9998946302689714,-22.833288784181907
8.763126784,0.9998560985847946,-23.050468524704836
8.772461568,0.9998249741517505,-23.26720130400611
8.781797376,0.9998029677521516,-23.48362863057248
8.79113216,0.9997911944486605,-23.69979081325857
8.800466944,0.9997902941614855,-23.915883408232588
8.809801728,0.999800321457311,-24.132061622720105
8.819136512,0.9998208267215924,-24.34841976800077
8.828471296,0.9998506455507543,-24.565173325081304
8.83780608,0.999888362736511,-24.78232119687568
8.847140864,0.999931903824716,-25.000016820177436
8.856475648,0.999978930921496,-25.21834626373879
8.865811456,1.000027074248407,-25.437287607091555
8.87514624,1.0000737355893965,-25.656904860397635
8.884481024,1.0001165027140848,-25.877096481957608
8.893815808,1.000153060823254,-26.09782428795328
8.903150592,1.000181501709542,-26.31900039824044
8.912485376,1.0002003195804587,-26.54052649756871
8.92182016,1.0002086135664219,-26.762180340608403
8.931154944,1.0002057136395492,-26.9839389270239
8.940489728,1.0001918321081373,-27.205557874076945
8.949824512,1.000167781295554,-27.42694780940433
8.95916032,1.0001346939021778,-27.64797547081707
8.968495104,1.0000942991951645,-27.868524047440207
8.977829888,1.000048816739235,-28.088509476354595
8.987164672,1.0000006468955083,-28.307903375188022
8.996499456,0.9999521592145384,-28.526637026724604
9.00583424,0.9999060767446056,-28.74477785723437
9.015169024,0.9998646819802384,-28.962329292488043
9.024503808,0.99983031464102,-29.179396567935278
9.033838592,0.9998045827290127,-29.39606819588281
9.043173376,0.9997891164721434,-29.612472588177816
9.052509184,0.9997846570289151,-29.82876117203593
9.061843968,0.9997913781378424,-30.045065412074557
9.071178752,0.9998090427579266,-30.2615473430346
9.080513536,0.9998366653022644,-30.47829879419201
9.08984832,0.9998728422734482,-30.695516877341237
9.099183104,0.9999157347798954,-30.913253433562954
9.108517888,0.9999629178982956,-31.131610628327124
9.117852672,1.0000121555348882,-31.35058316422083
9.127187456,1.0000606479033283,-31.570219628996387
9.136523264,1.0001059918182313,-31.790509299577945
9.145858048,1.0001456422811854,-32.01136003209019
9.155192832,1.000177591729352,-32.232681895683506
9.164527616,1.0002001050688938,-32.45438813667016
9.1738624,1.0002121188923698,-32.67633559843183
9.183197184,1.0002128657415887,-32.898361562248
9.192531968,1.000202221207629,-33.120339459369525
9.201866752,1.0001807199133246,-33.34214118458
9.211201536,1.0001496566998647,-33.56357099946769
9.22053632,1.0001104908942484,-33.78455506559941
9.229872128,1.0000654033399536,-34.00500185541851
9.239206912,1.0000165200186906,-34.22483964609596
9.248541696,0.9999667169506823,-34.444034922803716
9.25787648,0.9999184233675771,-34.66258137669175
9.267211264,0.999874280302401,-34.88051195566111
9.276546048,0.9998366030150271,-35.09792501710389
9.285880832,0.9998072630040907,-35.314902481491714
9.295215616,0.9997879528880035,-35.531579026704705
9.3045504,0.9997797958840946,-35.748045490328856
9.313885184,0.9997829996814269,-35.96451522706079
9.323220992,0.9997975912524167,-36.181084396981895
9.332555776,0.9998227881365841,-36.39793959007708
9.34189056,0.9998572440163865,-36.615192061965324
9.351225344,0.9998991660204083,-36.83295762148188
9.360560128,0.9999463978205048,-37.05132364536345
9.369894912,0.9999963832715404,-37.270324925904845
9.379229696,1.0000466520026863,-37.490021018877485
9.38856448,1.0000943316063227,-37.71037568482569
9.397899264,1.000137151453938,-37.93132800479101
9.407234048,1.0001724730229085,-38.15280457612017
9.416569856,1.0001989247429741,-38.374706526061516
9.42590464,1.0002147080462536,-38.59690213110851
9.435239424,1.0002191135969893,-38.819248893482424
9.444574208,1.0002117976797538,-39.04156857771678
9.453908992,1.0001933185575016,-39.26374455581542
9.463243776,1.0001643746307711,-39.485607281687265
9.47257856,1.0001268210529568,-39.70705355665361
9.481913344,1.0000822470602224,-39.92796757588335
9.491248128,1.0000332063318311,-40.1482732509167
9.500583936,0.9999821384608096,-40.36792807398411
9.50991872,0.9999319173916215,-40.586901404479576
9.519253504,0.9998850537805032,-40.80527234371219
9.528588288,0.9998441006400707,-41.02303068779208
9.537923072,0.9998110283852815,-41.24033848415256
9.547257856,0.9997878708705946,-41.4572593238175
9.55659264,0.9997757649599747,-41.67396568863772
9.565927424,0.9997753319891953,-41.890598285476074
9.575262208,0.9997866733243967,-42.10730774503308
9.584596992,0.999809084943251,-42.32424716068908
9.5939328,0.9998415011433691,-42.54154504721069
9.603267584,0.9998822883348623,-42.75934881000506
9.612602368,0.999929351491344,-42.977731330018706
9.621937152,0.9999799799913458,-43.19677342486214
9.631271936,1.0000315475229533,-43.41651733400948
9.64060672,1.0000816443587452,-43.636920973673476
9.649941504,1.0001273787746043,-43.857965656212365
9.659276288,1.0001663706948625,-44.079597166228794
9.668611072,1.0001964914430033,-44.30170089525947
9.677945856,1.00021625654706,-44.52415488489661
9.687281664,1.0002246155434775,-44.74678316602946
9.696616448,1.000220974514003,-44.96945423649083
9.705951232,1.0002055449909442,-45.192027328314836
9.715286016,1.0001792545830406,-45.41433702383569
9.7246208,1.0001433247676916,-45.63623131744127
9.733955584,1.0000996280023473,-45.85762890829476
9.743290368,1.000050546613209,-46.07840030246024
9.752625152,0.999998596814503,-46.29852229040159
