freq,mag,phase
6.0,0.9999598223063108,-67.0221652018702
6.005575168,0.9999258211285152,-67.28819069354843
6.011149824,0.99989760023867,-67.5537959491322
6.016724992,0.9998751981516392,-67.81918826448873
6.022299648,0.9998602561238916,-68.08434701884161
6.027874816,0.9998530916748726,-68.3494862927678
6.033449472,0.9998545584709415,-68.61465786594175
6.03902464,0.9998644079893164,-68.88001231956012
6.044599296,0.9998819954683096,-69.1456140025676
6.050174464,0.9999062504223029,-69.41160589007495
6.05574912,0.9999359609813672,-69.67803340345559
6.061324288,0.9999695165242063,-69.9450182421611
6.066898944,1.0000048290390893,-70.2125443364877
6.072474112,1.000039777904342,-70.48065351422413
6.078048768,1.000072669930252,-70.7492806597524
6.083623936,1.0001011445804557,-71.01844914830971
6.089198592,1.0001239617774411,-71.28806056199544
6.09477376,1.0001396787174313,-71.5580038825486
6.100348416,1.0001473087383064,-71.82821495742942
6.105923584,1.0001466284223177,-72.0985358589833
6.11149824,1.0001373326238254,-72.36884785158973
6.117073408,1.0001202931980488,-72.63909549999502
6.122648064,1.0000963925055597,-72.90915865324808
6.128223232,1.0000667398432084,-73.17892439659903
6.133797888,1.000033467691976,-73.44833762398493
6.139373056,0.9999983471916108,-73.71732270216557
6.144947712,0.9999630875314428,-73.9859702080272
6.15052288,0.9999299303347566,-74.25416583011001
6.156097536,0.9999011740416818,-74.52205478275658
6.161672704,0.9998778035192358,-74.78966300730023
6.16724736,0.9998615722725843,-75.0570641021842
6.172822528,0.9998530533220653,-75.32439112690744
6.178397184,0.9998534513785955,-75.59175518429451
6.183972352,0.9998619712111553,-75.85921201464946
6.189547008,0.9998786028833393,-76.12696801859535
6.195122176,0.9999020710177858,-76.39506614033573
6.200696832,0.9999313375167581,-76.66364499307089
6.206272,0.9999644734464389,-76.93268284817229
6.211846656,0.9999996837190716,-77.2023405418392
6.217421824,1.0000351455906646,-77.47251834432063
6.22299648,1.0000683412062485,-77.7432772122434
6.228571648,1.000097729615977,-78.01450489680252
6.234146304,1.000121461416757,-78.28624986989763
6.239721472,1.0001385731775392,-78.55835068449424
6.245296128,1.000147454962838,-78.83067776669259
6.250871296,1.000147794079949,-79.10317379930108
6.256445952,1.0001399045451285,-79.37567676382037
6.26202112,1.0001238247835604,-79.64813136708143
6.267595776,1.0001007129756334,-79.92034907917682
6.273170944,1.0000717946201039,-80.19235711622771
6.2787456,1.0000387850756889,-80.46397559900174
6.284320768,1.0000035169331265,-80.73517232011702
6.289895424,0.9999681319845425,-81.00601534015394
6.295470592,0.9999346047425199,-81.27643824790714
6.301045248,0.9999047707196463,-81.5464871249735
6.306620416,0.9998805364927563,-81.8162556575962
6.312195072,0.9998629066950308,-82.08584783598195
6.31777024,0.9998533350734449,-82.35529218902767
6.323344896,0.9998523115892952,-82.62475395359613
6.328920064,0.9998596322159238,-82.89435546301014
6.33449472,0.9998750570918372,-83.1641985221044
6.340069888,0.9998977227518482,-83.43435420977485
6.345644544,0.9999263763614379,-83.70492242925377
6.351219712,0.9999590816168669,-83.97606837031678
6.356794368,0.9999942764339358,-84.24770975314975
6.362369536,1.0000298311704434,-84.5199101971662
6.367944192,1.0000637658362688,-84.79269264290578
6.37351936,1.0000937641116887,-85.06603258160398
6.379094016,1.000118815182506,-85.33978322282135
6.384669184,1.0001368274279068,-85.61389934361542
6.39024384,1.0001469480551968,-85.88833812391792
6.395819008,1.0001487660169368,-86.16292218936454
6.401393664,1.0001420357560447,-86.4375411338881
6.406968832,1.000127180999007,-86.71209337669953
6.412543488,1.000105008769662,-86.98647557335543
6.418118656,1.000076716242904,-87.26057310505212
6.423693312,1.000044178030185,-87.5343476089016
6.42926848,1.0000089228708144,-87.80771944264959
6.434843136,0.9999732448854738,-88.08067901985522
6.440418304,0.9999392422648227,-88.35324013971857
6.44599296,0.9999085437424673,-88.6254060293468
6.451568128,0.999883225657453,-88.89726794038853
6.457142784,0.9998646128309189,-89.16894150392868
6.462717952,0.9998536664880477,-89.44045184649218
6.468292608,0.9998512853067762,-89.71195563461526
6.473867776,0.9998572880481588,-89.98355735452955
6.479442432,0.9998716513951137,-90.25540634237636
6.4850176,0.9998933719623848,-90.52754694102838
6.490592256,0.9999212965218378,-90.80008015788769
6.496167424,0.9999534936686163,-91.07317624891438
6.50174208,0.9999886584784976,-91.34679636041253
6.507317248,1.000024380499672,-91.62098402317606
6.512891904,1.0000587472551945,-91.89569267646445
6.518467072,1.0000897568624794,-92.17094677604926
6.524041728,1.0001157565428778,-92.44667065068151
6.529616896,1.00013497365581,-92.72282136122227
6.535191552,1.0001464989210676,-92.99920941625884
6.54076672,1.0001495740754074,-93.27580303995965
6.546341376,1.0001442269547576,-93.55242630997074
6.551916544,1.0001304950171848,-93.82901490692852
6.5574912,1.0001092702034664,-94.10544202222583
6.563066368,1.0000817890254905,-94.38160254058253
6.568641024,1.0000496607120863,-94.65742571923545
6.574216192,1.0000146660533964,-94.93285044012906
6.579790848,0.9999788281621718,-95.20786662469784
6.585366016,0.9999442231023422,-95.48246030722032
6.590940672,0.9999127477294742,-95.75668655986927
6.59651584,0.9998864052345091,-96.030613675441
6.602090496,0.9998664405621285,-96.30424478929937
6.607665664,0.999854238907617,-96.57774017222327
6.61324032,0.9998505153450014,-96.85122826883361
6.618815488,0.999855227043378,-97.1247447881725
6.624390144,0.9998683089160362,-97.39849579887657
6.629965312,0.999888944545035,-97.67254297500615
6.635539968,0.9999159791838524,-97.94697418921245
6.641115136,0.9999479828321062,-98.22192468840893
6.646689792,0.9999827817716537,-98.49736714043082
6.65226496,1.000018690813302,-98.77339408364435
6.657839616,1.000053511286144,-99.04999082261742
6.663414784,1.000085498932959,-99.32711576974364
6.66898944,1.0001124157256502,-99.60468985733037
6.674564608,1.000132897857206,-99.8826943257854
6.680139264,1.0001456728581155,-100.16098871865987
6.685714432,1.000150327965391,-100.43949046473755
6.691289088,1.0001462521458633,-100.71804809834985
6.696864256,1.00013382498127,-100.99656795700727
6.702438912,1.0001136961907469,-101.27497338584969
6.70801408,1.0000869863592585,-101.55305393768734
6.713588736,1.0000553737675566,-101.83087030570441
6.719163904,1.0000205891250589,-102.10824597145586
6.72473856,0.9999847129586705,-102.38522104456786
6.730313728,0.9999495705685502,-102.66176495620236
6.735888384,0.9999173920020555,-102.93796399158956
6.741463552,0.999889983153129,-103.21376154094256
6.747038208,0.9998687281399271,-103.48932489992741
6.752613376,0.9998552716602129,-103.7647096746468
6.758188032,0.9998498823882245,-104.04003011384937
6.7637632,0.9998533163559168,-104.31540416395126
6.769337856,0.9998650556585493,-104.59095793465535
6.774913024,0.9998846835936087,-104.8667907075055
6.78048768,0.9999109722523221,-105.14299321823084
6.786062848,0.9999422494350481,-105.41971291407424
6.791637504,0.9999769387632932,-105.69693164210247
6.797212672,1.000012918215211,-105.97467388881975
6.802787328,1.000048341271168,-106.25301901363297
6.808362496,1.0000809064180056,-106.53187145983418
6.813937152,1.0001088450487539,-106.81123378931476
6.81951232,1.0001306214504901,-107.09100292767407
6.825086976,1.0001447918902753,-107.37108963756175
6.830662144,1.000150836156794,-107.65135313646773
6.8362368,1.0001481544395343,-107.93172562593429
6.841811968,1.0001369262508297,-108.21209430300665
6.847386624,1.000118175504322,-108.49228242183443
6.852961792,1.0000923354182512,-108.77228827530234
6.858536448,1.0000613082518361,-109.051914339609
6.864111616,1.0000268215770904,-109.33116027589256
6.869686272,0.9999906500133094,-109.61000101114608
6.87526144,0.9999551602964741,-109.88838424817376
6.880836096,0.9999222700584807,-110.16638594005428
6.886411264,0.9998937330803265,-110.44400188036563
6.89198592,0.9998713827486763,-110.7213829608687
6.897561088,0.9998563564980049,-110.99851881948432
6.903135744,0.9998497006353125,-111.27560136985828
6.908710912,0.9998516077566152,-111.55267871085867
6.914285568,0.9998620892709189,-111.82993572306694
6.919860736,0.9998805122464911,-112.10744837623942
6.925435392,0.9999058017667918,-112.38533579947732
6.93101056,0.9999364670582318,-112.66366448417507
6.936585216,0.9999709592402721,-112.94249160129104
6.942160384,1.0000069434594867,-113.22190704929014
6.94773504,1.000042733656074,-113.50187069042138
6.953310208,1.0000760014910437,-113.78233038410433
6.958884864,1.0001050319678848,-114.06330094788699
6.964460032,1.0001280032915747,-114.34472713402558
6.970034688,1.0001437149506862,-114.62646388272412
6.975609856,1.0001512427102646,-114.90843228997859
6.981184512,1.0001500145561373,-115.19050467506617
6.98675968,1.0001402943870739,-115.47254890399681
6.992334336,1.000122493061894,-115.7544556293171
6.997909504,1.000097693359759,-116.03616733021428
7.00348416,1.0000673213331746,-116.31755965681143
7.009059328,1.000033158720754,-116.59851422978294
7.014633984,0.9999970656173508,-116.8790526019601
7.020209152,0.9999611219542819,-117.15919557138211
7.025783808,0.99992736260232,-117.43891881851154
7.031358976,0.9998979437788734,-117.7182245680803
7.036933632,0.9998743147712117,-117.99723277733516
7.0425088,0.9998579031080843,-118.27606948981676
7.048083456,0.9998496772445312,-118.55473479292363
7.053658624,0.9998501008531852,-118.83342296964526
7.05923328,0.9998591037540203,-119.11225895021208
7.064808448,0.9998762603793713,-119.39129239131567
7.070383104,0.9999006125526475,-119.67071128251386
7.075958272,0.9999306367562771,-119.9505599218888
7.081532928,0.9999645892815149,-120.23088827302307
7.087108096,1.0000007201998073,-120.51177288407521
7.092682752,1.0000368189506024,-120.79322546686706
7.09825792,1.0000708757531818,-121.07517975054543
7.103832576,1.0001008697988087,-121.35767138445745
7.109407744,1.000125137995082,-121.64058177702195
7.1149824,1.00014227742102,-121.92384792242446
7.120557568,1.000151237466277,-122.20734652048972
7.126132224,1.0001516547877445,-122.49094504895592
7.131707392,1.000143305216743,-122.77455329298111
7.137282048,1.0001268085852766,-123.05807712972657
7.142857216,1.0001029913830675,-123.34133089419134
7.148431872,1.0000735029074752,-123.62432785348264
7.15400704,1.0000396198268293,-123.906900430401
7.159581696,1.0000035283477755,-124.18905239825784
7.165156864,0.9999672615307046,-124.47076616736231
7.17073152,0.9999328345551105,-124.75203885628602
7.176306688,0.9999023597401057,-125.03294471472249
7.181881344,0.9998774739194303,-125.31347961857276
7.187456512,0.9998596630250214,-125.59380751091633
7.193031168,0.9998498426608505,-125.87399435261784
7.198606336,0.9998487773423008,-126.15413772257351
7.204180992,0.99985632692691,-126.43439949396056
7.20975616,0.9998720897636078,-126.71484872257997
7.215330816,0.9998952861531385,-126.99563215589093
7.220905984,0.999924537516457,-127.27684849273021
7.22648064,0.9999581257364848,-127.55851970103993
7.232055808,0.9999941046511994,-127.8407580825569
7.237630464,1.0000305986649602,-128.12354218327616
7.243205632,1.0000652595647217,-128.40685210362167
7.248780288,1.0000963279016757,-128.69066960793864
7.254355456,1.0001217947749186,-128.97497222567105
7.259930112,1.0001403110078289,-129.25957627309066
7.26550528,1.000150833499283,-129.54443271644377
7.271079936,1.000152842112146,-129.8294456690595
7.276655104,1.000146045486654,-130.1144848331405
7.28222976,1.0001309135040117,-130.39941673320675
7.287804928,1.0001082571140663,-130.68416473491982
7.293379584,1.0000794427635542,-130.9685543662795
7.298954752,1.0000460527920032,-131.2525727275563
7.304529408,1.000010128920689,-131.5362042505532
7.310104576,0.9999735496251013,-131.81937485974274
7.315679232,0.9999385852143597,-132.1020602768731
7.3212544,0.999907023873152,-132.3843508111823
7.326829056,0.9998809037170793,-132.66632312098264
7.332404224,0.9998615671798388,-132.94799203763066
7.33797888,0.9998502586813165,-133.22948423039284
7.343554048,0.9998474817948476,-133.51098174752516
7.349128704,0.999853524604759,-133.79250626565425
7.354703872,0.9998680055211229,-134.0742403436397
7.360278528,0.9998900390650175,-134.356250649833
7.365853696,0.9999184177394828,-134.63868201874226
7.371428352,0.9999514807972237,-134.92159850330302
7.37700352,0.9999873747968505,-135.20499125470508
7.382578176,1.0000240873062096,-135.48893577062006
7.388153344,1.000059447710434,-135.77344241111743
7.393728,1.000091349851363,-136.05845157367494
7.399303168,1.0001181368573704,-136.34392243447198
7.404877824,1.0001381394190059,-136.62973644174846
7.410452992,1.0001502834322509,-136.91585796773964
7.416027648,1.0001538389039912,-137.20209483934246
7.421602816,1.0001485782316712,-137.48839695432727
7.427177472,1.0001349061054456,-137.7745869838802
7.43275264,1.000113426274032,-138.06058789442224
7.438327296,1.0000854910347314,-138.34629756238533
7.443902464,1.0000526730498982,-138.63161617605056
7.44947712,1.0000169314915102,-138.91651302110574
7.455052288,0.9999800844028363,-139.20095320281177
7.460626944,0.9999444747849834,-139.48495298386308
7.466202112,0.9999120270135219,-139.76849641953686
7.471776768,0.9998846475696854,-140.05166721366777
7.477351936,0.9998638610699433,-140.33458058915605
7.482926592,0.9998509748432158,-140.61724952415557
7.48850176,0.9998465460175885,-140.89990120413117
7.494076416,0.9998510058989073,-141.18256421107145
7.499651584,0.9998639438653857,-141.46537182510787
7.50522624,0.9998848312552404,-141.74848077836194
7.510801408,0.9999122772590717,-142.03193807035308
7.516376064,0.9999448075014935,-142.31586121452324
7.521951232,0.9999804400855429,-142.60029808631182
7.527525888,1.0000174028720563,-142.88527295788182
7.533101056,1.0000532407002625,-143.1707910432622
7.538675712,1.0000861779460968,-143.45684246265992
7.54425088,1.0001141019937303,-143.74329536122252
7.549825536,1.0001355748180003,-144.03017276338812
7.555400704,1.0001493518122249,-144.31735575225724
7.56097536,1.0001545660277296,-144.60468122552388
7.566550528,1.000150983523404,-144.8920317035755
7.572125184,1.0001387805379067,-145.17936629663416
7.577700352,1.000118597405275,-145.46644731133256
7.583275008,1.000091641574926,-145.75328481411245
7.588850176,1.000059497553565,-146.03974546994314
7.594424832,1.000023916949318,-146.3257679447094
7.6,0.9999869464994517,-146.61132946185933
7.605575168,0.9999507737643817,-146.89641042888346
7.611149824,0.9999174190729497,-147.18107219483835
7.616724992,0.9998888560376822,-147.4653226611045
7.622299648,0.9998666239759199,-147.74926471709577
7.627874816,0.9998520511928489,-148.0329705032257
7.633449472,0.9998459741055938,-148.3165846448353
7.63902464,0.9998487536738699,-148.60020837986713
7.644599296,0.9998602849096695,-148.8839570857302
7.650174464,0.9998797785748621,-149.16796918463663
7.65574912,0.999906160026992,-149.45232906386943
7.661324288,0.9999380156199115,-149.73711791794452
7.666898944,0.9999734660688618,-150.02240617559576
7.672474112,1.000010434328764,-150.30820609995854
7.678048768,1.0000469253467894,-150.5945662547256
7.683623936,1.0000806585295332,-150.8814634071966
7.689198592,1.0001098637010664,-151.16880179865078
7.69477376,1.000132799310636,-151.4565383618305
7.700348416,1.0001481568157653,-151.7445626062443
7.705923584,1.0001551353581823,-152.03279389974077
7.71149824,1.0001531878286023,-152.32106279945182
7.717073408,1.0001424902259846,-152.60931419981554
7.722648064,1.0001237145597561,-152.89734494353405
7.728223232,1.0000978185540363,-153.185137485775
7.733797888,1.0000663367898617,-153.47253719424103
7.739373056,1.0000310654243834,-153.75949747201258
7.744947712,0.9999940361759303,-154.04604121748037
7.75052288,0.999957387500828,-154.33206663775445
7.756097536,0.9999231433719477,-154.61762228400158
7.761672704,0.9998933233618561,-154.9027971392186
7.76724736,0.9998696664867771,-155.18759432212144
7.772822528,0.9998534130497517,-155.47217643337166
7.778397184,0.9998456322076466,-155.75660883537694
7.783972352,0.9998467445101692,-156.04100021512136
7.789547008,0.9998566276650651,-156.32552620408788
7.795122176,0.9998748041522314,-156.61026290425653
7.800696832,0.9999000926415521,-156.895315509226
7.806272,0.999931190134204,-157.1808034043443
7.811846656,0.9999662237863521,-157.4667626731634
7.817421824,1.0000033113196853,-157.75323474862952
7.82299648,1.000040230822507,-158.0402679757992
7.828571648,1.000074828798646,-158.32781343669186
7.834146304,1.000105243292397,-158.61581705177812
7.839721472,1.000129592715456,-158.9042269845318
7.845296128,1.0001466253852356,-159.19294386754905
7.850871296,1.0001553183612033,-159.481868259116
7.856445952,1.000155035958398,-159.77088544336578
7.86202112,1.0001460676113025,-160.05986889870013
7.867595776,1.0001286601717363,-160.34868099091793
7.873170944,1.0001038839496226,-160.63722671722456
7.8787456,1.0000732093007714,-160.92540035764665
7.884320768,1.0000383356418017,-161.21314474759583
7.889895424,1.0000013170059905,-161.50044391542042
7.895470592,0.9999641511470178,-161.78724436578375
7.901045248,0.9999291574178791,-162.07356296720042
7.906620416,0.9998982474538252,-162.35942067065352
7.912195072,0.999873050170106,-162.64495802336577
7.91777024,0.9998551635166223,-162.93021221095347
7.923344896,0.9998456292711241,-163.2152675846611
7.928920064,0.9998449729992993,-163.50028884635225
7.93449472,0.9998532660236297,-163.7853941831363
7.940069888,0.999869892615086,-164.0706737799167
7.945644544,0.9998940119961456,-164.35627114192872
7.951219712,0.9999242955357371,-164.64224964505507
7.956794368,0.9999589072066779,-164.92868194358888
7.962369536,0.999995927242118,-165.21568002085812
7.967944192,1.0000331662876967,-165.50314012111224
7.97351936,1.000068615108531,-165.79117648672593
7.979094016,1.0001001515174048,-166.07967136478524
7.984669184,1.0001260343128318,-166.3685980160541
7.99024384,1.0001446517869474,-166.6578240360383
7.995819008,1.0001551117648253,-166.94727123703143
8.001393664,1.00015667719843,-167.23681590748444
8.006968832,1.0001492346941498,-167.52633584991426
8.012543488,1.0001333564937804,-167.8157416367635
8.018118656,1.000109805493773,-168.10486561380685
8.023693312,1.0000800467372295,-168.3936318561275
8.02926848,1.0000456218663243,-168.68200220006196
8.034843136,1.0000086909654733,-168.96989325736953
8.040418304,0.9999712028278506,-169.25725534729594
8.04599296,0.9999353469208898,-169.54414426307815
8.051568128,0.9999031856096763,-169.83056313248403
8.057142784,0.99987678921292,-170.11660980334995
8.062717952,0.9998572406763843,-170.4023775970231
8.068292608,0.9998459291288312,-170.68788411153736
8.073867776,0.9998434442993858,-170.97334895760432
8.079442432,0.9998499428196034,-171.25882152403312
8.0850176,0.9998650717410437,-171.54448464134717
8.090592256,0.9998879830234991,-171.83043237805254
8.096167424,0.9999172638168334,-172.11673347865798
8.10174208,0.9999514156792563,-172.4034798766735
8.107317248,0.9999883073822664,-172.69076724300814
8.112891904,1.0000258737479044,-172.97853912621764
8.118467072,1.0000620441804298,-173.266822015266
8.124041728,1.00009476558338,-173.55564061680553
8.129616896,1.0001220610634516,-173.84482674730026
8.135191552,1.0001422830154947,-174.1343984212037
8.14076672,1.000154487292234,-174.42417669075593
8.146341376,1.000157895084201,-174.7141007461081
8.151916544,1.0001521834990579,-175.00399273135906
8.1574912,1.0001378310390507,-175.29377992410696
8.163066368,1.0001156386185217,-175.58330667878207
8.168641024,1.000086832679824,-175.87250782908825
8.174216192,1.0000530365396099,-176.16126273743052
8.179790848,1.0000161932828209,-176.4495540427354
8.185366016,0.9999784578213479,-176.73732173064832
8.190940672,0.9999419266641104,-177.0246091331964
8.19651584,0.999908799215646,-177.31142207620573
8.202090496,0.9998808273837055,-177.59780694390454
8.207665664,0.9998595147127859,-177.88384829724353
8.21324032,0.9998464908420557,-178.16966989953409
8.218815488,0.9998421840492818,-178.45537801969203
