freq,mag,phase
6.0,0.9995570794870964,-97.73536956818134
6.002286592,0.999609562275224,-97.86354908647728
6.004572672,0.9996856932171135,-97.99261834697997
6.006859264,0.9997821040325647,-98.12298693675537
6.009145344,0.9998924222076645,-98.2548757491033
6.011431936,1.0000098604017902,-98.38840306889229
6.013718016,1.0001268828635845,-98.52362654218179
6.016004608,1.000236150975938,-98.66056397685007
6.018290688,1.0003305924413446,-98.79895430457397
6.02057728,1.0004042110436244,-98.93859623029181
6.022863872,1.0004524282872997,-99.07911977378522
6.025149952,1.000472195886257,-99.22014470700633
6.027436544,1.0004620494523693,-99.3612572209949
6.029722624,1.0004227380070987,-99.5020406401928
6.032009216,1.0003568571989454,-99.64205217644555
6.034295296,1.0002681177974648,-99.78098197618507
6.036581888,1.0001625932791642,-99.91851618701628
6.03886848,1.0000467116516873,-100.05439040143784
6.04115456,0.9999278742731491,-100.18864088510401
6.043441152,0.9998136257168737,-100.32115173603063
6.045727232,0.9997112862630534,-100.45209609308174
6.048013824,0.9996271264513222,-100.58170271403345
6.050299904,0.9995666778596533,-100.71029261974654
6.052586496,0.9995338957923783,-100.83818724722713
6.054872576,0.9995308157558905,-100.96585941465021
6.057159168,0.9995576077980515,-101.09363998138042
6.05944576,0.9996125448933684,-101.22208647049027
6.06173184,0.9996922781875043,-101.35147711365124
6.064018432,0.9997918148593329,-101.48219847798649
6.066304512,0.9999045432897835,-101.61445878425367
6.068591104,1.0000238895406166,-101.74843640886085
6.070877184,1.0001418079755355,-101.88408612733527
6.073163776,1.000250836136452,-102.02147604547102
6.075450368,1.0003443897917774,-102.16032468083765
6.077736448,1.0004161504540379,-102.30034012722906
6.08002304,1.0004618638235974,-102.44127576909138
6.08230912,1.000478251482875,-102.58267875344339
6.084595712,1.00046458448397,-102.72409838736625
6.086881792,1.0004216238951358,-102.86512517543683
6.089168384,1.0003519064845277,-103.00529136218512
6.091454464,1.0002600494070248,-103.14434228243422
6.093741056,1.0001515810436785,-103.28192508227602
6.096027648,1.000033598166418,-103.41791231926038
6.098313728,0.9999134363272922,-103.55216099872703
6.10060032,0.9997987796275063,-103.68468321430684
6.1028864,0.9996970942981903,-103.81567830682373
6.105172992,0.9996143252986169,-103.94526628068975
6.107459072,0.9995563196556093,-104.0738882003703
6.109745664,0.9995264390508177,-104.20189076471006
6.112032256,0.9995269122491005,-104.32962854087903
6.114318336,0.9995572995299201,-104.45768403355156
6.116604928,0.9996160328124776,-104.58630328193607
6.118891008,0.9996993592761697,-104.71598723011795
6.1211776,0.9998019654604633,-104.84701693451636
6.12346368,0.9999173335182733,-104.97968546045097
6.125750272,1.0000381816216646,-105.11407708011694
6.128036352,1.0001568948630424,-105.25015442881201
6.130322944,1.0002658050240938,-105.38793826315411
6.132609536,1.0003581846779808,-105.52718724809694
6.134895616,1.000428179731843,-105.66762283132589
6.137182208,1.000470956288475,-105.80891016462988
6.139468288,1.0004842344327756,-105.95056990647387
6.14175488,1.0004669911781066,-106.09225478108505
6.14404096,1.0004202095541288,-106.23347520232005
6.146327552,1.0003466454234509,-106.37380035539813
6.148614144,1.000251486971548,-106.51299364613442
6.150900224,1.0001403561299542,-106.65062009441063
6.153186816,1.0000201022733048,-106.78658262748442
6.155472896,0.9998988174908471,-106.92079402493124
6.157759488,0.9997839925698813,-107.0533087182401
6.160045568,0.9996826759081328,-107.1842549455848
6.16233216,0.9996017365197408,-107.31388085428699
6.16461824,0.9995460514458058,-107.44251617591088
6.166904832,0.9995192716195973,-107.5705509627391
6.169191424,0.9995231836132289,-107.69843207448196
6.171477504,0.9995574293397601,-107.82655659078098
6.173764096,0.9996199847219036,-107.95541485645322
6.176050176,0.9997068189289531,-108.08534121147189
6.178336768,0.9998125117016498,-108.21670447785935
6.180622848,0.9999302298175917,-108.34967556878424
6.18290944,1.000052850712116,-108.48446019593389
6.18519552,1.0001721479423904,-108.62092409168778
6.187482112,1.0002808917112442,-108.75910894543476
6.189768704,1.0003720432568184,-108.89874308286964
6.192054784,1.0004398037403504,-109.03952104035292
6.194341376,1.0004800557396507,-109.181093742384
6.196627456,1.0004897633214616,-109.32308452572846
6.198914048,1.000468755716837,-109.46490720981944
6.201200128,1.000418009839556,-109.60630893969672
6.20348672,1.0003410241502508,-109.74675854179873
6.205773312,1.0002424519086688,-109.88594001858591
6.208059392,1.0001285232866677,-110.02359128969297
6.210345984,1.0000064437987386,-110.1595360740713
6.212632064,0.9998838422646767,-110.29367360190693
6.214918656,0.999768857138264,-110.42615561103695
6.217204736,0.999668527312342,-110.55703522125395
6.219491328,0.9995892733357646,-110.68658556277033
6.221777408,0.9995360743634025,-110.81519858330014
6.224064,0.9995124483242998,-110.9432936439779
6.226350592,0.9995200423279701,-111.07119023944179
6.228636672,0.9995581043072298,-111.19946856504984
6.230923264,0.9996243764639929,-111.32850275790219
6.233209344,0.9997148898216102,-111.45867111935945
6.235495936,0.9998234927589772,-111.59031648478664
6.237782016,0.9999437079540722,-111.72360957980592
6.240068608,1.000067627209026,-111.85868994028259
6.2423552,1.0001876893239539,-111.99550974655625
6.24464128,1.0002960325144723,-112.13405625970253
6.246927872,1.00038577263773,-112.27403456821844
6.249213952,1.0004514586533755,-112.41514478088887
6.251500544,1.000488574081056,-112.55699486384732
6.253786624,1.000494929580813,-112.69916966641587
6.256073216,1.0004701539059826,-112.8412486875369
6.258359296,1.0004155877980598,-112.98272930564548
6.260645888,1.0003348132438605,-113.12325516609995
6.26293248,1.0002329151771683,-113.262425390863
6.26521856,1.0001162602237605,-113.4000145436036
6.267505152,0.9999922588031561,-113.5359098356844
6.269791232,0.9998687174253394,-113.66998014557431
6.272077824,0.9997536866436706,-113.8022849863817
6.274363904,0.9996541503533676,-113.93309397137563
6.276650496,0.9995767650585377,-114.06254994386985
6.278937088,0.9995262856423883,-114.19111362577587
6.281223168,0.9995058792353867,-114.31915718277983
6.28350976,0.999517067958104,-114.44715010174046
6.28579584,0.9995590874853223,-114.57549523082389
6.288082432,0.9996292079832503,-114.70469433794645
6.290368512,0.9997231947809014,-114.8350703112844
6.292655104,0.9998348554565729,-114.96694324532824
6.294941184,0.9999573859799263,-115.10051455482986
6.297227776,1.0000828626566778,-115.23591272307284
6.299514368,1.000203335252548,-115.37308100933762
6.301800448,1.0003111926447759,-115.51192933498132
6.30408704,1.0003995499674603,-115.65220782364258
6.30637312,1.0004629224281611,-115.79355126632241
6.308659712,1.0004970087500884,-115.935635286877
6.310945792,1.0004997994672968,-116.07803246293395
6.313232384,1.0004711506100021,-116.2202409758353
6.315518464,1.0004127612004583,-116.3617823374464
6.317805056,1.0003282436307679,-116.50229916166656
6.320091648,1.000223001974362,-116.64146061503878
6.322377728,1.0001037224021718,-116.77900858823794
6.32466432,0.9999778291988967,-116.91474638083122
6.3269504,0.9998534775323936,-117.04866359092192
6.329236992,0.9997383163510493,-117.18088317917486
6.331523072,0.9996399488490745,-117.31151653407287
6.333809664,0.9995644091820763,-117.44085901854565
6.336096256,0.999516694110883,-117.56931267692055
6.338382336,0.9994997625360239,-117.697326936134
6.340668928,0.9995146370743518,-117.825329415606
6.342955008,0.9995605425806406,-117.95374978842415
6.3452416,0.9996346580767318,-118.08305941133851
6.34752768,0.9997320517799821,-118.21359842859246
6.349814272,0.99984674749661,-118.3456715125527
6.352100352,0.9999715339088197,-118.47952909066886
6.354386944,1.0000983635064098,-118.61519019680543
6.356673536,1.0002192129541922,-118.75264457320688
6.358959616,1.0003263265589033,-118.89177277935167
6.361246208,1.0004131852521678,-119.0323361050971
6.363532288,1.0004740015746254,-119.17396179602537
6.36581888,1.0005049914527626,-119.3162474936411
6.36810496,1.0005042264885664,-119.45875249115993
6.370391552,1.00047157880123,-119.60103310097196
6.372678144,1.0004092451339792,-119.74263189376221
6.374964224,1.0003209473068402,-119.88310606577589
6.377250816,1.0002125046229908,-120.02218490627611
6.379536896,1.0000905306289345,-120.15956816796245
6.381823488,0.9999628905970035,-120.29516717386822
6.384109568,0.9998376728683895,-120.42891849985298
6.38639616,0.9997226914103143,-120.5609299501891
6.38868224,0.9996254759322482,-120.6914030333184
6.390968832,0.9995520947925264,-120.82061848203529
6.393255424,0.9995072209699358,-120.94895544888178
6.395541504,0.9994936805926662,-121.07690066643896
6.397828096,0.9995125498611153,-121.20483916740531
6.400114176,0.9995623849808826,-121.33329348073349
6.402400768,0.9996403969822312,-121.46267257731783
6.404686848,0.9997413169583151,-121.59338412149367
6.40697344,0.999859061815097,-121.72565259952037
6.409260032,0.9999858745232447,-121.85972224850285
6.411546112,1.0001140419234056,-121.99564798503329
6.413832704,1.0002351505959841,-122.13335327946407
6.416118784,1.0003415891560181,-122.27272490981093
6.418405376,1.0004266831737145,-122.413498143585
6.420691456,1.0004850013644477,-122.55532477695891
6.422978048,1.0005127192563625,-122.69776223025278
6.425264128,1.000508213285767,-122.84038362294143
6.42755072,1.0004716170518464,-122.98269904808136
6.429837312,1.0004052618600345,-123.12430020986949
6.432123392,1.0003132173536824,-123.26471744064123
6.434409984,1.0002015060636018,-123.40366746492647
6.436696064,1.0000770611801,-123.54088429711786
6.438982656,0.9999476981817774,-123.67627591004681
6.441268736,0.9998217368555106,-123.80986989721704
6.443555328,0.9997071829390355,-123.9415946980834
6.44584192,0.9996110819895738,-124.07186100334943
6.448128,0.9995399568044221,-124.20089253305198
6.450414592,0.9994980371720626,-124.32908380502795
6.452700672,0.9994880674408168,-124.45692141868484
6.454987264,0.9995108995388283,-124.58482322976862
6.457273344,0.9995648357801064,-124.71330217517954
6.459559936,0.9996467231795484,-124.84273338668379
6.461846016,0.9997512524055272,-124.97353223432593
6.464132608,0.9998717902833912,-125.10595552746038
6.4664192,1.0000007824281962,-125.24021461784008
6.46870528,1.0001300359382777,-125.37633449394599
6.470991872,1.000251289985425,-125.51426801569147
6.473277952,1.0003569413527527,-125.65389091367207
6.475564544,1.0004402089431224,-125.79484669024153
6.477850624,1.0004958251036833,-125.93678517497955
6.480137216,1.0005202809556741,-126.0793807224081
6.482423296,1.0005118586410173,-126.22206736374561
6.484709888,1.0004711244249587,-126.36436194186219
6.48699648,1.0004006803651764,-126.50589907010206
6.48928256,1.0003050031931036,-126.64620352646348
6.491569152,1.000190032471355,-126.78501244528987
6.493855232,1.000063034204717,-126.92200461375965
6.496141824,0.9999320751281254,-127.05716853193243
6.498427904,0.9998055534153212,-127.19045666495514
6.500714496,0.9996913350764792,-127.32196885310098
6.503001088,0.9995968311171919,-127.45195080966343
6.505287168,0.9995279828513743,-127.58076731017024
6.50757376,0.9994891531927951,-127.70880969225144
6.50985984,0.9994828855694223,-127.83647315293584
6.512146432,0.9995097137014175,-127.96426602766019
6.514432512,0.9995678272254991,-128.09271841845165
6.516719104,0.9996535852118554,-128.22219970569333
6.519005184,0.9997616756989065,-128.35307662462387
6.521291776,0.9998850743996383,-128.48562899057302
6.523578368,1.0000160618231844,-128.62004298350178
6.525864448,1.0001463523641678,-128.75635685558805
6.52815104,1.0002677090401444,-128.89450194407712
6.53043712,1.0003723834369682,-129.0342813600613
6.532723712,1.0004536228905785,-129.17540207841634
6.535009792,1.0005064702989102,-129.31748871079841
6.537296384,1.0005273545973696,-129.46016249870675
6.539582976,1.0005150233936229,-129.60285860619834
6.541869056,1.000470244125883,-129.74514288656053
6.544155648,1.0003958517820484,-129.88656253903628
6.546441728,1.000296375145487,-130.02669353069538
6.54872832,1.0001780792345574,-130.16531636645456
6.5510144,1.0000486740119159,-130.30205966171994
6.553300992,0.9999161907851255,-130.43694165599618
6.555587072,0.9997891522840726,-130.56989834576837
6.557873664,0.9996754942908705,-130.70114205670282
6.560160256,0.9995824881447922,-130.8308345595557
6.562446336,0.999516082493958,-130.95937318310519
6.564732928,0.9994805462184697,-131.08716254999442
6.567019008,0.9994781442822667,-131.21467733229997
6.5693056,0.9995090239142695,-131.34238791370737
6.57159168,0.9995711878959682,-131.470785725815
6.573878272,0.99966096134462,-131.6002239322499
6.576164864,0.999772561661444,-131.73115427565247
6.578450944,0.9998987422461892,-131.86383041954176
6.580737536,1.0000317820751725,-131.99838474177926
6.583023616,1.0001630132862849,-132.1348106567496
6.585310208,1.0002842436641866,-132.27314632224878
6.587596288,1.0003877750269252,-132.41303469215345
6.58988288,1.000466962154075,-132.55427348260616
6.59216896,1.0005168485930578,-132.69649451904206
6.594455552,1.000534169778954,-132.83916506230432
6.596742144,1.0005179078752744,-132.9818581722942
6.599028224,1.0004687940115913,-133.12405433842565
6.601314816,1.0003902281453527,-133.265356598674
6.603600896,1.000287011113173,-133.40529085519267
6.605887488,1.0001657027127246,-133.54360479262743
6.608173568,1.0000338956268682,-133.68009666988408
6.61046016,0.9998999264863984,-133.81463127545726
6.612746752,0.9997724830258092,-133.9472285543604
6.615032832,0.9996594692617391,-134.07816644097153
6.617319424,0.9995682077507315,-134.20752995433475
6.619605504,0.9995043546299034,-134.33580045504655
6.621892096,0.9994721939448649,-134.4632988259414
6.624178176,0.9994736671766559,-134.5906135565075
6.626464768,0.999508672167933,-134.71817454278107
6.628750848,0.9995751476848855,-134.84649347027317
6.63103744,0.9996688390297079,-134.97592818152967
6.633324032,0.9997838657052355,-135.10689175602067
6.635610112,0.9999129260811214,-135.23959990909157
6.637896704,1.0000477441772961,-135.374262722883
6.640182784,1.000179873949918,-135.51083875303024
6.642469376,1.00030090504603,-135.64927432838468
6.644755456,1.0004031692603848,-135.78930034544592
6.647042048,1.0004801735147424,-135.93063912941656
6.649328128,1.0005269718869705,-136.07286322245722
6.65161472,1.0005406119129658,-136.21555301595635
6.653901312,1.0005201713407135,-136.35817926353545
6.656187392,1.0004668842759028,-136.50024609187068
6.658473984,1.0003841753507674,-136.641342360705
6.660760064,1.0002771724324377,-136.78106119555184
6.663046656,1.0001527431104777,-136.91905663221087
6.665332736,1.0000186391102215,-137.055201297055
6.667619328,0.9998834485998751,-137.18938079721667
6.66990592,0.9997556445226471,-137.32163332428544
6.672192,0.9996434331917619,-137.4521310915753
6.674478592,0.9995540077313437,-137.58116337554839
6.676764672,0.9994929613142919,-137.7090639803802
6.679051264,0.9994641549887412,-137.83634332355942
6.681337344,0.9994696928320487,-137.96343805383938
6.683623936,0.9995090062746828,-138.09083098035939
6.685910016,0.9995797719582695,-138.2189892129098
6.688196608,0.9996774490892967,-138.3483691347813
6.6904832,0.9997959299101846,-138.47935500457032
6.69276928,0.9999275677563859,-138.61214372693053
6.695055872,1.0000642434298121,-138.74682422353044
6.697341952,1.0001971448746882,-138.88353119675418
6.699628544,1.0003178152063588,-139.02201805858024
6.701914624,1.000418658801863,-139.1621193151489
6.704201216,1.0004933384500785,-139.30352568721568
6.706487808,1.0005368782284507,-139.44575850330347
6.708773888,1.0005466595915107,-139.58839396820483
6.71106048,1.0005220276412576,-139.73089856220165
6.71334656,1.0004644478587967,-139.87280582550702
6.715633152,1.0003775372723982,-140.0136976309494
6.717919232,1.00026686334162,-140.15312122772156
6.720205824,1.0001392655263477,-140.29079988790681
6.722491904,1.0000029566621353,-140.42654204793268
6.724778496,0.9998664657649374,-140.56030476955758
6.727065088,0.9997385397821819,-140.6921435395558
6.729351168,0.9996273217554885,-140.82223912952736
6.73163776,0.9995397850193853,-140.95085314705295
6.73392384,0.9994815826610831,-141.0784222524859
6.736210432,0.9994565020233093,-141.20536579574102
6.738496512,0.9994660600499764,-141.33216483684498
6.740783104,0.9995097108390617,-141.4593767804866
6.743069696,0.9995847315431835,-141.58740391209457
6.745355776,0.9996864150946799,-141.71672673444462
6.747642368,0.9998083143095564,-141.84768950728292
6.749928448,0.9999426791346246,-141.9804398429958
6.75221504,1.0000809920343519,-142.11523230401704
6.75450112,1.0002145169618306,-142.25197734357863
6.756787712,1.0003347475219615,-142.3905276859794
6.759073792,1.0004341204832818,-142.53068015175137
6.761360384,1.0005061701193916,-142.67208372128036
6.763646976,1.0005463477606493,-142.81429303544903
6.765933056,1.0005522572479264,-142.95685507914752
6.768219648,1.000523295507746,-143.0991982582586
6.770505728,1.000461268077222,-143.2409182550282
6.77279232,1.0003702748820318,-143.38151880691757
6.7750784,1.0002557681886273,-143.5205618739674
6.777364992,1.0001251381272902,-143.6578814756468
6.779651584,0.9999866864840883,-143.79322807218588
6.781937664,0.9998491908443914,-143.92655049655852
6.784224256,0.9997211597035521,-144.05791260477434
6.786510336,0.9996109960203362,-144.18755846890537
6.788796928,0.9995256323285457,-144.31576670653945
6.791083008,0.9994704461296916,-144.4429234110115
6.7933696,0.9994491275519279,-144.56952954148665
6.79565568,0.9994629545211752,-144.69603764611134
6.797942272,0.9995109997179011,-144.82299578006493
6.800228864,0.9995904014035496,-144.95087941428952
6.802514944,0.9996961161211331,-145.08009986995867
6.804801536,0.9998213686912566,-145.21096167913572
6.807087616,0.9999583157978669,-145.34375731454784
6.809374208,1.000098202361277,-145.47853797456213
6.811660288,1.0002322496689233,-145.615296065427
6.81394688,1.0003518660319315,-145.753916321627
6.81623296,1.000449511197058,-145.894082540828
6.818519552,1.000518950125125,-146.03546551375203
6.820806144,1.0005556989102762,-146.17761613897576
6.823092224,1.0005574768011605,-146.3200275398969
6.825378816,1.0005241636369704,-146.4622223218444
6.827664896,1.0004577665756211,-146.6036798451098
6.829951488,1.0003623730404578,-146.74391880221532
6.832237568,1.0002441865220681,-146.88264333851743
6.83452416,1.0001105505952401,-147.0195491358454
6.836810752,0.9999700150140285,-147.15438608068908
6.839096832,0.9998314196225431,-147.2872237966379
6.841383424,0.9997036511535932,-147.41812428604766
6.843669504,0.9995946732310893,-147.54724847396756
6.845956096,0.9995115885891399,-147.67500007659453
6.848242176,0.999459559115652,-147.80173126626286
6.850528768,0.999442106736872,-147.92794057515314
6.852814848,0.9994602727034728,-148.05413409903363
6.85510144,0.9995128616647199,-148.18087576874706
6.857388032,0.999596592769368,-148.30852852498063
6.859674112,0.9997063517149174,-148.43762666988576
6.861960704,0.9998349945805056,-148.56842045247606
6.864246784,0.9999744158911232,-148.701192517463
6.866533376,1.0001158509716024,-148.835953588279
6.868819456,1.0002502242389912,-148.97271616307583
6.871106048,1.0003691059755304,-149.1113168531579
6.87339264,1.0004649024917718,-149.25146766958017
6.87567872,1.0005314687063729,-149.3928209169679
6.877965312,1.0005645950672175,-149.53483856923052
6.880251392,1.000562228799626,-149.67709622565792
6.882537984,1.000524350609974,-149.8190514360694
6.884824064,1.0004534228420505,-149.96019968817018
6.887110656,1.0003538423634126,-150.1001073141504
6.889396736,1.000231979301376,-150.2384422188063
6.891683328,1.0000954115458909,-150.37483094488695
6.89396992,0.9999528413494265,-150.50919868028885
6.896256,0.9998134115413704,-150.64151744758823
6.898542592,0.9996858070543672,-150.77185712927675
6.900828672,0.999578267862798,-150.9004639873587
6.903115264,0.9994976090500857,-151.02772508658867
6.905401344,0.9994489066802424,-151.1540064255816
