freq,mag,phase
6.0,1.0000625732699129,33.97626017446743
6.002287616,0.9999269563636074,33.81248306253237
6.004575232,0.9997958019478078,33.65055649839352
6.006862848,0.99967755144319,33.490376692783244
6.009150464,0.9995795770923993,33.331706462268706
6.011438592,0.9995081621858807,33.174188397099975
6.013726208,0.9994679044333531,33.01740794810296
6.016013824,0.9994613784815247,32.86090510295202
6.01830144,0.9994889457980627,32.704180275959
6.020589056,0.9995489663030057,32.546729899045204
6.022876672,0.9996377929952659,32.38814637183697
6.025164288,0.9997496294615699,32.228015865676454
6.027451904,0.9998775028822988,32.06609540546511
6.029740032,1.0000133418658663,31.9021546365393
6.032027648,1.0001486387360732,31.73619212693152
6.034315264,1.0002747338414246,31.56823829742124
6.03660288,1.0003835538384958,31.398516951193805
6.038890496,1.0004684170790588,31.22729601736673
6.041178112,1.0005239102765409,31.054984095650312
6.043465728,1.0005464142438873,30.882032660260336
6.045753344,1.0005344511296044,30.708905630090975
6.04804096,1.0004887868526442,30.536125356039115
6.050329088,1.000412265539951,30.364145298790554
6.052616704,1.000309669234421,30.1933770399844
6.05490432,1.000187491792308,30.02416839007759
6.057191936,1.000053319412928,29.85674116755829
6.059479552,0.9999157540086052,29.691187747674103
6.061767168,0.9997834454947293,29.52752973955994
6.064054784,0.9996647319658697,29.365602634426622
6.0663424,0.9995671659585453,29.2052050434986
6.068630016,0.9994969852657494,29.04591573604216
6.070918144,0.9994585826052114,28.887343128534923
6.07320576,0.9994544846178736,28.72902296303595
6.075493376,0.9994850026775338,28.570428359789286
6.077780992,0.9995482331843364,28.411059956235942
6.080068608,0.9996401395729481,28.250511362746597
6.082356224,0.9997550527407262,28.08835664963295
6.08464384,0.9998856898568188,27.924340008031695
6.086931456,1.0000237157262692,27.758307826935958
6.089219584,1.000160482439508,27.590180849551704
6.0915072,1.0002873342175924,27.42007097531778
6.093794816,1.0003962871369012,27.248138456843378
6.096082432,1.0004804124462312,27.074749355333104
6.098370048,1.000534357247735,26.90025477768789
6.100657664,1.0005546742862896,26.725158634110315
6.10294528,1.0005400337525947,26.549896557548355
6.105232896,1.00049129610063,26.375028778675848
6.107520512,1.0004116804187184,26.20098739549231
6.10980864,1.0003059498229376,26.028220120486736
6.112096256,1.0001808727735166,25.857019507638853
6.114383872,1.0000441967420501,25.68763365292042
6.116671488,0.9999047117219018,25.52019366213972
6.118959104,0.9997712141783857,25.354609130359183
6.12124672,0.9996520776865254,25.190805588059387
6.123534336,0.9995549260630204,25.028474362121795
6.125821952,0.9994858556259356,24.86726907352555
6.128109568,0.9994492617193595,24.706748978772914
6.130397696,0.999447631502556,24.546447503693123
6.132685312,0.9994809347356051,24.38579301265473
6.134972928,0.9995472869001684,24.224354647941542
6.137260544,0.9996424137345781,24.06165918857211
6.13954816,0.9997602595442727,23.89732536811296
6.141835776,0.999893510296372,23.73106542375624
6.144123392,1.0000337796677239,23.562762519339124
6.146411008,1.0001721126834278,23.392318362788416
6.148699136,1.0002998158262049,23.219867902039905
6.150986752,1.000408832745873,23.045620147785257
6.153274368,1.0004921968573575,22.869852667042213
6.155561984,1.000544708255345,22.6930344945022
6.1578496,1.0005628755668439,22.51560425817288
6.160137216,1.0005455680214312,22.338061828399375
6.162424832,1.00049396018576,22.16092910611888
6.164712448,1.0004111457250193,21.984680096457197
6.167000064,1.0003023283531762,21.809712980166104
6.169288192,1.0001744211342687,21.636392870537534
6.171575808,1.0000353988048702,21.464892010197165
6.173863424,0.9998940160151157,21.295348260047074
6.17615104,0.9997592332770227,21.127693614092912
6.178438656,0.9996396336615583,20.96180708581903
6.180726272,0.9995427831625876,20.797405993517483
6.183013888,0.9994748680489759,20.63411936131003
6.185301504,0.9994400706132949,20.47149507762019
6.18758912,0.9994407169544534,20.309008331065975
6.189877248,0.9994768977137447,20.14616683595118
6.192164864,0.9995461548531551,19.982480972270587
6.19445248,0.9996443625039132,19.817470864215164
6.196740096,0.9997651946565886,19.650782945232624
6.199027712,0.999901191848477,19.482140433606304
6.201315328,1.0000434800088154,19.311381876839015
6.203602944,1.0001834496133961,19.138470907998727
6.20589056,1.0003118902476007,18.96353603133721
6.208178688,1.0004209797185988,18.786767071551246
6.210466304,1.000503695266041,18.60850106699326
6.21275392,1.000554761059585,18.429177004398994
6.215041536,1.0005709513975374,18.24927541981497
6.217329152,1.0005511297578094,18.069274541042176
6.219616768,1.0004966073414705,17.889704923544656
6.221904384,1.0004108186681868,17.711062592000093
6.224192,1.0002989251491796,17.533748673026462
6.226479616,1.0001682035448942,17.358091371019942
6.228767744,1.0000267303890156,17.184319669627392
6.23105536,0.9998835787276654,17.012502010974586
6.233342976,0.9997475891797037,16.842624306816507
6.235630592,0.9996275158516794,16.674482188826907
6.237918208,0.9995309768522954,16.507816934246357
6.240205824,0.9994640292602794,16.34227724771874
6.24249344,0.999430908688661,16.1773496799147
6.244781056,0.9994337702968505,16.0125451630424
6.247068672,0.9994726924447103,15.84733686711815
6.2493568,0.9995449265567133,15.68124361297976
6.251644416,0.9996461231979147,15.513763633180709
6.253932032,0.999769811116432,15.344572887140572
6.256219648,0.9999083456950605,15.17334138448907
6.258507264,1.0000528830279447,15.000002981683597
6.26079488,1.0001943143633405,14.824477386881084
6.263082496,1.0003237449917233,14.646854931575797
6.265370112,1.0004329051652499,14.46741611920438
6.26765824,1.0005149455154443,14.286490998078706
6.269945856,1.000564634876911,14.104495149356099
6.272233472,1.0005788621636453,13.921925464991658
6.274521088,1.0005566643337356,13.739302645109461
6.276808704,1.0004993598139256,13.557148615190291
6.27909632,1.0004106590112136,13.375941717142892
6.281383936,1.0002958040716101,13.196100104559996
6.283671552,1.0001623087341054,13.01796489528016
6.285959168,1.0000185579570178,12.841720940665319
6.288247296,0.9998734346098165,12.667462303635036
6.290534912,0.9997362649606238,12.495140148389913
6.292822528,0.9996157096633619,12.324613946298
6.295110144,0.9995193405366569,12.15554786834743
6.29739776,0.9994533389139261,11.987561542190262
6.299685376,0.9994219059361722,11.820164483374349
6.301972992,0.9994270181101312,11.652864985421107
6.304260608,0.9994683979749934,11.485108574085624
6.306548224,0.9995434461994952,11.31642620337944
6.308836352,0.9996476238046207,11.146319888334329
6.311123968,0.9997742463136307,10.974448808416206
6.313411584,0.999915330532885,10.800528984493216
6.3156992,1.000061940651635,10.624386322694784
6.317986816,1.000205059180388,10.446046692755772
6.320274432,1.0003353309671603,10.265633497719815
6.322562048,1.0004447159971466,10.083343060522072
6.324849664,1.0005262286046313,9.899585758130044
6.327137792,1.0005746574090533,9.714742860054232
6.329425408,1.0005870377525872,9.529348060220489
6.331713024,1.0005624928017067,9.343923881056023
6.33400064,1.0005024270251557,9.159008877091669
6.336288256,1.0004107984015682,8.975063314253173
6.338575872,1.000293258665167,8.792524419384556
6.340863488,1.0001570007434346,8.611701506380824
6.343151104,1.0000108729142276,8.432830175340825
6.34543872,0.9998638842865899,8.255974107408003
6.347726848,0.999725448469471,8.081055264054699
6.350014464,0.9996042811883846,7.907929452778094
6.35230208,0.9995080780819646,7.736267481518791
6.354589696,0.9994428390105755,7.565656988844649
6.356877312,0.9994128454998265,7.39563487582478
6.359164928,0.9994200295029423,7.225666469620884
6.361452544,0.9994639162912158,7.05521993806623
6.36374016,0.9995418098423967,6.883766972302307
6.366027776,0.9996487522846452,6.710878027357117
6.368315904,0.999778201372606,6.536151291410259
6.37060352,0.9999217219699172,6.359333036232897
6.372891136,1.0000705443273168,6.180272313300736
6.375178752,1.0002151714544385,5.998982661376861
6.377466368,1.0003463573575588,5.8155767951071216
6.379753984,1.0004560569878638,5.630278620237317
6.3820416,1.0005371293681493,5.443481729837128
6.384329216,1.0005845693198183,5.25565427485451
6.386617344,1.000595190270331,5.067267579956865
6.38890496,1.0005684761217093,4.878889774192436
6.391192576,1.0005058336170822,4.691020686910275
6.393480192,1.000411436397129,4.504171495783517
6.395767808,1.0002910152221642,4.318767458946951
6.398055424,1.000152120478424,4.135099674926295
6.40034304,1.0000036784214559,3.9534210252430317
6.402630656,0.9998548883893289,3.773756415638147
6.404918272,0.999715123538243,3.5960804298029188
6.4072064,0.9995932438750786,3.420159876025099
6.409494016,0.9994970546012183,3.2457336028119914
6.411781632,0.9994325454116312,3.072329036076717
6.414069248,0.9994039771808241,2.8994988788235165
6.416356864,0.9994130760702856,2.726720307525791
6.41864448,0.9994592780994167,2.5533750210574033
6.420932096,0.9995397835809943,2.3790337669257715
6.423219712,0.9996495615285256,2.203178453044927
6.425507328,0.999781643599693,2.025441997830062
6.427795456,0.9999276637516951,1.8455748584144434
6.430083072,1.000078647605852,1.6634147486180928
6.432370688,1.000224856916603,1.4789898643515023
6.434658304,1.0003571285256903,1.2924212467098821
6.43694592,1.000467043120974,1.1039760752971302
6.439233536,1.0005478737590796,0.9139938535203327
6.441521152,1.0005942874236424,0.7229931168919929
6.443808768,1.0006034470553256,0.5314537002516231
6.446096896,1.0005745534589932,0.33991031183550435
6.448384512,1.0005094243755943,0.14895187882363906
6.450672128,1.000412362536496,-0.04099087582255064
6.452959744,1.0002893543498133,-0.229442479844206
6.45524736,1.0001478537605142,-0.41614024197974836
6.457534976,0.9999970469990321,-0.6008324041503141
6.459822592,0.999846236428576,-0.7834758528840073
6.462110208,0.999705156255529,-0.9640921606225911
6.464397824,0.9995825604029879,-1.142938299078177
6.466685952,0.999486329341352,-1.3203170021117745
6.468973568,0.999422452781476,-1.4966745394883785
6.471261184,0.9993950561075379,-1.6724628785660856
6.4735488,0.9994059460467596,-1.8482859058409558
6.475836416,0.9994543179438219,-2.024650790532923
6.478124032,0.999537340027763,-2.202078554243634
6.480411648,0.9996497188936591,-2.381075484636077
6.482699264,0.9997844661259488,-2.561973576677559
6.48498688,0.9999330741291401,-2.745054932633608
6.487275008,1.0000860665711395,-2.930448673262381
6.489562624,1.0002339984109814,-3.1181614003277764
6.49185024,1.0003673400334667,-3.30805703101041
6.494137856,1.0004777999023873,-3.499849625634925
6.496425472,1.000558368521203,-3.693129446502527
6.498713088,1.0006039053939602,-3.8874867731830465
6.501000704,1.0006116018695372,-4.082356036197874
6.50328832,1.0005808769445692,-4.277199285085037
6.505576448,1.0005135283017401,-4.471477646166028
6.507864064,1.000413812397083,-4.664662935121295
6.51015168,1.000288044468799,-4.856365529047932
6.512439296,1.0001440168982545,-5.04623781420265
6.514726912,0.9999908685654737,-5.23410645915513
6.517014528,0.9998381820879664,-5.419864622458127
6.519302144,0.9996957405784818,-5.603632426883381
6.52158976,0.9995721837968287,-5.785604324617369
6.523877376,0.9994757401523403,-5.966111790948205
6.526165504,0.9994122141328601,-6.14558581515408
6.52845312,0.9993859649851344,-6.324524271494412
6.530740736,0.9993983431267308,-6.503512504278202
6.533028352,0.9994488992492153,-6.6830716929691745
6.535315968,0.9995342965796455,-6.8637507441573655
6.537603584,0.9996492666116671,-7.046038583473445
6.5398912,0.9997866809597241,-7.2302692933542705
6.542178816,0.9999375963978306,-7.416715044210974
6.544466432,1.0000928158672375,-7.605516491578481
6.54675456,1.000242407539542,-7.796673897712241
6.549042176,1.0003769641488125,-7.990038590864533
6.551329792,1.0004881958364416,-8.18530320849712
6.553617408,1.0005687260697054,-8.382104762550295
6.555905024,1.0006136745811607,-8.579968512938452
6.55819264,1.0006200819388535,-8.778329189872753
6.560480256,1.0005874854089862,-8.976660758165206
6.562767872,1.000518110802489,-9.174366547241888
6.565056,1.000416024388399,-9.371013336461573
6.567343616,1.0002876222905717,-9.566108773094758
6.569631232,1.000141193163934,-9.759361231285286
6.571918848,0.9999857621687888,-9.950576792040406
6.574206464,0.9998310333983966,-10.13966916336505
6.57649408,0.999686964902332,-10.326743934048991
6.578781696,0.9995626695328542,-10.5120040914376
6.581069312,0.9994656774341977,-10.695794962447673
6.583356928,0.9994023841429571,-10.878564790140306
6.585645056,0.9993769624002851,-11.060823472569142
6.587932672,0.9993908061566802,-11.24313710421807
6.590220288,0.999443017090458,-11.426056926249835
6.592507904,0.9995307651332089,-11.610137914328662
6.59479552,0.9996481608962824,-11.795847509685597
6.597083136,0.9997879516754845,-11.98355541994255
6.599370752,0.9999414056693902,-12.173527405159641
6.601658368,1.000098857549822,-12.365885623634528
6.603945984,1.0002502815601375,-12.560657997134863
6.606234112,1.0003861800242357,-12.757624366077605
6.608521728,1.0004980146002442,-12.956564488235315
6.610809344,1.0005787832807262,-13.157009347843035
6.61309696,1.000623303563367,-13.358533862570463
6.615384576,1.0006286991927964,-13.560562266926352
6.617672192,1.0005946354354662,-13.762517979311045
6.619959808,1.000523082049073,-13.963865432620201
6.622247424,1.000418861041212,-14.164103279824944
6.624535552,1.0002880774812193,-14.362779244813748
6.626823168,1.0001391521309602,-14.559576836087269
6.629110784,0.9999813905248066,-14.75431420860911
6.6313984,0.9998247526620966,-14.946898186780292
6.633686016,0.9996789787711664,-15.137446691661555
6.635973632,0.9995534711435107,-15.326161051706782
6.638261248,0.9994560129920416,-15.5134146935725
6.640548864,0.9993927761626061,-15.6996454560932
6.64283648,0.9993679455165013,-15.885365304642344
6.645124608,0.9993829943725355,-16.071161960574717
6.647412224,0.9994369183308381,-16.25760873090566
6.64969984,0.9995267005740408,-16.445224889178377
6.651987456,0.9996463690235801,-16.63453794369114
6.654275072,0.9997886246048445,-16.82585126514076
6.656562688,0.9999443897760361,-17.019511346667176
6.658850304,1.0001038941294558,-17.21558855272778
6.66113792,1.0002573427673345,-17.414072328721545
6.663426048,1.0003946771917445,-17.614821699726342
6.665713664,1.0005074610168498,-17.817541135237466
6.66800128,1.000588459010509,-18.02180218798719
6.670288896,1.0006328499014574,-18.22713000968691
6.672576512,1.0006373230647443,-18.432967301755994
6.674864128,1.0006019204868322,-18.638733681605547
6.677151744,1.0005287420973537,-18.843859706357847
6.67943936,1.000422352561868,-19.047872211244563
6.681726976,1.0002892599189506,-19.250290571272
6.684015104,1.0001379131525614,-19.45079848191752
6.68630272,0.9999777931881986,-19.64918927097061
6.688590336,0.9998190272252024,-19.845459121311066
6.690877952,0.9996716437865903,-20.03964001262614
6.693165568,0.9995447885546236,-20.23198255016807
6.695453184,0.9994466258987318,-20.4228439141885
6.6977408,0.999383130959054,-20.61268461635437
6.700028416,0.9993586978247165,-20.80202327258738
6.702316032,0.9993747027689528,-20.991449851058768
6.70460416,0.9994302687158475,-21.18155871353746
6.706891776,0.9995217243792006,-21.372871043872767
6.709179392,0.9996437201463412,-21.56589987642805
6.711467008,0.9997882778802099,-21.760987672313444
6.713754624,0.9999464197686462,-21.95843788136042
6.71604224,1.0001082054459125,-22.158341736446154
6.718329856,1.000263420882983,-22.360711415044204
6.720617472,1.0004023803305329,-22.565372237155636
6.7229056,1.0005163309649607,-22.771999442399473
6.725193216,1.000598025947492,-22.980219086516186
6.727480832,1.0006422967551343,-23.189512173478835
6.729768448,1.000646381419002,-23.3993053128224
6.732056064,1.0006097732830368,-23.609010359052693
6.73434368,1.0005350529716746,-23.81810503731941
6.736631296,1.0004266786631728,-24.025996431144307
6.738918912,1.0002912921666036,-24.232309860926012
6.741206528,1.0001376154970456,-24.43668301113859
6.743494656,0.9999753013914452,-24.63893885980376
6.745782272,0.999814379822702,-24.839009040283777
6.748069888,0.9996650810680017,-25.03698842953858
6.750357504,0.999536794418022,-25.23309866597888
6.75264512,0.9994376266853457,-25.42772689860423
6.754932736,0.9993738001307166,-25.62132571939609
6.757220352,0.9993495342885879,-25.814430192173603
6.759507968,0.9993661956127754,-26.00762712295981
6.761795584,0.9994229440229696,-26.201515097727512
6.764083712,0.9995161668080892,-26.39665592770473
6.766371328,0.9996400687632725,-26.59352375552904
6.768658944,0.9997867678558056,-26.792505670731437
6.77094656,0.9999473050478846,-26.993862244936906
6.773234176,1.00011132970138,-27.1977428205193
6.775521792,1.0002687765866962,-27.404101855661846
6.777809408,1.0004094332166624,-27.61279106877959
6.780097024,1.0005246688590188,-27.82346606839833
6.782385152,1.0006071386714208,-28.035756287340728
6.784672768,1.0006516519783193,-28.24913388373133
6.786960384,1.000655384115868,-28.46302539190385
6.789248,1.0006179884388071,-28.676843799035314
6.791535616,1.0005418807014521,-28.889980327752085
6.793823232,1.0004317255775739,-29.101973608035212
6.796110848,1.0002944093201216,-29.31230403285418
6.798398464,1.0001384551862282,-29.520707931931643
6.80068608,0.9999737468515797,-29.726940079932717
6.802974208,0.9998105124874562,-29.93095797689846
6.805261824,0.9996592721726132,-30.13286255932921
6.80754944,0.9995293687675612,-30.332905475093497
6.809837056,0.9994289218874136,-30.531414312526135
6.812124672,0.999364438998025,-30.72890140525992
6.814412288,0.9993399981940441,-30.925902222989084
6.816699904,0.9993572450660521,-31.122989983455025
6.81898752,0.9994149060738954,-31.320803271024076
6.821275136,0.9995096542312089,-31.51984667463825
6.823563264,0.9996354477631287,-31.720675480769632
6.82585088,0.9997844068819888,-31.923654353746056
6.828138496,0.9999471457408781,-32.1290462677818
6.830426112,1.0001134655328288,-32.33698404476849
6.832713728,1.000273081228915,-32.54745161468905
6.835001344,1.0004155943547879,-32.76026748683362
6.83728896,1.000532463197081,-32.9751198185973
6.839576576,1.0006160264231545,-33.19159541239962
6.841864704,1.0006611198576614,-33.40917359507803
6.84415232,1.0006647884947177,-33.62728206692768
6.846439936,1.0006267469310854,-33.84530457833775
6.848727552,1.000549507100299,-34.062675146097725
6.851015168,1.0004378247359293,-34.278826758755166
6.853302784,1.0002985099269195,-34.49335362702008
6.8555904,1.000140342718225,-34.70587741917616
6.857878016,0.9999732947561606,-34.91623090005549
6.860165632,0.9998079702314311,-35.12434034464344
6.86245376,0.9996543918808497,-35.33031345834796
6.864741376,0.9995226066800125,-35.534384323208805
6.867028992,0.9994207092040334,-35.736916824190914
6.869316608,0.9993553024152317,-35.93839352274358
6.871604224,0.9993304100988429,-36.1393753657026
6.87389184,0.9993477785756191,-36.3404797324679
6.876179456,0.9994062942656237,-36.54230171268839
6.878467072,0.9995022180282414,-36.74537243930576
6.880754688,0.9996296821715737,-36.95026343506979
6.883042816,0.9997806094501918,-37.157310013943224
6.885330432,0.9999456381862069,-37.3668237361779
6.887618048,1.0001143989981378,-37.57891345336518
6.889905664,1.0002762216926016,-37.79356055325483
6.89219328,1.0004209702724152,-38.0106063867951
6.894480896,1.000539546337418,-38.22973149053198
6.896768512,1.0006245652501438,-38.45049109458586
6.899056128,1.0006703756541746,-38.67236711792961
6.901344256,1.0006744562122947,-38.894774845167625
6.903631872,1.0006361678596358,-39.11710292374407
6.905919488,1.0005580700674699,-39.338776671038936
6.908207104,1.0004449346982076,-39.559243916171795
6.91049472,1.000303838823565,-39.778052745991054
6.912782336,1.0001436132803934,-39.994845946828534
6.915069952,0.9999741978229852,-40.20941890583941
6.917357568,0.9998063698109515,-40.42173897105303
6.919645184,0.9996505860021563,-40.63187416065449
