freq,mag,phase
6.0,0.9998524657581073,-79.6759684101607
6.006779904,0.9998093173596011,-79.97169703931291
6.013559296,0.9997760806975009,-80.26694966690597
6.0203392,0.9997554203068274,-80.5618030736445
6.027118592,0.9997486204660552,-80.85653150655803
6.033898496,0.9997555571727395,-81.15122997807998
6.040677888,0.9997761455011686,-81.44613009758584
6.047457792,0.9998092181006557,-81.74140118387314
6.054237184,0.9998529762524468,-82.03720231363204
6.061017088,0.9999048988947378,-82.33366884135064
6.06779648,0.99996205791029,-82.63090216275015
6.074576384,1.0000213894293188,-82.92894876262216
6.081355776,1.0000796020911218,-83.22780347469704
6.08813568,1.0001332149408442,-83.52743906442876
6.094915072,1.0001795570843328,-83.82771578606443
6.101694976,1.0002158175140197,-84.12864650905132
6.108474368,1.0002400948409669,-84.42992636577313
6.115254272,1.0002508529403074,-84.73147579377381
6.122033664,1.0002476907144562,-85.03307904354938
6.128813568,1.000230727999842,-85.33460124090045
6.135593472,1.0002009350984462,-85.63576792691175
6.142372864,1.0001596792239602,-85.93647790261032
6.149152768,1.0001097241220087,-86.23657375127175
6.15593216,1.0000533841539723,-86.53598049810098
6.162712064,0.9999942784259106,-86.8345988282637
6.169491456,0.9999352281533834,-87.13244374026256
6.17627136,0.9998798558749249,-87.4294999418356
6.183050752,0.9998310589798757,-87.725838803984
6.189830656,0.999791779413567,-88.02159634847139
6.196610048,0.9997640030753561,-88.31688925465383
6.203389952,0.9997492329976365,-88.61194724656242
6.210169344,0.9997486755514018,-88.90688730199795
6.216949248,0.9997619452689108,-89.20193071581807
6.22372864,0.9997885626669638,-89.49727513946972
6.230508544,0.9998270532458597,-89.79303662541
6.237287936,0.9998750340544275,-90.08939756675241
6.24406784,0.9999301223696375,-90.38647830470676
6.250847232,0.9999890109795171,-90.6843266758661
6.257627136,1.000048605623947,-90.98304652633355
6.264406528,1.0001054706865058,-91.28253612216491
6.271186432,1.0001564631047122,-91.58276293844605
6.277966336,1.0001987571740114,-91.88364940003316
6.284745728,1.000229980741698,-92.18504079506118
6.291525632,1.0002484284246564,-92.48679784357068
6.298305024,1.000252912978991,-92.78868380059066
6.305084928,1.000243374095005,-93.09055115271363
6.31186432,1.0002202044811381,-93.39222638484947
6.318644224,1.000184800840598,-93.6935317425569
6.325423616,1.0001389436525359,-93.9942664421538
6.33220352,1.000085500740713,-94.29433993319306
6.338982912,1.0000271367573748,-94.59366634897617
6.345762816,0.9999672319581132,-94.89221708073825
6.352542208,0.9999090774666111,-95.18994817099622
6.359322112,0.9998560337181522,-95.48693423585736
6.366101504,0.9998109356318879,-95.7833060779522
6.372881408,0.999776410870902,-96.07905392067153
6.3796608,0.9997543136955865,-96.37450788008579
6.386440704,0.9997458674031661,-96.66974548701396
6.393220096,0.9997517287628774,-96.96492955924626
6.4,0.9997711699030791,-97.26032906490947
6.406779904,0.999803639618438,-97.55609172267063
6.413559296,0.9998469974077963,-97.85235776076443
6.4203392,0.9998987476312545,-98.1493237432615
6.427118592,0.9999562982263379,-98.4470309464631
6.433898496,1.0000163075682145,-98.74550809806559
6.440677888,1.0000753148298054,-99.0448713272027
6.447457792,1.000130304110725,-99.3449603641124
6.454237184,1.000178071246243,-99.64579925845334
6.461017088,1.000215857118199,-99.94722274652989
6.46779648,1.000241549680324,-100.24906347541621
6.474576384,1.0002538565156758,-100.55120467944053
6.481355776,1.000252000257928,-100.85340864753536
6.48813568,1.0002361212200093,-101.15550211613711
6.494915072,1.0002070529889575,-101.45732025145448
6.501694976,1.0001663556913727,-101.75866333069649
6.508474368,1.0001164773141822,-102.05939205465938
6.515254272,1.0000599605551344,-102.35943472567749
6.522033664,1.0000001263076501,-102.65867282152072
6.528813568,0.9999402070773201,-102.95709465822664
6.535593472,0.9998837582196057,-103.25474942792788
6.542372864,0.9998335859935472,-103.55166006237117
6.549152768,0.9997927590761896,-103.84801925690473
6.55593216,0.999763460881756,-104.14386863149421
6.562712064,0.999747321406729,-104.4394081287961
6.569491456,0.9997452990237083,-104.73483457479792
6.57627136,0.9997575071313024,-105.03035861618444
6.583050752,0.9997830938096597,-105.32614069077667
6.589830656,0.9998208904290646,-105.62237927999145
6.596610048,0.9998687380006489,-105.91918505336463
6.603389952,0.9999238188421058,-106.21671671861289
6.610169344,0.9999832999135656,-106.5150378783703
6.616949248,1.0000437509970102,-106.8141567864555
6.62372864,1.0001017678270112,-107.11414805471851
6.630508544,1.0001540107382523,-107.4148804845765
6.637287936,1.000197922826296,-107.7162190547884
6.64406784,1.0002305689637154,-108.01816198108719
6.650847232,1.0002505579135765,-108.32042468583823
6.657627136,1.0002564956836175,-108.62290257164607
6.664406528,1.0002481358285895,-108.925375618654
6.671186432,1.000226024566296,-109.2276644913058
6.677966336,1.0001913184969153,-109.52953551725149
6.684745728,1.0001458324682173,-109.83089238355166
6.691525632,1.0000921808465457,-110.13157887742149
6.698305024,1.0000335399158096,-110.43151151762953
6.705084928,0.9999728774405032,-110.73063406856441
6.71186432,0.99991364002541,-111.02897070527881
6.718644224,0.999859229549825,-111.32652421040255
6.725423616,0.9998127323281139,-111.62341429802599
6.73220352,0.999776669096472,-111.91974336667965
6.738982912,0.9997529205830858,-112.21567828183771
6.745762816,0.9997430829627314,-112.5113715037907
6.752542208,0.9997475155516465,-112.80705289606571
6.759322112,0.99976602973737,-113.10289303072624
6.766101504,0.9997975981732532,-113.39909805970056
6.772881408,0.9998405056395284,-113.69581806311457
6.7796608,0.9998923602470027,-113.99316962597825
6.786440704,0.9999502004707339,-114.291310544082
6.793220096,1.000010883768378,-114.59022443196277
6.8,1.000070925234865,-114.89001127133223
6.806779904,1.0001271379268406,-115.19056640688865
6.813559296,1.0001763585423904,-115.49184425048752
6.8203392,1.000215628233241,-115.7937667133217
6.827118592,1.0002430658199677,-116.09615614009986
6.833898496,1.0002568313417808,-116.39879611665667
6.840677888,1.0002563531262094,-116.70158080973675
6.847457792,1.0002415832265155,-117.00425067237435
6.854237184,1.0002133522827519,-117.30662492163312
6.861017088,1.0001732442205158,-117.60855293625353
6.86779648,1.000123444541382,-117.90986592586984
6.874576384,1.0000667926813689,-118.21046906883684
6.881355776,1.0000063899830616,-118.5102954890169
6.88813568,0.9999455390047313,-118.80933354128685
6.894915072,0.9998877217696648,-119.10753032667208
6.901694976,0.9998361466570532,-119.40499761876299
6.908474368,0.9997938038433429,-119.70185173719611
6.915254272,0.9997627857771575,-119.9981871832486
6.922033664,0.9997451695916816,-120.2941925537232
6.928813568,0.9997415984276586,-120.5901028756525
6.935593472,0.9997526203541659,-120.88603518563446
6.942372864,0.9997773180708981,-121.18224003445118
6.949152768,0.9998145540752766,-121.47886782403708
6.95593216,0.9998621151132199,-121.77608234101005
6.962712064,0.9999174307502503,-122.07399246321573
6.969491456,0.9999773625644263,-122.3727444168331
6.97627136,1.000038634175284,-122.67225594142613
6.983050752,1.0000977672018123,-122.9726343725892
6.989830656,1.000151444440433,-123.27381522317727
6.996610048,1.000196856931812,-123.57564828225178
7.003389952,1.000231226414556,-123.87806172480836
7.010169344,1.000252758105322,-124.18078693964539
7.016949248,1.000260241624615,-124.48379576003734
7.02372864,1.000253181665311,-124.78681641344838
7.030508544,1.0002321089506057,-125.08962831072101
7.037287936,1.0001980973318758,-125.39207261353812
7.04406784,1.0001529560871827,-125.6939941485715
7.050847232,1.000099337182499,-125.99524852841188
7.057627136,1.00004012323669,-126.29575649244416
7.064406528,0.9999787359857577,-126.59546195627723
7.071186432,0.9999184802005635,-126.89432576046885
7.077966336,0.9998627147664523,-127.19240026922166
7.084745728,0.9998146379738816,-127.48979327555321
7.091525632,0.9997768867539698,-127.78659214953342
7.098305024,0.9997515887812468,-128.0829965201888
7.105084928,0.9997401520193646,-128.37911305460645
7.11186432,0.999743168653715,-128.6752259761014
7.118644224,0.9997605482012146,-128.97147068563925
7.125423616,0.9997913654760114,-129.26802855117222
7.13220352,0.9998338375087126,-129.56510365077986
7.138982912,0.9998856150227767,-129.86285277486513
7.145762816,0.9999438391127174,-130.1613333941789
7.152542208,1.0000052063811933,-130.4606382456369
7.159322112,1.0000662958947553,-130.76078596478607
7.166101504,1.0001238464048008,-131.06177823903087
7.172881408,1.000174421288108,-131.36347503635685
7.1796608,1.000215483260141,-131.66584300520145
7.186440704,1.000244447073791,-131.96866092768727
7.193220096,1.0002598667461546,-132.2718133366162
7.2,1.0002608490972908,-132.5750624375551
7.206779904,1.000247293007859,-132.87824112526982
7.213559296,1.000219956503469,-133.18118894607738
7.2203392,1.0001803813683476,-133.48364675200372
7.227118592,1.0001307498174767,-133.78552097197985
7.233898496,1.0000738010013686,-134.086701322188
7.240677888,1.0000127860546144,-134.38703818606953
7.247457792,0.9999510071075257,-134.68657835093285
7.254237184,0.9998919934682244,-134.9852896416618
7.261017088,0.999838933896384,-135.28323706911797
7.26779648,0.9997948851190809,-135.58055429336522
7.274576384,0.9997622305692755,-135.87735015344262
7.281355776,0.999742912452973,-136.17379881045127
7.28813568,0.9997379258500959,-136.47007355817115
7.294915072,0.9997475975094808,-136.76639609334893
7.301694976,0.999771312773043,-137.06297045449892
7.308474368,0.9998078873180285,-137.3599255391354
7.315254272,0.9998552205730352,-137.65750300571955
7.322033664,0.9999106536121918,-137.9557433433258
7.328813568,0.9999710948974312,-138.25479090266037
7.335593472,1.0000332891680768,-138.55470986724623
7.342372864,1.0000935553818247,-138.85543705919946
7.349152768,1.0001487858833296,-139.15698403889428
7.35593216,1.0001956935343848,-139.45923147187438
7.362712064,1.0002317969323644,-139.76203833392944
7.369491456,1.0002550881635333,-140.06525199442007
7.37627136,1.0002640960189244,-140.36872405424683
7.383050752,1.0002584754574944,-140.6722090826449
7.389830656,1.0002384333628593,-140.97551408845462
7.396610048,1.0002051992680228,-141.27850934178028
7.403389952,1.0001604363387442,-141.58094612644703
7.410169344,1.0001067730398348,-141.88273408467305
7.416949248,1.0000471563392963,-142.1837088369595
7.42372864,0.9999849541323607,-142.48391298484174
7.430508544,0.9999235005019583,-142.78327563020255
7.437287936,0.9998663276147696,-143.08184675869543
7.44406784,0.9998166165089958,-143.37967757821008
7.450847232,0.9997771675647579,-143.67692152658464
7.457627136,0.9997501056129243,-143.97371081005159
7.464406528,0.9997370185542925,-144.2702392752188
7.471186432,0.9997386223177271,-144.56666875456978
7.477966336,0.9997548496147826,-144.86323478834194
7.484745728,0.9997847477401546,-145.16016330069561
7.491525632,0.9998267551053462,-145.4575461786859
7.498305024,0.9998784490489699,-145.75559509360227
7.505084928,0.9999370167838446,-146.05438711692264
7.51186432,0.999999080328008,-146.354029282877
7.518644224,1.0000613179810283,-146.65446982973134
7.525423616,1.0001201840783491,-146.95579197386695
7.53220352,1.000172450660706,-147.25787468247748
7.538982912,1.0002151145876974,-147.56061489987522
7.545762816,1.0002458497849365,-147.86385449644686
7.552542208,1.0002630399465506,-148.16742554109328
7.559322112,1.0002654912792932,-148.47112324504417
7.566101504,1.000253154526417,-148.77478683616414
7.572881408,1.000226816539429,-149.07820289073746
7.5796608,1.0001877838853173,-149.38114566671942
7.586440704,1.0001383642398212,-149.6835111965153
7.593220096,1.0000812473853617,-149.98517110438598
7.6,1.0000195025866585,-150.28600567514712
7.606779904,0.9999567490827579,-150.58600466479496
7.613559296,0.9998964009460685,-150.8851879895697
7.6203392,0.9998417732703593,-151.18358945627517
7.627118592,0.9997960330537468,-151.48128434681539
7.633898496,0.9997616717036757,-151.77846976704157
7.640677888,0.9997406164456153,-152.0752992000766
7.647457792,0.9997339874756702,-152.3719152334273
7.654237184,0.9997422838866417,-152.66854870829695
7.661017088,0.9997649342041746,-152.9654017822983
7.66779648,0.9998008026207769,-153.26266644846547
7.674576384,0.9998478238715027,-153.56050559537928
7.681355776,0.9999033606870414,-153.85903442537258
7.68813568,0.999964434219701,-154.1583777045012
7.694915072,1.0000275357103157,-154.45856664417127
7.701694976,1.0000890868568033,-154.75959869835359
7.708474368,1.0001457879522422,-155.06147379171236
7.715254272,1.0001944661376154,-155.36404907551633
7.722033664,1.000232338031854,-155.66722907511968
7.728813568,1.0002573053338628,-155.9708375035861
7.735593472,1.0002680849293066,-156.27468757941125
7.742372864,1.0002637502319103,-156.57862343362365
7.749152768,1.0002450136637668,-156.8823927382062
7.75593216,1.0002123842370294,-157.18580085319633
7.762712064,1.0001681545746446,-157.48870767328305
7.769491456,1.0001144082426752,-157.79096475234178
7.77627136,1.0000543660032837,-158.09245218046877
7.783050752,0.9999912595881515,-158.39307484458467
7.789830656,0.9999285735396574,-158.6928885051115
7.796610048,0.9998699673708392,-158.99185472761033
7.803389952,0.9998185702865772,-159.29007641397868
7.810169344,0.9997773971988998,-159.58768584123195
7.816949248,0.9997485231215176,-159.88482725309
7.82372864,0.9997337666735554,-160.18166139126495
7.830508544,0.9997338103145582,-160.47842760323806
7.837287936,0.9997487601753372,-160.77526608135764
7.84406784,0.9997778531824254,-161.07242875150075
7.850847232,0.99981931250895,-161.37007852653994
7.857627136,0.9998708939473449,-161.66836319168564
7.864406528,0.9999297549742046,-161.96740485504696
7.871186432,0.9999926652659326,-162.26728346218937
7.877966336,1.0000559780252394,-162.5680390758048
7.884745728,1.0001163914896365,-162.86962024546636
7.891525632,1.0001702568124728,-163.17198290290608
7.898305024,1.0002146855835923,-163.4750455728078
7.905084928,1.0002472670282077,-163.778618052578
7.91186432,1.0002660916388084,-164.0825599062838
7.918644224,1.0002702198943567,-164.38666270545335
7.925423616,1.0002592226680886,-164.69072498506938
7.93220352,1.0002339170942287,-164.9945661677121
7.938982912,1.000195568101956,-165.29794537171716
7.945762816,1.0001462782143395,-165.60074216992368
7.952542208,1.0000888145611722,-165.90283929765144
7.959322112,1.0000265238010897,-166.20411335753843
7.966101504,0.9999626603602322,-166.50453534831067
7.972881408,0.9999009520515123,-166.8041032741425
7.9796608,0.9998447065804091,-167.1028847541603
7.986440704,0.9997971949080642,-167.4009434324474
7.993220096,0.9997609082014799,-167.69845391293822
8.0,0.9997380221903535,-167.9955586953693
8.006779904,0.9997298360876005,-168.2924694599592
8.013559296,0.999736697135463,-168.58934343363543
8.0203392,0.9997582167802067,-168.88644507202957
8.027118592,0.9997933634724604,-169.1839155003081
8.033898496,0.9998400374719896,-169.48196242200856
8.040677888,0.9998957476948173,-169.78071395793333
8.047457792,0.9999573398045428,-170.08025682444767
8.054237184,1.0000213962923006,-170.38067956466824
8.061017088,1.0000844013501888,-170.6819733212721
8.06779648,1.00014268698466,-170.98407867499384
8.074576384,1.0001931206466412,-171.28693534967334
8.081355776,1.0002328477590308,-171.59041711734736
8.08813568,1.0002596817466676,-171.89435552133705
8.094915072,1.0002720736287285,-172.1985680461583
8.101694976,1.000269352648832,-172.5028537893516
8.108474368,1.000251707791088,-172.80699628245787
8.115254272,1.000219987990427,-173.11082481808197
8.122033664,1.0001761260731983,-173.41413267370382
8.128813568,1.0001223879159777,-173.71677682638457
8.135593472,1.000061893219059,-174.01867132670046
8.142372864,0.9999979117946567,-174.3197239126026
8.149152768,0.9999340362416159,-174.6199117604979
8.15593216,0.9998738486511741,-174.91924700816773
8.162712064,0.9998206726523805,-175.2177943851426
8.169491456,0.9997775982425002,-175.51571532464445
8.17627136,0.9997468643673961,-175.81313157245762
8.183050752,0.9997302650928604,-176.1102227291858
8.189830656,0.9997287260009102,-176.4072017826987
8.196610048,0.999742467624784,-176.70428803805672
8.203389952,0.9997705397366505,-177.00163345421103
8.210169344,0.9998114622461932,-177.29945148707344
8.216949248,0.9998629214831894,-177.59790042836698
8.22372864,0.9999221967546075,-177.89712454143265
8.230508544,0.9999858967245944,-178.1971797304958
8.237287936,1.0000503588044518,-178.49811504549555
8.24406784,1.0001122568347842,-178.799930965869
8.250847232,1.0001678717133318,-179.1025450277388
8.257627136,1.0002141145340286,-179.4058507271283
8.264406528,1.0002486350939963,-179.70969686379374
8.271186432,1.0002693234446507,179.98604719659008
8.277966336,1.0002750816474102,179.68161268532452
8.284745728,1.000265561260136,179.3772095606403
8.291525632,1.000241293915213,179.07302090364968
8.298305024,1.00020357258798,178.76923594424136
8.305084928,1.0001545029691838,178.4660634690356
8.31186432,1.0000967717576632,178.1635993656503
8.318644224,1.0000337980598677,177.86195098540065
8.325423616,0.9999688771334242,177.5611805285937
8.33220352,0.9999055862923254,177.26127374142905
8.338982912,0.9998476755141781,176.96216829824948
8.345762816,0.9997982683377902,176.66379895878933
8.352542208,0.9997600558029943,176.36603140212316
8.359322112,0.9997353335158013,176.06870714893304
8.366101504,0.9997253789007253,175.77157859635562
8.372881408,0.9997306866596881,175.4745128995944
8.3796608,0.999751114509721,175.17723482013895
8.386440704,0.9997854864061252,174.8796209372977
8.393220096,0.9998319113618692,174.5814277955985
8.4,0.9998877462444449,174.28254905856753
8.406779904,0.9999499314974264,173.98283037537652
8.413559296,1.0000149391362332,173.68226196538004
8.4203392,1.000079213397266,173.38081615234165
8.427118592,1.0001392781420233,173.0785417224216
8.433898496,1.000191636392097,172.77545724720116
8.440677888,1.0002332722620282,172.47172996298195
8.447457792,1.000262076893543,172.16754508873066
8.454237184,1.0002762479110006,171.8630304196062
8.461017088,1.000275126669302,171.55845532708727
8.46779648,1.0002586695969393,171.25395558571535
8.474576384,1.0002279344808869,170.94979413458134
8.481355776,1.0001845290187699,170.6461349811979
8.48813568,1.0001307134576387,170.3431269334894
8.494915072,1.0000697405113503,170.04089497961627
8.501694976,1.0000047714292104,169.7395243783789
8.508474368,0.9999395879100795,169.4390340510493
8.515254272,0.9998778616398784,169.13940563319213
8.522033664,0.9998228149488549,168.84056356617168
8.528813568,0.9997777439262042,168.542388858778
8.535593472,0.9997449388341214,168.24477058468813
8.542372864,0.9997265528385127,167.94748489929387
8.549152768,0.9997233779789184,167.65033704669423
8.55593216,0.999735641913771,167.35312419749263
8.562712064,0.9997628188558861,167.0556521995812
8.569491456,0.9998031855993619,166.75772235126215
8.57627136,0.9998545512942523,166.4591607080064
8.583050752,0.9999141142008422,166.15984800809747
8.589830656,0.9999786881696805,165.85964747891617
8.596610048,1.0000444158885236,165.5585929416503
8.603389952,1.000107820048734,165.25664164510943
8.610169856,1.0001651814032448,164.95388042153735
8.616948736,1.0002136123132352,164.6503917054842
8.62372864,1.000249991477353,164.34628289919644
8.630508544,1.0002727275258427,164.041802117237
8.637288448,1.0002801775166468,163.7370893824577
8.644067328,1.0002720846208284,163.43241225078708
8.650847232,1.0002489004939694,163.1279199958955
8.657627136,1.0002119409972938,162.82383420045892
8.66440704,1.0001630730743765,162.52033054144115
8.671186944,1.000105172478943,162.21755129436428
8.677965824,1.0000413374922703,161.91559368691324
8.684745728,0.9999752593634214,161.61450429328602
8.691525632,0.9999105362599086,161.31432563990543
8.698305536,0.9998508537830507,161.01499298782832
8.705084416,0.9997995188008734,160.71639825824298
8.71186432,0.9997592265125499,160.4184404481092
