freq,mag,phase
6.0,0.9988816756654347,143.66629431095865
6.002286592,0.9988102347776254,143.53684798410924
6.004572672,0.9988144413254958,143.40794410848235
6.006859264,0.9988940824083126,143.27846189062132
6.009145344,0.9990438915794855,143.14738491362132
6.011431936,0.9992547143906186,143.01372542235234
6.013718016,0.9995128264311107,142.87671535374955
6.016004608,0.9998021411490726,142.7357635747034
6.018290688,1.0001038975235097,142.59057027249565
6.02057728,1.0003994278781647,142.44111494301444
6.022863872,1.0006696991847688,142.28757298479206
6.025149952,1.000897601976479,142.13043136808727
6.027436544,1.0010686643493238,141.97050309907354
6.029722624,1.0011722470671087,141.80858733757034
6.032009216,1.0012015058273138,141.64581050521517
6.034295296,1.001154643975261,141.4831721180116
6.036581888,1.0010346331225586,141.3218283669782
6.03886848,1.0008491155144963,141.16268231272855
6.04115456,1.0006095707954434,141.0067283841015
6.043441152,1.0003313160927447,140.8545898400193
6.045727232,1.0000319030701574,140.7066886272943
6.048013824,0.9997301961453338,140.5631958947449
6.050299904,0.9994456412009403,140.42406526846364
6.052586496,0.9991961252996335,140.2888301448753
6.054872576,0.9989975534894412,140.15695111459348
6.057159168,0.9988626126769983,140.02755347582993
6.05944576,0.998799833983412,139.89966274493014
6.06173184,0.9988134494801191,139.77218124420514
6.064018432,0.9989023101675737,139.64400272752675
6.066304512,0.9990610228010791,139.51409670015795
6.068591104,0.9992795900030134,139.3814665994289
6.070877184,0.9995441036889948,139.24538885419494
6.073163776,0.9998374493986842,139.10530267003608
6.075450368,1.0001412956921039,138.96090322923047
6.077736448,1.0004364462517668,138.81223254062058
6.08002304,1.0007038766800285,138.65946542532
6.08230912,1.0009269776828622,138.50326085740375
6.084595712,1.0010912339736078,138.3442777827736
6.086881792,1.0011865335330612,138.1834326108302
6.089168384,1.0012066808241626,138.02181719043875
6.091454464,1.0011502746741192,137.86050677223392
6.093741056,1.0010210273800628,137.7005904640273
6.096027648,1.0008270669510373,137.54309343428963
6.098313728,1.0005805289643284,137.38879604655756
6.10060032,1.0002971176747393,137.23842413195808
6.1028864,0.9999945671432329,137.0923865241498
6.105172992,0.9996924617471601,136.95076642513905
6.107459072,0.9994094288965134,136.81344757022205
6.109745664,0.9991639686287734,136.68008453996728
6.112032256,0.9989715489374269,136.54992731694568
6.114318336,0.9988442827957674,136.42216494065343
6.116604928,0.9987904122824638,136.29577650336162
6.118891008,0.998813647702278,136.169703966438
6.1211776,0.9989121716813737,136.04275188654668
6.12346368,0.9990799036375606,135.91393898813936
6.125750272,0.9993062453673734,135.78229306313813
6.128036352,0.9995766376320141,135.6470799324729
6.130322944,0.999874246786007,135.50779713093135
6.132609536,1.0001797945519224,135.36415952903556
6.134895616,1.000474178481993,135.2162238716457
6.137182208,1.0007385617804432,135.0642765421961
6.139468288,1.0009562124231461,134.9088642415634
6.14175488,1.0011134475264225,134.7507854487204
6.14404096,1.001200080284685,134.59101557901715
6.146327552,1.0012107025007257,134.4305588645271
6.148614144,1.0011445681156543,134.27054446518932
6.150900224,1.0010059407257652,134.11207703322734
6.153186816,1.0008035941329312,133.95611794463622
6.155472896,1.00054998932604,133.80354622328
6.157759488,1.0002614428874432,133.65492264516655
6.160045568,0.9999561759068579,133.51069672331332
6.16233216,0.999653517401733,133.37092325573923
6.16461824,0.9993728755972635,133.23545799132023
6.166904832,0.999131694004751,133.10384378251962
6.169191424,0.9989457243946486,132.97544171985052
6.171477504,0.9988265350888479,132.84922327951685
6.173764096,0.9987821584134434,132.7243326606947
6.176050176,0.9988150358266457,132.59955508988838
6.178336768,0.9989233165847953,132.47379632271438
6.180622848,0.9991000656065473,132.3460423468147
6.18290944,0.9993342393727322,132.21533766612777
6.18519552,0.9996106769923935,132.08093042273597
6.187482112,0.9999120986971829,131.94239884246227
6.189768704,1.000219067294841,131.7994505868149
6.192054784,1.0005124157174905,131.6522065038829
6.194341376,1.0007732863641778,131.5009967531617
6.196627456,1.0009853178142238,131.34639722679438
6.198914048,1.0011347877868595,131.18919771329277
6.201200128,1.001212650637512,131.03041693113414
6.20348672,1.0012135674358549,130.8711214464151
6.205773312,1.0011375375212896,130.71239775285483
6.208059392,1.0009893048923608,130.5553547902892
6.210345984,1.0007783527181509,130.40098086165932
6.212632064,1.0005178851225833,130.25002894562604
6.214918656,1.0002245232651947,130.1031799633343
6.217204736,0.9999167068314873,129.96075309915906
6.219491328,0.9996139719536745,129.82281577377182
6.221777408,0.9993356133129926,129.68912966182492
6.224064,0.9990993877927724,129.55925354246492
6.226350592,0.998920269327805,129.43247351983376
6.228636672,0.9988097419118414,129.307893584253
6.230923264,0.998774915863063,129.18437465091418
6.233209344,0.998817837042294,129.06086584964262
6.235495936,0.9989361460048559,128.93626525039048
6.237782016,0.9991220587479813,128.8094698440962
6.240068608,0.9993638633711504,128.67961073536168
6.2423552,0.9996462472568108,128.54597274435957
6.24464128,0.9999511961741752,128.4081022927247
6.246927872,1.0002593835981886,128.26584837490495
6.249213952,1.0005513448334695,128.11925708394995
6.251500544,1.0008082152334319,127.96869987446911
6.253786624,1.0010142133093598,127.81486702328331
6.256073216,1.0011558985642512,127.65855283703227
6.258359296,1.0012242301426457,127.50074618683337
6.260645888,1.0012150858219357,127.3425535712516
6.26293248,1.0011288989177722,127.18511111058703
6.26521856,1.0009710028246621,127.02946278972725
6.267505152,1.0007515975184944,126.87657187151704
6.269791232,1.000484344932961,126.72733512276335
6.272077824,1.0001861661021973,126.58219549329586
6.274363904,0.9998760615264708,126.44152076616118
6.276650496,0.9995735633927523,126.30537785318845
6.278937088,0.9992981301616348,126.17349653869721
6.281223168,0.9990670627469627,126.04533678566433
6.28350976,0.998895273851361,125.92018669904287
6.28579584,0.9987936540722206,125.79709865876934
6.288082432,0.9987686980608518,125.67497121466648
6.290368512,0.9988220442969037,125.55265506366317
6.292655104,0.9989502838071992,125.42910585191787
6.294941184,0.99914547426373,125.30321777818706
6.297227776,0.999394932608604,125.17416493261597
6.299514368,0.9996830018746945,125.0412250826768
6.301800448,0.9999914236858711,124.90397015792334
6.30408704,1.000300467772591,124.76229532207383
6.30637312,1.0005905223475953,124.6163137690179
6.308659712,1.0008432404588778,124.46644934242885
6.310945792,1.0010426272397155,124.31329183767026
6.313232384,1.0011759152562625,124.15779746350066
6.315518464,1.0012347758835212,124.00094454141727
6.317805056,1.0012153641994095,123.84389549335216
6.320091648,1.001118652041308,123.68764640888882
6.322377728,1.000951243023152,123.53341974308715
6.32466432,1.0007232488926547,123.38206136788862
6.3269504,1.0004491929555683,123.23441298013134
6.329236992,1.000146654873687,123.0910077683564
6.331523072,0.9998345025607975,122.95211593214182
6.333809664,0.9995326249160366,122.8177404043153
6.336096256,0.9992604323880585,122.68757205469899
6.338382336,0.9990350198446518,122.56112253855042
6.340668928,0.9988708106199513,122.43752142410561
6.342955008,0.9987784624354702,122.31587577431489
6.3452416,0.9987637596555451,122.19504537881323
6.34752768,0.9988276037786248,122.07391256798665
6.349814272,0.9989661037486444,121.95135650414247
6.352100352,0.9991704049786848,121.82632562854918
6.354386944,0.9994277966165559,121.69801650871005
6.356673536,0.9997213058871345,121.5657197063193
6.358959616,1.000032826393684,121.42903883878603
6.361246208,1.0003422404726916,121.28787724988352
6.363532288,1.0006302312512085,121.14246344340557
6.36581888,1.0008783091801867,120.9931677591835
6.36810496,1.0010706363926951,120.84074049126137
6.370391552,1.0011953448240212,120.6860351609214
6.372678144,1.0012440824908537,120.53010509003501
6.374964224,1.0012140628632038,120.37410843388633
6.377250816,1.0011069449800305,120.2191247864969
6.379536896,1.0009297626963438,120.0662358381257
6.381823488,1.000693288902443,119.91640123863533
6.384109568,1.0004126406869442,119.77037430615066
6.38639616,1.0001057923590237,119.62863935481482
6.38868224,0.9997918265512624,119.49147176354941
6.390968832,0.9994910930406966,119.35883028619797
6.393255424,0.9992224295317581,119.23040085865019
6.395541504,0.9990032217715288,119.10555310487926
6.397828096,0.9988471336277555,118.98351406450756
6.400114176,0.9987643657700864,118.86324880803507
6.402400768,0.9987601319412654,118.74367161205357
6.404686848,0.9988348737477971,118.62361565106117
6.40697344,0.9989837795699783,118.50200786148561
6.409260032,0.9991972813411761,118.37777682100943
6.411546112,0.9994619552893378,118.25011176145426
6.413832704,0.9997610431612246,118.11838261647105
6.416118784,1.0000753722343618,117.98220312253117
6.418405376,1.000384913437216,117.84157267035992
6.420691456,1.0006703564675203,117.69665100100505
6.422978048,1.000913340750319,117.54789777962466
6.425264128,1.0010983871033279,117.39609350273193
6.42755072,1.0012138061617366,117.24216808115872
6.429837312,1.001252380856243,117.08715775954663
6.432123392,1.0012114947174526,116.9322045423979
6.434409984,1.0010936823520613,116.77842933525719
6.436696064,1.000906462009541,116.62688649986055
6.438982656,1.0006616371104158,116.47856980952001
6.441268736,1.0003745685527798,116.33409827203815
6.443555328,1.000063628306187,116.19406154536236
6.44584192,0.9997485479567728,116.05859292524795
6.448128,0.9994490980666271,115.92768575361956
6.450414592,0.9991845452536585,115.80090450604736
6.452700672,0.9989716639722527,115.67764122028984
6.454987264,0.9988241908548582,115.55706835649217
6.457273344,0.998751308397868,115.4381487309676
6.459559936,0.9987579895295906,115.31975889754438
6.461846016,0.9988436235072709,115.20075122836019
6.464132608,0.9990028568026532,115.07998938235448
6.4664192,0.9992255996216574,114.95650064551225
6.46870528,0.9994977967607048,114.82943341528605
6.470991872,0.9998019752008951,114.69821459896868
6.473277952,1.0001186106157796,114.56250204722105
6.475564544,1.0004281488958466,114.42226898371293
6.477850624,1.0007105408844434,114.27780168653578
6.480137216,1.0009479301150803,114.12957474637099
6.482423296,1.001125306987245,113.97840943778972
6.484709888,1.0012312726981074,113.82522267290263
6.48699648,1.0012590349027162,113.67106198580667
6.48928256,1.001207098847931,113.5171455322452
6.491569152,1.001078610844527,113.36455345962364
6.493855232,1.0008815069955834,113.21436874928062
6.496141824,1.0006281739540113,113.06750449681941
6.498427904,1.000334950800924,112.92463347464421
6.500714496,1.0000203690374623,112.7862417860162
6.503001088,0.9997041284703186,112.65246458002693
6.505287168,0.9994066002772093,112.5231934607589
6.50757376,0.9991465580395821,112.39804910928981
6.50985984,0.9989406151223079,112.27635658569021
6.512146432,0.9988021056549804,112.15718717141502
6.514432512,0.9987395896075322,112.03956710118621
6.516719104,0.9987573357606728,111.92229634355682
6.519005184,0.9988541531717727,111.80426175050465
6.521291776,0.9990239235405662,111.68430077229561
6.523578368,0.9992558179527711,111.5614519332917
6.525864448,0.9995352329841417,111.43492491082267
6.52815104,0.9998442441118562,111.30415873099865
6.53043712,1.0001632103538751,111.16885378009668
6.532723712,1.0004720434434016,111.0290135809516
6.535009792,1.0007509214566717,110.88493524876057
6.537296384,1.0009824103167666,110.73718287227956
6.539582976,1.0011515120874246,110.58657682542199
6.541869056,1.0012475559948364,110.43406615565824
6.544155648,1.0012646024320284,110.28083007910566
6.546441728,1.0012013252896907,110.12787667898702
6.54872832,1.0010617776719426,109.97647139506739
6.5510144,1.000854693017152,109.82762770516996
6.553300992,1.000593343887353,109.68218964389263
6.555587072,1.0002940359093087,109.54087037449759
6.557873664,0.9999758500165575,109.40411331938284
6.560160256,0.99965907664708,109.27198099330367
6.562446336,0.9993637457947443,109.14434620150426
6.564732928,0.9991086231769781,109.02081183812761
6.567019008,0.9989101412692595,108.9006062717889
6.5693056,0.9987808569121169,108.78282016644839
6.57159168,0.998729131888191,108.66643236756181
6.573878272,0.9987582217602491,108.55024636123487
6.576164864,0.9988662950142853,108.43308109576418
6.578450944,0.9990467307301136,108.31384242168407
6.580737536,0.9992876689470741,108.19159751469091
6.583023616,0.999574208872664,108.0655213576396
6.585310208,0.9998877079910728,107.93514972853635
6.587596288,1.000208732661368,107.80018757865692
6.58988288,1.0005164382995941,107.66064891437716
6.59216896,1.0007915079758212,107.51693431436169
6.594455552,1.0010164344932586,107.36964708103383
6.596742144,1.001176903695049,107.21955945411965
6.599028224,1.001262741066003,107.06774183056166
6.601314816,1.001268525373636,106.91529748378031
6.603600896,1.001193727673678,106.7633839680157
6.605887488,1.0010431483110023,106.61313714668493
6.608173568,1.000826236949405,106.46556679107046
6.61046016,1.0005566820897136,106.32159470976386
6.612746752,1.00025166272249,106.18183091142924
6.615032832,0.9999303053350409,106.04662338306662
6.617319424,0.9996133188936307,105.91615947241063
6.619605504,0.9993206972172943,105.79014315355884
6.621892096,0.9990710548719828,105.66813176376209
6.624178176,0.9988803632492499,105.54934543173437
6.626464768,0.9987608374061406,105.43291037494114
6.628750848,0.9987200722660867,105.317673715305
6.63103744,0.9987607477420303,105.20246878476415
6.633324032,0.9988803859827089,105.08616646360396
6.635610112,0.9990714148270265,104.96758174414992
6.637896704,0.999321431149299,104.84585839312312
6.640182784,0.9996147608469518,104.72022617856649
6.642469376,0.9999326477176476,104.59013679235156
6.644755456,1.0002550952539357,104.45541833409065
6.647042048,1.000561266939673,104.3161859609934
6.649328128,1.0008320758619254,104.17279983164664
6.65161472,1.0010501086626367,104.02587515273568
6.653901312,1.0012014788707977,103.87631440072238
6.656187392,1.0012767943240908,103.72515123042467
6.658473984,1.0012709095406265,103.57350457421826
6.660760064,1.001184422043017,103.42255052562024
6.663046656,1.0010226788004872,103.27345328921243
6.665332736,1.0007958477744665,103.12719009240583
6.667619328,1.000518430308597,102.98461915881795
6.66990592,1.0002078570291892,102.84636679982164
6.672192,0.9998838546361726,102.71276160112114
6.674478592,0.9995669278841434,102.58388222435805
6.676764672,0.9992773780997013,102.45941482979208
6.679051264,0.9990336260774263,102.33891227116027
6.681337344,0.9988512106590607,102.22155379773308
6.683623936,0.9987418698073264,102.10636986860179
6.685910016,0.9987124908305688,101.99221464859309
6.688196608,0.9987650926203252,101.8779678790361
6.6904832,0.9988963209440912,101.7624122889632
6.69276928,0.9990978560630005,101.64442402705735
6.695055872,0.9993568239121301,101.52315722912188
6.697341952,0.999656840551975,101.39783170130856
6.699628544,0.9999787498768384,101.26803102786376
6.701914624,1.0003022576775176,101.13352211302745
6.704201216,1.0006066748826907,100.99450012957024
6.706487808,1.0008725228683388,100.8513864886868
6.708773888,1.0010831486804708,100.70483834148001
6.71106048,1.00122512006964,100.55577809418584
6.71334656,1.0012893293247747,100.4052134500716
6.715633152,1.0012717272078173,100.25434766682201
6.717919232,1.0011734133136223,100.1043567578624
6.720205824,1.0010004708182343,99.95635800209605
6.722491904,1.000763857551369,99.81139236979168
6.724778496,1.000478618488811,99.67023652718778
6.727065088,1.000162650848261,99.53345609124909
6.729351168,0.9998362997596897,99.40139478620705
6.73163776,0.999520045348978,99.27406553848525
6.73392384,0.9992340951530776,99.15115176177784
6.736210432,0.9989967052731918,99.03211860297662
6.738496512,0.9988229856759627,98.91609215408123
6.740783104,0.9987240877611102,98.80211741223248
6.743069696,0.9987064755721055,98.6890156719563
6.745355776,0.9987711498401801,98.57562465633013
6.747642368,0.9989140019315178,98.46074830998988
6.749928448,0.9991260764612527,98.34332449559386
6.75221504,0.999393941655665,98.22240907760948
6.75450112,0.9997003048341371,98.09737778844861
6.756787712,1.0000259281475834,97.96771849062864
6.759073792,1.0003499998927161,97.8334404055839
6.761360384,1.0006519909203428,97.69457656585716
6.763646976,1.0009126951901453,97.55168704239675
6.765933056,1.001115468728934,97.4054510190259
6.768219648,1.001247553647144,97.25681991259881
6.770505728,1.0013005014126026,97.1068607329316
6.77279232,1.0012707979200268,96.95678707148546
6.7750784,1.0011604035890063,96.80772234438507
6.777364992,1.0009762521092487,96.66086033784414
6.779651584,1.000729960055301,96.51711871383517
6.781937664,1.0004370506223947,96.37735451814603
6.784224256,1.0001162656945495,96.24205702056786
6.786510336,0.9997878248815661,96.11152628349377
6.788796928,0.9994725904521219,95.98571983134781
6.791083008,0.9991907730928111,95.86429351593075
6.7933696,0.9989602941333108,95.74665982267692
6.79565568,0.9987957800071916,95.63193571734202
6.797942272,0.9987078336203573,95.51912115147782
6.800228864,0.9987020381585539,95.40699305746732
6.802514944,0.9987790191443304,95.29437996152723
6.804801536,0.9989337542965679,95.1801078506014
6.807087616,0.9991563358641906,95.06313978338972
6.809374208,0.9994327919563883,94.94257402199416
6.811660288,0.9997453504585317,94.81770962420538
6.81394688,1.0000742025996066,94.68820933682709
6.81623296,1.0003985148633152,94.55401155415274
6.818519552,1.0006976772829048,94.41527454955016
6.820806144,1.000952469326113,94.27257286666025
6.823092224,1.00114706790154,94.12662289669419
6.825378816,1.0012686421132841,93.97842700339498
6.827664896,1.0013098830620997,93.82904960372636
6.829951488,1.0012679451824786,93.67970821549402
6.832237568,1.0011454597923883,93.53158951010838
6.83452416,1.0009499947875928,93.38578512426567
6.836810752,1.0006941046982287,93.2433188026137
6.839096832,1.0003939159404107,93.10489114129221
6.841383424,1.0000684688277544,92.97105644024724
6.843669504,0.9997384031532933,92.84203901141869
6.845956096,0.9994247147229661,92.71772999371532
6.848242176,0.9991474506248166,92.59776469858035
6.850528768,0.9989242951168245,92.48148551512512
6.852814848,0.9987693946351586,92.36798320186246
6.85510144,0.9986927802178517,92.25624294301386
6.857388032,0.9986993478153546,92.14502440972012
6.859674112,0.9987886681449855,92.03317105879262
6.861960704,0.9989552290904212,91.91943438676192
6.864246784,0.9991883031287504,91.80284455960609
6.866533376,0.9994731762839448,91.68251049867385
6.868819456,0.9997915894603181,91.55780447878315
6.871106048,1.0001233888513414,91.4284094249567
6.87339264,1.0004473971395127,91.2942467885546
6.87567872,1.0007433141911357,91.1555871124584
6.877965312,1.0009919905615319,91.01302333409566
6.880251392,1.0011775814945547,90.86734052674689
6.882537984,1.0012886870342292,90.71951540638956
6.884824064,1.0013178182221316,90.57068920608329
6.887110656,1.0012632485169266,90.42207386533724
6.889396736,1.0011283923344527,90.27487094401253
6.891683328,1.00092192495616,90.1301645411443
6.89396992,1.0006565042860265,89.9889147300808
6.896256,1.0003492896428166,89.85184595008081
6.898542592,1.000019618732053,89.71943635359857
6.900828672,0.999688358179631,89.59186373822925
6.903115264,0.9993767143502748,89.46901594195748
6.905401344,0.9991046255220761,89.35046232412799
6.907687936,0.9988891957428068,89.2355006559158
6.909974528,0.9987443045354993,89.12320902856004
6.912260608,0.9986794370324956,89.01247031975846
6.9145472,0.9986984729681329,88.90210630983917
6.91683328,0.9988005224979606,88.79089169482435
6.919119872,0.9989788790997987,88.67765818583052
6.921405952,0.9992223498452784,88.5613754920089
6.923692544,0.9995154492689884,88.44120939312484
6.925978624,0.9998394119009569,88.31658642365274
