freq,mag,phase
6.0,0.9995423843638911,-22.547311142592246
6.014184448,0.9996391824055461,-23.048333405874512
6.028368896,0.9997528784580001,-23.550858005673486
6.042553344,0.9998779315896792,-24.055040344066747
6.056737792,1.0000086296506716,-24.560881887987414
6.07092224,1.0001395076640924,-25.068506724813812
6.085106176,1.0002647894494985,-25.577925124979966
6.099290624,1.000378777276575,-26.08892799213071
6.113475072,1.0004768658163405,-26.601436469442405
6.12765952,1.0005542379352166,-27.11517762989672
6.141843968,1.000607855299067,-27.629934707309157
6.156028416,1.0006349193993018,-28.145395120572807
6.170212864,1.0006345203682292,-28.66120255474343
6.184397312,1.0006062933210889,-29.17702087215627
6.19858176,1.0005515848874533,-29.692620428775992
6.212766208,1.0004726055043893,-30.207564654721516
6.226950144,1.0003728135553105,-30.721647628292978
6.241134592,1.0002564763083455,-31.23466056952864
6.25531904,1.0001285806760372,-31.746374720769687
6.269503488,0.9999948553438253,-32.256727938680115
6.283687936,0.9998607575287438,-32.76567009517974
6.297872384,0.9997323562767044,-33.27322100422961
6.312056832,0.9996156649027542,-33.779517326993336
6.32624128,0.9995151867348968,-34.28465834550329
6.340425728,0.9994359139368291,-34.788924764223154
6.354610176,0.9993809678153551,-35.29259862748686
6.368794112,0.9993531314599731,-35.79592611529941
6.38297856,0.9993536379491883,-36.299291496506896
6.397163008,0.9993825563267732,-36.80304275807532
6.411347456,0.9994386997439604,-37.30745035649554
6.425531904,0.9995196987453472,-37.81292099310186
6.439716352,0.9996218892603734,-38.31967085667168
6.4539008,0.9997411912072113,-38.827949487468686
6.468085248,0.9998723384538674,-39.33793698120871
6.482269696,1.0000095634980897,-39.84976084762631
6.496454144,1.0001466940505694,-40.36342798311029
6.51063808,1.0002781345764877,-40.87890794840696
6.524822528,1.0003977273742009,-41.39613732906984
6.539006976,1.0005005013465675,-41.91487934590526
6.553191424,1.0005818561064128,-42.43498735931744
6.567375872,1.0006380430191393,-42.95614373651638
6.58156032,1.000666478303412,-43.47796932687906
6.595744768,1.0006660017912055,-44.00024006137292
6.609929216,1.00063637399571,-44.522530154687324
6.624113664,1.0005790872284277,-45.044491751473714
6.638298112,1.0004962945911924,-45.56588195722356
6.652482048,1.0003913731788132,-46.08635019625245
6.666666496,1.0002693347738216,-46.60566820325756
6.680850944,1.000134945036281,-47.12366206727121
6.695035392,0.9999943999744205,-47.640191500492925
6.70921984,0.9998536961758082,-48.1552625848639
6.723404288,0.9997189027399629,-48.668899481872025
6.737588736,0.9995960778781087,-49.18113023914541
6.751773184,0.999490504718462,-49.692245095443376
6.765957632,0.9994071124887957,-50.20237291217207
6.78014208,0.9993492939320995,-50.711869642343615
6.794326016,0.9993199973370313,-51.221066276590456
6.808510464,0.9993203430471954,-51.73028673155595
6.822694912,0.999350482661891,-52.23983909882625
6.83687936,0.9994094165826694,-52.750161062620315
6.851063808,0.9994942863094561,-53.26155378205843
6.865248256,0.9996017986035776,-53.774327470355736
6.879432704,0.9997271776042278,-54.28868777193539
6.893617152,0.9998650221963873,-54.80485316742924
6.9078016,1.000009237426926,-55.322925059068304
6.921986048,1.0001536082234264,-55.84294898800686
6.936169984,1.0002918325400376,-56.36487732980102
6.950354432,1.0004177871066329,-56.88865194802292
6.96453888,1.0005260438533683,-57.414061202160184
6.978723328,1.0006117513230908,-57.94085946985282
6.992907776,1.000670940612162,-58.46875340666499
7.007092224,1.0007012175544958,-58.99736901476917
7.021276672,1.0007010062072996,-59.52644184774729
7.03546112,1.0006701209295066,-60.055588249635555
7.049645568,1.0006099625547933,-60.584361790367474
7.063830016,1.0005230480096516,-61.11253942498498
7.078013952,1.000412758371027,-61.639740069369424
7.0921984,1.0002844262093098,-62.16573662900895
7.106382848,1.0001429736963519,-62.690317388279254
7.120567296,0.9999950688110308,-63.213400416126724
7.134751744,0.9998468920264459,-63.73493036309508
7.148936192,0.9997047043697943,-64.25490988138951
7.16312064,0.9995751298070389,-64.77347559990834
7.177305088,0.9994637531816898,-65.29081605160474
7.191489536,0.9993754415662951,-65.80713106907059
7.205673984,0.9993143038179796,-66.32278546892887
7.21985792,0.9992829405653083,-66.83809063264529
7.234042368,0.9992830239974597,-67.35335674661246
7.248226816,0.9993143916554239,-67.86911400696135
7.262411264,0.9993761862342749,-68.3855695906389
7.276595712,0.9994654028395804,-68.90315841016603
7.29078016,0.9995783968720816,-69.42221956466909
7.304964608,0.9997104580317508,-69.94292379133857
7.319149056,0.9998556320948937,-70.46551862825584
7.333333504,1.0000076104127473,-70.99016218994737
7.347517952,1.0001600423745771,-71.51684731945345
7.361701888,1.000305977209614,-72.04555402541868
7.375886336,1.0004390514226917,-72.57617982852263
7.390070784,1.000553733669392,-73.10851360919364
7.404255232,1.000644504159872,-73.64233866395357
7.41843968,1.000707582496434,-74.17729404053755
7.432624128,1.0007400324742748,-74.71310887919394
7.446808576,1.000740269624986,-75.24934345332338
7.460993024,1.000708405919634,-75.78560880456202
7.475177472,1.0006454303294416,-76.32157604143872
7.48936192,1.0005540842712244,-76.85687591939849
7.503545856,1.0004382339036901,-77.3911368298622
7.517730304,1.0003028642046257,-77.92416284489238
7.531914752,1.0001537672679244,-78.45568375409579
7.5460992,0.9999974896224428,-78.98560238757406
7.560283648,0.9998408086815538,-79.51389947467436
7.574468096,0.9996905463869566,-80.04053861118336
7.588652544,0.9995532843952487,-80.5657077595874
7.602836992,0.9994352289035318,-81.08951798908952
7.61702144,0.9993412821873809,-81.61229694462101
7.631205888,0.9992759577118876,-82.13433607248348
7.645389824,0.9992421535422762,-82.65597172773225
7.659574272,0.9992414441002295,-83.17761238042829
7.67375872,0.9992739557161125,-83.69968218018487
7.687943168,0.9993384417127127,-84.22252267947002
7.702127616,0.9994321490002538,-84.74655162118366
7.716312064,0.9995510228650225,-85.272084732675
7.730496512,0.9996901288841564,-85.79941273611992
7.74468096,0.9998433989475878,-86.32869145983888
7.758865408,1.000004090732223,-86.8600973668211
7.773049856,1.0001653323984563,-87.39368570796591
7.787233792,1.0003200113218707,-87.92940345488593
7.80141824,1.0004612500612187,-88.46714545406911
7.815602688,1.000583086428827,-89.00670581279381
7.829787136,1.0006800204148187,-89.54781151868352
7.843971584,1.0007473709756636,-90.09019697164968
7.858156032,1.0007827313272104,-90.63342440735738
7.87234048,1.0007841184865618,-91.17711969257358
7.886524928,1.0007511917357377,-91.72092614519741
7.900709376,1.000685390098918,-92.26433623183466
7.914893824,1.0005895052055394,-92.80703095651631
7.92907776,1.000467536464544,-93.34869650079656
7.943262208,1.000324697983106,-93.88902005814501
7.957446656,1.000167295005906,-94.42776761148582
7.971631104,1.0000018892803089,-94.964815066049
7.985815552,0.999835779307348,-95.5001262886356
8.0,0.9996762146650341,-96.03370532069914
8.014184448,0.9995303246271289,-96.56566098022603
8.028368896,0.9994043137556212,-97.09620986989742
8.042553344,0.9993040011030255,-97.62561269378311
8.056737792,0.9992337637220426,-98.15421860818526
8.07092224,0.9991966807707929,-98.68238177317244
8.085106176,0.9991947122085912,-99.21054694040237
8.099290624,0.9992280721774257,-99.7391190401372
8.113475072,0.9992951453867993,-100.26852765541018
8.12765952,0.9993935508829059,-100.79914414071
8.141843968,0.9995188679496538,-101.33129806461852
8.156028416,0.9996657650710209,-101.86538414960293
8.170212864,0.9998278479982223,-102.40152564676886
8.184397312,0.9999981358988922,-102.93990506388457
8.19858176,1.0001693046786109,-103.48054989069566
8.212766208,1.0003337484326846,-104.02349135120215
8.226950144,1.000484454343152,-104.56856538175164
8.241134592,1.0006144932476455,-105.11558811449314
8.25531904,1.0007184150869923,-105.66426638574468
8.269503488,1.0007914838711538,-106.21427047138641
8.283687936,1.0008302312823203,-106.76519047826808
8.297872384,1.0008330680590982,-107.31662392556656
8.312056832,1.0007996118949611,-107.86813945255662
8.32624128,1.000731141210915,-108.41930156095468
8.340425728,1.000630559260664,-108.9697021801191
8.354610176,1.0005020923275416,-109.51899486934528
8.368794112,1.0003512222646371,-110.06687149214393
8.38297856,1.0001844905321682,-110.61309082154233
8.397163008,1.0000089614579537,-111.15748138388952
8.411347456,0.9998322851678366,-111.70001351695745
8.425531904,0.9996623320079956,-112.24069306182683
8.439716352,0.9995064496357371,-112.77965748650539
8.4539008,0.9993714926102967,-113.31708844258632
8.468085248,0.9992634622983754,-113.85329638780361
8.482269696,0.9991871901207273,-114.38860286978627
8.496454144,0.9991462047895886,-114.9234231855471
8.51063808,0.9991423742253996,-115.45822523974678
8.524822528,0.9991760303605491,-115.99338749761175
8.539006976,0.9992457626214534,-116.5294479373845
8.553191424,0.9993489025080732,-117.06671279925608
8.567375872,0.9994809088671952,-117.60564149286081
8.58156032,0.9996362264554579,-118.14654641820628
8.595744768,0.9998081408636766,-118.68964370756002
8.609929216,0.9999890847897329,-119.23512461611529
8.624113664,1.0001713211695282,-119.78302288866873
8.638298112,1.0003470412992792,-120.33329291849981
8.65248256,1.0005082541224224,-120.88585329069281
8.666667008,1.0006480812984249,-121.44047679702881
8.680851456,1.0007602579947448,-121.99688919808152
8.695035904,1.0008397501195228,-122.55470664029922
8.709220352,1.0008831519224444,-123.11350707825595
8.723403776,1.0008881830236744,-123.67287164884377
8.737588224,1.000854594930725,-124.2323785892421
8.751772672,1.0007836558887584,-124.79145933722766
8.76595712,1.0006782165395331,-125.34980431643268
8.780141568,1.0005428340475033,-125.90691946619312
8.794326016,1.0003831931969094,-126.46257623690767
8.808510464,1.0002062368225306,-127.01643183314108
8.822694912,1.0000194549032557,-127.5683544521569
8.83687936,0.999831081705284,-128.11829526272138
8.851063808,0.9996491489673084,-128.66622401680723
8.865248256,0.9994818745370874,-129.21230670189925
8.879432704,0.9993364770249132,-129.75672099760223
8.893617152,0.9992194645017467,-130.29979391446292
8.9078016,0.9991359915464139,-130.84187960122517
8.921986048,0.9990898334014686,-131.3834115323621
8.936170496,0.9990832969257896,-131.92485030925812
8.950354944,0.9991168363628798,-132.46667231571476
8.964539392,0.9991890691408096,-133.00937497218067
8.97872384,0.9992970233152828,-133.55334692636734
8.992908288,0.9994362066790877,-134.0990638305368
9.007091712,0.9996006222314989,-134.64683659495282
9.02127616,0.9997832246363338,-135.1968981299895
9.035460608,0.9999761232616846,-135.74948861897258
9.049645056,1.0001709619191896,-136.30464279831844
9.063829504,1.0003592615534018,-136.8623696956864
9.078013952,1.00053274497241,-137.4225050573683
9.0921984,1.0006838034232393,-137.9848398273336
9.106382848,1.000805737688396,-138.5490737744845
9.120567296,1.0008931775601766,-139.1148470842298
9.134751744,1.0009421864021297,-139.6817041061031
9.148936192,1.0009503323164899,-140.24918979582338
9.16312064,1.0009172800729287,-140.81677587257016
9.177305088,1.0008440742032652,-141.38399919298922
9.191489536,1.0007336987425488,-141.9504146898388
9.205673984,1.0005910248990526,-142.5155775959136
9.219858432,1.0004218605531419,-143.0791160038322
9.23404288,1.000233570248592,-143.64074251227328
9.248227328,1.0000343024736735,-144.20034065863894
9.262411776,0.9998325926973913,-144.7577647091731
9.276596224,0.9996371181268507,-145.31304970471336
9.290779648,0.9994567230530762,-145.86631925388457
9.304964096,0.9992990955130763,-146.41776463557989
9.319148544,0.9991714263525572,-146.96772751905362
9.333332992,0.9990792889597357,-147.5165789210294
9.34751744,0.9990268671691277,-148.064815609014
9.361701888,0.9990166805213015,-148.61287051594874
9.375886336,0.999049284854566,-149.16126830474138
9.390070784,0.9991236616064296,-149.71054630190923
9.404255232,0.9992365427529282,-150.26116965137166
9.41843968,0.999383328408585,-150.81358483381842
9.432624128,0.9995577621390539,-151.3681634467043
9.446808576,0.9997522278296814,-151.92517575677886
9.460993024,0.9999584608140176,-152.48484012626892
9.475177472,1.0001674662152011,-153.04726119104592
9.48936192,1.000370226386414,-153.61240031090358
9.503546368,1.0005577956508547,-154.18013555263605
9.517730816,1.0007219770169469,-154.7502256890817
9.531915264,1.000855617333137,-155.32237161873098
9.546099712,1.0009525586389596,-155.89619494271435
9.56028416,1.001008559792513,-156.47116308746556
9.574467584,1.0010210118236686,-157.04685601483132
9.588652032,1.0009890895799223,-157.62268361798587
9.60283648,1.000913985597191,-158.1981644256822
9.617020928,1.0007987451734273,-158.77276860297292
9.631205376,1.000648193955606,-159.3460425197185
9.645389824,1.000468652135995,-159.91761913337885
9.659574272,1.0002678161419865,-160.48716389616564
9.67375872,1.0000544306886485,-161.05447346287727
9.687943168,0.9998374976921487,-161.61946779478902
9.702127616,0.9996266255218232,-162.18212562753433
9.716312064,0.9994310283629351,-162.74257498298516
9.730496512,0.9992591034512049,-163.30103499493194
9.74468096,0.9991187117458797,-163.8578413384612
9.758865408,0.9990160095232997,-164.41340461999513
9.773049856,0.9989557215000927,-164.96821149709754
9.787234304,0.99894060668423,-165.52277145426615
9.801418752,0.9989716235525304,-166.07764655803587
9.8156032,0.999047738760506,-166.63336647215706
9.829787648,0.9991656175534038,-167.19047529410932
9.843972096,0.9993205300726626,-167.7494637025775
9.85815552,0.9995058290669896,-168.3107031079794
9.872339968,0.9997135566676457,-168.87454580513227
9.886524416,0.9999347923073977,-169.44119759462535
9.900708864,1.0001600481799646,-170.01076644492957
9.914893312,1.0003794147732927,-170.58326611606128
9.92907776,1.0005834804186688,-171.1585345167855
9.943262208,1.0007630378039936,-171.73637828904947
9.957446656,1.0009104869938572,-172.31647070767136
9.971631104,1.0010189932699667,-172.89834288337093
9.985815552,1.0010838427787851,-173.48150482470533
10.0,1.0011018045819573,-174.0654766399537
10.014184448,1.0010719748129286,-174.64963426485244
10.028368896,1.000995405109984,-175.23344727480332
10.042553344,1.000875341388994,-175.8163493070508
10.056737792,1.000716343481303,-176.39785215777596
10.07092224,1.0005254351346893,-176.9775399789752
10.085106688,1.0003106468340937,-177.55503051614974
10.099291136,1.0000812518437068,-178.1301504906333
10.113475584,0.9998470364431506,-178.7027038719062
10.127660032,0.999618235901264,-179.27272102529577
10.14184448,0.9994048538617581,-179.8403337138192
10.156027904,0.9992161583227435,179.59426888929823
10.170212352,0.9990606012257292,179.03070236013258
10.1843968,0.9989451926622427,178.4685673206773
10.198581248,0.9988751127909458,177.9073354888085
10.212765696,0.9988536231184191,177.3464493947105
10.226950144,0.9988819147701865,176.78531865872952
10.241134592,0.9989591574861516,176.22335081099894
10.25531904,0.9990820789053811,175.65995053061917
10.269503488,0.999245589949359,175.09461731460033
10.283687936,0.9994429333258108,174.52690995359464
10.297872384,0.999665508078581,173.95644307901568
10.312056832,0.9999038670676829,173.38298581634731
10.32624128,1.0001475965634232,172.8063949952702
10.340425728,1.0003862970330375,172.22666953950934
10.354610176,1.0006094795182305,171.64391384522077
10.368794624,1.0008072265250032,171.0583875411907
10.382979072,1.0009711224378222,170.47040562493524
10.39716352,1.0010935649047221,169.88046561351592
10.411347968,1.001169255906992,169.28903901881722
10.425532416,1.0011944883495476,168.69675140077703
10.43971584,1.0011679930161108,168.10418361330392
10.453900288,1.0010905790232933,167.511950147462
10.468084736,1.0009653001874883,166.92065722661542
10.482269184,1.0007973946406403,166.33084009257445
10.496453632,1.0005939741602101,165.74297269330324
10.51063808,1.0003633071960172,165.1574425675358
10.524822528,1.00011565382531,164.57451509686965
10.539006976,0.9998614897857049,163.9943713673757
10.553191424,0.9996118189337612,163.41700563969982
10.567375872,0.9993775678791963,162.84232540235874
10.58156032,0.9991690324227279,162.27006366256032
10.595744768,0.9989954317553649,161.69989295952166
10.609929216,0.9988644675627092,161.13136864594586
10.624113664,0.9987821648252404,160.56390605916394
10.638298112,0.9987524578179973,159.9969205999615
10.65248256,0.9987767801382393,159.4297778328679
10.666667008,0.9988545263174721,158.86180998161788
10.680851456,0.998982467002257,158.2924171994882
10.695035904,0.9991553413698997,157.72101394667968
10.709220352,0.9993660824160662,157.1470785338743
10.723403776,0.9996054372423256,156.57024168085363
10.737588224,0.9998633455306446,155.99016845078197
10.751772672,1.0001286481487632,155.4067513106189
10.76595712,1.0003898342578956,154.8199090659133
10.780141568,1.0006354567080236,154.2297909654807
10.794326016,1.0008550362711917,153.6366384803036
10.808510464,1.0010386703169545,153.04078317595605
10.822694912,1.0011781121043495,152.44272580954149
10.83687936,1.0012673085104902,151.84302961343528
10.851063808,1.0013018492671022,151.24230658907675
10.865248256,1.0012800788532321,150.64121585664358
10.879432704,1.0012025378555676,150.04043454978628
10.893617152,1.0010723374713073,149.44062735486602
10.9078016,1.0008947331482314,148.8423584157522
10.921986048,1.0006770808602432,148.24619605595353
10.936170496,1.0004285461625086,147.65256159545004
10.950354944,1.0001599384592474,147.06175012438345
10.964539392,0.9998825833736333,146.47396983252813
10.97872384,0.999608542429415,145.88925350328608
10.992908288,0.999349670929967,145.30752842720221
11.007091712,0.9991174881917297,144.72852204624112
11.02127616,0.9989221671113304,144.15189636273195
11.035460608,0.9987724081425405,143.5771376137929
11.049645056,0.9986750608590165,143.00364382098826
11.063829504,0.998634709412536,142.4308178973135
11.078013952,0.9986534957864198,141.85793537470272
11.0921984,0.9987308050455612,141.28426640327535
11.106382848,0.9988639282410153,140.70915122980117
11.120567296,0.9990470818197529,140.1319183834345
11.134751744,0.9992728575417246,139.55205791231867
11.148936192,0.9995314215437416,138.96905620147393
11.16312064,0.999812046416651,138.38260327136064
11.177305088,1.0001024251638155,137.79249854583188
11.191489536,1.0003900536592514,137.19866372951384
11.205673984,1.0006625839232406,136.6012515903584
11.219858432,1.0009078834454745,136.00047145026406
11.23404288,1.0011152446731169,135.39669994312763
11.248227328,1.0012755101030715,134.7904537379127
11.262411776,1.0013813194989127,134.18233443245921
11.276596224,1.0014278312944165,133.57299960804065
11.290779648,1.0014125985341384,132.96319784410878
11.304964096,1.0013358808415238,132.35364062318013
11.319148544,1.0012006218222778,131.74506487912242
11.333332992,1.0010122374929076,131.13811598133753
11.34751744,1.0007787501876337,130.53344854742463
11.361701888,1.0005095970229092,129.93146752791972
11.375886336,1.00021654309279,129.33260608030398
11.390070784,0.9999118771841561,128.7370737686642
11.404255232,0.9996089829890197,128.14493342015788
11.41843968,0.9993207824194088,127.55610584503579
11.432624128,0.9990602005978321,126.97039250803864
11.446808576,0.9988385624070978,126.38735237279687
11.460993024,0.9986657849480622,125.80647505320205
11.475177472,0.9985497568275891,125.2271496895595
11.48936192,0.9984959400644621,124.6486657242832
11.503546368,0.9985070252424416,124.0702720997703
11.517730816,0.9985830717626529,123.49116515941111
11.531915264,0.9987211112541018,122.91055439436569
11.546099712,0.9989155957576724,122.32779046450675
11.56028416,0.9991584038460554,121.7421675448171
11.574467584,0.999439410955667,121.1532287511392
11.588652032,0.9997464690521854,120.56051010525711
11.60283648,1.000066528062813,119.96380226764433
11.617020928,1.000385772647637,119.3630245880032
11.631205376,1.000690335243465,118.75824586384354
