freq,mag,phase
6.0,1.00019342341726,-178.35899002102974
6.002288128,1.0001778858706467,-178.51543541538646
6.004576768,1.0001509136481097,-178.67157016299566
6.006864896,1.0001139676672315,-178.8271920540857
6.009153536,1.0000695105592468,-178.98220302320294
6.011441664,1.0000203330112012,-179.1365447484356
6.013729792,0.9999694737496948,-179.29006189000322
6.016018432,0.9999201923958739,-179.44288202695424
6.01830656,0.9998754947323153,-179.59496790069576
6.0205952,0.9998383676758376,-179.74644131074376
6.022883328,0.999811284434894,-179.89743036096135
6.025171456,0.999795669493801,179.95193188769343
6.027460096,0.9997927963207215,179.8014656178941
6.029748224,0.9998026649125712,179.65095013093062
6.032036864,0.9998248297565882,179.50022788822506
6.034324992,0.9998576186687562,179.34916296687516
6.03661312,0.99989921578538,179.1975793405687
6.03890176,0.9999469246724845,179.04536702056916
6.041189888,0.9999976365797015,178.89246211547544
6.043478016,1.0000482522296088,178.73880694421464
6.045766656,1.0000955638430926,178.584481732677
6.048054784,1.000136350851519,178.429560828887
6.050343424,1.0001683164643558,178.27414792509947
6.052631552,1.0001891932095701,178.11836378124246
6.05491968,1.0001976858655572,177.9623574740888
6.05720832,1.0001934165050648,177.80637882349583
6.059496448,1.0001765671229035,177.6505781234495
6.061785088,1.0001481017713925,177.4951373119598
6.064073216,1.000109811591621,177.34020601552547
6.066361344,1.0000643426563092,177.1858789735275
6.068649984,1.0000143445394314,177.03229479256535
6.070938112,0.9999630141995745,176.87949317699366
6.073226752,0.9999137655398924,176.72741094776478
6.07551488,0.999869650731344,176.5760590909661
6.077803008,0.9998333413321816,176.42530514675863
6.080091648,0.9998072413835066,176.2750652987228
6.082379776,0.9997931383693053,176.1250845963786
6.084668416,0.9997916597909007,175.97531358953216
6.086956544,0.9998032821912001,175.8254537973198
6.089244672,0.999826940291219,175.6753752560659
6.091533312,0.9998612871503247,175.52490875582055
6.09382144,0.9999040304156284,175.37389863053463
6.09611008,0.9999526723710481,175.22222572883794
6.098398208,1.00000397642522,175.06987790598765
6.100686336,1.000054737963618,174.91682232652772
6.102974976,1.0001017306996802,174.76307931826656
6.105263104,1.000141826693108,174.6087144601751
6.107551232,1.000172706933543,174.45387223359987
6.109839872,1.0001924565524756,174.29868864149478
6.112128,1.000199460025536,174.14335097910194
6.11441664,1.0001934948517603,173.98798545376053
6.116704768,1.0001750709130033,173.83285717839982
6.118992896,1.0001450226435094,173.67809957585163
6.121281536,1.0001054890292023,173.52387160790548
6.123569664,1.00005886308656,173.37028222947612
6.125858304,1.0000082020178718,173.21745906853172
6.128146432,0.9999566535055616,173.06536477060575
6.13043456,0.9999073672850901,172.91407704017806
6.1327232,0.9998636415596286,172.76349380000218
6.135011328,0.9998281994029933,172.61345887841676
6.137299968,0.9998033962606286,172.4639374613085
6.139588096,0.9997907074146458,172.31471090264978
6.141876224,0.9997907506338103,172.16558451580917
6.144164864,0.9998039145307102,172.01642307866788
6.146452992,0.9998291735519492,171.86696855246294
6.148741632,0.9998650570673714,171.717132522826
6.15102976,0.9999090609955175,171.5667192576397
6.153317888,0.9999585164947007,171.41567661726015
6.155606528,1.0000103184555433,171.26389250973781
6.157894656,1.0000611858918738,171.11141365293798
6.160183296,1.000107885282562,170.95822126236985
6.162471424,1.0001473127721403,170.80448508196702
6.164759552,1.0001772463910585,170.65022316550213
6.167048192,1.0001954460125508,170.495643273651
6.16933632,1.0002010310698977,170.34094890393922
6.17162496,1.0001935942094096,170.1862735479908
6.173913088,1.0001733087598923,170.03178948118014
6.176201216,1.000141822846942,169.87774869897308
6.178489856,1.0001010874908067,169.72427430503834
6.180777984,1.0000533707765977,169.57144130633725
6.183066112,1.0000019370905109,169.41938822011497
6.185354752,0.999950033454651,169.26806974324964
6.18764288,0.9999009488221535,169.1175411894073
6.18993152,0.9998578378905135,168.9677001591119
6.192219648,0.9998232876326442,168.8184577705254
6.194507776,0.9997996272875922,168.6696834616455
6.196796416,0.9997883525037546,168.52116399042376
6.199084544,0.9997901769252243,168.37274618658716
6.201373184,0.9998050680333057,168.2242558427281
6.203661312,0.999831883755314,168.07548137112403
6.20594944,0.9998692173311349,167.92625921340615
6.20823808,0.9999143756105956,167.77648292748412
6.210526208,0.9999647462157875,167.6260286414925
6.212814848,1.0000170743282417,167.47481668643272
6.215102976,1.0000679480637233,167.3229338389277
6.217391104,1.0001141726693883,167.17036009581162
6.219679744,1.0001529834678275,167.0171956041887
6.221967872,1.0001816499484726,166.86358590901614
6.224256512,1.0001985513587761,166.70963669014688
6.22654464,1.000202503150698,166.5555781865744
6.228832768,1.0001932878215307,166.40160381913114
6.231121408,1.0001714400334467,166.2478370869425
6.233409536,1.000138343056603,166.09452678286223
6.235698176,1.0000962052433238,165.9417652726138
6.237986304,1.0000474770052434,165.7897267203687
6.240274432,0.9999955022674369,165.6384347585307
6.242563072,0.999943363790582,165.48791746053405
6.2448512,0.9998944860033309,165.33816939304734
6.24713984,0.9998518628064509,165.1891338383378
6.249427968,0.9998184191902256,165.0406538797141
6.251716096,0.9997960534534944,164.89264113273632
6.254004736,0.9997862360123371,164.74484205096005
6.256292864,0.9997897372859817,164.5971462922073
6.258580992,0.9998063054347859,164.44935288783955
6.260869632,0.9998347498203475,164.30124503138745
6.26315776,0.9998733727313996,164.15266559273365
6.2654464,0.9999198252107901,164.00350569776924
6.267734528,0.9999709018691846,163.85366899853608
6.270022656,1.0000236655566637,163.7030934532235
6.272311296,1.0000746595584813,163.55181841369404
6.274599424,1.0001204899820055,163.39981992997167
6.276888064,1.0001583037398385,163.24728979422724
6.279176192,1.0001860578918387,163.0942703199369
6.28146432,1.0002014585450312,162.94098753535098
6.28375296,1.000203735293051,162.7876187279085
6.286041088,1.0001928237952182,162.63429669777653
6.288329728,1.0001693764317798,162.4812804146763
6.290617856,1.0001347591514365,162.32870343619115
6.292905984,1.000091178929792,162.17674665668488
6.295194624,1.0000414895526362,162.0254722051819
6.297482752,0.9999889318685581,161.87497303890504
6.299771392,0.9999365480796524,161.72528853844798
6.30205952,0.9998879009053215,161.57632601541752
6.304347648,0.999846066818236,161.42809151174657
6.306636288,0.9998134411284846,161.28039935631082
6.308924416,0.9997923978139189,161.13312735889858
6.311213056,0.9997844023138981,160.98608935856225
6.313501184,0.9997895883098042,160.83913794562963
6.315789312,0.9998076429220016,160.6920276139286
6.318077952,0.9998379106388476,160.54457550557265
6.32036608,0.9998780202690274,160.39666605049476
6.322654208,0.9999254984147292,160.24816161963793
6.324942848,0.9999775508378201,160.098917781385
6.327230976,1.0000306835938637,159.94896230727352
6.329519616,1.000081476202591,159.79829883647452
6.331807744,1.0001267500553856,159.64695044415663
6.334095872,1.0001638750286377,159.49501932796358
6.336384512,1.0001902182248452,159.34265197456475
6.33867264,1.0002040721531151,159.19003220154835
6.34096128,1.0002048495103382,159.03731322761143
6.343249408,1.0001922077675256,158.8847399600148
6.345537536,1.000167013381989,158.73244769045962
6.347826176,1.0001306923300246,158.58065511761544
6.350114304,1.0000859928683183,158.4294493473799
6.352402944,1.000035371430313,158.27896806534582
6.354691072,0.9999821015829965,158.12929444682126
6.3569792,0.9999295833784,157.98038434168058
6.35926784,0.999881237481276,157.8322844520382
6.361555968,0.999840048877778,157.68480640305782
6.363844608,0.99980863711683,157.5379352000441
6.366132736,0.9997889594071416,157.39143798539243
6.368420864,0.9997825405951074,157.24519200831838
6.370709504,0.9997894298104191,157.09895384880826
6.372997632,0.9998093781968225,156.95253489835616
6.375286272,0.9998411849427981,156.8057742408212
6.3775744,0.9998826987283093,156.65854558126054
6.379862528,0.9999313611018018,156.5106324728734
6.382151168,0.9999841083530138,156.36205870628163
6.384439296,1.0000376062057577,156.2127200730198
6.386727936,1.0000883475793005,156.0626698735328
6.389016064,1.0001332169445507,155.9119246337649
6.391304192,1.000169168969254,155.76063938036077
6.393592832,1.0001943104633364,155.60891727854536
6.39588096,1.0002066757290267,155.4569902618993
6.398169088,1.0002056097467982,155.3049612061925
6.400457728,1.0001912044120216,155.15309776752912
6.402745856,1.0001643668443603,155.0015532730942
6.405034496,1.000126619956501,154.85052350014539
6.407322624,1.0000805827887855,154.70009991163536
6.409610752,1.0000288295163398,154.5504504944312
6.411899392,0.9999752103928751,154.40156487711258
6.41418752,0.9999226730914179,154.25349534078183
6.41647616,0.9998745535085339,154.10621778040837
6.418764288,0.9998341348685822,153.95960011275315
6.421052416,0.9998039090955899,153.81349108734898
6.423341056,0.9997857599423535,153.66779908674854
6.425629184,0.9997809704251517,153.52226711979577
6.427917824,0.9997896807290957,153.3767901014358
6.430205952,0.9998114483433417,153.23108112834672
6.43249408,0.9998448140046117,153.0849962957651
6.43478272,0.9998878317372435,152.93843339717515
6.437070848,0.9999375549875258,152.7911861199495
6.439359488,0.9999911129246352,152.6432206262827
6.441647616,1.0000448282202625,152.49450214243797
6.443935744,1.0000954187808992,152.34506895849535
6.446224384,1.0001394987427805,152.19496792665296
6.448512512,1.0001746431559797,152.04428486820805
6.450801152,1.0001983746195362,151.89326746131803
6.45308928,1.0002091750132314,151.74199700139857
6.455377408,1.0002063617821553,151.5907005322314
6.457666048,1.0001901794693253,151.4395454836954
6.459954176,1.0001614858194907,151.2887741805485
6.462242816,1.0001222459966812,151.1384885037557
6.464530944,1.0000748853988102,150.98891809071964
6.466819072,1.0000223678921394,150.840066309408
6.469107712,0.9999681583691915,150.6920406450066
6.47139584,0.9999156361468695,150.54478380705257
6.473683968,0.999867891566519,150.398319144983
6.475972608,0.999828344181614,150.25250766752762
6.478260736,0.9997993291837998,150.10722702487348
6.480549376,0.9997827488837808,149.96231942214553
6.482837504,0.9997795904801864,149.8175512598168
6.485125632,0.9997900653541202,149.67279665174505
6.487414272,0.9998136855097339,149.52781830658265
6.4897024,0.9998487125677586,149.38243009812095
6.49199104,0.9998931173332628,149.23648951555677
6.494279168,0.9999439367009902,149.0899115280055
6.496567296,0.9999979890454642,148.94258535574366
6.498855936,1.0000520442662748,148.7945037641603
6.501144064,1.0001024535392893,148.64567088757144
6.503432704,1.0001459973561047,148.49621185912267
6.505720832,1.0001798716162955,148.34620911938035
6.50800896,1.0002022357457807,148.19583436817865
6.5102976,1.000211349664989,148.0452266365217
6.512585728,1.0002067452504584,147.89464306707285
6.514874368,1.0001886353450018,147.74422957555203
6.517162496,1.0001583869459147,147.59423585408632
6.519450624,1.0001174804319912,147.44475220707005
6.521739264,1.0000689954590491,147.29596586027867
6.524027392,1.0000155550181957,147.1479649560226
6.526316032,0.9999608051531332,147.00074760471523
6.52860416,0.9999082010821136,146.85435589283543
6.530892288,0.9998611931464566,146.7087155476488
6.533180928,0.9998225321776638,146.56372322436627
6.535469056,0.9997948217759771,146.41925443976373
6.537757184,0.9997797462276391,146.2751378452312
6.540045824,0.9997784298873451,146.13111862262903
6.542333952,0.9997908519956636,145.98711085370837
6.544622592,0.9998160577683316,145.84284722059652
6.54691072,0.9998528933276019,145.69814122094354
6.549198848,0.9998986004363094,145.55288217463712
6.551487488,0.9999504817548538,145.40693039725346
6.553775616,1.000005242325332,145.26023211345242
6.556064256,1.0000593988215474,145.11277779818258
6.558352384,1.0001094646910322,144.96460983773142
6.560640512,1.0001521866286536,144.8157489651991
6.562929152,1.000185066697427,144.66638285366733
6.56521728,1.0002059812654778,144.51667653977688
6.56750592,1.0002133996763711,144.36680251723814
6.569794048,1.0002068139750755,144.21691273634673
6.572082176,1.0001869174532336,144.06724783398286
6.574370816,1.000154850362464,143.91801025469505
6.576658944,1.0001124297546684,143.7693357938135
6.578947584,1.0000626297367086,143.62137311293213
6.581235712,1.0000084240516522,143.4741845975722
6.58352384,0.9999533704263774,143.32781725556976
6.58581248,0.9999008985849628,143.18227241825838
6.588100608,0.9998543339055476,143.037459159335
6.590389248,0.9998166124773457,142.8932965754788
6.592677376,0.9997903095795342,142.74965474419417
6.594965504,0.9997768842942824,142.6062993908765
6.597254144,0.9997774635633674,142.46307538200932
6.599542272,0.9997916044990748,142.3197791075734
6.601830912,0.9998187856402871,142.17623189342635
6.60411904,0.9998571958659657,142.03221303767688
6.606407168,0.9999042310340326,141.88758932053568
6.608695808,0.9999572553136118,141.74230181899728
6.610983936,1.0000126614223768,141.59622367794086
6.613272064,1.0000668807137636,141.44940567909197
6.615560704,1.00011660672786,141.30183888166195
6.617848832,1.0001586940142357,141.15366436136887
6.620137472,1.0001903624664492,141.00493392594126
6.6224256,1.000209539635355,140.8558851851782
6.624713728,1.0002152294481683,140.70669222574213
6.627002368,1.000206855828101,140.55754539054172
6.629290496,1.0001851201749903,140.40863483139287
6.631579136,1.0001510858321736,140.26016117681996
6.633867264,1.0001072080028408,140.11226509362353
6.636155392,1.0000561425526722,139.96512642919066
6.638444032,1.000001287363756,139.81876300039175
6.64073216,0.9999458470966656,139.6732391753385
6.6430208,0.9998934384717435,139.52852968112487
6.645308928,0.9998476575543027,139.3845606019782
6.647597056,0.9998110164196087,139.24122842307844
6.649885696,0.9997860065369161,139.0983658310352
6.652173824,0.9997743863844901,138.95580509256806
6.654462464,0.9997766712529743,138.8133746413201
6.656750592,0.9997927778404624,138.67079418246104
6.65903872,0.9998218730617631,138.5279435178632
6.66132736,0.9998619518491946,138.38460927056374
6.663615488,0.9999104103094304,138.240658859165
6.665904128,0.9999642749844392,138.09598848439035
6.668192256,1.0000200985312355,137.95055455800141
6.670480384,1.0000746269597074,137.80433030441267
6.672769024,1.000123831143508,137.6574172040798
6.675057152,1.0001648794580091,137.50984841379696
6.677345792,1.0001953491441113,137.36182111047907
6.67963392,1.0002131215736882,137.2134093951816
6.681922048,1.0002167035039202,137.06489733528988
6.684210688,1.0002064887137199,136.91649430062822
6.686498816,1.0001828395135908,136.7683446673168
6.688786944,1.0001471265441064,136.62063969028978
6.691075584,1.0001016902476139,136.47355552438688
6.693363712,1.0000495781549243,136.327220495519
6.695652352,0.9999938800729615,136.18171158020644
6.69794048,0.9999381506408984,136.03702017114756
6.700228608,0.9998859971096555,135.8931711099279
6.702517248,0.9998408168542978,135.75002724395472
6.704805376,0.9998053699612602,135.60752138404095
6.707094016,0.999781904546771,135.46545770810724
6.709382144,0.999772033111717,135.32368534071986
6.711670272,0.9997762108590563,135.18198689168818
6.713958912,0.9997942564174638,135.0401259383636
6.71624704,0.9998251830814853,134.89798666153692
6.71853568,0.9998668543586499,134.75532200363202
6.720823808,0.9999166969130565,134.61202605552916
6.723111936,0.9999714413411913,134.467983842261
6.725400576,1.0000279035785942,134.32317517406418
6.727688704,1.0000823150763671,134.17757269195843
6.729977344,1.000131174295047,134.03126056727038
6.732265472,1.0001712114044723,133.88434044864715
6.7345536,1.000200310949937,133.73693278884002
6.73684224,1.0002163066916003,133.58922430193752
6.739130368,1.0002181712621516,133.44141668116544
6.741419008,1.0002060200340965,133.2937129954976
6.743707136,1.0001802764039063,133.14630253411755
6.745995264,1.00014285145736,132.99936825811577
6.748283904,1.0000959442274622,132.8531191712592
6.750572032,1.000042673225584,132.70760351726236
6.75286016,0.9999862299632348,132.56293204842981
6.7551488,0.9999303656309864,132.41907146655834
6.757436928,0.9998784768938432,132.2760694669996
6.759725568,0.9998339824428064,132.13374848253665
6.762013696,0.999799787610622,131.99206667253102
6.764301824,0.999777798560208,131.85080164415584
6.766590464,0.999769803559122,131.7098041202594
6.768878592,0.9997758810860543,131.56884968346407
6.771167232,0.9997959698844748,131.42772300934536
6.77345536,0.9998287910294055,131.28623556442923
6.775743488,0.9998720828474706,131.1442716721346
6.778032128,0.9999232349675777,131.0016015675551
6.780320256,0.9999790467290566,130.8581924028362
6.782608896,1.0000358763605968,130.71396399087644
6.784897024,1.0000901084369438,130.56898182958176
6.787185152,1.0001383300093003,130.4233078244007
6.789473792,1.0001774782135546,130.2770156501847
6.79176192,1.000205087364953,130.13025036698545
6.79405056,1.0002194022444737,129.98322707643797
6.796338688,1.0002193074363628,129.83610512350398
6.798626816,1.0002050677725256,129.68911372035353
6.800915456,1.0001775317486605,129.54248809327837
6.803203584,1.000138252249631,129.39634933684712
6.805492224,1.0000899214233903,129.25085776441966
6.807780352,1.000035538189187,129.1061773225624
6.81006848,0.9999785151786199,128.96232590689345
6.81235712,0.9999224025933532,128.819338876398
6.814645248,0.9998709956271454,128.67712403641264
6.816933888,0.9998273299014002,128.53568353909483
6.819222016,0.9997943867037921,128.3947753110846
6.821510144,0.9997740355073311,128.25430676426984
6.823798784,0.9997677885993664,128.11408157155648
6.826086912,0.9997760095684074,127.97386181802088
6.82837504,0.9997981876591844,127.83345919840993
6.83066368,0.9998326871920059,127.69263281272907
6.832951808,0.9998777717717966,127.55131519574499
6.835240448,0.9999301908220772,127.40928983802225
6.837528576,0.9999867825413684,127.26646068960446
6.839816704,1.0000439739268272,127.12288984411715
6.842105344,1.0000980703164448,126.97850960671686
6.844393472,1.0001456020730592,126.8334372551316
6.846682112,1.000183703434705,126.68771023941584
6.84897024,1.0002097373577934,126.541634773135
6.851258368,1.0002222412048496,126.39525993766979
6.853547008,1.000220268413621,126.24881931118519
6.855835136,1.000203966052552,126.10258295981481
6.858123776,1.0001744174233427,125.95666623522456
6.860411904,1.0001333951392957,125.81131159634263
6.862700032,1.0000836345450503,125.66662037287904
6.864988672,1.0000281090101506,125.52276900050025
6.8672768,0.9999704422362455,125.37974883502459
6.86956544,0.999914411639838,125.23755975047878
6.871853568,0.9998632481552977,125.09620077800079
6.874141696,0.9998205510633903,124.95555387521807
6.876430336,0.9997888768596297,124.81548714606811
6.878718464,0.9997703304030098,124.67583077200948
6.881007104,0.9997660507251593,124.5363392341117
6.883295232,0.9997762899020565,124.39682893676053
6.88558336,0.9998004563887621,124.25712167063018
6.887872,0.999836908569192,124.11699012506767
6.890160128,0.9998835703677834,123.97626972902067
6.892448768,0.9999372569766616,123.83486316061902
6.894736896,0.9999946523779368,123.69270163879841
6.897025024,1.0000521567703808,123.54968889511166
6.899313664,1.0001060565306987,123.4059074597941
6.901601792,1.0001528562473327,123.26143303000579
6.90388992,1.0001897421598105,123.11633771803604
6.90617856,1.0002143298978867,122.97086271741838
6.908466688,1.0002248449794333,122.82515455698028
6.910755328,1.0002209034999168,122.67942831042487
6.913043456,1.0002025575851605,122.53386526200282
6.915331584,1.0001709268024541,122.38870785447304
6.917620224,1.0001282018254463,122.24414685285552
6.919908352,1.0000768267160587,122.1002592374827
6.922196992,1.0000204753044457,121.95721185561469
6.92448512,0.9999621523080059,121.81499153091312
