freq,mag,phase
6.0,1.0005136179604712,100.83733058194686
6.002286592,1.0005198726972766,100.66210827442
6.004572672,1.0004934391161706,100.48706559419394
6.006859264,1.0004364015273561,100.31267698842616
6.009145344,1.0003524008333604,100.139290586475
6.011431936,1.0002466288453904,99.96731377135346
6.013718016,1.000125857157302,99.79700801041442
6.016004608,0.9999975129548027,99.62851161731874
6.018290688,0.9998699009512577,99.46190500524608
6.02057728,0.9997508091017403,99.29709814087278
6.022863872,0.999647996224535,99.13394516277869
6.025149952,0.9995678114810115,98.97213230100147
6.027436544,0.9995153918961333,98.8113014082634
6.029722624,0.9994940384251197,98.65103721438514
6.032009216,0.999505059129879,98.49086994758727
6.034295296,0.9995480621711312,98.33033623537003
6.036581888,0.999620181502851,98.16900578175868
6.03886848,0.9997168793058016,98.00646601930997
6.04115456,0.9998320625426199,97.84242068692419
6.043441152,0.9999585011300404,97.67664796431629
6.045727232,1.0000883924783328,97.50901737590135
6.048013824,1.0002132677350186,97.33956450728034
6.050299904,1.0003256143110142,97.16845537761523
6.052586496,1.0004179640249335,96.99585822241801
6.054872576,1.000484809418685,96.82211466040171
6.057159168,1.000521582020682,96.64764601791597
6.05944576,1.0005262806452588,96.47290956969638
6.06173184,1.0004983860114178,96.29834119143632
6.064018432,1.000439587526699,96.12442192397685
6.066304512,1.000353648008639,95.95157914152813
6.068591104,1.0002458554503857,95.78014069451343
6.070877184,1.0001230385129753,95.61039892744857
6.073163776,0.9999930534865826,95.44251275852415
6.075450368,0.99986389736207,95.27652998525801
6.077736448,0.999743669232673,95.11238197523475
6.08002304,0.999640159280127,94.94986900710279
6.08230912,0.9995597728554669,94.7887200068764
6.084595712,0.9995076872814674,94.62856325437956
6.086881792,0.9994871794932085,94.4689409097171
6.089168384,0.999499613109459,94.3094186254315
6.091454464,0.9995441923475507,94.14948876906199
6.093741056,0.9996181389862293,93.98874842047485
6.096027648,0.9997168241987828,93.82677611146995
6.098313728,0.9998340179781825,93.66324157329451
6.10060032,0.9999626003645314,93.49797534094313
6.1028864,1.000093994859623,93.33080174822724
6.105172992,1.0002202853657407,93.161811705531
6.107459072,1.0003334959989527,92.99110718753212
6.109745664,1.0004262836181332,92.8189172119311
6.112032256,1.0004928609264192,92.64560232141481
6.114318336,1.000529117697296,92.4715487319228
6.116604928,1.0005326549686966,92.29723083937746
6.118891008,1.0005032854871927,92.12310244229387
6.1211776,1.000442722580824,91.94966885244345
6.12346368,1.000354832587775,91.77731824594119
6.125750272,1.0002449311448331,91.6064040020638
6.128036352,1.0001202038255288,91.43722864348042
6.130322944,0.9999881807342844,91.26991582059486
6.132609536,0.9998574808706173,91.10453272511603
6.134895616,0.9997361909556763,90.94099637365878
6.137182208,0.999631975397038,90.77912455392946
6.139468288,0.9995515007707925,90.61861490800257
6.14175488,0.9994997535977608,90.45907407488725
6.14404096,0.999480128605272,90.30009588193577
6.146327552,0.9994938316444952,90.14117714726147
6.148614144,0.9995402004215699,89.98183097966758
6.150900224,0.999616042734688,89.82163248661347
6.153186816,0.9997168180840853,89.660180921614
6.155472896,0.9998361477838453,89.49715250766764
6.157759488,0.9999665035102063,89.33234285790675
6.160045568,1.0000997852274762,89.16562310756053
6.16233216,1.0002273897822795,88.99704338174632
6.16461824,1.0003413363603022,88.82672269747972
6.166904832,1.00043469019063,88.65493260585878
6.169191424,1.0005010930181888,88.48199181122503
6.171477504,1.0005365604310783,88.30833823110332
6.173764096,1.000539034012101,88.13442117162599
6.176050176,1.0005080741858658,87.96071087340769
6.178336768,1.0004456280983378,87.78770267762106
6.180622848,1.0003555561942155,87.61582367950962
6.18290944,1.0002436111792716,87.44540972245285
6.18519552,1.0001167605333972,87.27676323063685
6.187482112,0.9999830261794401,87.11000965600415
6.189768704,0.9998507826507398,86.94519698466712
6.192054784,0.9997283942219731,86.78226081068603
6.194341376,0.9996236172733384,86.62099439381842
6.196627456,0.9995430576956609,86.4610850729173
6.198914048,0.9994917355168668,86.30215090186883
6.201200128,0.9994731213191268,86.1437728396189
6.20348672,0.9994883174242174,85.98543716027339
6.205773312,0.9995364165565491,85.82664537113929
6.208059392,0.9996142961358452,85.66697545918767
6.210345984,0.9997172188819359,85.50602171556754
6.212632064,0.9998386762650958,85.3434595710705
6.214918656,0.9999710674520802,85.17905772373182
6.217204736,1.0001059773374297,85.01275483776621
6.219491328,1.0002349655198908,84.8445484738687
6.221777408,1.0003498119295215,84.67459183064715
6.224064,1.0004433823701155,84.50315282544047
6.226350592,1.0005096541426355,84.33058177640287
6.228636672,1.000544415826227,84.15724281454327
6.230923264,1.0005456171473854,83.98371331126778
6.233209344,1.0005129533695956,83.8104051638125
6.235495936,1.0004485605162345,83.63778619296941
6.237782016,1.0003564573724146,83.4663543903559
6.240068608,1.00024233507008,83.29641744882515
6.2423552,1.0001133665803628,83.12826618064155
6.24464128,0.9999777407555702,82.9620325920659
6.246927872,0.9998440183464995,82.79778368153417
6.249213952,0.9997205512074254,82.63541378566555
6.251500544,0.9996151194615173,82.4747160276295
6.253786624,0.9995344878081434,82.31540175604889
6.256073216,0.9994837263222031,82.15706479533935
6.258359296,0.9994660825077584,81.99924352017145
6.260645888,0.9994827408843426,81.84144847031187
6.26293248,0.9995326469262541,81.68318520856006
6.26521856,0.9996125929955485,81.52401297941604
6.267505152,0.9997177194922506,81.36350866155212
6.269791232,0.999841362992019,81.20136524646372
6.272077824,0.9999757346267878,81.03737503021638
6.274363904,1.0001123740945688,80.87143031359231
6.276650496,1.0002426538094444,80.70356995518249
6.278937088,1.0003583460572785,80.53395791330631
6.281223168,1.0004521464806577,80.36281780714229
6.28350976,1.0005181620231323,80.19056676718972
6.28579584,1.000552209223245,80.01756453861847
6.288082432,1.000552049006048,79.84435400505673
6.290368512,1.0005177284305176,79.6713878160828
6.292655104,1.0004513036101395,79.49919835802122
6.294941184,1.0003569113970403,79.32815057008784
6.297227776,1.0002405902125024,79.15867425444601
6.299514368,1.000109562091993,78.99099008217664
6.301800448,0.9999720608953572,78.82526451987536
6.30408704,0.9998367991103341,78.66152409717981
6.30637312,0.99971226150852,78.49971051834471
6.308659712,0.9996062828850631,78.33956686979846
6.310945792,0.9995256704292742,78.18082026047506
6.313232384,0.9994754436650299,78.0230249380505
6.315518464,0.9994589179739964,77.86572826024747
6.317805056,0.9994770998825206,77.70845224785042
6.320091648,0.9995288937201652,77.55070317429654
6.322377728,0.9996110281782117,77.3919742934815
6.32466432,0.9997184143403696,77.23190205795702
6.3269504,0.999844253203229,77.07016834722612
6.329236992,0.9999807507602657,76.90653146282888
6.331523072,1.0001190995171079,76.7409145970599
6.333809664,1.000250660758693,76.57337580419683
6.336096256,1.000367169277933,76.40403655933811
6.338382336,1.000461186963224,76.23318690942965
6.340668928,1.0005269295274646,76.06121225213866
6.342955008,1.0005601290398114,75.88852188947946
6.3452416,1.0005585955697347,75.71561597847264
6.34752768,1.0005225100423152,75.5429758689944
6.349814272,1.0004539937051464,75.37113482165911
6.352100352,1.0003575206891997,75.20046740921576
6.354386944,1.0002387836564883,75.03139092845399
6.356673536,1.0001057493610541,74.86416722513512
6.358959616,0.9999662538917515,74.69891215194332
6.361246208,0.9998294944918278,74.53567854038792
6.363532288,0.9997038924034474,74.37436582720991
6.36581888,0.9995973125785909,74.21474518381521
6.36810496,0.9995167671520976,74.05651214438554
6.370391552,0.9994671896598147,73.89926169765502
6.372678144,0.999451812399287,73.74246585698364
6.374964224,0.9994716335404785,73.58567842997459
6.377250816,0.9995253603078813,73.42838480528667
6.379536896,0.9996096677240403,73.27008473249566
6.381823488,0.9997193662784679,73.11041158059412
6.384109568,0.9998474392798519,72.94902482809027
6.38639616,0.9999859327755624,72.78570843026148
6.38868224,1.0001259360793215,72.62040223033728
6.390968832,1.0002588235971748,72.45312739853891
6.393255424,1.0003760682778509,72.2840497110091
6.395541504,1.000470370561932,72.11347227884441
6.397828096,1.0005357585999097,71.94172414571696
6.400114176,1.0005679451312,71.76928332688453
6.402400768,1.0005650204636602,71.59665203322919
6.404686848,1.0005270689039527,71.42433727549992
6.40697344,1.0004565036207147,71.25278544117928
6.409260032,1.0003576436775574,71.08248951879486
6.411546112,1.000236720567745,70.91381057964567
6.413832704,1.0001013320233654,70.74697135280874
6.416118784,0.9999600403253568,70.5821696839196
6.418405376,0.9998217194035344,70.41942070522877
6.420691456,0.999694998905498,70.25860248372813
6.422978048,0.9995880440646804,70.09947573256284
6.425264128,0.9995075795131478,69.94173133706389
6.42755072,0.9994586786154399,69.78495520259197
6.429837312,0.9994445698736434,69.6286605801743
6.432123392,0.9994659702475355,69.47232311793191
6.434409984,0.9995218314610459,69.31543151658288
6.436696064,0.9996084915575124,69.15754641696255
6.438982656,0.9997204794415043,68.99821400119806
6.441268736,0.9998508550941962,68.83715149742224
6.443555328,0.9999913508375532,68.67412524551919
6.44584192,1.0001331815232635,68.50909091608845
6.448128,1.000267356122238,68.34204847969342
6.450414592,1.0003853508760776,68.17320095134433
6.452700672,1.0004798499075036,68.0028145773461
6.454987264,1.0005447625043222,67.83129615206906
6.457273344,1.0005759886071786,67.65908197025918
6.459559936,1.0005715570148115,67.48667272071172
6.461846016,1.000531745297896,67.31461661083773
6.464132608,1.0004589524568848,67.14338652233319
6.4664192,1.0003577441505511,66.97340487278969
6.46870528,1.0002343978253845,66.80505633565632
6.470991872,1.0000968742961742,66.6386343847276
6.473277952,0.999953610838728,66.47422246169516
6.475564544,0.9998136978001982,66.31192470702251
6.477850624,0.9996860649018742,66.1515488704409
6.480137216,0.9995786424592211,65.99289111343965
6.482423296,0.999498357764028,65.83563567483779
6.484709888,0.999450197676534,65.67931025370308
6.48699648,0.9994373320359139,65.52346320724523
6.48928256,0.9994605327084072,65.36754560599849
6.491569152,0.9995184042251579,65.21104673229978
6.493855232,0.9996073828265939,65.05350778730747
6.496141824,0.9997217791497613,64.89452170652133
6.498427904,0.9998544618711216,64.73373514804175
6.500714496,0.9999970807496763,64.5709859855645
6.503001088,1.0001406542335773,64.40614716902346
6.505287168,1.0002760760119864,64.2393240918497
6.50757376,1.0003948280397499,64.07064599975239
6.50985984,1.0004894511551965,63.900443184164956
6.512146432,1.0005539048762884,63.72910715119517
6.514432512,1.0005841085652913,63.55708109709942
6.516719104,1.0005781120476498,63.3849014002035
6.519005184,1.0005363469682707,63.21304706622639
6.521291776,1.0004611876057303,63.04206088964473
6.523578368,1.0003576303845554,62.872383787690005
6.525864448,1.0002319979195045,62.70437754403603
6.52815104,1.0000921169317623,62.53829399539004
6.53043712,0.999946943634831,62.37429101235766
6.532723712,0.9998055402279826,62.21238611170102
6.535009792,0.9996769034423537,62.0524422304917
6.537296384,0.9995690798071184,61.89423017433105
6.539582976,0.9994889125817236,61.73739205052267
6.541869056,0.9994416049085901,61.581511205103645
6.544155648,0.9994300187299104,61.42605752341539
6.546441728,0.9994550572325691,61.2705332800872
6.54872832,0.9995151118020055,61.11439402066364
6.5510144,0.9996063985017697,60.95718214406618
6.553300992,0.9997232913317179,60.798468068409385
6.555587072,0.999858365591708,60.63794832191338
6.557873664,1.0000031341219386,60.475394221152015
6.560160256,1.0001484014465387,60.31076514275977
6.562446336,1.000285107947529,60.14409125232873
6.564732928,1.000404554128244,59.97557209998489
6.567019008,1.0004992811898576,59.80551272394762
6.5693056,1.0005631470226293,59.634314276936195
6.57159168,1.0005921941992728,59.462441990596666
6.573878272,1.0005845800811572,59.29042542734918
6.576164864,1.0005407920996587,59.11878497258374
6.578450944,1.0004633541482912,58.94801589467526
6.580737536,1.00035718165409,58.77859037622652
6.583023616,1.000229119380545,58.61087925670653
6.585310208,1.000086961930144,58.44513020829795
6.587596288,0.9999398734776969,58.281478055186525
6.58988288,0.999796971577777,58.11996251698984
6.59216896,0.9996672962022337,57.960417111442794
6.594455552,0.9995590811110036,57.80261024143471
6.596742144,0.9994792320497318,57.64618443448112
6.599028224,0.999432770478698,57.49068242508456
6.601314816,0.9994225962957168,57.33561326117864
6.603600896,0.9994494628630347,57.1804536299321
6.605887488,0.9995117697312403,57.02464649382313
6.608173568,0.9996055576201989,56.867713138535215
6.61046016,0.9997249193672711,56.7092389000651
6.612746752,0.9998624044082384,56.548940659159555
6.615032832,1.0000092339959565,56.386576390101894
6.617319424,1.0001563134835811,56.22207752625151
6.619605504,1.0002942224949622,56.05554553779484
6.621892096,1.0004143441065978,55.88712780596286
6.624178176,1.000509120287992,55.71717732918176
6.626464768,1.0005724538847982,55.54606445416328
6.628750848,1.0006003568957114,55.374316046964644
6.63103744,1.0005910189034466,55.20243480500431
6.633324032,1.0005451008773716,55.03096705184567
6.635610112,1.0004653231580731,54.860401292781326
6.637896704,1.0003567673217182,54.69119431005766
6.640182784,1.0002260750225809,54.52374436424757
6.642469376,1.000081787224205,54.35829648744294
6.644755456,0.999932595048614,54.19497517998456
6.647042048,0.9997881653430036,54.03380886814776
6.649328128,0.9996575781091447,53.87461750559407
6.65161472,0.9995490296232498,53.71720060304903
6.653901312,0.9994694057879281,53.56113974338638
6.656187392,0.9994238869312467,53.406021022812105
6.658473984,0.9994152255712677,53.251300575868036
6.660760064,0.9994440254209674,53.09643744051344
6.663046656,0.9995086795246666,52.940919372038536
6.665332736,0.9996049255691097,52.78423787800971
6.667619328,0.999726852983969,52.6260076791178
6.66990592,0.9998667757077276,52.46586622401764
6.672192,1.0000157598550357,52.3036338290423
6.674478592,1.0001645517683553,52.139251861335104
6.676764672,1.0003037560922319,51.97280017866817
6.679051264,1.000424586910376,51.804467022896816
6.681337344,1.0005192686557614,51.63457317123611
6.683623936,1.0005820315559288,51.463536816716164
6.685910016,1.0006087395392838,51.29187260912119
6.688196608,1.0005976337688964,51.120084088640496
6.6904832,1.0005495668263773,50.94874706336609
6.69276928,1.0004673222079814,50.778353395846075
6.695055872,1.0003561735960327,50.609329230148006
6.697341952,1.000222994635902,50.44212704455975
6.699628544,1.0000762856116105,50.276931051273
6.701914624,0.9999251304091183,50.113921022115676
6.704201216,0.9997791861248261,49.953039927794684
6.706487808,0.999647610174498,49.79420311767658
6.708773888,0.9995387697224148,49.63711730057018
6.71106048,0.99945954464411,49.481413902829765
6.71334656,0.9994149311762351,49.326622961359455
6.715633152,0.9994077837548427,49.17221646452543
6.717919232,0.999438695300425,49.01763641347543
6.720205824,0.9995056411365855,48.862379398969814
6.722491904,0.9996044685121369,48.705915369067505
6.724778496,0.9997289239094234,48.547860263184965
6.727065088,0.9998713365722925,48.38785087527187
6.729351168,1.0000225475899602,48.225732500433566
6.73163776,1.0001731644195873,48.06141800484723
6.73392384,1.0003135620757524,47.895003344338996
6.736210432,1.000434974617848,47.72671559181875
6.738496512,1.000529611937149,47.55683814091815
6.740783104,1.0005916746760173,47.38585390744068
6.743069696,1.000617119372602,47.21424212120264
6.745355776,1.000604224584805,47.04251023166707
6.747642368,1.0005538765091717,46.87126800948405
6.749928448,1.0004691620267223,46.70098439645828
6.75221504,1.0003554010781837,46.53215860190768
6.75450112,1.0002196804307348,46.36512715926747
6.756787712,1.0000705598967303,46.20017926382604
6.759073792,0.9999174510014293,46.03741361768665
6.761360384,0.9997700203435501,45.876845687912024
6.763646976,0.9996374719614988,45.71830429635053
6.765933056,0.9995283588079844,45.561542214652576
6.768219648,0.9994494507786615,45.406141703939156
6.770505728,0.9994058691385423,45.25165313427478
6.77279232,0.9994003318946082,45.097511665066456
6.7750784,0.9994333037289534,44.94320707350573
6.777364992,0.9995026124598458,44.788149203613806
6.779651584,0.9996040785220403,44.63186685022171
6.781937664,0.9997312453574303,44.47394329963706
6.784224256,0.9998760809738758,44.3140319064466
6.786510336,1.0000294749141287,44.15199279057971
6.788796928,1.000181834774531,43.987708762256474
6.791083008,1.000323420590068,43.821312064426856
6.7933696,1.0004454476538178,43.653011582914374
6.79565568,1.000540081408966,43.48314900564208
6.797942272,1.0006013958160485,43.31215047659062
6.800228864,1.000625433204416,43.14052840625557
6.802514944,1.000610700196507,42.96886021271273
6.804801536,1.0005580654542876,42.79766489975933
6.807087616,1.0004707560997677,42.62748983083716
6.809374208,1.0003543281163003,42.45878000887542
6.811660288,1.0002160215199674,42.291929066723426
6.81394688,1.0000645764864673,42.12717130397966
6.81623296,0.9999094204416458,41.96464059858891
6.818519552,0.9997604659234071,41.80434580310382
6.820806144,0.9996271421346203,41.6460755214212
6.823092224,0.9995176974192804,41.48958597313581
6.825378816,0.999439312484593,41.33446713609682
6.827664896,0.999396770406987,41.18022859097504
6.829951488,0.9993928698056442,41.02635498815373
6.832237568,0.9994280044846017,40.87223989902118
6.83452416,0.9994998428085384,40.71738135685985
6.836810752,0.9996038876521638,40.56122980840206
6.839096832,0.9997337599527176,40.40341558877183
6.841383424,0.9998811254050669,40.24356541564231
6.843669504,1.000036809051474,40.081546167830915
6.845956096,1.0001909061223273,39.91727320688296
6.848242176,1.0003337291981316,39.750850321688674
6.850528768,1.0004562746631338,39.58251415718538
6.852814848,1.0005507803545262,39.41258452485376
6.85510144,1.0006112873262094,39.24156575991009
6.857388032,1.0006340160344933,39.06991302604095
6.859674112,1.0006173361815263,38.89823798742333
6.861960704,1.000562296786521,38.72705712730944
6.864246784,1.0004724045450006,38.55694086452414
6.866533376,1.0003532440586036,38.38834091204199
6.868819456,1.0002122636610273,38.221629334187796
6.871106048,1.000058408357537,38.05704384143308
6.87339264,0.999901293654294,37.894714320600706
6.87567872,0.9997508178239375,37.734621124917254
6.877965312,0.9996165236369925,37.576611859174555
6.880251392,0.9995068978772517,37.42036841060144
6.882537984,0.9994289687317469,37.265502435452746
6.884824064,0.9993875300532472,37.111494202152215
6.887110656,0.9993854487741847,36.95782004776475
6.889396736,0.9994226767094043,36.80390380976166
6.891683328,0.9994970335299143,36.64917985562264
6.89396992,0.9996039138257397,36.493137950862
6.896256,0.9997364438658838,36.33538643934826
6.898542592,0.9998863763480957,36.17557792095515
6.900828672,1.0000442166901935,36.01352904334145
6.903115264,1.0002000642645918,35.84922485441876
6.905401344,1.0003440927233445,35.682725163377405
6.907687936,1.0004671249007608,35.51431195349244
6.909974528,1.0005615752558643,35.344310872989816
6.912260608,1.0006212225250402,35.17320551317019
6.9145472,1.0006423718568334,35.001511079562654
6.91683328,1.0006236488419977,34.829784532638186
6.919119872,1.0005662327899632,34.65861712220474
6.921405952,1.0004737719901944,34.48852802975685
6.923692544,1.0003517795171077,34.31998694937901
6.925978624,1.0002082032434556,34.15336532479302
6.928265216,1.0000518814310546,33.98892081356711
6.930551808,0.999892787829767,33.82677318752731
6.932837888,0.9997407950047548,33.666887889035515
6.93512448,0.9996056969394582,33.50906803493564
6.93741056,0.9994959642747534,33.35305975250884
