freq,mag,phase
6.0,0.9997210625150844,-63.71983602648898
6.002286592,0.9995957817737618,-63.82907532961316
6.004572672,0.9994975201351614,-63.936728390945696
6.006859264,0.9994312319585582,-64.0431837046538
6.009145344,0.999401212797357,-64.14892780793808
6.011431936,0.9994092746295433,-64.25459902439547
6.013718016,0.9994547373707071,-64.36063711152467
6.016004608,0.9995351890910592,-64.46764123835396
6.018290688,0.9996452786394748,-64.57600229205184
6.02057728,0.9997777379318102,-64.68622404959157
6.022863872,0.9999244975494348,-64.79841390399409
6.025149952,1.0000760283916368,-64.91286357320362
6.027436544,1.0002226843005175,-65.02945214743116
6.029722624,1.0003552466875887,-65.14811453851433
6.032009216,1.000465080284336,-65.26860284212249
6.034295296,1.0005454819963164,-65.39043617729547
6.036581888,1.0005910049649862,-65.51320946303152
6.03886848,1.000598970680076,-65.63640288262414
6.04115456,1.0005687854485357,-65.75946406005964
6.043441152,1.0005025063547501,-65.88185862740016
6.045727232,1.0004040101637373,-66.00305830763011
6.048013824,1.0002798586749826,-66.12266418792352
6.050299904,1.0001376617694375,-66.24033333171452
6.052586496,0.9999868555549507,-66.3558738642352
6.054872576,0.9998367865794238,-66.46927759228268
6.057159168,0.9996968735764914,-66.580548606375
6.05944576,0.999576327393986,-66.68995688704737
6.06173184,0.9994826689075418,-66.79782651960112
6.064018432,0.999421836278275,-66.9045930163413
6.066304512,0.9993981020335874,-67.01077391726048
6.068591104,0.9994124712144767,-67.11682852418919
6.070877184,0.9994641508672145,-67.22343412558912
6.073163776,0.9995502183755788,-67.33107616243376
6.075450368,0.999664733861098,-67.44016759616326
6.077736448,0.9998006596920408,-67.55108698615673
6.08002304,0.9999492175646176,-67.66416041232583
6.08230912,1.0001011394741524,-67.77943200245825
6.084595712,1.0002464340388502,-67.8968722070722
6.086881792,1.00037618026097,-68.01632271737013
6.089168384,1.000482104744499,-68.1374887834947
6.091454464,1.000557242300156,-68.26000614701705
6.093741056,1.0005969127278902,-68.38336182587526
6.096027648,1.0005985655013188,-68.50708788943568
6.098313728,1.000562002955678,-68.63055038833244
6.10060032,1.0004897719856154,-68.75322442084371
6.1028864,1.0003863942741298,-68.87466742973433
6.105172992,1.000258243333351,-68.99444350507348
6.107459072,1.0001137214805418,-69.11226855415629
6.109745664,0.9999618788232048,-69.22792380831662
6.112032256,0.9998121990996689,-69.3413967356117
6.114318336,0.9996745524951108,-69.45277717754303
6.116604928,0.9995576600494768,-69.56232996967867
6.118891008,0.9994687206759775,-69.67043992996692
6.1211776,0.999413572268652,-69.77747196701952
6.12346368,0.9993959546338368,-69.88400568557691
6.125750272,0.9994166846977981,-69.99060210016049
6.128036352,0.9994745789044448,-70.09775880979953
6.130322944,0.9995659242231089,-70.20600368805596
6.132609536,0.9996848736627725,-70.31586416878383
6.134895616,0.9998239861359427,-70.42756753848613
6.137182208,0.9999742545382473,-70.54139860709185
6.139468288,1.00012624741768,-70.65746466854317
6.14175488,1.000270004703677,-70.77572895597996
6.14404096,1.0003967915818102,-70.8959255619382
6.146327552,1.0004982914173055,-71.01784358026076
6.148614144,1.000568062093291,-71.14098915259076
6.150900224,1.0006017688938382,-71.26493959560617
6.153186816,1.000597047724998,-71.3891212189866
6.155472896,1.0005542552614686,-71.51296500126496
6.157759488,1.0004764615347665,-71.63596025615954
6.160045568,1.0003681604563974,-71.75763899212767
6.16233216,1.0002363496561886,-71.8775303249047
6.16461824,1.0000894858165765,-71.99544283875908
6.166904832,0.9999368133012531,-72.11119220486317
6.169191424,0.9997882045603447,-72.22473062526954
6.171477504,0.9996528096095623,-72.33627046463236
6.173764096,0.9995396951220754,-72.44597328569678
6.176050176,0.9994557581819367,-72.55428330857113
6.178336768,0.9994065064641788,-72.66164478624385
6.180622848,0.9993949194921992,-72.7685629758751
6.18290944,0.9994220361494617,-72.87561379954808
6.18519552,0.9994857271800369,-72.98332647631943
6.187482112,0.9995823845232168,-73.09226461016168
6.189768704,0.9997055999285756,-73.20278261343809
6.192054784,0.9998474970913576,-73.31525403930266
6.194341376,0.999999240121269,-73.4298797219295
6.196627456,1.00015086027025,-73.54677694468033
6.198914048,1.0002930888337362,-73.66580147633056
6.201200128,1.000416690654154,-73.78680388362311
6.20348672,1.0005135609251445,-73.90939915996834
6.205773312,1.0005778240398482,-74.03319622095106
6.208059392,1.000605507168232,-74.15767416832614
6.210345984,1.0005944796762651,-74.28227617762391
6.212632064,1.0005456256443488,-74.40649610079389
6.214918656,1.0004621938638998,-74.52973133433748
6.217204736,1.0003490372834156,-74.651603971809
6.219491328,1.0002138720383307,-74.77163905799705
6.221777408,1.0000650212003162,-74.8896596534032
6.224064,0.999911737380029,-75.00549208558374
6.226350592,0.9997641843064418,-75.11912961575118
6.228636672,0.9996316129558813,-75.23074663196068
6.230923264,0.9995223177520337,-75.34063478449808
6.233209344,0.9994435860789168,-75.44913736415556
6.235495936,0.9994000758749776,-75.55679346442132
6.237782016,0.9993949485965364,-75.66406454517475
6.240068608,0.9994281876920834,-75.77161489634199
6.2423552,0.9994977769692566,-75.87991212384875
6.24464128,0.9995995552214862,-75.98946593684123
6.246927872,0.9997268478345738,-76.10071738753354
6.249213952,0.9998714657489721,-76.21394807329557
6.251500544,1.00002423471801,-76.32939611394451
6.253786624,1.0001754997756065,-76.44701898503337
6.256073216,1.0003156833587472,-76.56683336544839
6.258359296,1.0004358016681272,-76.68855554684039
6.260645888,1.0005281283283054,-76.81184422505093
6.26293248,1.0005868943809706,-76.93622957451595
6.26521856,1.0006083256189962,-77.06124856117242
6.267505152,1.000591103236788,-77.18623516588717
6.269791232,1.0005361254061134,-77.31081985914716
6.272077824,1.0004472103441695,-77.43433827960973
6.274363904,1.0003296265844428,-77.55633914488921
6.276650496,1.0001909885718845,-77.67653548424828
6.278937088,1.0000403397449849,-77.79458630420382
6.281223168,0.9998869748385273,-77.91045781019821
6.28350976,0.9997406521080316,-78.02420032632213
6.28579584,0.9996108745647339,-78.13594906228325
6.288082432,0.9995059665090952,-78.24596479279312
6.290368512,0.9994322543514848,-78.35469892162729
6.292655104,0.9993945915958743,-78.46265571130688
6.294941184,0.9993956434393403,-78.5703393040784
6.297227776,0.9994352194260709,-78.67835861605512
6.299514368,0.9995106818544149,-78.7872101801775
6.301800448,0.9996174496523653,-78.89739314336752
6.30408704,0.9997484136219081,-79.00938629835666
6.30637312,0.9998954934303204,-79.12336580621775
6.308659712,1.0000492437489537,-79.23958382934087
6.310945792,1.000199892096049,-79.35798352805703
6.313232384,1.0003377569785512,-79.47857715066127
6.315518464,1.000454182095742,-79.60098817751363
6.317805056,1.0005418316622703,-79.72490846294578
6.320091648,1.0005948163997345,-79.84988622929997
6.322377728,1.0006100788365515,-79.97537673084157
6.32466432,1.0005866151849132,-80.10079077391575
6.3269504,1.0005257163501153,-80.22567143347011
6.329236992,1.0004314251542534,-80.3493841369579
6.331523072,1.0003094617670432,-80.4715529731025
6.333809664,1.0001679415281122,-80.59182895416455
6.336096256,1.0000156707354788,-80.71000147477669
6.338382336,0.9998622186330338,-80.82589646921717
6.340668928,0.9997174810798068,-80.939687770979
6.342955008,0.99959079028466,-81.05151872349015
6.3452416,0.9994901455561384,-81.16173963737145
6.34752768,0.9994217836411021,-81.27067648381703
6.349814272,0.9993903345442963,-81.37893568834795
6.352100352,0.9993976958589752,-81.48699927736257
6.354386944,0.9994432100821877,-81.59549988544755
6.356673536,0.9995243135565296,-81.70492931772013
6.358959616,0.9996359854190554,-81.81575419742529
6.361246208,0.999770540781941,-81.92842680139016
6.363532288,0.9999198340521561,-82.04317402843147
6.36581888,1.0000743036038129,-82.16012944490876
6.36810496,1.0002238590568098,-82.27935946872245
6.370391552,1.0003593369408785,-82.4006211722602
6.372678144,1.000471944038689,-82.52373708755783
6.374964224,1.0005546980654114,-82.64830708593227
6.377250816,1.000601969110489,-82.77384027719329
6.379536896,1.0006109594004062,-82.89978284689082
6.381823488,1.0005811580307402,-83.02556824594595
6.384109568,1.0005143455929328,-83.15072643705119
6.38639616,1.0004149232820339,-83.2746441844368
6.38868224,1.0002888513649941,-83.39695714296379
6.390968832,1.0001444675842845,-83.51731211854784
6.393255424,0.9999908515042847,-83.63549952213202
6.395541504,0.9998377276097211,-83.75148717047641
6.397828096,0.999694955506357,-83.86532584534247
6.400114176,0.999571378132794,-83.97726224568324
6.402400768,0.9994751245988255,-84.08755723658338
6.404686848,0.9994122443684879,-84.1967505873677
6.40697344,0.9993868781341992,-84.30531433282377
6.409260032,0.9994005454608422,-84.4137480475367
6.411546112,0.9994522904443234,-84.52274608468396
6.413832704,0.9995390113145957,-84.63272539985078
6.416118784,0.9996551393494763,-84.74422234104357
6.418405376,0.9997931077887687,-84.85757122452684
6.420691456,0.9999443876565935,-84.97306700869838
6.422978048,1.0000991839688558,-85.09080601711258
6.425264128,1.000247752628917,-85.21074448499385
6.42755072,1.000380544354322,-85.33274760084186
6.429837312,1.0004891305275285,-85.45655584452825
6.432123392,1.0005665974329307,-85.58169520141429
6.434409984,1.0006081162597666,-85.70773820583399
6.436696064,1.000610914778989,-85.83409533245579
6.438982656,1.0005749245007778,-85.96028614680259
6.441268736,1.00050229530003,-86.08566084008618
6.443555328,1.000397612336662,-86.20975188090408
6.44584192,1.000267783575506,-86.33219189448238
6.448128,1.0001207482839858,-86.45260046067341
6.450414592,0.9999660230847057,-86.57080372536761
6.452700672,0.9998133733500704,-86.68682857729794
6.454987264,0.999672547320161,-86.80072311022187
6.457273344,0.9995526474927398,-86.91272149141173
6.459559936,0.999461084320539,-87.02318236646244
6.461846016,0.9994037198420627,-87.13258472524683
6.464132608,0.9993844403400971,-87.24142039582404
6.4664192,0.9994042909343939,-87.35030751718668
6.46870528,0.9994621956409491,-87.45978203531534
6.470991872,0.9995543402246606,-87.57030876398977
6.473277952,0.9996748828765797,-87.68244387787098
6.475564544,0.9998160970760376,-87.79647172506331
6.477850624,0.9999690302357261,-87.91270620186236
6.480137216,1.0001240635487543,-88.03116637467285
6.482423296,1.0002711193502123,-88.15185725607124
6.484709888,1.0004010244886634,-88.27455356078858
6.48699648,1.000505379738155,-88.39897649094662
6.48928256,1.0005777050807354,-88.52473896996463
6.491569152,1.0006132842528945,-88.65123217826385
6.493855232,1.0006098598009734,-88.77803928236708
6.496141824,1.0005675693284948,-88.90451793925274
6.498427904,1.000489283276553,-89.03012192613232
6.500714496,1.0003797993005141,-89.15436240655956
6.503001088,1.00024608087608,-89.276863858713
6.505287168,1.000096807840733,-89.39734119749983
6.50757376,0.9999412080723038,-89.51556526334124
6.50985984,0.9997892839382919,-89.63157791920459
6.512146432,0.9996507414877892,-89.74552760203325
6.514432512,0.9995345358203936,-89.85757941271213
6.516719104,0.9994477381937474,-89.96818906041179
6.519005184,0.9993962324945466,-90.07781149576195
6.521291776,0.999383108882854,-90.18698202433133
6.523578368,0.9994092049725258,-90.29623168117897
6.525864448,0.9994729383898133,-90.40618762901481
6.52815104,0.9995703987527299,-90.51729421190532
6.53043712,0.9996951296075262,-90.63007394583667
6.532723712,0.9998393165612696,-90.74478003416301
6.535009792,0.999993705726315,-90.86171280336237
6.537296384,1.0001487085400649,-90.98089491036471
6.539582976,1.0002940702414673,-91.10229765296343
6.541869056,1.000421067236921,-91.2256858146825
6.544155648,1.000521081768842,-91.35072805312623
6.546441728,1.0005879142294443,-91.47701315385524
6.54872832,1.000617507677183,-91.60400870362798
6.5510144,1.0006077491353673,-91.73118284185243
6.553300992,1.0005593892046531,-91.85794336752355
6.555587072,1.0004754311246835,-91.98372939759113
6.557873664,1.0003612594578244,-92.1081058805775
6.560160256,1.0002240738090526,-92.23068082774493
6.562446336,1.000072597648276,-92.35118287814225
6.564732928,0.9999163037639266,-92.4694294019707
6.567019008,0.9997654165965834,-92.5854579757251
6.5693056,0.9996293536099785,-92.6993966121383
6.57159168,0.999516987253843,-92.81154311400358
6.573878272,0.999435233296697,-92.92229027879948
6.576164864,0.9993894017278864,-93.03210337497765
6.578450944,0.9993826190644836,-93.14159213994954
6.580737536,0.9994149428579401,-93.25125744748978
6.583023616,0.9994846827122048,-93.36163441959788
6.585310208,0.9995872448661342,-93.47332377458976
6.587596288,0.9997160258602223,-93.58670644605233
6.58988288,0.9998631458907636,-93.70209706668575
6.59216896,1.0000187990492846,-93.81970834209177
6.594455552,1.0001732480532717,-93.93963593620336
6.596742144,1.0003169232483322,-94.06171429619997
6.599028224,1.0004403578678973,-94.18573864155171
6.601314816,1.000535838787358,-94.31140914262221
6.603600896,1.0005972595931465,-94.43823637402072
6.605887488,1.000620622794013,-94.56567094618651
6.608173568,1.0006047246932395,-94.69317192324121
6.61046016,1.0005503259280015,-94.82020968407055
6.612746752,1.0004608801769603,-94.94615120459804
6.615032832,1.0003420180096798,-95.07063206664027
6.617319424,1.0002015150267207,-95.19323757537823
6.619605504,1.0000480708446309,-95.31371237137532
6.621892096,0.9998915612040304,-95.43194858754461
6.624178176,0.9997418878344019,-95.54796154364199
6.626464768,0.9996086445859648,-95.66192639570811
6.628750848,0.9995001091765535,-95.77413482119658
6.63103744,0.9994235603935298,-95.88502853896743
6.633324032,0.9993835999731139,-95.99505600413862
6.635610112,0.999382987769343,-96.10483236660694
6.637896704,0.9994215295071589,-96.21485612374158
6.640182784,0.9994969917684385,-96.32574571144015
6.642469376,0.9996046261882029,-96.43798790977985
6.644755456,0.9997373683701392,-96.55198890128682
6.647042048,0.9998867908027985,-96.66804853369376
6.649328128,1.0000434124629716,-96.7864029033646
6.65161472,1.0001975767296691,-96.90696367006107
6.653901312,1.0003390741493843,-97.02972892508356
6.656187392,1.000459007923448,-97.15436700827463
6.658473984,1.0005497641178214,-97.28060850326443
6.660760064,1.0006056994368704,-97.4079087085686
6.663046656,1.0006229219941984,-97.53573984983977
6.665332736,1.00060077073026,-97.66357882071505
6.667619328,1.000540366404325,-97.79082711242053
6.66990592,1.0004455588210512,-97.91693272612684
6.672192,1.0003223438885025,-98.0415137390999
6.674478592,1.0001786258680372,-98.1641280866635
6.676764672,1.0000234813106912,-98.2845786637527
6.679051264,0.9998668536527667,-98.40277606226955
6.681337344,0.9997186255332781,-98.5187905165574
6.683623936,0.9995882866313693,-98.6327387829079
6.685910016,0.9994841076214627,-98.74499072488089
6.688196608,0.9994127358530631,-98.8560281185776
6.6904832,0.999378739729855,-98.9662518148712
6.69276928,0.9993843995256201,-99.07630294592813
6.695055872,0.9994291610697928,-99.18674925982816
6.697341952,0.9995103993615808,-99.2981043139579
6.699628544,0.9996228312060547,-99.41089978030027
6.701914624,0.9997591800551656,-99.52547872294457
6.704201216,0.9999109664528442,-99.64223311138151
6.706487808,1.0000684518519842,-99.7612197615459
6.708773888,1.0002217245287266,-99.88247849059984
6.71106048,1.0003608458088429,-100.00588448737747
6.71334656,1.0004770302142247,-100.13116833535742
6.715633152,1.000562978414588,-100.25793431472141
6.717919232,1.0006132566180992,-100.38569172500735
6.720205824,1.000624421308003,-100.51391717650034
6.722491904,1.0005958460394586,-100.642030266781
6.724778496,1.0005295644247134,-100.76947563606396
6.727065088,1.0004294380441832,-100.89568855606477
6.729351168,1.000302089822442,-101.02027881180794
6.73163776,1.0001554259994154,-101.14290686310909
6.73392384,0.9999988400529121,-101.26333838616682
6.736210432,0.9998423606775656,-101.38145452940064
6.738496512,0.9996957961541165,-101.49743288156822
6.740783104,0.9995685874302345,-101.6114207631096
6.743069696,0.9994688532138987,-101.72372748427213
6.745355776,0.9994029131235748,-101.83483744118273
6.747642368,0.9993749146559744,-101.94528592474269
6.749928448,0.9993867751585948,-102.0556426703265
6.75221504,0.9994377028330043,-102.16644898171737
6.75450112,0.9995243939285134,-102.27828821214325
6.756787712,0.9996414776853092,-102.39163020330481
6.759073792,0.9997813531714866,-102.50684215153208
6.761360384,0.9999354212403433,-102.62419671730997
6.763646976,1.0000933269251873,-102.74383953565432
6.765933056,1.0002455306749518,-102.86576627286034
6.768219648,1.0003821860326276,-102.98980891250557
6.770505728,1.0004945166749153,-103.11565163434733
6.77279232,1.0005754483125258,-103.24291697780725
6.7750784,1.0006198494209075,-103.37113765499635
6.777364992,1.0006248281229044,-103.49969911918207
6.779651584,1.0005900618978367,-103.62805331045818
6.781937664,1.0005178008743962,-103.75565715333218
6.784224256,1.000412692394642,-103.88197231605037
6.786510336,1.000281265456058,-104.00662663093921
6.788796928,1.0001319476574309,-104.12919928284671
6.791083008,0.9999741765527036,-104.24954784693183
6.7933696,0.9998178496783662,-104.36763177010937
6.79565568,0.9996732342842558,-104.48355634927154
6.797942272,0.9995494931180242,-104.59748666857854
6.800228864,0.9994542357459518,-104.70984435504519
6.802514944,0.9993938069219916,-104.8210813529307
6.804801536,0.9993719770823111,-104.93175638894954
6.807087616,0.9993900845046153,-105.04237866586931
6.809374208,0.9994470948710603,-105.15356727924147
6.811660288,0.999539374090356,-105.26585782718584
6.81394688,0.9996609880228008,-105.37974310334555
6.81623296,0.9998041833079369,-105.49553193530673
6.818519552,0.9999599319016063,-105.6134936821391
6.820806144,1.0001182471327692,-105.73382380841298
6.823092224,1.0002691780067254,-105.85636038773485
6.825378816,1.0004029352505057,-105.98101996242622
6.827664896,1.0005113015717122,-106.10739788871817
6.829951488,1.0005869785717498,-106.2351400581226
6.832237568,1.000625544932347,-106.36376542727945
6.83452416,1.0006242804114338,-106.49264621056558
6.836810752,1.000583374464812,-106.62125610456025
6.839096832,1.0005053522262435,-106.74898414156681
6.841383424,1.000395240042136,-106.87536701875774
6.843669504,1.000259915469551,-106.99998330775152
6.845956096,1.0001079996547608,-107.12251152573019
6.848242176,0.9999493426805236,-107.24280309165987
6.850528768,0.9997938107871751,-107.36080221287985
6.852814848,0.9996512911027998,-107.47662340339325
6.85510144,0.9995309534894478,-107.5905711475286
6.857388032,0.9994405358316465,-107.70293903510952
6.859674112,0.9993856859186262,-107.81428472965338
6.861960704,0.9993699167057862,-107.92514906221757
6.864246784,0.9993944310450161,-108.03607104843644
6.866533376,0.9994573541540546,-108.1476303656124
6.868819456,0.9995549228350478,-108.26038154220207
6.871106048,0.9996809186428203,-108.37477922410179
6.87339264,0.9998273023752364,-108.49115091823326
6.87567872,0.9999846114142953,-108.60975860368302
6.877965312,1.0001430390738166,-108.73065422452923
6.880251392,1.0002924627185856,-108.85382870943879
6.882537984,1.0004233730829157,-108.979033268771
6.884824064,1.0005273468084719,-109.10596953650145
6.887110656,1.0005977917988778,-109.23418531650304
6.889396736,1.0006302737499497,-109.36314220118757
6.891683328,1.0006227602914064,-109.49232820006848
6.89396992,1.000575806740965,-109.62113269223313
6.896256,1.0004920592808701,-109.74897036570039
6.898542592,1.0003770527479994,-109.87536489708482
6.900828672,1.00023801146779,-109.99993436100898
6.903115264,1.000084027264551,-110.12238507795894
6.905401344,0.9999244184810181,-110.24257845114002
6.907687936,0.9997697327239534,-110.36048493013175
6.909974528,0.9996296560115598,-110.47623060258913
6.912260608,0.9995130264701295,-110.59010561761504
6.9145472,0.9994274672285219,-110.70255337454937
6.91683328,0.9993783660000235,-110.81396560932777
