freq,mag,phase
6.0,1.0005354163190296,-141.15935416950433
6.002911232,1.000411590045195,-141.3429522865167
6.005822464,1.000262321144483,-141.52461921647978
6.008733696,1.0000968593514614,-141.70407200272888
6.011644928,0.9999253696662339,-141.8810599864939
6.01455616,0.9997586513987866,-142.05560235488156
6.017467392,0.9996069231844108,-142.22790486802327
6.020378624,0.9994798119813718,-142.39820281778796
6.023289856,0.9993850833464423,-142.5669079662916
6.026201088,0.9993286775485954,-142.7344811003883
6.02911232,0.9993141373176246,-142.90159677500208
6.03202304,0.9993425011846014,-143.06878771809704
6.034934272,0.9994117992069833,-143.23671676039413
6.037845504,0.9995178734706501,-143.40588915723592
6.040756736,0.9996540643882723,-143.57682533110818
6.043667968,0.9998120176980148,-143.7498848330627
6.0465792,0.9999817529866969,-143.9253232632504
6.049490432,1.0001528656471825,-144.10321423594485
6.052401664,1.0003145987193756,-144.28352242892632
6.055312896,1.0004570800404495,-144.4660260820873
6.058224128,1.0005712576339514,-144.65037050804992
6.06113536,1.0006501518639903,-144.83609877507124
6.064046592,1.000688799263144,-145.0227113027694
6.066957824,1.0006848216858972,-145.20954992537455
6.069869056,1.0006384463873845,-145.3960300514205
6.072780288,1.0005524265074524,-145.58156778851878
6.07569152,1.0004322861832793,-145.76570242410196
6.078602752,1.0002853259033717,-145.94785190254265
6.081513984,1.0001206984463027,-146.12777984652936
6.084425216,0.9999487139490684,-146.3053052779476
6.087336448,0.9997798860301924,-146.48037966607293
6.09024768,0.9996248222091011,-146.65310609317532
6.093158912,0.9994931690393438,-146.82381686133175
6.096069632,0.9993930804063801,-146.99285705426152
6.098980864,0.9993308687351252,-147.16069901185347
6.101892096,0.9993103454287193,-147.32795504007004
6.104803328,0.9993329072233571,-147.49524755453987
6.10771456,0.9993970885778873,-147.66316221524895
6.110625792,0.9994989249644329,-147.83226759052206
6.113537024,0.9996320636836801,-148.00308091589184
6.116448256,0.999788292250728,-148.17600085557476
6.119359488,0.9999578812276936,-148.35124216156072
6.12227072,1.000130241259559,-148.52897415145964
6.125181952,1.0002947191818334,-148.7091141696055
6.128093184,1.0004410297839403,-148.89154481487083
6.131004416,1.0005601099595631,-149.07584514764346
6.133915648,1.0006446562445943,-149.26161692839267
6.13682688,1.0006892762709525,-149.44836114378785
6.139738112,1.0006912019178218,-149.63541011966495
6.142649344,1.000650361316024,-149.8221775894972
6.145560576,1.00056919123049,-150.00810161609593
6.148471808,1.0004528595593258,-150.19262738447418
6.15138304,1.0003084059488478,-150.3752431012867
6.154294272,1.0001448877388395,-150.55569415625408
6.157204992,0.9999724109098735,-150.73372488852647
6.160116224,0.9998017139559756,-150.90924036618821
6.163027456,0.9996434001902255,-151.08245412901138
6.165938688,0.9995072930350579,-151.25351714574694
6.16884992,0.9994020137000644,-151.42285425416938
6.171761152,0.9993339098502411,-151.59094160955297
6.174672384,0.9993074115674782,-151.75836576356022
6.177583616,0.9993241118728257,-151.925709076688
6.180494848,0.999382957348423,-152.09360414399444
6.18340608,0.9994803887138728,-152.26264118551842
6.186317312,0.9996102951662003,-152.43327065437003
6.189228544,0.9997646198140385,-152.60601680921718
6.192139776,0.9999337604699691,-152.78104887469752
6.195051008,1.0001071407942608,-152.9585665073248
6.19796224,1.0002741464666858,-153.1385675396598
6.200873472,1.000424296848209,-153.32083017762272
6.203784704,1.0005483182808983,-153.50506585050104
6.206695936,1.0006383170761113,-153.69084954471754
6.209607168,1.0006889152441656,-153.8776516612507
6.2125184,1.0006968934623541,-154.0648815595882
6.215429632,1.0006616567814561,-154.25190626481051
6.218340864,1.000585474316465,-154.43817567173193
6.221251584,1.0004730229085104,-154.62307053489516
6.224162816,1.000331268907899,-154.80616889043338
6.227074048,1.0001690830874186,-154.98703994406668
6.22998528,0.9999963663829885,-155.16552960285188
6.232896512,0.9998238912169743,-155.34153569113343
6.235807744,0.999662514012873,-155.5151497816665
6.238718976,0.999522195628903,-155.68657269056186
6.241630208,0.9994115525765139,-155.8562100044595
6.24454144,0.9993377220190044,-156.02450412866912
6.247452672,0.999305141185365,-156.1920613688569
6.250363904,0.9993159233774903,-156.35943123809315
6.253275136,0.999369333596944,-156.52730418152373
6.256186368,0.9994622023432357,-156.69622167072725
6.2590976,0.9995886641049269,-156.86669525903983
6.262008832,0.9997408663924713,-157.0391909299475
6.264920064,0.999909394904494,-157.214009829513
6.267831296,1.000083749753979,-157.39129858668448
6.270742528,1.000253096951605,-157.5710749303381
6.27365376,1.000406817006661,-157.7531646149609
6.276564992,1.0005355056639227,-157.93728874046639
6.279476224,1.000631185538612,-158.12305559143005
6.282386944,1.0006877111492043,-158.3098776057628
6.285298176,1.0007017645878165,-158.49724464658658
6.288209408,1.0006723443472822,-158.68449859421975
6.29112064,1.0006012514762572,-158.8710365024349
6.294031872,1.00049296601612,-159.05628084831426
6.296943104,1.0003540194405196,-159.2397633789668
6.299854336,1.0001933107897867,-159.42110916959723
6.302765568,1.0000205091179508,-159.60001081478302
6.3056768,0.9998466273104561,-159.7764779908006
6.308588032,0.9996822730424437,-159.95048740894052
6.311499264,0.9995376859312384,-160.1222677253609
6.314410496,0.9994220181160762,-160.29216253301067
6.317321728,0.9993423401528225,-160.46067414726892
6.32023296,0.9993037007050098,-160.62832820132923
6.323144192,0.9993084112475891,-160.79573145141666
6.326055424,0.9993563967368855,-160.96351898013998
6.328966656,0.9994444838966364,-161.13230758167063
6.331877888,0.9995673116422253,-161.30258607150256
6.33478912,0.9997172583952274,-161.47485324139893
6.337700352,0.9998849219372112,-161.64939673207243
6.340611584,1.0000600096073997,-161.82643666658427
6.343522816,1.0002315417068923,-162.00594416048392
6.346433536,1.0003888465895538,-162.18783232555933
6.349344768,1.0005221604992884,-162.37182248008617
6.352256,1.0006233407159895,-162.55746283971152
6.355167232,1.0006858665936726,-162.74430141127206
6.358078464,1.000705983356387,-162.93176352936334
6.360989696,1.0006823791981345,-163.11920296023672
6.363900928,1.0006165292816644,-163.3059839607074
6.36681216,1.0005125890157383,-163.49154767177544
6.369723392,1.0003767953568257,-163.67540962504492
6.372634624,1.000217656179774,-163.85712491707534
6.375545856,1.0000451448403413,-164.03648759732653
6.378457088,0.9998697851574172,-164.2133398006044
6.38136832,0.9997026097251255,-164.38773553902533
6.384279552,0.9995540373840133,-164.5598262949856
6.387190784,0.999433184781185,-164.73001185491478
6.390102016,0.9993477773660944,-164.89869866888
6.393013248,0.9993029478841118,-165.06644009862273
6.39592448,0.9993017133362566,-165.23384272496958
6.398835712,0.9993439621972382,-165.40156323142926
6.401746944,0.999427197332968,-165.57016190791907
6.404658176,0.9995462864298726,-165.7402387084284
6.407568896,0.9996936975343652,-165.91225804883823
6.410480128,0.9998602559877523,-166.08651027817308
6.41339136,1.0000359007214565,-166.26321336619094
6.416302592,1.0002094238315147,-166.44244038242815
6.419213824,1.0003701658490558,-166.62410157246472
6.422125056,1.000508040277807,-166.80788211776624
6.425036288,1.0006145674753597,-166.9934395279513
6.42794752,1.0006830916515868,-167.18023720082417
6.430858752,1.0007093955066113,-167.36772971872261
6.433769984,1.0006918164231458,-167.5552972257128
6.436681216,1.000631325340136,-167.74229638460068
6.439592448,1.0005317509946132,-167.9281590030634
6.44250368,1.0003993024508981,-168.11234296942717
6.445414912,1.0002419818430646,-168.29446140077584
6.448326144,1.0000697998363732,-168.47419940261625
6.451237376,0.9998933504477127,-168.65144816876318
6.454148608,0.9997235372515864,-168.82618965451886
6.45705984,0.9995709567611899,-168.9985965106776
6.459971072,0.9994451856193383,-169.16898870749665
6.462882304,0.999353962907705,-169.33785500252688
6.465793536,0.999303143887612,-169.5056755639211
6.468704768,0.9992956984778215,-169.67308502821734
6.471615488,0.9993321337530111,-169.8406938337574
6.47452672,0.9994104017562733,-170.0091377866649
6.477437952,0.9995254254745093,-170.1789590554918
6.480349184,0.9996701180947128,-170.3506448057872
6.483260416,0.9998356895345611,-170.52458178088276
6.486171648,1.0000115123748727,-170.70096955985912
6.48908288,1.000186847418436,-170.87990026552473
6.491994112,1.0003508165381023,-171.06124847186453
6.494905344,1.000493229194232,-171.24483503362646
6.497816576,1.0006050702181017,-171.43021189059857
6.500727808,1.0006796278008057,-171.61694134763925
6.50363904,1.0007121696777175,-171.80443517004875
6.506550272,1.0007005522647596,-171.99210258925956
6.509461504,1.0006455253373594,-172.17929487343395
6.512372736,1.0005506904579156,-172.36541572648082
6.515283968,1.0004215949144697,-172.54990111394588
6.5181952,1.0002664358374003,-172.73236516782478
6.521106432,1.0000947638641278,-172.91244455237305
6.524017664,0.9999173951500155,-173.09004222181557
6.526928896,0.9997450548198533,-173.26511838012848
6.529840128,0.9995887203358182,-173.43782714675908
6.532750848,0.9994579980808077,-173.60845312069782
6.53566208,0.9993611352517714,-173.77745566810378
6.538573312,0.9993040855801519,-173.94535087784533
6.541484544,0.9992904799916675,-174.11270376612816
6.544395776,0.9993210797308105,-174.28020973748875
6.547307008,0.9993941183865435,-174.44844397824951
6.55021824,0.9995049653178366,-174.61801362610225
6.553129472,0.9996468232788357,-174.78939124387642
6.556040704,0.9998109349278705,-174.96295566172677
6.558951936,0.9999869380153823,-175.1389811184107
6.561863168,1.0001638401838477,-175.3175661567113
6.5647744,1.0003309581279811,-175.49861296381005
6.567685632,1.0004776375072006,-175.68190744290646
6.570596864,1.000594767159164,-175.86712333743247
6.573508096,1.0006752335794218,-176.0537125990365
6.576419328,1.0007140445460674,-176.24120653573635
6.57933056,1.0007085088680878,-176.42890261017013
6.582241792,1.0006592126710114,-176.6162379770754
6.585153024,1.0005689807496907,-176.80254506220578
6.588064256,1.0004435562327472,-176.98731789021448
6.590975488,1.000290667200976,-177.17010178522816
6.593886208,1.00011980741171,-177.3505630970116
6.59679744,0.9999415589329189,-177.52848535156224
6.599708672,0.9997670230504961,-177.70386439105647
6.602619904,0.9996070297667169,-177.87683795652205
6.605531136,0.9994715142467585,-178.04769547693783
6.608442368,0.9993689289102703,-178.21682556335597
6.6113536,0.9993058390478501,-178.3847405526374
6.614264832,0.9992858806862268,-178.5520763460285
6.617176064,0.9993105176154554,-178.7194133152135
6.620087296,0.999378261049828,-178.8874271407434
6.622998528,0.9994848735727735,-179.05668403303534
6.62590976,0.999623561336976,-179.22772720631824
6.628820992,0.999786068327056,-179.40094229266754
6.631732224,0.9999618583152483,-179.57658937672247
6.634643456,1.000140292115752,-179.75475497381274
6.637554688,1.0003103402441396,-179.9354658683308
6.64046592,1.0004612142072213,179.88151410854098
6.643377152,1.0005837318095436,179.69657611168955
6.646288384,1.0006701739225279,179.51011421634684
6.649199616,1.0007149573583276,179.32271272442915
6.652110848,1.0007158179176208,179.1349665117425
6.65502208,1.000672231184362,178.94755998350078
6.6579328,1.0005867870842067,178.76103388004583
6.660844032,1.0004653607990943,178.57604045877406
6.663755264,1.000314934785173,178.39298663069164
6.666666496,1.0001449941788403,178.21223260729005
6.669577728,0.9999661831101845,178.03397468695158
6.67248896,0.9997895455938901,177.85829392174153
6.675400192,0.999626029410823,177.68506054331542
6.678311424,0.9994858779709161,177.51402327825255
6.681222656,0.999377763132447,177.344812676504
6.684133888,0.9993084233152288,177.17683947042642
6.68704512,0.9992822181594218,177.00957971830752
6.689956352,0.999300824221977,176.84237437222788
6.692867584,0.9993631591874068,176.67459461052104
6.695778816,0.9994651943218483,176.5056410306066
6.698690048,0.9996006580742929,176.33494777475804
6.70160128,0.9997612363480276,176.16216142044763
6.704512512,0.999936894859357,175.98692951019112
6.707423744,1.0001165722422851,175.80915256916995
6.710334976,1.0002893087597369,175.628847751328
6.713246208,1.0004443521782354,175.44617784702902
6.71615744,1.0005719461587474,175.26149699876925
6.71906816,1.0006641562658414,175.07524180053935
6.721979392,1.0007153467045358,174.88791711399836
6.724890624,1.0007222798522375,174.7002077964648
6.727801856,1.0006845122988963,174.51271326296185
6.730713088,1.000604406464417,174.32606098704085
6.73362432,1.0004868309192376,174.14083867518946
6.736535552,1.000339109882355,173.9575342180028
6.739446784,1.0001703325785156,173.77650773889604
6.742358016,0.9999911850078039,173.59797627739405
6.745269248,0.9998125409861952,173.4220203894811
6.74818048,0.9996456693015877,173.24856057931478
6.751091712,0.9995007807342351,173.0773549983525
6.754002944,0.9993872617786396,172.9080206458228
6.756914176,0.9993117352182364,172.74002879312633
6.759825408,0.9992792653914983,172.57284920005534
6.76273664,0.9992917689918682,172.40580446369347
6.765647872,0.9993484368861019,172.2382853006194
6.768559104,0.9994458710087716,172.0696604267367
6.771470336,0.999577966004082,171.89937362837003
6.774381568,0.9997364905840651,171.72699050392487
6.7772928,0.9999116759079724,171.55221384064475
6.780204032,1.000092430945325,171.37490142497796
6.783114752,1.0002677099126225,171.19498972569497
6.786025984,1.0004266436352496,171.012722186248
6.788937216,1.0005592677676198,170.82833832569932
6.791848448,1.0006573703768682,170.6422830420406
6.79475968,1.0007148174758134,170.45511751442635
6.797670912,1.000728132763921,170.26747708678855
6.800582144,1.0006962874740297,170.07993703803007
6.803493376,1.0006213321232458,169.89318701850328
6.806404608,1.0005078679443873,169.7077897578315
6.80931584,1.0003630315169727,169.52423776482524
6.812227072,1.0001957222482618,169.34293936211532
6.815138304,1.0000163517197553,169.16413981386432
6.818049536,0.9998359856942032,168.98795666952697
6.820960768,0.9996658449086343,168.81427118288605
6.823872,0.9995166294514501,168.64292159646777
6.826783232,0.9993974895152925,168.47348186426225
6.829694464,0.9993160248253267,168.30551486374455
6.832605696,0.9992770383152298,168.13841284854357
6.835516928,0.9992832925678178,167.97156376361085
6.83842816,0.999334356002032,167.8042838596473
6.841339392,0.9994270059607547,167.6360020102275
6.844250112,0.9995553824704844,167.46613206191793
6.847161344,0.999711662311442,167.29421154018448
6.850072576,0.9998860590862964,167.11989235933837
6.852983808,1.0000679403157342,166.9430338292038
6.85589504,1.0002455779697297,166.76359975301716
6.858806272,1.0004083281175498,166.58171530045223
6.861717504,1.0005459581720118,166.39768523209523
6.864628736,1.0006498564098893,166.2119141868178
6.867539968,1.000713575451796,166.02493122093983
6.8704512,1.00073307638897,165.8373695758838
6.873362432,1.0007074029726508,165.64983861632643
6.876273664,1.0006377737220988,165.462992815878
6.879184896,1.0005287280400594,165.27745628932408
6.882096128,1.0003867882667878,165.09370491842822
6.88500736,1.0002211322951575,164.91218403609577
6.887918592,1.0000417804601287,164.73313626875964
6.890829824,0.9998598120490377,164.55672320327793
6.893741056,0.9996866593834494,164.3828458294576
6.896652288,0.9995329843878343,164.21134869424287
6.89956352,0.999408473103965,164.04182695385765
6.902474752,0.9993209596713449,163.87388535242175
6.905385984,0.9992757217765272,163.70687206231293
6.908296704,0.9992756699859012,163.54022615944712
6.911207936,0.9993209356116763,163.3732159543777
6.914119168,0.9994085897395139,163.20530611587995
6.9170304,0.9995330782347246,163.03588862247378
6.919941632,0.9996870124390749,162.8644158584421
6.922852864,0.9998605422371797,162.69061522481263
6.925764096,1.0000429850149866,162.51426845602037
6.928675328,1.0002229434434686,162.33528823606156
6.93158656,1.0003893746229564,162.15383253989998
6.934497792,1.0005317883078837,161.97018021363309
6.937409024,1.000641283195059,161.78470829504622
6.940320256,1.0007112516044947,161.59795052573676
6.943231488,1.0007372422163487,161.41049697919746
6.94614272,1.0007176535814821,161.22303539840706
6.949053952,1.000653486934853,161.03612797999895
6.951965184,1.0005489255662061,160.85048868749442
6.954876416,1.0004103217149403,160.66657814393372
6.957787648,1.0002463717139516,160.48481419756834
6.96069888,1.0000672551371863,160.30557240388174
6.963610112,0.9998838727280774,160.12893868618573
6.966521344,0.9997078122099565,159.95486710154103
6.969432064,0.9995499790502346,159.78325050003917
6.972343296,0.999420315090348,159.6136908964942
6.975254528,0.9993265719638285,159.4457458726897
6.97816576,0.9992750802183465,159.278879174413
6.981076992,0.9992686394960463,159.1124348503319
6.983988224,0.9993080110737964,158.9457400132707
6.986899456,0.9993904431489136,158.7781895943383
6.989810688,0.9995110621879228,158.60916877103944
6.99272192,0.9996624577413188,158.43821446500212
6.995633152,0.9998347549057179,158.26495123169286
6.998544384,1.0000176960395286,158.08910057340552
7.001455616,1.0001998151059341,157.91065694907
7.004366848,1.0003697682004047,157.729662698278
7.00727808,1.000516841142278,157.54642145396474
7.010189312,1.000632150035366,157.3612699105499
7.013100544,1.0007083371014827,157.17476862023568
7.016011776,1.000740657645576,156.9874867399376
7.018923008,1.000727319096039,156.8000799796521
7.02183424,1.0006688766966885,156.6132068644691
7.024745472,1.000568826751311,156.42743627805316
7.027656704,1.000433848183977,156.2433920104599
7.030567936,1.0002718030479023,156.061473802144
7.033478656,1.0000930107306856,155.8820296231946
7.036389888,0.9999085092932419,155.70519052797832
7.03930112,0.999729778381474,155.53094650401155
7.042212352,0.999567894040048,155.35920777855287
7.045123584,0.9994329403629645,155.1896110287957
7.048034816,0.9993333435712668,155.02170585012797
7.050946048,0.999275359764583,154.85495399244974
7.05385728,0.9992625755034928,154.68872669260298
7.056768512,0.9992959577419691,154.5223469112278
7.059679744,0.9993731093036284,154.35519355577478
7.062590976,0.9994895779071905,154.18665203051944
7.065502208,0.9996379370677907,154.01618959294305
7.06841344,0.9998091389336433,153.84344848333402
7.071324672,0.9999924927083197,153.66818011987488
7.074235904,1.0001763836699897,153.4902570391472
7.077147136,1.0003496499802795,153.3097695459996
7.080058368,1.0005014085086628,153.1269553621638
7.0829696,1.0006222131674232,152.94218485705773
7.085880832,1.0007046638946222,152.75597940421474
7.088792064,1.0007434866782023,152.5688882166645
7.091703296,1.0007363392269817,152.38156312548563
7.094614016,1.0006836946934552,152.1947050367702
7.097525248,1.0005885534848245,152.00890013015015
7.10043648,1.0004570318079422,151.82471502018245
7.103347712,1.000297238404055,151.64264739900176
7.106258944,1.0001190906461257,151.4630281645395
7.109170176,0.9999334846261706,151.28600108109575
7.112081408,0.9997521576888309,151.1116420895982
7.11499264,0.9995863742440312,150.9398018985607
7.117903872,0.999446345217358,150.7701707103279
7.120815104,0.9993408204845008,150.6023017367043
7.123726336,0.9992764166304715,150.4356811403916
7.126637568,0.9992572182519109,150.26968514632006
7.1295488,0.9992844178164944,150.10363037002273
7.132460032,0.9993562764095429,149.93687252179237
7.135371264,0.9994684237283288,149.76881450733387
7.138282496,0.999613771804601,149.59887803811012
7.141193728,0.9997834519975146,149.42670575488714
7.14410496,0.9999668100114845,149.25199424175028
7.147016192,1.0001524477408137,149.07462392758177
7.149927424,1.0003290015084574,148.8946785626469
7.152838656,1.000485179107391,148.71232419096083
7.155749888,1.0006115920391252,148.5279620243618
7.158660608,1.0007000798755508,148.34205212778994
7.16157184,1.0007453556427293,148.15519387340342
7.164483072,1.0007445785548428,147.9680224038879
