freq,mag,phase
6.0,1.0000964232606118,-85.56063598973881
6.03478272,1.0000915760115823,-87.15362754985273
6.06956544,1.0000857062529591,-88.74702200880613
6.104347648,1.00007860308536,-90.34076108281438
6.139130368,1.0000701766495261,-91.93489160832068
6.173913088,1.0000608182628652,-93.52933201680848
6.208695808,1.0000506372425018,-95.12407932010574
6.243478016,1.000039450236889,-96.71916968372973
6.278260736,1.0000278756679581,-98.31455228458233
6.313043456,1.000015907087976,-99.91018161725668
6.347826176,1.0000038161001434,-101.5060652163339
6.382608896,0.9999915925816466,-103.10221175415096
6.417391104,0.999979616284505,-104.6986033617011
6.452173824,0.9999681134770855,-106.29522010877204
6.486956544,0.9999572465484224,-107.8921012050715
6.521739264,0.9999471111065726,-109.48916702071706
6.556521984,0.9999379197572685,-111.08646039228067
6.591304192,0.9999298275864033,-112.68399968423665
6.626086912,0.9999230046856605,-114.28170407385717
6.660869632,0.9999175299469054,-115.8796357815947
6.695652352,0.9999135275502894,-117.47776847296248
6.73043456,0.9999110207721001,-119.07611332430253
6.76521728,0.9999100106461986,-120.67467730739119
6.8,0.9999107027990194,-122.27348417613142
6.83478272,0.999912977493392,-123.87245597199394
6.86956544,0.9999166642636829,-125.47164537440194
6.904347648,0.9999220017147393,-127.07106965146781
6.939130368,0.9999285793286617,-128.6706594642966
6.973913088,0.9999365582142153,-130.27050282740177
7.008695808,0.9999456313566814,-131.87055375161708
7.043478016,0.9999557600243937,-133.47079947235684
7.078260736,0.9999667856987026,-135.0712497221325
7.113043456,0.9999784606678842,-136.67189314158085
7.147826176,0.9999906256955059,-138.27271816766697
7.182608896,1.0000030901431551,-139.87371911708004
7.217391104,1.0000156526332078,-141.47490017514525
7.252173824,1.0000280983101946,-143.07624781784173
7.286956544,1.000040166399517,-144.67773478452187
7.321739264,1.0000517443072412,-146.27934876846345
7.356521984,1.0000626661722245,-147.88108564709916
7.391304192,1.0000725918582485,-149.48290847119034
7.426086912,1.0000814975983645,-151.0848226297097
7.460869632,1.0000891799203788,-152.68678904806958
7.495652352,1.000095569412144,-154.2888160472204
7.53043456,1.0001004234623392,-155.89086008990375
7.56521728,1.000103830152692,-157.4928727668633
7.6,1.000105527272636,-159.09491569849325
7.63478272,1.0001056879677106,-160.6968808692919
7.66956544,1.0001041955484455,-162.29875554923217
7.704347648,1.000101077409603,-163.90052106529015
7.739130368,1.0000963929120381,-165.50221263756225
7.773913088,1.0000901326531675,-167.1037615770295
7.808695808,1.0000825852092552,-168.70514866436235
7.843478016,1.0000737101678572,-170.30634606997762
7.878260736,1.0000636485991015,-171.90734817214602
7.913043456,1.0000526560786245,-173.50810835475232
7.947826176,1.000040869427992,-175.10866671729372
7.982608896,1.0000284760907614,-176.70895502535623
8.017391104,1.0000155356815854,-178.30897865521004
8.052173824,1.0000024610432627,-179.90872339891888
8.086956544,0.9999895634544659,178.49182514387465
8.121739264,0.9999767572371687,176.89268152221015
8.156521984,0.9999643623164389,175.29384278015453
8.191304192,0.9999526128921645,173.69532013238864
8.226086912,0.9999417430798764,172.09709072571238
8.260869632,0.9999318694402515,170.4992093602576
8.295652352,0.9999231095332242,168.9016480394321
8.33043456,0.9999157841404805,167.30439073408937
8.36521728,0.9999098205573278,165.70749438952748
8.4,0.9999055494864546,164.11089102244998
8.43478272,0.9999029075784764,162.51461532480366
8.46956544,0.9999018924991507,160.91866475268296
8.504347648,0.9999025074461553,159.32301367008725
8.539130368,0.9999048801790313,157.72767765655036
8.573913088,0.9999090157031165,156.13264980842706
8.608695296,0.999914621399163,154.5379286189304
8.643478528,0.9999217666743277,152.94347862338387
8.678260736,0.9999304520827136,151.34934478209695
8.713043968,0.9999402448843332,149.75550641216165
8.747826176,0.9999512995332381,148.16196406307697
8.782608384,0.9999631253175149,146.56871065571482
8.817391616,0.9999757323845461,144.97576623228596
8.852173824,0.999989066505439,143.38310639472138
8.886956032,1.0000025997734125,141.79076135110563
8.921739264,1.0000162899559637,140.19872708440573
8.956521472,1.000029691142657,138.60701266170668
8.991304704,1.0000428719938763,137.01560458769436
9.026086912,1.0000555480924982,135.42454478858357
9.06086912,1.000067406338664,133.83382763908813
9.095652352,1.0000782934494172,132.24346174439918
9.13043456,1.00008796558614,130.6534735819712
9.165217792,1.0000964982290073,129.06389105155282
9.2,1.0001033547670661,127.47470606539675
9.234782208,1.0001087435233347,125.8859363854389
9.26956544,1.0001124060948996,124.29761507756035
9.304347648,1.0001144177544143,122.70976122711143
9.33913088,1.000114430447133,121.12235525410436
9.373913088,1.0001128837708309,119.53546339864245
9.408695296,1.000109463897123,117.94909369496682
9.443478528,1.0001043524707371,116.36324219937346
9.478260736,1.0000974953359143,114.77796688108357
9.513043968,1.0000891799471017,113.19324062112584
9.547826176,1.0000794580046786,111.60908341475984
9.582608384,1.0000684071386199,110.02554977017154
9.617391616,1.0000562371493351,108.4426111611646
9.652173824,1.0000432874739873,106.86030842905204
9.686956032,1.0000295533402137,105.27862372334813
9.721739264,1.0000154920389248,103.6975911817945
9.756521472,1.0000010910163732,102.11721602901045
9.791304704,0.9999867537942907,100.53747910066957
9.826086912,0.9999726484643219,98.95838990618475
9.86086912,0.9999589449470314,97.37998584293382
9.895652352,0.9999461798610456,95.80220363105505
9.93043456,0.9999340849776865,94.22508392210729
9.965217792,0.9999233105176868,92.64861318086759
10.0,0.9999137248125329,91.07279439329048
10.034782208,0.999905701467414,89.49759158879029
10.06956544,0.9998992560251374,87.92303187457962
10.104347648,0.9998944774673909,86.34905967477428
10.13913088,0.9998916261546429,84.77571454260448
10.173913088,0.9998906423536785,83.2029429292397
10.208695296,0.9998914985089089,81.63075920323905
10.243478528,0.999894338472548,80.05914784396366
10.278260736,0.9998989658194386,78.48807600594034
10.313043968,0.9999054573223316,76.91754742930041
10.347826176,0.9999135653759115,75.34755470282472
10.382608384,0.9999233939412514,73.7780724212433
10.417391616,0.999934478699973,72.20910947013472
10.452173824,0.9999469211298299,70.64063096324143
10.486956032,0.999960339248474,69.07263081868079
10.521739264,0.9999746863746807,67.50513103971923
10.556521472,0.9999894456729689,65.93809522279886
10.591304704,1.0000046952641917,64.37153666212365
10.626086912,1.0000199704428048,62.80546482658208
10.66086912,1.0000351425698468,61.23984120356538
10.695652352,1.000049905695957,59.674684683315
10.73043456,1.000064039104448,58.110014495456305
10.765217792,1.000077269560618,56.545814036391114
10.8,1.0000893674338858,54.98208414074869
10.834782208,1.0001001407736712,53.41885847357258
10.86956544,1.0001093456697727,51.856139055616524
10.904347648,1.0001169371952046,50.293927636366455
10.93913088,1.0001227156648982,48.732214945438066
10.973913088,1.0001265666923735,47.17104759532403
11.008695296,1.0001284346019288,45.61042556021877
11.043478528,1.0001282433963374,44.050376216572126
11.078260736,1.0001260559584575,42.490883074582996
11.113043968,1.000121830305982,40.93196407018984
11.147826176,1.0001156786227399,39.37364667157457
11.182608384,1.0001075631379748,37.815943703985525
11.217391616,1.000097743043868,36.258827589518816
11.252173824,1.0000862564109005,34.702386829218554
11.286956032,1.0000735225410384,33.146539185514634
11.321739264,1.0000594060061732,31.591348312982916
11.356521472,1.0000443883937935,30.036807647851703
11.391304704,1.0000285941638787,28.482905380075813
11.426086912,1.0000123062983133,26.929663560734465
11.46086912,0.9999958025831683,25.377081890654928
11.495652352,0.9999794067937972,23.825112726416148
11.53043456,0.9999632714789931,22.27381409927137
11.565217792,0.9999478061480491,20.72315151752018
11.6,0.9999331580237142,19.17310831837012
11.634782208,0.9999195725292818,17.623676948970946
11.66956544,0.9999074395092733,16.074861111377622
11.704347648,0.9998967172000228,14.526609971871551
11.73913088,0.9998879282460498,12.978954211612784
11.773913088,0.999880853413572,11.431832816041254
11.808695296,0.9998759035197754,9.885247806971874
11.843478528,0.9998730262394824,8.339183214032294
11.878260736,0.9998724616382165,6.7935966539240855
11.913043968,0.9998740223696483,5.248494605668196
11.947826176,0.9998778072878359,3.7038139316481375
11.982608384,0.9998837533483719,2.1595848808331084
12.017391616,0.9998918026919009,0.6157567960203923
12.052173824,0.9999017704324125,-0.9277148928399852
12.086956032,0.9999135023286702,-2.4707800350567206
12.121739264,0.9999269302375536,-4.013520967795433
12.156521472,0.9999417629797567,-5.5559268365148435
12.191304704,0.9999577104997053,-7.0980159807232
12.226086912,0.9999745667944544,-8.639818450160623
12.26086912,0.9999921076099838,-10.181333918365194
12.295652352,1.0000099554683257,-11.72258130956438
12.33043456,1.0000278243571894,-13.263528890126423
12.365217792,1.0000455147145302,-14.804251947253476
12.4,1.000062633884177,-16.344694214609
12.434782208,1.0000788937084206,-17.884899432330304
12.46956544,1.000094053109873,-19.42484931785728
12.504347648,1.0001078844525795,-20.964537119824683
12.53913088,1.0001200294424872,-22.50395208273402
12.573913088,1.0001304248966443,-24.04311891261561
12.608695296,1.0001387074346428,-25.58199002939833
12.643478528,1.0001447771405767,-27.120604253183995
12.678260736,1.0001486705661429,-28.65890688569672
12.713043968,1.0001501574953813,-30.19692032707147
12.747826176,1.0001491907990083,-31.73462684470686
12.782608384,1.0001458720973049,-33.272003065102695
12.817391616,1.0001401144652717,-34.80903908847869
12.852173824,1.000132018367296,-36.3457541233856
12.886956032,1.0001217296416876,-37.88209527304646
12.921739264,1.0001094912536241,-39.4180809936742
12.956521472,1.0000953024037393,-40.953697714091604
12.991304704,1.0000795671884388,-42.488951223873485
13.026086912,1.0000623480469781,-44.0238304521597
13.06086912,1.000044087185008,-45.55829925906015
13.095652352,1.0000249013036278,-47.092402767500126
13.13043456,1.000005393971299,-48.62614058274681
13.165217792,0.9999855270122747,-50.15948492233217
13.2,0.9999659603974367,-51.69248722314165
13.234782208,0.9999467890944402,-53.225120166177824
13.26956544,0.9999284444659675,-54.75741320549436
13.304347648,0.9999111498241041,-56.28935322873248
13.33913088,0.999895444015217,-57.8210088492493
13.373913088,0.999881313367208,-59.35234807103724
13.408695296,0.9998691080093053,-60.883433395375555
13.443478528,0.9998590807136727,-62.41424913364617
13.478260736,0.9998513896695773,-63.94484393635762
13.513043968,0.9998462428623445,-65.47523272257229
13.547826176,0.9998436875438435,-67.00545764173188
13.582608384,0.9998438579056806,-68.53553399543756
13.617391616,0.9998466635539083,-70.06547850791297
13.652173824,0.9998522183070239,-71.59534548942919
13.686956032,0.9998603684834526,-73.12514170946737
13.721739264,0.9998709473011818,-74.65489410249988
13.756521472,0.9998840410077378,-76.18465488396484
13.791304704,0.9998992837732706,-77.71442658824469
13.826086912,0.999916406872946,-79.24422113856407
13.86086912,0.999935203395414,-80.77409851920942
13.895652352,0.9999553080096576,-82.3040501326616
13.93043456,0.9999765558561694,-83.83410523085473
13.965217792,0.9999984451539056,-85.36426050983387
14.0,1.0000208715097807,-86.89457043699097
