freq,mag,phase
6.0,0.9991838317294198,-126.90831671734007
6.002288128,0.9993878769257696,-127.03813280467051
6.004576768,0.9996308650023588,-127.17123185516219
6.006864896,0.9998978032817506,-127.30801111622183
6.009153536,1.0001717158042505,-127.44873766406877
6.011441664,1.0004350563918387,-127.59336653963807
6.013729792,1.0006712730588772,-127.74162958873976
6.016018432,1.0008654500110994,-127.89304786182775
6.01830656,1.0010050906428627,-128.0468371742141
6.0205952,1.0010813828569582,-128.20221933833494
6.022883328,1.0010895417516277,-128.35818575759703
6.025171456,1.0010288764061062,-128.51381503990993
6.027460096,1.000903460702703,-128.6680644914561
6.029748224,1.000720875402253,-128.82008085457915
6.032036864,1.0004929772170663,-128.9691288107561
6.034324992,1.000234071065544,-129.1146568203958
6.03661312,0.9999605264302239,-129.25627622864442
6.03890176,0.9996898727171315,-129.39394202347745
6.041189888,0.9994391242137156,-129.52781000755405
6.043478016,0.9992243848845566,-129.65827212333576
6.045766656,0.9990591761198172,-129.78594641457303
6.048054784,0.9989542480835816,-129.91169009544444
6.050343424,0.9989160321000361,-130.03636532442388
6.052631552,0.9989473628570881,-130.16098091375505
6.05491968,0.9990458675725112,-130.2865091939109
6.05720832,0.9992055214362036,-130.41395162881352
6.059496448,0.9994161255329699,-130.54407890436661
6.061785088,0.9996642978286209,-130.6775495365633
6.064073216,0.9999342686796833,-130.8147727599103
6.066361344,1.0002089220418464,-130.95598791601938
6.068649984,1.000470629719382,-131.10110513300484
6.070938112,1.0007031366455106,-131.2497673830798
6.073226752,1.0008912667967207,-131.40152116779188
6.07551488,1.001023371843387,-131.5555491704104
6.077803008,1.0010909820685936,-131.71109220402366
6.080091648,1.0010898378138962,-131.86708239140566
6.082379776,1.0010198745053565,-132.02253564551663
6.084668416,1.00088561890066,-132.17655114389095
6.086956544,1.000695407841772,-132.32820598719317
6.089244672,1.0004615073880223,-132.4767816344794
6.091533312,1.0001985101796436,-132.62171842633424
6.09382144,0.9999232346460556,-132.76270096377513
6.09611008,0.9996531058928377,-132.89977467894627
6.098398208,0.9994052773158482,-133.033042449807
6.100686336,0.9991956134050941,-133.16299731342014
6.102974976,0.9990373247480294,-133.29021220826945
6.105263104,0.9989405982712842,-133.41560737293088
6.107551232,0.9989116553792086,-133.54005422438257
6.109839872,0.9989523216035181,-133.66457513144445
6.112128,0.9990599839464885,-133.79019314421393
6.11441664,0.9992278490570154,-133.91779664777343
6.116704768,0.9994452348685535,-134.04822412680437
6.118992896,0.9996983784435195,-134.1820546191115
6.121281536,0.9999711290841504,-134.3197025072242
6.123569664,1.0002461524897017,-134.4613504731365
6.125858304,1.0005060281765177,-134.60689623844283
6.128146432,1.0007342385843379,-134.75596602156034
6.13043456,1.0009163229139182,-134.90801860205013
6.1327232,1.0010407168811828,-135.06230798030435
6.135011328,1.0010995427261749,-135.21790518860197
6.137299968,1.0010889171828987,-135.3738686444481
6.139588096,1.0010096086636349,-135.52917249809946
6.141876224,1.000866746980301,-135.68282067002426
6.144164864,1.0006691293657564,-135.83405579708133
6.146452992,1.000429276047797,-135.98205689603606
6.148741632,1.0001625399402916,-136.12643246293274
6.15102976,0.9998857766079906,-136.26678618820827
6.153317888,0.9996165092639423,-136.4032178144912
6.155606528,0.9993718887184867,-136.53585680859342
6.157894656,0.9991675419114805,-136.66524242597217
6.160183296,0.999016410993984,-136.79198681253834
6.162471424,0.9989281947916666,-136.91703201316372
6.164759552,0.9989085275879523,-137.04125463402005
6.167048192,0.9989585982900306,-137.1656815913102
6.16933632,0.9990754006508779,-137.29132724261956
6.17162496,0.9992512955175133,-137.41911664074487
6.173913088,0.9994753839907045,-137.54977090644584
6.176201216,0.9997332183813038,-137.68396245552069
6.178489856,1.0000084227508264,-137.82204707060893
6.180777984,1.0002836809955091,-137.96410654705466
6.183066112,1.0005412987668318,-138.11006933097153
6.185354752,1.000765091573741,-138.2594806507061
6.18764288,1.0009407381972848,-138.4118077941192
6.18993152,1.0010571424687167,-138.56627697422292
6.192219648,1.001106862980868,-138.72189568041938
6.194507776,1.0010868916983011,-138.87776292822198
6.196796416,1.0009982982321959,-139.03282965209942
6.199084544,1.0008466302241548,-139.18616872385888
6.201373184,1.0006417596551056,-139.33689429566093
6.203661312,1.0003963326666894,-139.48434195630986
6.20594944,1.0001260769930027,-139.62803421182923
6.20823808,0.9998480755929184,-139.7677672506632
6.210526208,0.999580002025912,-139.90348162993072
6.212814848,0.9993389522916362,-140.0354725845809
6.215102976,0.9991401125662718,-140.16427983684707
6.217391104,0.9989964173283453,-140.29052890115022
6.219679744,0.9989168249685341,-140.41521413231519
6.221967872,0.9989064735358537,-140.539178430556
6.224256512,0.9989661274546762,-140.66352377532758
6.22654464,0.9990919813980226,-140.78918709251366
6.228832768,0.9992759209681086,-140.91707937590408
6.231121408,0.9995063845070421,-141.0480269407159
6.233409536,0.9997686886427071,-141.18256990414596
6.235698176,1.0000461396236537,-141.32099636393622
6.237986304,1.000321153212782,-141.46348527551976
6.240274432,1.000576267292926,-141.609780355755
6.242563072,1.0007952032818916,-141.75952597620142
6.2448512,1.0009642080983512,-141.91211159259979
6.24713984,1.0010725116313197,-142.06667629824383
6.249427968,1.0011131090626764,-142.22231676176088
6.251716096,1.0010834732999037,-142.3780297875291
6.254004736,1.0009855513581076,-142.53284667257077
6.256292864,1.0008255366868228,-142.68572858584577
6.258580992,1.0006132752027452,-142.8359399254527
6.260869632,1.0003624972273848,-142.98276148610708
6.26315776,1.000088992563502,-143.12579288829605
6.2654464,0.9998100612988555,-143.26480573366226
6.267734528,0.9995435955769624,-143.39981743062629
6.270022656,0.9993062673207508,-143.53114450917184
6.272311296,0.9991135253277164,-143.65931692864768
6.274599424,0.9989774030043298,-143.78507478661908
6.276888064,0.9989065408389334,-143.90936592752627
6.279176192,0.9989057516137843,-144.0330706351521
6.28146432,0.9989748798810362,-144.15725631527252
6.28375296,0.9991097426531023,-144.28297303227956
6.286041088,0.9993016061082104,-144.411044836699
6.288329728,0.9995382944610379,-144.5422451890661
6.290617856,0.999804787119754,-144.67705567080344
6.292905984,1.0000842467659836,-144.81587102703244
6.295194624,1.0003587913119458,-144.958699084215
6.297482752,1.0006109215802113,-145.1053728525484
6.299771392,1.000824809785147,-145.25537555104043
6.30205952,1.0009869016201975,-145.4081077093411
6.304347648,1.0010867415718225,-145.5627784342896
6.306636288,1.0011180498036354,-145.71838092206545
6.308924416,1.0010789024909443,-145.87389983810735
6.311213056,1.0009715903485406,-146.02836770710334
6.313501184,1.0008030631221707,-146.18081177622457
6.315789312,1.000583876490091,-146.33046380470884
6.318077952,1.0003278928701944,-146.47664557333098
6.32036608,1.0000513359117698,-146.61896296031045
6.322654208,0.9997719312657947,-146.75716803974848
6.324942848,0.9995071909086001,-146.8914441905039
6.327230976,0.9992740685262078,-147.02208171214238
6.329519616,0.999087454179716,-147.14965845931403
6.331807744,0.998959072901474,-147.2748855017988
6.334095872,0.9988973897266056,-147.39875922409655
6.336384512,0.9989061513778417,-147.52219601795022
6.33867264,0.9989849306976556,-147.64627764678403
6.34096128,0.9991286399655892,-147.7719798180778
6.343249408,0.9993283161225575,-147.90019132908427
6.345537536,0.9995710066795346,-148.03155150003158
6.347826176,0.9998414825214248,-148.16669245982206
6.350114304,1.00012255362903,-148.30585469125302
6.352402944,1.0003962301968214,-148.448989201833
6.354691072,1.0006453199494105,-148.59595719371094
6.3569792,1.0008538071018833,-148.74626880208274
6.35926784,1.001008614377556,-148.89915879569708
6.361555968,1.001099921658064,-149.05383270755397
6.363844608,1.001121820724356,-149.2093399404827
6.366132736,1.0010728857706195,-149.3646583682924
6.368420864,1.0009563057497086,-149.51874269468934
6.370709504,1.0007794011935789,-149.67068195213318
6.372997632,1.0005533478218938,-149.81971309770512
6.375286272,1.000292467438122,-149.96516952927905
6.3775744,1.0000132714496364,-150.1067005900589
6.379862528,0.9997335456448674,-150.24414987330593
6.382151168,0.9994709799171084,-150.37767028520904
6.384439296,0.9992423328970063,-150.50756646892825
6.386727936,0.9990621755983968,-150.63450379700572
6.389016064,0.9989419911042178,-150.75918946674034
6.391304192,0.9988894662547104,-150.882637418774
6.393592832,0.9989078905981141,-151.00582909451722
6.39588096,0.9989962780524061,-151.1297587007457
6.398169088,0.9991489420064309,-151.25543733762674
6.400457728,0.9993561116122004,-151.3837528707243
6.402745856,0.9996046851458193,-151.51536222696984
6.405034496,0.9998788833449408,-151.6507929337729
6.407322624,1.0001612299837952,-151.79023018465577
6.409610752,1.0004338610524477,-151.93371208596741
6.411899392,1.000679298328701,-152.08095638730688
6.41418752,1.0008821847183322,-152.23144280498153
6.41647616,1.0010295312113926,-152.38445209039756
6.418764288,1.0011119343229251,-152.5391464477136
6.421052416,1.001124362198732,-152.6944756055007
6.423341056,1.0010656893088232,-152.84953267184449
6.425629184,1.000939841538527,-153.00319992199013
6.427917824,1.0007546581373168,-153.1545924324541
6.430205952,1.0005219562274588,-153.30293261215982
6.43249408,1.000256376912726,-153.44769068060688
6.43478272,0.9999747474809136,-153.58843350262117
6.437070848,0.9996950253028627,-153.7250806142297
6.439359488,0.9994350007924024,-153.8577859777353
6.441647616,0.9992111472103103,-153.98694740953837
6.443935744,0.999037683419509,-154.11316001981442
6.446224384,0.9989258619171679,-154.23733033504362
6.448512512,0.9988826920356937,-154.36035528860074
6.450801152,0.9989110067706013,-154.4832268251363
6.45308928,0.9990089998261803,-154.60703596793257
6.455377408,0.9991703999260088,-154.73272401909836
6.457666048,0.9993851006647334,-154.8611176276889
6.459954176,0.9996392466962107,-154.992894260013
6.462242816,0.9999169173613306,-155.12858508861189
6.464530944,1.0002002536864731,-155.26834602301324
6.466819072,1.00047140219442,-155.4121258028329
6.469107712,1.0007130117616307,-155.55959866119792
6.47139584,1.0009099318844368,-155.71026475790995
6.473683968,1.0010495053062387,-155.8633474820771
6.475972608,1.0011229420212933,-156.0179835170656
6.478260736,1.0011255681591746,-156.1731500672143
6.480549376,1.0010571335649194,-156.32784487674263
6.482837504,1.0009219850559028,-156.48103415335547
6.485125632,1.0007287585419917,-156.63184338272453
6.487414272,1.0004894944347638,-156.77952164344597
6.4897024,1.0002194349195255,-156.92345364550619
6.49199104,0.9999356934637053,-157.06336935030944
6.494279168,0.9996563992725692,-157.19918026886702
6.496567296,0.9993991460583757,-157.33105639222788
6.498855936,0.9991803568977328,-157.45943342038274
6.501144064,0.9990140174072887,-157.58500910012606
6.503432704,0.9989107942551386,-157.7085774729522
6.505720832,0.9988771149431928,-157.8311622818421
6.50800896,0.9989153170810329,-157.95373034524874
6.5102976,0.9990228875389128,-158.07739173406867
6.512585728,0.9991931328375883,-158.20303390305187
6.514874368,0.9994151057306766,-158.33154194915835
6.517162496,0.9996746730004525,-158.46351662509088
6.519450624,0.999955415675732,-158.59944682844073
6.521739264,1.0002395026577695,-158.73947699603718
6.524027392,1.0005088571110459,-158.88350064380018
6.526316032,1.0007463298087873,-159.03120686263912
6.52860416,1.0009368923389121,-159.18197979616883
6.530892288,1.0010685233534802,-159.33511898672208
6.533180928,1.0011327482767411,-159.4896726004716
6.535469056,1.0011255476017293,-159.64460788780713
6.537757184,1.0010472850711594,-159.79893324039682
6.540045824,1.0009029938787222,-159.95161083237915
6.542333952,1.000701626790932,-160.10178007787516
6.544622592,1.000456094596449,-160.2487052178413
6.54691072,1.000181809564824,-160.39185976882277
6.549198848,0.9998963063412664,-160.53086213410367
6.551487488,0.9996176630590704,-160.66580080100394
6.553775616,0.9993636078967387,-160.7968065849943
6.556064256,0.9991502954189023,-160.9244252164795
6.558352384,0.998991294715735,-161.04929603062055
6.560640512,0.9988968341520792,-161.17227249308667
6.562929152,0.9988728847597663,-161.29442558898944
6.56521728,0.9989211092790755,-161.4166962051957
6.56750592,0.9990383257767537,-161.5402009000065
6.569794048,0.9992171987042581,-161.66579471903174
6.572082176,0.999446242088709,-161.7943604184925
6.574370816,0.9997109986882579,-161.9265398746952
6.576658944,0.9999945685408211,-162.06270221166832
6.578947584,1.0002789744600777,-162.20296163659756
6.581235712,1.0005462263615121,-162.3472372187145
6.58352384,1.0007791951905047,-162.49513271257445
6.58581248,1.000963173563473,-162.64603764435526
6.588100608,1.0010864728519822,-162.79913219308082
6.590389248,1.0011412906977253,-162.95356169097028
6.592677376,1.0011241088993899,-163.10822647272698
6.594965504,1.001036007829745,-163.26215659604227
6.597254144,1.0008824855692195,-163.41424938580815
6.599542272,1.0006732324132042,-163.56377427709012
6.601830912,1.0004216103329493,-163.7098810188352
6.60411904,1.000143437591926,-163.85215279813687
6.606407168,0.999856441701042,-163.99030150916448
6.608695808,0.9995788618147567,-164.12429307183567
6.610983936,0.9993282653722635,-164.2544488684768
6.613272064,0.9991206900817099,-164.38125674999074
6.615560704,0.9989694059536433,-164.50539154712047
6.617848832,0.99888396121817,-164.62784518626074
6.620137472,0.9988698595188853,-164.749501278423
6.6224256,0.998928144171879,-164.87146921235615
6.624713728,0.9990549708556284,-164.994763974505
6.627002368,0.9992423536116656,-165.1203572745576
6.629290496,0.9994783976058443,-165.2489942336696
6.631579136,0.9997481017050365,-165.3813497846965
6.633867264,1.0000342833751477,-165.51771504406017
6.636155392,1.0003187182155195,-165.65819649717582
6.638444032,1.0005834266112177,-165.80268233550566
6.64073216,1.0008115538798679,-165.95072911587945
6.6430208,1.0009886486587272,-166.10170236607485
6.645308928,1.0011034005657573,-166.25482046994807
6.647597056,1.0011486037325463,-166.40904506658745
6.649885696,1.0011213015517078,-166.5633793311372
6.652173824,1.0010233299177886,-166.71683789351164
6.654462464,1.0008606773569513,-166.86839000816653
6.656750592,1.000643622648674,-167.01713270326252
6.65903872,1.0003861072916773,-167.16243879706593
6.66132736,1.0001043132089262,-167.3037900284382
6.663615488,0.9998161550490303,-167.44100879574808
6.665904128,0.9995398907574202,-167.57409959178858
6.668192256,0.9992932534868855,-167.70331188114594
6.670480384,0.999091693046343,-167.82929743055757
6.672769024,0.9989482607390543,-167.95275371685278
6.675057152,0.9988721745054899,-168.07455139249703
6.677345792,0.9988681224528774,-168.19575136550614
6.67963392,0.9989365281162066,-168.31740728875283
6.681922048,0.999072960462886,-168.44054485114776
6.684210688,0.9992688348714606,-168.56611998778902
6.686498816,0.9995116274771263,-168.6948006530245
6.688786944,0.9997859372344838,-168.8272816376417
6.691075584,1.0000743451316596,-168.96385952310487
6.693363712,1.000358508661652,-169.10457414810583
6.695652352,1.0006203937823777,-169.24924345440203
6.69794048,1.0008433122563172,-169.39742821597332
6.700228608,1.0010132096804736,-169.5484452722616
6.702517248,1.0011192132418218,-169.70147892291956
6.704805376,1.0011546051301958,-169.85548738804604
6.707094016,1.0011171904034495,-170.00947358949406
6.709382144,1.0010091232708571,-170.16240119386438
6.711670272,1.0008374687420176,-170.31328344803478
6.713958912,1.000612922947764,-170.46129096825388
6.71624704,1.0003496796697267,-170.60574718226005
6.71853568,1.0000645182080952,-170.7461854332788
6.720823808,0.9997755205865205,-170.88241511921728
6.723111936,0.9995010255290825,-171.01452995702695
6.725400576,0.9992585041353025,-171.14285600423278
6.727688704,0.9990634777474032,-171.26799079548428
6.729977344,0.9989282965292606,-171.39069221318096
6.732265472,0.9988616116575004,-171.5118845185307
6.7345536,0.9988677653538859,-171.6326264837428
6.73684224,0.9989462701311755,-171.75397071749637
6.739130368,0.9990923896813505,-171.87694993590605
6.741419008,0.9992966607475519,-172.002430153691
6.743707136,0.9995459884444331,-172.13124734206224
6.745995264,0.9998246264209092,-172.26384766787132
6.748283904,1.0001150377399806,-172.40058661934734
6.750572032,1.0003984800829728,-172.5415211485643
6.75286016,1.0006572042365383,-172.68634144787217
6.7551488,1.0008745901047338,-172.8346270617747
6.757436928,1.001036932819277,-172.9856721309638
6.759725568,1.001133916753468,-173.13856639288537
6.762013696,1.0011593689423752,-173.2923249667084
6.764301824,1.0011115238961419,-173.44592082025778
6.766590464,1.000993660255732,-173.59828648572275
6.768878592,1.0008129662288894,-173.74849112259213
6.771167232,1.0005809330078663,-173.89567445523122
6.77345536,1.0003123381385983,-174.0392194987249
6.775743488,1.0000241261807292,-174.17870720869345
6.778032128,0.9997346647932338,-174.3139240265726
6.780320256,0.999462284240257,-174.44508006414947
6.782608896,0.9992243270725889,-174.57249624741212
6.784897024,0.999036052612591,-174.69673968595612
6.787185152,0.9989093448939265,-174.81867486381472
6.789473792,0.9988524612987291,-174.93927343314476
6.79176192,0.9988688762110085,-175.05955963720365
6.79405056,0.9989577829965544,-175.18060167272463
6.796338688,0.9991133587289915,-175.303365145398
6.798626816,0.9993256485553575,-175.4288423099854
6.800915456,0.9995814971765056,-175.55768440662857
6.803203584,0.9998643422984237,-175.69045227177835
6.805492224,1.0001562806906104,-175.8273483265185
6.807780352,1.000438711772024,-175.96846366538347
6.81006848,1.0006939019434467,-176.11344873122275
6.81235712,1.0009053512971642,-176.26178540663486
6.814645248,1.0010598840205516,-176.41280079573175
6.816933888,1.0011475773917982,-176.56552133584933
6.819222016,1.0011627909769454,-176.7189966660107
6.821510144,1.001104640544117,-176.8721752688461
6.823798784,1.0009767974866868,-177.0239620658051
6.826086912,1.0007871081171944,-177.17343940921356
6.82837504,1.000547890624827,-177.31977597460505
6.83066368,1.0002741159050763,-177.46237349393516
6.832951808,0.9999831912521671,-177.60083408363408
6.835240448,0.9996935011336862,-177.73507085719973
6.837528576,0.9994235377967263,-177.86519036755683
6.839816704,0.9991905912729722,-177.99165180010107
6.842105344,0.9990093241819786,-178.11506051144954
6.844393472,0.9988915217551769,-178.23623376620336
6.846682112,0.9988445093062467,-178.35621552386888
6.84897024,0.9988713721070188,-178.47601311601863
6.851258368,0.9989705338152673,-178.59672840489867
6.853547008,0.9991355637315276,-178.7193377627013
6.855835136,0.9993560314232841,-178.84475334738147
6.858123776,0.9996179698841814,-178.97366086937126
6.860411904,0.9999046627214684,-179.1065602577436
6.862700032,1.0001978961066957,-179.24363191193308
6.864988672,1.0004789402781056,-179.38488983244434
6.8672768,1.0007300938209964,-179.52997360203452
6.86956544,1.0009353488006492,-179.67839100325057
6.871853568,1.0010817352375863,-179.82933756887275
6.874141696,1.0011598371026118,-179.98190564532456
6.876430336,1.0011648329660396,179.8649574242291
6.878718464,1.0010962351622976,179.71227562742058
6.881007104,1.0009582439984277,179.5611184758523
6.883295232,1.0007600114296211,179.41242345815695
6.88558336,1.000513538219832,179.26697009882764
6.887872,1.0002349154943462,179.12535947300617
6.890160128,0.9999414864136492,178.98790053294252
6.892448768,0.9996520461354647,178.85474415644686
6.894736896,0.9993850119698388,178.72562164043907
6.897025024,0.9991572933691655,178.6001708479105
6.899313664,0.9989835561946027,178.4776244512598
6.901601792,0.9988747266009974,178.35719869866568
6.90388992,0.9988378919577314,178.23782661043538
6.90617856,0.9988753800291743,178.11849313022418
