freq,mag,phase
6.0,1.0003014063488556,29.863013927624024
6.008256,1.0003002472748432,29.65121246426906
6.016512,1.0002827420475184,29.439562406650804
6.024768,1.000249643112203,29.22820737641835
6.033023488,1.0002026851315458,29.01739004994096
6.041279488,1.0001445732573966,28.807306501695784
6.049535488,1.0000782616276267,28.598036935369198
6.057791488,1.0000074089835174,28.38962615178603
6.066047488,0.9999358520900091,28.18223640010291
6.074303488,0.9998674440235362,27.975762708097573
6.082559488,0.9998059622683944,27.770150820105286
6.090815488,0.9997546378364057,27.56530281526828
6.099070976,0.9997163479975382,27.361044280992267
6.107326976,0.9996931140064644,27.157162428993903
6.115582976,0.9996862887683617,26.95353806110652
6.123838976,0.999696179231888,26.749869951482665
6.132094976,0.9997223145928762,26.545957970269097
6.140350976,0.999763275841869,26.341593782251156
6.148606976,0.999816777288929,26.136569081209085
6.156862976,0.9998800633930196,25.930760486670554
6.165118464,0.9999496054972239,25.724064615558827
6.173374464,1.0000217135289942,25.51642385723128
6.181630464,1.0000923567321263,25.30783815740386
6.189886464,1.000157906091621,25.098272532933194
6.198142464,1.0002146472421125,24.887952986669475
6.206398464,1.0002595473185982,24.67688362948743
6.214654464,1.0002901461099958,24.465336009710466
6.222910464,1.000304929371284,24.25344274449648
6.231165952,1.000302817117656,24.041487568073133
6.239421952,1.0002841274658962,23.829699194051706
6.247677952,1.0002497257143088,23.618224321360238
6.255933952,1.0002016523490669,23.40729379693311
6.264189952,1.0001422472523265,23.19707572901691
6.272445952,1.0000748538465363,22.987698167930265
6.280701952,1.0000031357051735,22.779252109395955
6.28895744,0.9999309403640687,22.571771309916322
6.29721344,0.9998621899056588,22.365259466270157
6.30546944,0.9998005814531165,22.159592360013242
6.31372544,0.9997495337536283,21.954641268634052
6.32198144,0.9997118000849918,21.75035509148525
6.33023744,0.9996893263447996,21.54642626198593
6.33849344,0.9996834343956512,21.342736884699914
6.34674944,0.9996944809531798,21.13894680761564
6.355004928,0.9997218543089343,20.934892933462386
6.363260928,0.9997640322578346,20.73041226672592
6.371516928,0.99981884452802,20.52526423321496
6.379772928,0.9998832858490992,20.31930387852831
6.388028928,0.9999538141023145,20.112403142101915
6.396284928,1.0000265962776234,19.90459032403734
6.404540928,1.0000978583031181,19.695789403548712
6.412796928,1.0001636264495122,19.48602884380957
6.421052416,1.0002203403895622,19.275464508645143
6.429308416,1.0002648465479698,19.06421859332508
6.437564416,1.0002948441911341,18.852474360649957
6.445820416,1.0003087023600687,18.640438759753675
6.454076416,1.0003055271641734,18.42826976689991
6.462332416,1.0002855197238445,18.21631158227638
6.470588416,1.0002499590774454,18.004694773110586
6.478844416,1.0002004764627237,17.79364254084818
6.487099904,1.0001399180855883,17.583338539701032
6.495355904,1.0000713871672808,17.373841829542446
6.503611904,0.9999988064220511,17.165345954940683
6.511867904,0.9999259340360707,16.957780311627275
6.520123904,0.9998567854807591,16.751217823214873
6.528379904,0.9997951517886765,16.545455043348774
6.536635904,0.9997442857910666,16.340492009064505
6.544891392,0.9997069633606588,16.13613844047484
6.553147392,0.9996853131120602,15.93214131587086
6.561403392,0.999680448691816,15.72834483703786
6.569659392,0.9996926380943818,15.524475257911659
6.577915392,0.9997213096458291,15.32030168869712
6.586171392,0.9997647728341519,15.115683584979806
6.594427392,0.999820921039699,14.910381689211464
6.602683392,0.9998865824085176,14.704232055612666
6.61093888,0.9999581038216758,14.497197629839906
6.61919488,1.0000317407862136,14.289132322537048
6.62745088,1.0001035266744436,14.080136222870815
6.63570688,1.0001694725095982,13.87019253268961
6.64396288,1.0002261099267076,13.65941701370664
6.65221888,1.0002702951330766,13.447963140828021
6.66047488,1.000299605543932,13.235987987326277
6.66873088,1.0003125790488785,13.023773339479956
6.676986368,1.0003082616394081,12.811453764349107
6.685242368,1.0002871303672973,12.599304245910782
6.693498368,1.000250135418658,12.387535642139895
6.701754368,1.000199400883389,12.176346229916277
6.710010368,1.0001375325850883,11.965932323861402
6.718266368,1.0000679529649326,11.75636275993225
6.726522368,0.9999944158282612,11.54777324621288
6.734778368,0.999920826350687,11.340182185102536
6.743033856,0.9998512884833951,11.133475870737605
6.751289856,0.9997894953421067,10.927683703318507
6.759545856,0.9997387824346972,10.722676831970702
6.767801856,0.9997020421882542,10.518219551353287
6.776057856,0.9996811954220672,10.314173466723332
6.784313856,0.9996772319782835,10.11024679274602
6.792569856,0.9996907446908061,9.906291989477353
6.800825344,0.9997207370966078,9.70202201028374
6.809081344,0.9997656130270354,9.497270659110512
6.817337344,0.9998229338431454,9.29179311892243
6.825593344,0.9998897019076118,9.085487560580958
6.833849344,0.9999624525449934,8.878245484968572
6.842105344,1.0000369369116435,8.670035174690582
6.850361344,1.000109164018717,8.460777782951537
6.858617344,1.0001754550366597,8.250624986384286
6.866872832,1.0002320115539696,8.039618979223114
6.875128832,1.0002758477977318,7.82796617602891
6.883384832,1.0003044733579618,7.615796348206163
6.891640832,1.0003164977277919,7.40333961966229
6.899896832,1.0003111834679559,7.190848927623502
6.908152832,1.0002888206717535,6.978526735737625
6.916408832,1.0002504352152406,6.766638309950975
6.924664832,1.000198256330627,6.555307015533982
6.93292032,1.000135133580183,6.344747664534413
6.94117632,1.0000644351520094,6.135132429316703
6.94943232,0.9999898786696181,5.926390768581664
6.95768832,0.9999156072505604,5.718722868765955
6.96594432,0.9998456144048954,5.511989031002414
6.97420032,0.9997836802078747,5.3061206862768335
6.98245632,0.999733244312033,5.101014366676896
6.99071232,0.999696979158175,4.896518468222806
6.998967808,0.9996769440334137,4.6923623763960745
7.007223808,0.9996740829106886,4.488373285312835
7.015479808,0.9996886675292499,4.284288462019732
7.023735808,0.9997199716760132,4.079902437996992
7.031991808,0.9997662057918785,3.874975012602116
7.040247808,0.999824955166945,3.6693449775489086
7.048503808,0.9998929994993563,3.4628948996939144
7.056759296,0.9999666929645734,3.2554657955396964
7.065015296,1.000042008792497,3.0470190131931885
7.073271296,1.0001149723372584,2.8375598172488012
7.081527296,1.000181494595788,2.627171104962784
7.089783296,1.0002380135438496,2.415946679878779
7.098039296,1.0002814813809047,2.2040680412960754
7.106295296,1.000309567718672,1.9916964135857516
7.114551296,1.0003205873819099,1.7790496811942609
7.122806784,1.0003141702862446,1.5663471773539541
7.131062784,1.0002904492570632,1.3538678475066526
7.139318784,1.0002508117822924,1.1417681375189748
7.147574784,1.0001972880451444,0.9303078701462245
7.155830784,1.00013265284837,0.7196497353632987
7.164086784,1.0000606998503048,0.5098852071875316
7.172342784,0.9999851979508417,0.30109917763474686
7.180598784,0.9999101905005338,0.09331024619511505
7.188854272,0.9998398360203495,-0.11346788984301556
7.197110272,0.999777771972901,-0.3194042553725789
7.205366272,0.9997274288083298,-0.5245905428268218
7.213622272,0.9996917376309135,-0.7291752627001736
7.221878272,0.9996724380930555,-0.9333830813917524
7.230134272,0.9996706246421435,-1.1374753156993356
7.238390272,0.9996865323801625,-1.3416362520130418
7.246646272,0.9997191292385771,-1.546171489699458
7.25490176,0.999766785982995,-1.7512406715766868
7.26315776,0.9998269821988011,-1.9570412630995204
7.27141376,0.999896226984509,-2.163670920120901
7.27966976,0.9999711283677751,-2.371330931437323
7.28792576,1.0000473335319273,-2.5799990548206675
7.29618176,1.0001208957969057,-2.7896481290445414
7.30443776,1.000187800093486,-3.000251381516919
7.312693248,1.0002442404326364,-3.211700638829759
7.320949248,1.0002874519407734,-3.423828224150985
7.329205248,1.0003147208396164,-3.636446809614973
7.337461248,1.0003248333441288,-3.8493174171010343
7.345717248,1.0003171919195581,-4.062220177437077
7.353973248,1.0002921839362058,-4.274865175289542
7.362229248,1.000251130880032,-4.487132676829451
7.370485248,1.000196135257124,-4.698718491656991
7.378740736,1.0001301881365994,-4.9095233769652795
7.386996736,1.0000570709290149,-5.119393671776202
7.395252736,0.9999805574593719,-5.328265687338099
7.403508736,0.9999046991084752,-5.536139887267083
7.411764736,0.9998338047943486,-5.742989057413914
7.420020736,0.9997715702803803,-5.9490087825345155
7.428276736,0.9997215401924481,-6.154252834712992
7.436532736,0.9996862499509027,-6.35889333007864
7.444788224,0.999667741719442,-6.563221213536345
7.453044224,0.9996670882905172,-6.767427933325338
7.461300224,0.9996842121747134,-6.971733104675008
7.469556224,0.9997182740573315,-7.176367007929071
7.477812224,0.9997673455591561,-7.3815845761514876
7.486068224,0.9998289679429923,-7.587541264763049
7.494324224,0.9998995736873223,-7.794391883182931
7.502580224,0.9999755310235822,-8.002226883451232
7.510835712,1.0000527679790219,-8.211098727679035
7.519091712,1.0001269347638262,-8.42102006833634
7.527347712,1.000194053148582,-8.631872871021148
7.535603712,1.00025067503281,-8.84354884917448
7.543859712,1.0002933720390923,-9.05589481602268
7.552115712,1.000320063549134,-9.26873902860101
7.560371712,1.0003292281426068,-9.481849614224606
7.5686272,1.0003204238027814,-9.694952886349924
7.5768832,1.0002940375735798,-9.907813330775774
7.5851392,1.000251512770754,-10.120204435998646
7.5933952,1.0001950489223308,-10.33198355691778
7.6016512,1.0001278376145206,-10.54291259471361
7.6099072,1.0000534167247974,-10.752910392032014
7.6181632,0.9999756729467875,-10.9618764020615
7.6264192,0.9998990968347402,-11.16981881395522
7.634674688,0.9998277319961936,-11.376769827951817
7.642930688,0.9997652489371727,-11.582838573067333
7.651186688,0.9997153921834737,-11.788143679735315
7.659442688,0.9996806264944051,-11.992907465764645
7.667698688,0.9996630008641068,-12.19732202133768
7.675954688,0.9996633453255326,-12.401597244976237
7.684210688,0.9996817434543417,-12.606019108825048
7.692466688,0.9997171972454645,-12.810798302154241
7.700722176,0.9997678223209314,-13.016171005204942
7.708978176,0.999830819153364,-13.2223011688804
7.717234176,0.9999029662919954,-13.429346431284793
7.725490176,0.9999801391175163,-13.637417808357338
7.733746176,1.0000582457086202,-13.846516278256281
7.742002176,1.0001331017476385,-14.056638856965453
7.750258176,1.000200623737246,-14.267725695729734
7.758514176,1.0002571246812715,-14.479661552129517
7.766769664,1.0002995713437373,-14.69228185092242
7.775025664,1.0003255211806892,-14.905388596739394
7.783281664,1.0003338105858468,-15.118701754223787
7.791537664,1.000323796466285,-15.33200205943993
7.799793664,1.000295992510558,-15.545040821717118
7.808049664,1.0002518980124089,-15.757644107206616
7.816305664,1.0001939312367254,-15.969569296169352
7.824561152,1.000125295703828,-16.18065346483944
7.832817152,1.000049468408657,-16.390768220229567
7.841073152,0.9999707282951148,-16.599823069388023
7.849329152,0.9998933468215607,-16.807844850553234
7.857585152,0.9998213514354952,-17.014914757201268
7.865841152,0.9997587754966293,-17.22105008435882
7.874097152,0.9997090091573899,-17.426442930954128
7.882353152,0.9996747405192334,-17.63127121729488
7.89060864,0.9996578644548669,-17.83576203165427
7.89886464,0.9996593503300584,-18.040166458263712
7.90712064,0.9996791208331949,-18.24470539297801
7.91537664,0.9997160901410932,-18.44963272149856
7.92363264,0.9997681393215505,-18.655134262793595
7.93188864,0.9998327903496155,-18.861456018359597
7.94014464,0.9999062669013905,-19.068724761052188
7.94840064,0.9999847042991977,-19.276998641551188
7.956656128,1.0000638937117525,-19.4863318670706
7.964912128,1.0001393661718514,-19.696728021656615
7.973168128,1.0002072686445185,-19.908071054725397
7.981424128,1.0002637952592166,-20.120250361716025
7.989680128,1.0003058712278925,-20.33311893648079
7.997936128,1.0003312205802755,-20.546427067987985
8.006192128,1.000338544659661,-20.759988447842932
8.014448128,1.0003272666315361,-20.97354251325681
8.022703616,1.0002980666733985,-21.18677963075187
8.030959616,1.0002523721995413,-21.399576272147286
8.039215616,1.0001928244674965,-21.61167279299421
8.047471616,1.0001227052777932,-21.822890214305687
8.055727616,1.0000455086833946,-22.03311061326427
8.063983616,0.9999655945677685,-22.24229344302653
8.072239616,0.9998872648055878,-22.450432477647183
8.080495104,0.9998147566539047,-22.657571164711264
8.088751104,0.999752001542681,-22.863794142619227
8.097007104,0.9997023875500787,-23.06923744384653
8.105263104,0.9996687345305848,-23.274170064892783
8.113519104,0.9996526764740185,-23.478744673878982
8.121775104,0.9996552881207029,-23.683247028762143
8.130031104,0.9996763556468604,-23.887929281262625
8.138287104,0.9997148618654284,-24.09299110605941
8.146542592,0.9997685685775785,-24.29867899368248
8.154798592,0.9998345819128588,-24.505175515397763
8.163054592,0.9999097522297338,-24.71263597156719
8.171310592,0.9999893224539674,-24.92112843172202
8.179566592,1.0000695544496743,-25.13069430336064
8.187822592,1.000145863074325,-25.341322145945067
8.196078592,1.0002140600549954,-25.55296518382519
8.204334592,1.0002707973253078,-25.765422199958813
8.21259008,1.0003124783324502,-25.97854986334658
8.22084608,1.0003371705900757,-26.192127777372864
8.22910208,1.0003433503563834,-26.40592213788152
8.23735808,1.0003308970697247,-26.61966990985383
8.24561408,1.0003002105875192,-26.833159932947243
8.25387008,1.0002529861241967,-27.046129621920723
8.26212608,1.0001918495597673,-27.258381339035076
8.27038208,1.000120060806269,-27.469738889808372
8.278637568,1.0000414168184164,-27.680130962976225
8.286893568,0.9999604677081165,-27.889413141348324
8.295149568,0.9998810835443661,-28.097658072132806
8.303405568,0.999807988993215,-28.304851129837513
8.311661568,0.9997450297352731,-28.51116037539359
8.319917568,0.9996955470168148,-28.71672894603546
8.328173568,0.9996624028395144,-28.92172139749671
8.336429056,0.9996472619518157,-29.12640406983124
8.344685056,0.9996509347506313,-29.331024613499228
8.352941056,0.9996733784457316,-29.5358204833493
8.361197056,0.9997134353177894,-29.741000732682014
8.369453056,0.9997688019406717,-29.946868124524883
8.377709056,0.9998365252681849,-30.153587492287098
8.385965056,0.9999130514022697,-30.361242778577225
8.394221056,0.9999941856757999,-30.569957207927594
8.402476544,1.0000754472489666,-30.77980678486377
8.410732544,1.0001525280445054,-30.990686856143906
8.418988544,1.0002212220201405,-31.202567953767705
8.427244544,1.0002778647035442,-31.41532510548978
8.435500544,1.0003193481226385,-31.628715618629226
8.443756544,1.0003432814416604,-31.84255223174288
8.452012544,1.0003484679273007,-32.05660926146814
8.460268544,1.0003345231720855,-32.27059422669498
8.468524032,1.0003025073917347,-32.48430111667297
8.476780032,1.000253569051122,-32.69748522494926
8.485036032,1.00019089033279,-32.90990428773788
8.493292032,1.0001174357357772,-33.121437164712454
8.501548032,1.0000374469717945,-33.3319311592305
8.509804032,0.9999549890307979,-33.5413415909123
8.518060032,0.9998747780680538,-33.74967704961469
8.526316032,0.9998010406469301,-33.95698582414973
8.53457152,0.9997378086706513,-34.16336202200431
8.54282752,0.9996884523233591,-34.369014374557935
8.55108352,0.9996558049990859,-34.574105793788384
8.55933952,0.9996415303244363,-34.77888254837142
8.56759552,0.9996464609025549,-34.983629564133466
8.57585152,0.9996702994573817,-35.188533343194884
8.58410752,0.9997120293711981,-35.39389564756857
8.59236352,0.9997689425241268,-35.599936108189674
8.600619008,0.9998384310912449,-35.80681574760356
8.60887552,0.9999164877763825,-36.01469440498216
8.617131008,0.9999990519754451,-36.22367571995757
8.625386496,1.0000813900284005,-36.433760563687585
8.633643008,1.0001593316378472,-36.64493418593274
8.641898496,1.0002285254365155,-36.85706938394618
8.650155008,1.0002851742432148,-37.070081621821764
8.658410496,1.0003262182767232,-37.28376653971295
8.666667008,1.000349565550907,-37.49790349164739
8.674922496,1.0003536972633722,-37.71218104272954
8.683179008,1.000338551037969,-37.92644116641362
8.691434496,1.000304805467248,-38.140395138965566
8.699689984,1.0002543472535501,-38.35374759525189
8.707946496,1.0001898463509529,-38.56634548934836
8.716201984,1.000114676919065,-38.77804286833312
8.724458496,1.0000331696669733,-38.98867976600398
8.732713984,0.9999494763603285,-39.19821782170316
8.740970496,0.999868231197036,-39.406649380650286
8.749225984,0.9997937790473652,-39.614060749699846
8.757481472,0.9997303120524202,-39.820538536886595
8.765737984,0.9996812419288443,-40.02624916372798
8.773993472,0.9996489626440674,-40.23147481910805
8.782249984,0.9996355983225037,-40.43634635948373
8.790505472,0.9996417771441302,-40.641189732488144
8.798761984,0.9996670526364182,-40.84624317718172
8.807017472,0.9997103997965774,-41.05174998577625
8.815273984,0.9997691572159855,-41.25796237579474
8.823529472,0.9998402964894759,-41.46506538510428
8.83178496,0.999920128735145,-41.67315462396826
8.840041472,1.0000039887730143,-41.882361902054384
8.84829696,1.0000875534464213,-42.09271502247531
8.856553472,1.0001664231061227,-42.30414374961375
8.86480896,1.0002360456570067,-42.51659345259196
8.873065472,1.0002927745471777,-42.7299044708715
8.88132096,1.0003335070588806,-42.943861257577495
8.889576448,1.0003561598995543,-43.158286893038756
8.89783296,1.0003592615765162,-43.37286738015937
8.906088448,1.0003427466997572,-43.587354954144004
8.91434496,1.000307315452891,-43.8015318820119
8.922600448,1.000255059544594,-44.01512324986951
8.93085696,1.0001887817701045,-44.22792285909608
8.939112448,1.0001119806467056,-44.43977067760431
8.947367936,1.0000289075720359,-44.65055935430891
8.955624448,0.9999437845693214,-44.8602164347714
8.963879936,0.9998614922041216,-45.06877684277754
8.972136448,0.9997863733373705,-45.27627875365288
8.980391936,0.9997225825176884,-45.482836506716396
8.988648448,0.9996734410448945,-45.68866548152499
8.996903936,0.9996418961709668,-45.89394974056596
9.005160448,0.9996293208265016,-46.098937965864856
9.013415936,0.9996367769121524,-46.30389028857417
9.021671424,0.999663593084129,-46.509095243805476
9.029927936,0.9997086614758977,-46.714753318380225
9.038183424,0.999769251179767,-46.921158484873494
9.046439936,0.9998422167406845,-47.12843630931417
9.054695424,0.999923567866026,-47.33678464854146
9.062951936,1.0000091071213424,-47.546233665994535
9.071207424,1.0000939612768476,-47.756855231002575
9.079462912,1.0001735315224987,-47.96858681205857
9.087719424,1.0002437955238468,-48.181326925614734
9.095974912,1.0003005711365789,-48.3949297710308
9.104231424,1.0003410441267329,-48.609187757316704
9.112486912,1.0003629172199933,-48.823879177628385
9.120743424,1.0003648913721193,-49.03875111642156
9.128998912,1.0003469383909163,-49.25354130706956
9.1372544,1.000309998852089,-49.46791263879166
9.145510912,1.0002559051530526,-49.681740514676186
9.1537664,1.0001877899948786,-49.89474429637263
9.162022912,1.0001091664972614,-50.106769077469785
9.1702784,1.000024356258703,-50.317710471630186
9.178534912,0.9999379543602516,-50.527487734251466
9.1867904,0.9998543859189056,-50.73617234091559
9.195046912,0.9997786260691954,-50.94375113048606
9.2033024,0.9997145377811913,-51.15040554473082
9.211557888,0.9996653981140589,-51.35633733074319
9.2198144,0.9996343929929944,-51.561695439678104
9.228069888,0.9996228145734791,-51.76679992486211
9.2363264,0.9996314602766455,-51.97187890367409
9.244581888,0.9996599424862119,-52.177212616200876
9.2528384,0.9997067283997582,-52.38303213835788
9.261093888,0.999769046748919,-52.58963325247494
9.269349376,0.9998438874848367,-52.797128686220205
9.277605888,0.999927135560415,-53.00570861758462
9.285861376,1.0000142220753854,-53.215434140502275
9.294117888,1.0001003300093863,-53.42633340843231
9.302373376,1.0001809939728126,-53.638342932704234
9.310629888,1.0002516851617327,-53.85140114167873
