freq,mag,phase
6.0,0.9997725403754857,-1.3895915098424254
6.005369344,0.9999551123857132,-1.5665044668726003
6.010738176,1.0001406865647928,-1.7459903344448187
6.01610752,1.000318222260516,-1.928119460054911
6.021476352,1.000477377540985,-2.1126312366816276
6.026845696,1.0006086708550153,-2.2992147756636356
6.032214528,1.0007044695786231,-2.4874187701809927
6.037583872,1.0007593683014946,-2.676728026852317
6.042953216,1.000769751769719,-2.8665637112229643
6.048322048,1.0007353202958502,-3.0562749703480363
6.053691392,1.0006579153520685,-3.2452374696280746
6.059060224,1.000541954101479,-3.432915821776542
6.064429568,1.0003942235786745,-3.6188119821857985
6.069798912,1.000223489589852,-3.8025260565825336
6.075167744,1.0000395645643847,-3.9838469638009792
6.080537088,0.9998533483814993,-4.162599220937583
6.08590592,0.999675783057397,-4.33888193697278
6.091275264,0.9995170718461572,-4.51283836818973
6.096644096,0.9993866919885079,-4.684824844970073
6.10201344,0.9992921594198394,-4.855267498178155
6.107382784,0.9992393091973215,-5.024718875382163
6.112751616,0.9992311808157586,-5.193778223474634
6.11812096,0.999268129094697,-5.363154511962589
6.123489792,0.9993481502258775,-5.533348356825854
6.128859136,0.9994665569755937,-5.704979123860632
6.134227968,0.9996163095511176,-5.878552576364665
6.139597312,0.9997888268911806,-6.054365553699362
6.144966656,0.9999738512890507,-6.232810875181581
6.150335488,1.000160682522907,-6.41386264611103
6.155704832,1.000338406655699,-6.597514974544732
6.161073664,1.0004962531829886,-6.783518783685622
6.166443008,1.0006254946956705,-6.9716300746523325
6.17181184,1.0007181189230783,-7.161332206347419
6.177181184,1.0007690207327185,-7.352071023533915
6.182550528,1.000774990704288,-7.543236678586185
6.18791936,1.0007356803650636,-7.734271850934639
6.193288704,1.0006533654607477,-7.924491092016821
6.198657536,1.0005328230157045,-8.113333366768254
6.20402688,1.0003810948134106,-8.300346245990823
6.209396224,1.00020718664934,-8.485147751314017
6.214765056,1.0000209176019368,-8.667436585169936
6.2201344,0.9998335104237618,-8.847221614837157
6.225503232,0.999655865818883,-9.024471816855762
6.230872576,0.9994981572862907,-9.199468350393042
6.236241408,0.9993699872320713,-9.372474210455344
6.241610752,0.9992788058887655,-9.544022115796762
6.246980096,0.9992298107745968,-9.714555831950534
6.252348928,0.9992260550774683,-9.88487388145467
6.257718272,0.9992679482496177,-10.05545080021993
6.263087104,0.9993526958820422,-10.226961578406643
6.268456448,0.999475619182011,-10.39999809731045
6.27382528,0.9996294567651035,-10.574955419658982
6.279194624,0.9998051898893525,-10.752334971832155
6.284563968,0.9999925818216887,-10.932266575090832
6.2899328,1.0001804690373335,-11.114907635645805
6.295302144,1.0003581670074833,-11.300113194428668
6.300670976,1.0005151079629178,-11.48768396239362
6.30604032,1.000641978247905,-11.677349322217799
6.311409152,1.0007315649729658,-11.868538786923885
6.316778496,1.0007784378250706,-12.060727481244042
6.32214784,1.0007798833332078,-12.25332408212433
6.327516672,1.0007358380232312,-12.445672002560688
6.332886016,1.0006487756003966,-12.63716310340712
6.338254848,1.0005238170377908,-12.827212698606386
6.343624192,1.0003680860588244,-13.01538282540132
6.348993536,1.0001908339376997,-13.20129509303369
6.354362368,1.0000024098339342,-13.384656253208183
6.359731712,0.999813871733621,-13.565464334068896
6.365100544,0.9996360895688248,-13.743764605063758
6.370469888,0.9994796567243059,-13.919782648129912
6.37583872,0.9993537369439961,-14.093833049053686
6.381208064,0.9992656525139367,-14.266514094739321
6.386577408,0.9992206098652441,-14.438262002611486
6.39194624,0.9992214037274316,-14.609771404129699
6.397315584,0.9992679411581957,-14.781611332965158
6.402684416,0.9993574490941315,-14.95451741867194
6.40805376,0.9994849482496113,-15.128921815104398
6.413422592,0.9996426274533299,-15.305410072700392
6.418791936,0.9998215021761709,-15.484302673067008
6.42416128,1.00001120824232,-15.665818249664538
6.429530112,1.0002003042228427,-15.85001657891051
6.434899456,1.000377939809329,-16.036857084013757
6.440268288,1.0005336968040073,-16.22602664869894
6.445637632,1.00065836821627,-16.41722756912719
6.451006464,1.000744853538501,-16.60994221050151
6.456375808,1.0007877810675496,-16.803655631109386
6.461745152,1.0007847688978109,-16.99768174616738
6.467113984,1.0007359319104168,-17.191401914003894
6.472483328,1.000644156432598,-17.384171754789204
6.47785216,1.0005147138687045,-17.57550941895723
6.483221504,1.0003551341005241,-17.76484903955073
6.488590848,1.0001747033590043,-17.951863199720865
6.49395968,0.9999841781523944,-18.136355018465313
6.499329024,0.9997943732889853,-18.31826663547561
6.504697856,0.9996164843912667,-18.497630902375853
6.5100672,0.9994612683801727,-18.674737464952372
6.515436032,0.9993374288987799,-18.849935435414107
6.520805376,0.9992525598599331,-19.02371643136291
6.52617472,0.9992114534197922,-19.196659650900965
6.531543552,0.9992167076840738,-19.369406100379248
6.536912896,0.9992681126563825,-19.542609642697677
6.542281728,0.9993623758887257,-19.716854154969262
6.547651072,0.9994941259101666,-19.892767511629188
6.553019904,0.9996557202748186,-20.07074205751662
6.558389248,0.999837795651171,-20.25118967997715
6.563758592,1.0000296608393922,-20.43430930385364
6.569127424,1.0002198891602831,-20.620158461313594
6.574496768,1.0003974195655332,-20.808614985156872
6.5798656,1.0005521640528916,-20.99943756546601
6.585234944,1.000674651106628,-21.19225575456661
6.590603776,1.0007578474269665,-21.386542450261324
6.59597312,1.0007969342484244,-21.581725565438614
6.601342464,1.0007894900337935,-21.777204995357774
6.606711296,1.0007359467415584,-21.972379674059074
6.61208064,1.0006395165518118,-22.166489515582946
6.617449472,1.0005055953855675,-22.35908293377239
6.622818816,1.000342038227177,-22.54964806998892
6.62818816,1.0001587299159302,-22.73786277605215
6.633556992,0.9999658933651537,-22.923461031031664
6.638926336,0.9997749706815009,-23.1064791745025
6.644295168,0.9995971681208181,-23.286980907478885
6.649664512,0.9994429994100962,-23.46521094577358
6.655033344,0.9993214455387481,-23.641530665556843
6.660402688,0.9992396549509688,-23.816495270775373
6.665772032,0.9992024959014318,-23.990673647142934
6.671140864,0.9992121513022525,-24.16471503883005
6.676510208,0.9992681455019307,-24.33924412137613
6.68187904,0.9993671012958439,-24.514965068536938
6.687248384,0.999503325014721,-24.692333137837984
6.692617216,0.999668762780082,-24.87185182671375
6.69798656,0.9998540927271025,-25.05390851546083
6.703355904,1.00004800228583,-25.238643584259925
6.708724736,1.000239411326595,-25.42614933318401
6.71409408,1.0004169373359246,-25.616289470596687
6.719462912,1.000570413017502,-25.808762181373083
6.724832256,1.0006907511174197,-26.003198466383143
6.730201088,1.0007707011601803,-26.19909740490942
6.735570432,1.0008060313890617,-26.395850504749884
6.740939776,1.000794148312051,-26.592851500749603
6.746308608,1.000736101512568,-26.789396289050458
6.751677952,1.0006349098222234,-26.984952857429633
6.757046784,1.0004965751051926,-27.178810442927237
6.762416128,1.0003292793454654,-27.370646428550426
6.767785472,1.0001427309939814,-27.560048693892536
6.773154304,0.9999477138905584,-27.746878263853525
6.778523648,0.9997557626581871,-27.930998816805655
6.78389248,0.9995780519440288,-28.1126570643212
6.789261824,0.9994250442295844,-28.292016645053394
6.794630656,0.9993056509207112,-28.469545861616204
6.8,0.9992269821544648,-28.645706507177216
6.805369344,0.9991936352878974,-28.821186511010886
6.810738176,0.9992077170836102,-28.99654566949508
6.81610752,0.9992683168244694,-29.172454539504923
6.821476352,0.9993718729632193,-29.349605615703915
6.826845696,0.999512472733467,-29.528550868495163
6.832214528,0.9996818023750009,-29.709647274929278
6.837583872,0.9998700686234246,-29.893320666643792
6.842953216,1.0000661629052272,-30.07972701158896
6.848322048,1.000258550031213,-30.268909746943223
6.853691392,1.00043611803934,-30.46074515677021
6.859060224,1.0005885891562933,-30.65487320896469
6.864429568,1.0007065115389073,-30.85104274674499
6.869798912,1.0007835640445772,-31.048566247116632
6.875167744,1.0008150407656313,-31.246903616482598
6.880537088,1.000798747518065,-31.445426359784378
6.88590592,1.000735930507992,-31.643445138794732
6.891275264,1.0006302632417572,-31.840385967922213
6.896644096,1.0004876915776233,-32.0356091662325
6.90201344,1.0003166408985131,-32.2287216489932
6.907382784,1.0001268931498972,-32.419383648879744
6.912751616,0.9999296739035308,-32.60740236553614
6.91812096,0.9997365910122604,-32.792727108864725
6.923489792,0.9995589459986199,-32.97554171030381
6.928859136,0.9994070144099491,-33.15611512247146
6.934227968,0.9992899310165032,-33.33485282947735
6.939597312,0.9992143719106765,-33.51226749470237
6.944966656,0.9991848135167478,-33.68901340605356
6.950335488,0.9992031826422022,-33.86576323304946
6.955704832,0.9992684194476565,-34.043099299384345
6.961073664,0.9993765902979183,-34.22174627942323
6.966443008,0.9995213973137892,-34.402219651653
6.97181184,0.9996945582780669,-34.58490615533109
6.977181184,0.9998859739575477,-34.77027399508491
6.982550528,1.0000840860432068,-34.958365480382
6.98791936,1.0002776233386337,-35.14924160531596
6.993288704,1.0004551527671155,-35.34280382215567
6.998657536,1.0006064651757585,-35.53869824856811
7.00402688,1.0007222724484897,-35.73651328474902
7.009396224,1.00079632654151,-35.93571526264629
7.014765056,1.0008238199325226,-36.13568517914994
7.0201344,1.000803328566809,-36.33576106485107
7.025503232,1.0007359564027853,-36.53529538624702
7.030872576,1.0006256030403688,-36.73363238188772
7.036241408,1.0004787989959316,-36.93025719145184
7.041610752,1.0003038258999197,-37.12470050744969
7.046980096,1.0001112081949497,-37.31660628864034
7.052348928,0.9999119557357286,-37.50588189977053
7.057718272,0.9997176943976807,-37.69242817695247
7.063087104,0.9995399136229197,-37.87648435578727
7.068456448,0.9993892566033163,-38.05824828812539
7.07382528,0.9992741851334068,-38.238250496765026
7.079194624,0.9992016784790939,-38.41692741320807
7.084563968,0.9991759974562453,-38.59502345693918
7.0899328,0.999198593413732,-38.773149777356416
7.095302144,0.999268347804762,-38.951958324946986
7.100670976,0.9993811500374506,-39.13210247400758
7.10604032,0.9995303225810516,-39.314118107840045
7.111409152,0.9997072927575689,-39.49851234647192
7.116778496,0.9999014968243293,-39.685534467832504
7.12214784,1.0001018997930204,-39.87535125908117
7.127516672,1.0002965097729555,-40.067989830575385
7.132886016,1.0004740478985006,-40.263296280200365
7.138254848,1.0006241513181473,-40.460931815577815
7.143624192,1.0007380596412279,-40.6604794925581
7.148993536,1.000808946514311,-40.86132565974848
7.154362368,1.0008326567653083,-41.06297553353738
7.159731712,1.0008079992345902,-41.264637714633494
7.165100544,1.0007360712411517,-41.4656829503424
7.170469888,1.0006212874068068,-41.66550934264864
7.17583872,1.0004700293033244,-41.86354895888269
7.181208064,1.0002913917173646,-42.059342779972326
7.186577408,1.0000956190913528,-42.252584430770035
7.19194624,0.9998942022070574,-42.4431121771278
7.197315584,0.9996989216609427,-42.63095166558626
7.202684416,0.9995212287920563,-42.816188928612625
7.20805376,0.999371607980839,-42.99921635530915
7.213422592,0.9992586264923415,-43.18047100342806
7.218791936,0.999189070378065,-43.360523709632695
7.22416128,0.9991671603727006,-43.539932024551824
7.229530112,0.9991940729199787,-43.71948591882724
7.234899456,0.999268278220749,-43.89976820587346
7.240268288,0.9993855556770589,-44.08150487776359
7.245637632,0.9995389644605729,-44.26513230535422
7.251006464,0.9997196302383516,-44.451172384054566
7.256375808,0.9999170657489347,-44.63986250661188
7.261745152,1.0001194958401238,-44.83148603681703
7.267113984,1.0003153009162697,-45.02584267781133
7.272483328,1.0004928771247052,-45.22293223187214
7.27785216,1.0006418402601667,-45.42236294028036
7.283221504,1.000753682231173,-45.623676094247585
7.288590848,1.0008216449809126,-45.82627672279905
7.29395968,1.0008416486388974,-46.02958034303478
7.299329024,1.0008127467263799,-46.232874240115244
7.304697856,1.0007363900269242,-46.43545972253289
7.3100672,1.0006170092671858,-46.63679318934552
7.315436032,1.0004615491515945,-46.83623991688069
7.320805376,1.0002791134315154,-47.03342222541979
7.32617472,1.0000803999689618,-47.22801112971967
7.331543552,0.9998767902423937,-47.41983840164834
7.336912896,0.9996805663000318,-47.60894665081712
7.342281728,0.9995026815335358,-47.79547444908633
7.347651072,0.9993540231201167,-47.97980913312835
7.353019904,0.9992431537181916,-48.16236227617634
7.358389248,0.9991765533869988,-48.34372123692193
7.363758592,0.9991583553058597,-48.52455771954473
7.369127424,0.9991893772994422,-48.705575275417296
7.374496768,0.999268209328208,-48.88735282047313
7.3798656,0.9993900737643728,-49.07061261239261
7.385234944,0.9995477484062232,-49.25589224356466
7.390603776,0.9997321322765931,-49.44359512956201
7.39597312,0.9999324483186919,-49.63407134223116
7.401342464,1.0001371324032173,-49.82739946589568
7.406711296,1.0003339700733958,-50.02363891431609
7.41208064,1.0005115451531863,-50.22252279713959
7.417449472,1.0006597145943272,-50.42372853793668
7.422818816,1.000769312398562,-50.626815318914026
7.42818816,1.000834316731567,-50.83115450477923
7.433556992,1.0008507830958733,-51.036116820695575
7.438926336,1.0008176137905886,-51.241074776617985
7.444295168,1.0007367124370963,-51.445306091805875
7.449664512,1.0006129868608398,-51.64813090395126
7.455033344,1.0004534175683297,-51.84904374248291
7.460402688,1.0002671364199434,-52.04768201690673
7.465772032,1.0000652933169913,-52.24360865766531
7.471140864,0.999859716142826,-52.43675607040316
7.476510208,0.9996619373249925,-52.62719800811441
7.48187904,0.9994842252560513,-52.81503034011392
7.487248384,0.9993364559997856,-53.00067170286494
7.492617216,0.9992277250202686,-53.18457284000616
7.49798656,0.9991640586416928,-53.367285643883235
7.503355904,0.999149368677055,-53.54954348706895
7.508724736,0.9991846569223508,-53.73201121418145
7.51409408,0.999267930118517,-53.91531016016747
7.519462912,0.9993941511967134,-54.100175191067336
7.524832256,0.9995561108332561,-54.28709199524306
7.530201088,0.9997442774164117,-54.476535147968676
7.535570432,0.9999476633421367,-54.66875863237774
7.540939776,1.00015442686804,-54.86390383325937
7.546308608,1.000352428933583,-55.061928641178106
7.551677952,1.000530243442407,-55.262634035943634
7.557046784,1.0006772049563737,-55.465667694262976
7.562416128,1.000785007152996,-55.670542558407696
7.567785472,1.0008471023668017,-55.87669957257197
7.573154304,1.000859921082319,-56.08341800223609
7.578523648,1.0008225358072185,-56.29002687666852
7.58389248,1.0007373987283181,-56.49582693222093
7.589261824,1.000609145748382,-56.70024620705301
7.594630656,1.0004452998495492,-56.902654422820746
7.6,1.0002553688059546,-57.10272133737044
7.605369344,1.0000504857709431,-57.30005737272392
7.610738176,0.9998425599617239,-57.49455420651721
7.61610752,0.9996438206404378,-57.68631231920558
7.621476352,0.999465905183763,-57.87550527486445
7.626845696,0.9993190540186998,-58.062443743546744
7.632214528,0.9992121156131454,-58.24771661819155
7.637583872,0.9991512991876487,-58.43183294490072
7.642953216,0.9991403892988151,-58.61551688821784
7.648322048,0.9991797517575713,-58.79943343126774
7.653691392,0.9992671630790629,-58.9843560124304
7.659060224,0.9993979607686092,-59.170810512270904
7.664429568,0.9995641598143629,-59.35941119414319
7.669798912,0.999755875801829,-59.550565974864305
7.675167744,0.9999624263120731,-59.74454100647164
7.680537088,1.0001714819542875,-59.94149421485798
7.68590592,1.0003706649348345,-60.14136959732045
7.691275264,1.000548652384498,-60.34394582462254
7.696644096,1.0006947684211496,-60.54884378120071
7.70201344,1.0008005931112853,-60.75551689930286
7.707382784,1.000860054014916,-60.96345852842552
7.712751616,1.0008692315786527,-61.17189494024744
7.71812096,1.000827802215542,-61.3801921037776
7.723489792,1.0007383015323879,-61.5876973847536
7.728859136,1.000605624521738,-61.793659020180534
7.734227968,1.0004373984460944,-61.99761630765312
7.739597312,1.0002439003218053,-62.19912323052882
7.744966656,1.000035834830032,-62.39788707815124
7.750335488,0.9998257765714524,-62.59380004442767
7.755704832,0.9996257839681241,-62.78689654739948
7.761073664,0.9994475103566379,-62.97744439958873
7.766443008,0.9993016498967501,-63.16572849993655
7.77181184,0.9991965875842174,-63.352366739802626
7.777181184,0.9991385325335204,-63.53789354033351
7.782550528,0.9991311295332794,-63.72302785667429
7.78791936,0.9991745236145861,-63.90848779876625
7.793288704,0.9992665442532196,-64.09491639065706
7.798657536,0.99940152161224,-64.28302205427221
7.80402688,0.9995718354181563,-64.47331112785025
7.809396224,0.9997675652455272,-64.66622927739301
7.814765056,0.9999770693997835,-64.86202708395963
7.8201344,1.0001884433074066,-65.06077808842801
7.825503232,1.000388838886042,-65.26249836831146
7.830872576,1.0005670364686285,-65.46693800063144
7.836241408,1.0007123983598163,-65.67367681762882
7.841610752,1.0008163181539338,-65.882248704973
7.846980096,1.0008730521842408,-66.09197073049201
7.852348928,1.0008787041561706,-66.30219022178349
7.857718272,1.0008334302316408,-66.51220691427802
7.863087104,1.0007393307272587,-66.72136533504033
7.868456448,1.0006023203047945,-66.92895107037195
7.87382528,1.0004301812482075,-67.13443987284
7.879194624,1.0002325958871723,-67.3374468376148
7.884563968,1.000021569500541,-67.53761894019758
7.8899328,0.9998092159819614,-67.73497187263922
7.895302144,0.9996078086342414,-67.929444898495
7.900670976,0.999429339616806,-68.12132767129607
7.90604032,0.9992841985420728,-68.31104105677471
7.911409152,0.9991809906065847,-68.49904952342187
7.916778496,0.9991256402830299,-68.68601505904685
7.92214784,0.9991216149049192,-68.87265129802961
7.927516672,0.9991691466838385,-69.0595764610228
7.932886016,0.999265342145765,-69.24760417446727
7.938254848,0.9994047952452884,-69.43734009605113
7.943624192,0.9995793644019768,-69.62933745619496
7.948993536,0.9997788296611151,-69.82397551791006
7.954362368,0.9999914603206299,-70.02159468205129
7.959731712,1.0002050983083481,-70.22222329431035
7.965100544,1.0004069383862002,-70.42580270081922
7.970469888,1.000585376029319,-70.63211942271725
7.97583872,1.0007298919122534,-70.84075253195157
7.981208064,1.0008321572666292,-71.05115006034286
7.986577408,1.000886147558228,-71.26272712182893
7.99194624,1.0008884800189628,-71.47473867543809
7.997315584,1.000839075150679,-71.68652176118822
8.002684416,1.0007409403764744,-71.89733624353306
8.00805376,1.0005994320077343,-72.1065433518395
8.013422592,1.000422946659338,-72.31358624582799
8.018791936,1.0002217350989837,-72.51808293814433
8.02416128,1.000007536355693,-72.7197418940027
8.029530112,0.9997927341927919,-72.91850083724526
8.034899456,0.9995899503862045,-73.11437013485559
8.040268288,0.9994111979839755,-73.30765883873526
8.045637632,0.9992668155889606,-73.49872990432866
8.051006464,0.9991652350021093,-73.68815993761112
8.056375808,0.9991125766546972,-73.87655020734589
8.061745152,0.9991118613336517,-74.06466325139228
8.067113984,0.9991632855442448,-74.25316469839007
8.072483328,0.999263808368838,-74.44275609839599
8.07785216,0.9994077023236808,-74.6341684868926
8.083221504,0.9995865590980864,-74.82782659939683
8.088590848,0.999789707537328,-75.0242590511531
8.09395968,1.000005606444769,-75.22368495524825
8.099329024,1.0002215619015966,-75.42616606342762
8.104697856,1.0004248469594623,-75.63163620536326
8.1100672,1.0006036920265355,-75.83984900303987
8.115436032,1.0007476327529434,-76.05036821995841
8.120805376,1.000848181352649,-76.26263846296862
8.12617472,1.0008995498581463,-76.47607787376057
8.131543552,1.0008985598868891,-76.68987149499311
8.136912896,1.0008452263259753,-76.90343760201992
8.142281728,1.000742705914776,-77.11591986991425
8.147651072,1.0005968483426737,-77.3267577899382
