freq,mag,phase
6.0,1.0000292851784245,-26.26277848963154
6.01702144,1.0000463274336135,-26.853346120235724
6.034042368,1.0000628283452102,-27.444150777840715
6.051063808,1.0000768806917075,-28.0352163514283
6.068085248,1.000088028449023,-28.626366710595544
6.085106176,1.0000956083960801,-29.21775590047364
6.102127616,1.000099618553953,-29.809231829089747
6.119149056,1.000099617813556,-30.40072648056927
6.136169984,1.0000957986582246,-30.992292418435273
6.153191424,1.0000880976723137,-31.58379921513239
6.170212864,1.0000771127645227,-32.175205953784975
6.187233792,1.0000629547704534,-32.76651913123153
6.204255232,1.000046401965165,-33.35776030718361
6.221276672,1.0000280403713737,-33.94879197019484
6.238298112,1.0000085295349732,-34.53961713875424
6.25531904,0.9999888831586772,-35.13031431539993
6.27234048,0.9999696637946242,-35.72077376362308
6.28936192,0.9999518144519935,-36.31105949314136
6.306382848,0.9999357762999863,-36.90120924550459
6.323404288,0.9999226738085171,-37.491191571636634
6.340425728,0.9999126142771051,-38.08111628525172
6.357446656,0.9999063513125674,-38.67099201255531
6.374468096,0.9999036709467132,-39.260795747352894
6.391489536,0.999905236156599,-39.850630874228
6.408510464,0.9999106827628523,-40.44059416399846
6.425531904,0.9999198045001696,-41.030633545925454
6.442553344,0.9999322592257409,-41.620866581425304
6.459574272,0.9999475339936089,-42.21130459492795
6.476595712,0.9999652089878108,-42.80194595961642
6.493617152,0.999984445193964,-43.392849922343366
6.51063808,1.0000043395001095,-43.983983547273084
6.52765952,1.0000243209459134,-44.575420220576895
6.54468096,1.0000433491359448,-45.16711899973153
6.561701888,1.000060860109883,-45.759089535028664
6.578723328,1.0000760277464402,-46.351229825581655
6.595744768,1.000088415114138,-46.94360099999949
6.612766208,1.000097252138786,-47.53612124383942
6.629787136,1.0001022569304976,-48.128767040187164
6.646808576,1.0001032688297646,-48.72150057858768
6.663830016,1.0001003009594958,-49.314223072599916
6.680850944,1.000093430171316,-49.90696350975595
6.697872384,1.0000825923317034,-50.499637501496615
6.714893824,1.000068690017616,-51.09217390852169
6.731914752,1.0000521334972485,-51.68460197844532
6.748936192,1.0000335665378508,-52.27686061442338
6.765957632,1.0000134893330128,-52.86892195399271
6.78297856,0.9999931974118089,-53.46081327146299
6.8,0.9999731067087216,-54.05250072164345
6.81702144,0.999954086523826,-54.64402789957199
6.834042368,0.9999371413401369,-55.23533686243555
6.851063808,0.9999226253323182,-55.82649669630737
6.868085248,0.9999114944321569,-56.41757639651716
6.885106176,0.9999038988069769,-57.00855414227489
6.902127616,0.9999001727280038,-57.59956094828271
6.919149056,0.9999006401228947,-58.19050251300474
6.936169984,0.9999053318505219,-58.78156785005197
6.953191424,0.9999138499556849,-59.37270468452497
6.970212864,0.9999260807397506,-59.96405420721818
6.987233792,0.9999413348604473,-60.55556174859316
7.004255232,0.9999590794956312,-61.14730177049764
7.021276672,0.9999786681612487,-61.739294812493284
7.038298112,0.9999992761791825,-62.331553733229796
7.05531904,1.0000200670495472,-62.92407976697603
7.07234048,1.000040195474081,-63.51690686215666
7.08936192,1.000058702024542,-64.10996890981058
7.106382848,1.0000752216032522,-64.70330688113252
7.123404288,1.0000887165670824,-65.29682807300593
7.140425728,1.0000987732814455,-65.89054468198184
7.157446656,1.0001049978661536,-66.48438125218523
7.174468096,1.000107237555845,-67.07826536090727
7.191489536,1.0001050064515375,-67.67227013593413
7.208510464,1.00009880400414,-68.26620477425072
7.225531904,1.0000886594235823,-68.86011384849512
7.242553344,1.0000749963265207,-69.45389673623308
7.259574272,1.000058447768424,-70.04756515768625
7.276595712,1.000039484030951,-70.64105188845865
7.293617152,1.0000190796363455,-71.23437349525081
7.31063808,0.9999977774579183,-71.82746593712118
7.32765952,0.9999769273848785,-72.42036728374431
7.34468096,0.9999567844462242,-73.01307497528973
7.361701888,0.9999385324327751,-73.60558381079548
7.378723328,0.9999227861045186,-74.19794767517223
7.395744768,0.999910316100236,-74.79016599435455
7.412766208,0.9999014263623935,-75.38232300359768
7.429787136,0.9998966200488739,-75.97439774407583
7.446808576,0.9998960600281495,-76.56651734574068
7.463830016,0.9998997911366604,-77.15864384242984
7.480850944,0.9999076495013963,-77.75091355795914
7.497872384,0.999919466835306,-78.34330339964093
7.514893824,0.9999345350125365,-78.93590594668811
7.531914752,0.9999524118320894,-79.52871352603083
7.548936192,0.9999723873000012,-80.12180293627027
7.565957632,0.999993586591108,-80.71515737412798
7.58297856,1.0000152720489748,-81.30879307235747
7.6,1.0000364479698183,-81.90271142389324
7.61702144,1.0000563335091583,-82.49692324901642
7.634042368,1.0000740534930246,-83.09137070878015
7.651063808,1.000088995966839,-83.68605138908714
7.668085248,1.0001004374858142,-84.28091719220824
7.685106176,1.000107960791874,-84.87592503346868
7.702127616,1.000111371337309,-85.4710555974813
7.719149056,1.000110167397317,-86.06622401732241
7.736169984,1.0001048109226356,-86.66138142294349
7.753191424,1.000095201569711,-87.25651943664816
7.770212864,1.0000818210107996,-87.85152977471444
7.787233792,1.0000653562263104,-88.44642860334659
7.804255232,1.0000461564277559,-89.04115363820809
7.821276672,1.0000251019651383,-89.63569664599139
7.838298112,1.0000032291219616,-90.22999931827898
7.85531904,0.9999811926743626,-90.82412576958312
7.87234048,0.9999599888187319,-91.41802154704673
7.88936192,0.9999402506995638,-92.01170487640664
7.906382848,0.9999231775715857,-92.60522641849863
7.923404288,0.999909269491456,-93.19856380433667
7.940425728,0.9998989831382034,-93.79183336631897
7.957446656,0.9998928181662483,-94.38503732205581
7.974468096,0.999891143371225,-94.97821371129098
7.991489536,0.999893875860625,-95.57144003592461
8.008510464,0.9999009689711819,-96.16478802664453
8.025531904,0.9999122254985259,-96.75823585387916
8.042553344,0.9999272178737233,-97.35188430066036
8.059574272,0.9999451341150468,-97.94577457361578
8.076595712,0.9999654899082528,-98.53988297616787
8.093617152,0.9999875087466992,-99.13430762358789
8.11063808,1.0000100600050295,-99.7290097573232
8.12765952,1.000032399028151,-100.32401072751783
8.14468096,1.000053580383903,-100.91929090525844
8.161701888,1.0000728479628826,-101.51485937505932
8.178723328,1.0000892150644372,-102.11066712531122
8.195744768,1.0001021644367782,-102.7066750359066
8.212766208,1.0001111164815086,-103.30284042494056
8.229787136,1.0001157325836303,-103.89911722659672
8.246808576,1.000115872211678,-104.49546020490553
8.263830016,1.0001112944544897,-105.09183952733456
8.280850944,1.0001024971854469,-105.68815678212063
8.297872384,1.0000895173968791,-106.28437294577829
8.314893824,1.0000729908073283,-106.88048769173037
8.331914752,1.000053506681987,-107.47641376952124
8.348936192,1.0000320378515426,-108.07215444112538
8.365957632,1.000009285833593,-108.66763445997172
8.38297856,0.999986186974048,-109.26292992550256
8.4,0.9999636390171962,-109.85797096999612
8.41702144,0.9999426124923552,-110.4528138140676
8.434042368,0.9999239743888724,-111.04746390143579
8.451063808,0.999908339891622,-111.6419539469285
8.468085248,0.9998964794292746,-112.23629884808221
8.485106176,0.9998889735509222,-112.83053841452214
8.502127616,0.9998858780495853,-113.42481941664487
8.519149056,0.9998875661178709,-114.01905656242252
8.536169984,0.9998938915058452,-114.61340279942416
8.553191424,0.9999045339762509,-115.20787348569998
8.570212864,0.9999192154110423,-115.80254442053077
8.587233792,0.9999372674608468,-116.39742638333847
8.604255232,0.9999580498707751,-116.99255019692924
8.62127616,0.9999807037605071,-117.58797455316054
8.638298112,1.0000042361687187,-118.18369185778546
8.65531904,1.000027753329556,-118.77970906863354
8.672339968,1.0000504157893912,-119.37602766685765
8.68936192,1.000071152372746,-119.97265669601957
8.706382848,1.0000891620613281,-120.5695272616935
8.723403776,1.0001038350045466,-121.16662967505023
8.740425728,1.000114362324003,-121.76389394996836
8.757446656,1.0001205429698488,-122.3613066430814
8.774467584,1.0001218625971688,-122.9588168266903
8.791489536,1.0001183852855318,-123.55633050416806
8.808510464,1.0001103311433628,-124.15381034230958
8.825532416,1.0000978511573362,-124.75118632908269
8.842553344,1.0000814409296979,-125.3484802681196
8.859574272,1.0000618768419338,-125.94556611901025
8.876596224,1.000039707247071,-126.54246140001862
8.893617152,1.0000161042992788,-127.13909937696071
8.91063808,0.9999918430019445,-127.73554185544842
8.927660032,0.9999679968878087,-128.331697234075
8.94468096,0.9999453697598716,-128.92764251077102
8.961701888,0.9999249867034031,-129.52334680417675
8.97872384,0.9999076430725683,-130.1188799333736
8.995744768,0.9998942122739195,-130.71428076643215
9.012765696,0.9998849849617969,-131.30955714154746
9.029787648,0.9998803927109174,-131.9047867171988
9.046808576,0.9998808228090926,-132.50005547961067
9.063829504,0.9998861501517081,-133.09533380158064
9.080851456,0.9998961896949804,-133.69077353582574
9.097872384,0.9999105514303813,-134.28638664926524
9.114893312,0.9999285932119886,-134.882171628448
9.131915264,0.9999497692299784,-135.47827829578776
9.148936192,0.9999730995286238,-136.07464346224518
9.16595712,0.9999976798918035,-136.67129810213592
9.182979072,1.0000225006206385,-137.26828787316828
9.2,1.0000467071820975,-137.86557119972542
9.217020928,1.0000691879518602,-138.46318453890575
9.23404288,1.000088972939072,-139.06106502287125
9.251063808,1.0001054700302292,-139.65919150948466
9.268084736,1.0001177756269717,-140.25752657166996
9.285106688,1.000125572947538,-140.85600718027442
9.302127616,1.0001283259477172,-141.45455526084157
9.319148544,1.0001261255334635,-142.05318165735477
9.336170496,1.0001188133581767,-142.65175761870503
9.353191424,1.0001069848344588,-143.2502770091434
9.370212352,1.0000907322364718,-143.84864858675274
9.387234304,1.0000709390254392,-144.44687536874804
9.404255232,1.0000483231674617,-145.04483955738553
9.42127616,1.000023762655435,-145.64260549943435
9.438298112,0.999998237581948,-146.24009414530485
9.45531904,0.9999728918693742,-146.83734700761988
9.472339968,0.9999485784102324,-147.43432250543893
9.48936192,0.999926386650664,-148.03103515703168
9.506382848,0.9999072091720359,-148.62759386237434
9.523403776,0.9998918029567516,-149.2239312854215
9.540425728,0.9998807722525548,-149.82018448413987
9.557446656,0.999874597337385,-150.41634449002208
9.574467584,0.9998735911807555,-151.01248027847
9.591489536,0.9998777723511799,-151.6086884368966
9.608510464,0.9998869890418367,-152.2049735255828
9.625532416,0.999900959274462,-152.80143667669896
9.642553344,0.9999190138427708,-153.39810944949397
9.659574272,0.9999405921289544,-153.99502964615783
9.676596224,0.9999645706639678,-154.59225096505526
9.693617152,0.9999903143101021,-155.1897894125244
9.71063808,1.0000165903964833,-155.78766412976296
9.727660032,1.0000424326100676,-156.38586300532242
9.74468096,1.0000667216772867,-156.98437695688202
9.761701888,1.00008857618015,-157.58319109933427
9.77872384,1.0001070249570208,-158.18227482191855
9.795744768,1.000121298631534,-158.78156505805268
9.812765696,1.0001309263303364,-159.3810431920049
9.829787648,1.0001353537183892,-159.98063078353562
9.846808576,1.0001345461580793,-160.5802574102539
9.863829504,1.000128267582466,-161.17987546551478
9.880851456,1.0001170430260797,-161.77944966571846
9.897872384,1.0001011073899977,-162.37885297087786
9.914893312,1.0000811393410498,-162.9781228088951
9.931915264,1.00005802947842,-163.57715940190633
9.948936192,1.0000325018095335,-164.1759393521818
9.96595712,1.0000056833706015,-164.77447600955756
9.982979072,0.999978765086819,-165.37268381485532
10.0,0.9999525737457602,-165.97062497300539
10.017020928,0.9999283336513332,-166.56831620078273
10.03404288,0.9999069904678225,-167.16574908573588
10.051063808,0.9998894922572862,-167.76302051080575
10.068084736,0.9998764643206791,-168.36011142324887
10.085106688,0.9998684686415407,-168.95711992781185
10.102127616,0.9998658713372217,-169.55407220882083
10.119148544,0.9998687123157612,-170.15106471140535
10.136170496,0.9998769897967686,-170.748145187458
10.153191424,0.9998903755798184,-171.34538079428546
10.170212352,0.9999083690992323,-171.94282830650766
10.187234304,0.9999301529615873,-172.54051474668952
10.204255232,0.9999550036672319,-173.13848700180802
10.22127616,0.9999819476005931,-173.7368122964446
10.238298112,1.0000097614960601,-174.33545061829932
10.25531904,1.0000373474710906,-174.93445211911515
10.272339968,1.0000636696438643,-175.53379930627477
10.28936192,1.0000878228129482,-176.1334472350149
10.306382848,1.0001084059972163,-176.73338612785622
10.323403776,1.0001249305532003,-177.33356378664593
10.340425728,1.000136544543611,-177.93394970603302
10.357446656,1.0001428619348514,-178.53445818170795
10.374467584,1.00014364453675,-179.13505299869675
10.391489536,1.0001385576478274,-179.7356357070412
10.408510464,1.000128198113761,179.6638333226551
10.425532416,1.0001125671791333,179.06344424944567
10.442553344,1.0000925742085987,178.46321121058415
10.459574272,1.0000688843924215,177.86321074465596
10.476596224,1.0000423063637296,177.2634786037048
10.493617152,1.0000142265765257,176.66403149094808
10.51063808,0.9999853996055056,176.06489630897238
10.527660032,0.9999572324747171,175.4660388962813
10.54468096,0.9999308166370943,174.86748505577762
10.561701888,0.999907135918541,174.26920479137735
10.57872384,0.9998872253073763,173.67114986151574
10.595744768,0.999871893576739,173.07327980884781
10.612765696,0.9998617779034052,172.47553499295034
10.629787648,0.9998572959035591,171.8778385201228
10.646808576,0.9998586863737451,171.2801540593629
10.663829504,0.9998658935327907,170.68240746165318
10.680851456,0.999878655088587,170.08450806269138
10.697872384,0.9998964321054653,169.4864304622435
10.714893312,0.9999185720614082,168.88807773120053
10.731915264,0.9999442134453285,168.2894431054944
10.748936192,0.9999723417067904,167.69046064830906
10.76595712,1.0000017996050026,167.09112249702585
10.782979072,1.0000314036890052,166.49143766370608
10.8,1.0000600371472985,165.89137894203563
10.817020928,1.0000865346752037,165.2909824263257
10.83404288,1.0001096718114606,164.69025956423027
10.851063808,1.000128567719317,164.08928226623843
10.868084736,1.0001425586483195,163.48808926295698
10.885106688,1.000150999067382,162.88675250314006
10.902127616,1.0001534862681694,162.28529769718568
10.919148544,1.0001499264498976,161.68386387777358
10.936170496,1.0001405151413711,161.08244792343856
10.953191424,1.0001254182330306,160.48115192394965
10.970212352,1.0001053139504215,159.8800237315055
10.987234304,1.0000811308282107,159.27915410819423
11.004255232,1.0000535136495137,158.67854365078924
11.02127616,1.000023787761363,158.0782328034335
11.038298112,0.9999931718977454,157.47824723406137
11.05531904,0.9999628135674583,156.87862962948358
11.072339968,0.9999338609612078,156.27929245909672
11.08936192,0.9999075136096056,155.68026736208293
11.106382848,0.9998850528974813,155.08150173058073
11.123403776,0.9998671370819046,154.48295301949386
11.140425728,0.9998546316814146,153.88457423062138
11.157446656,0.9998479907804282,153.28624871727953
11.174467584,0.9998476779302127,152.68798014842977
11.191489536,0.9998535265660896,152.08965789837325
11.208510464,0.9998655109708036,151.49121392351924
11.225532416,0.9998829234733225,150.89258436804568
11.242553344,0.9999054281618743,150.29371842659077
11.259574272,0.9999318582259773,149.69453360259308
11.276596224,0.9999613093827178,149.09499745945442
11.293617152,0.9999925650000018,148.49510575481722
11.31063808,1.0000243485615259,147.89484311321792
11.327660032,1.000055531243183,147.29418407127818
11.34468096,1.0000846686598543,146.69316567015034
11.361701888,1.0001105928585072,146.0918004117446
11.37872384,1.0001323040511105,145.49013007721484
11.395744768,1.0001490162322646,144.8882083460541
11.412765696,1.0001597698349978,144.28611968215932
11.429787648,1.0001643585323747,143.68392165853558
11.446808576,1.000162505604084,143.08168349249414
11.463829504,1.0001542126108103,142.47947589870344
11.480851456,1.0001397308911375,141.87737949925997
11.497872384,1.0001197019800059,141.27545314720285
11.514893312,1.000094875571178,140.67375634076473
11.531915264,1.0000662010721564,140.07235401054913
11.548936192,1.0000348096405365,139.47127608267417
11.56595712,1.0000020985242992,138.87056147786697
11.582979072,0.9999692011328247,138.27020019020037
11.6,0.9999375055221454,137.67019414509699
11.617020928,0.9999084082522934,137.07051736216403
11.63404288,0.9998828510015336,136.47115053448465
11.651063808,0.9998619801836613,135.87204041342622
11.668084736,0.9998467159135039,135.2731077833283
11.685106688,0.9998376450754589,134.67430224539822
11.702127616,0.9998353027164294,134.0755603530748
11.719148544,0.9998396037350048,133.4767851984031
11.736170496,0.9998505792380834,132.87792817456287
11.753191424,0.9998677067610113,132.2788787011217
11.770212352,0.9998903303586093,131.67960406165693
11.787234304,0.999917605276185,131.07999399711818
11.804255232,0.999948522458398,130.48004646485754
11.82127616,0.9999816986969269,129.8797209419943
11.838298112,1.0000159347901658,129.27900099638734
11.85531904,1.0000498472650696,128.67785372350207
11.872339968,1.0000820441231502,128.07631300863528
11.88936192,1.0001111298964445,127.47439470478828
11.906382848,1.0001361258646995,126.87215608197157
11.923403776,1.0001557506358119,126.26963248177694
11.940425728,1.000169418488004,125.6668970881012
11.957446656,1.0001764110745903,125.06402815007065
11.974467584,1.0001765109121636,124.46108355871104
11.991489536,1.0001694933952794,123.85816789639769
12.008510464,1.0001558721142352,123.2553456989788
12.025532416,1.0001359455940093,122.65268826124657
12.042553344,1.0001105565675086,122.05029801644527
12.059574272,1.0000806787291485,121.44819566271954
12.076596224,1.0000476213031235,120.84643959719492
12.093617152,1.0000125495858379,120.2450627891109
12.11063808,0.9999768054836471,119.64407456953364
12.127660032,0.9999420751616247,119.04347613522124
12.14468096,0.999909503704811,118.44326022074114
12.161701888,0.9998806227877445,117.84337011012117
12.17872384,0.9998564285215811,117.24378700158722
12.195744768,0.999838066526324,116.6444503769369
12.212765696,0.9998262308805883,116.04526116347348
12.229787648,0.9998214103606957,115.44616918028026
12.246808576,0.9998238635861638,114.84708533385029
12.263829504,0.9998335914796014,114.24791437834172
12.280851456,0.9998502085645895,113.64857048853936
12.297872384,0.9998729916896084,113.04900987173285
12.314893312,0.9999011537485295,112.44912986755367
12.331915264,0.9999335556949726,111.84891271843941
12.348936192,0.9999690418733175,111.2482685776619
12.36595712,1.0000059340442848,110.64721019537409
12.382979072,1.0000429672976632,110.0457042354896
12.4,1.0000785203080942,109.44376679067848
12.417020928,1.0001112429114074,108.84142741985525
12.43404288,1.0001398918683353,108.23871482965225
12.451063808,1.000163022649405,107.63568074402639
12.468084736,1.000179917704864,107.03240227919883
12.485106688,1.0001897131349409,106.42895224063173
12.502127616,1.0001919828765689,105.82540354192103
12.519148544,1.0001868285716955,105.22186281753284
12.536170496,1.0001742059868317,104.61839877125615
12.553191424,1.0001545016691615,104.01510980173082
12.570212352,1.000128564608845,103.41208070343177
12.587234304,1.0000974310644695,102.80934241629025
12.604255232,1.0000624035207604,102.20697716637112
12.62127616,1.0000247124914448,101.60502077326213
12.638298112,0.9999859385223544,101.00348442041441
12.65531904,0.999947632271863,100.40239993464682
12.672339968,0.999911266442632,99.80170910528913
12.68936192,0.9998784124952462,99.20142439346105
12.706382848,0.9998504545829623,98.60149895946638
12.723403776,0.9998283774017002,98.00183949462003
12.740425728,0.9998132367562862,97.40238705973591
12.757446656,0.9998056655964745,96.80306747634916
12.774467584,0.9998059323680659,96.20378114719692
