freq,mag,phase
6.0,1.0002030224312104,29.394482396736084
6.007968256,1.000097600681836,29.189881523393385
6.015936,0.9999865514090416,28.986721580770055
6.023904256,0.9998761860182718,28.78506643296948
6.031872512,0.9997723365829384,28.584836324222266
6.039840768,0.9996809754687999,28.3859544683417
6.047808512,0.9996069766665612,28.18813512603623
6.055776768,0.9995545680282923,27.991164603681618
6.063745024,0.9995265917433838,27.794763933557732
6.07171328,0.9995246288674787,27.598540025621478
6.079681024,0.999548760687288,27.40216960600801
6.08764928,0.999597658967637,27.205283108606043
6.095617536,0.9996688061935993,27.007606870484867
6.103585792,0.9997581473186659,26.80878175176936
6.111553536,0.9998608797739256,26.60863961403485
6.119521792,0.9999712544336768,26.407093949904493
6.127490048,1.0000833225130412,26.204027596177063
6.135458304,1.0001907577944367,25.999449636465673
6.143426048,1.000287810941486,25.793518505907283
6.151394304,1.0003690829190133,25.586291835983776
6.15936256,1.0004300060963363,25.378139629786368
6.167330816,1.0004673031406885,25.169307540207733
6.17529856,1.000478915449394,24.960115152050395
6.183266816,1.0004640745837696,24.750928491870287
6.191235072,1.0004236929715093,24.542130249587057
6.199203328,1.0003598333856047,24.333972303512425
6.207171072,1.000276146103645,24.126853048101513
6.215139328,1.0001770480967302,23.920924260759815
6.223107584,1.0000680627049787,23.71640603646877
6.23107584,0.9999551808329027,23.5133780264293
6.239043584,0.9998445597890991,23.311845985696237
6.24701184,0.9997423664239004,23.111761092979982
6.254980096,0.9996542188105026,22.912889141554885
6.262948352,0.999584903811106,22.715143911557885
6.270916096,0.999538329526608,22.518166602420198
6.278884352,0.9995170880307395,22.32161228782839
6.286852608,0.999522331192486,22.125168033820223
6.294820864,0.9995538574080481,21.928464587359638
6.302788608,0.9996098715958656,21.73119499330113
6.310756864,0.9996874327152255,21.532966624493202
6.31872512,0.9997821946149755,21.3335962017369
6.326693376,0.9998888977906512,21.132830496850445
6.33466112,1.000001837007572,20.93058426315762
6.342629376,1.0001146439121695,20.726769762037648
6.350597632,1.0002212412268068,20.521490633428492
6.358565888,1.0003156563827431,20.314806196557655
6.366533632,1.0003927717265473,20.1069759754195
6.374501888,1.000448265883348,19.898220735321548
6.382470144,1.0004791235415693,19.688894400658135
6.3904384,1.0004834568327226,19.47926914371717
6.398406144,1.000461249185807,19.26976819264706
6.4063744,1.0004135679740427,19.060751398524317
6.414342656,1.0003430266382332,18.852506070881827
6.422310912,1.00025338866816,18.645316246789292
6.430278656,1.0001497300022577,18.439459089278337
6.438246912,1.0000376366540684,18.234978781878386
6.446215168,0.9999233060394194,18.032077902689387
6.454183424,0.9998129292828748,17.830681842612435
6.462151168,0.9997126894290026,17.63068213773493
6.470119424,0.9996281353159645,17.431922746085707
6.47808768,0.9995638478868969,17.234146493130137
6.486055936,0.999523473359728,17.037076189010566
6.49402368,0.999509143180352,16.840397087531425
6.501991936,0.9995219282563901,16.643721079532764
6.509960192,0.9995608499380533,16.446666938614552
6.517928448,0.9996239308152274,16.248906604973858
6.525896192,0.9997076954658031,16.050141975944793
6.533864448,0.9998075616246499,15.850159046606896
6.541832704,0.9999180903215616,15.648680432476148
6.54980096,1.0000331433765293,15.445752025755175
6.557768704,1.0001463999440001,15.241196188105862
6.56573696,1.000251589339963,15.035172958454984
6.573705216,1.0003430001864433,14.827766100233688
6.581673472,1.0004156258011208,14.619308160619404
6.589641216,1.000465211920639,14.409984467376294
6.597609472,1.0004893218135131,14.200134362014898
6.605577728,1.0004863766264955,13.990142996418099
6.613545984,1.000456610462236,13.780325050348868
6.621513728,1.000401628617087,13.571063998126096
6.629481984,1.0003244378227405,13.36273754066565
6.63745024,1.0002291376079808,13.155492816225706
6.645418496,1.0001211529152614,12.949652725576861
6.65338624,1.0000062298591332,12.74532179106019
6.661354496,0.9998907319771951,12.542460438290245
6.669322752,0.9997811349500338,12.341188713960477
6.677291008,0.9996833069383078,12.141315057618257
6.685258752,0.999602829127642,11.942578066817598
6.693227008,0.9995439316993762,11.744816961406816
6.701195264,0.999510045658204,11.547655650313468
6.70916352,0.9995030233468264,11.350781722370673
6.717131264,0.9995231951003732,11.153825660673728
6.72509952,0.9995696215573514,10.956375064655218
6.733067776,0.999639773956914,10.75812923034662
6.741036032,0.9997295957538603,10.558777534370407
6.749003776,0.9998344489843398,10.358103490865771
6.756972032,0.9999483662394244,10.155986254228297
6.764940288,1.000065138379101,9.952250094142657
6.772908544,1.0001783257746388,9.746964682313667
6.780876288,1.000281834097254,9.54019336389264
6.788844544,1.0003697579093693,9.332128108534146
6.7968128,1.0004373920328289,9.12297012708078
6.804781056,1.000480945210152,8.913048533221852
6.8127488,1.0004980111598842,8.70272012690285
6.820717056,1.0004875742237513,8.492284541727745
6.828685312,1.0004501657746476,8.282206313592306
6.836653568,1.0003879374389857,8.072778614118747
6.844621312,1.000304155052569,7.8643164652380255
6.852589568,1.0002034727685325,7.657072295520006
6.860557824,1.000091432764995,7.4512723040077375
6.86852608,0.9999740157425512,7.246991604700461
6.876493824,0.9998579226070459,7.044290558790627
6.88446208,0.999749391773249,6.84310660521098
6.892430336,0.9996544009257653,6.6432749057799505
6.900398592,0.9995782491402041,6.444604356752612
6.908366336,0.9995252646914361,6.246813848944873
6.916334592,0.9994980940928824,6.049521142697004
6.924302848,0.9994984732926999,5.852421051534308
6.932271104,0.9995263857866379,5.655122705156548
6.940238848,0.9995803475969481,5.457231417896711
6.948207104,0.9996573593218323,5.258465483475603
6.95617536,0.9997531774232368,5.05854207019514
6.964143616,0.999862651875875,4.857201318896332
6.97211136,0.9999796691008271,4.654295973516699
6.980079616,1.0000978791969273,4.449822806516826
6.988047872,1.0002106480966657,4.243735590519566
6.996016128,1.0003118064728087,4.036202715822874
7.003983872,1.000395944183995,3.827407198579479
7.011952128,1.0004582852478305,3.617602160820388
7.019920384,1.0004952964504856,3.4070881642669435
7.02788864,1.0005050589855877,3.196306700584723
7.035856384,1.0004869729007857,2.9855028636944927
7.04382464,1.0004419180534383,2.775125183711101
7.051792896,1.0003724147628337,2.5655057614415746
7.059761152,1.000282242327692,2.356942536121145
7.067728896,1.0001763263864336,2.1496923964884562
7.075697152,1.0000605059053067,1.9439572782172052
7.083665408,0.9999411229607539,1.7397505200952306
7.091633664,0.9998246637082526,1.5371484674345313
7.099601408,0.9997177063262164,1.3360613378043407
7.107569664,0.9996260361924711,1.1362833230966285
7.11553792,0.9995547849487524,0.9376456580994188
7.123506176,0.9995077003728311,0.7397354008985897
7.13147392,0.9994877080801566,0.5423242919469066
7.139442176,0.999495800039355,0.3449637496387176
7.147410432,0.9995314727291565,0.14729913276503345
7.155378688,0.9995929394077913,-0.051049290277486184
7.163346432,0.999676831896512,-0.25037828858318656
7.171314688,0.999778304199757,-0.4509677678932515
7.179282944,0.9998921463778132,-0.6530107892960508
7.1872512,1.0000119434141728,-0.8566895212233621
7.195218944,1.0001311359172402,-1.0619635649681738
7.2031872,1.0002429868562601,-1.268819596897032
7.211155456,1.0003416023157676,-1.477138288612606
7.219123712,1.0004213977003453,-1.6866510322729293
7.227091456,1.0004780580368786,-1.8971385536843128
7.235059712,1.0005082779123393,-2.108188556429722
7.243027968,1.0005104440389225,-2.3194903027520066
7.250996224,1.0004844714158527,-2.5306566765552243
7.258963968,1.00043184531576,-2.74130244598842
7.266932224,1.000355069539629,-2.9510915176147496
7.27490048,1.0002587251734476,-3.159702112944797
7.282868736,1.00014784743259,-3.3669824447774954
7.29083648,1.0000285730644811,-3.5726716805626912
7.298804736,0.9999075148499221,-3.776765564734317
7.306772992,0.9997912546996676,-3.9792777290889036
7.314741248,0.9996862311440553,-4.1802872212880295
7.322708992,0.9995983107289701,-4.380005213774621
7.330677248,0.9995321886731692,-4.578703019585565
7.338645504,0.999491691340293,-4.776662237325392
7.34661376,0.9994790312086741,-4.974274099544034
7.354581504,0.9994948456809977,-5.171968956800076
7.36254976,0.9995384970841104,-5.369991864198041
7.370518016,0.9996075138294608,-5.568847324579855
7.378486272,0.999697918884949,-5.76876259926416
7.386454016,0.9998050621529219,-5.970059928420729
7.394422272,0.9999229589007594,-6.1728862189319855
7.402390528,1.0000451836850093,-6.377331368637204
7.410358784,1.0001648294112528,-6.583417414320695
7.418326528,1.0002754173757724,-6.791114324877628
7.426294784,1.0003708988451696,-7.000180491632817
7.43426304,1.0004459986294159,-7.210457959281913
7.442231296,1.000496524129779,-7.421547189800368
7.45019904,1.0005197522783498,-7.6331850714898435
7.458167296,1.0005142499059059,-7.844950816341716
7.466135552,1.0004802015911698,-8.056491084041015
7.474103808,1.0004197650317654,-8.267388565066259
7.482071552,1.000335961934297,-8.47734334200208
7.490039808,1.0002334168308282,-8.686050069035351
7.498008064,1.000117897629357,-8.893315272065566
7.50597632,0.9999955636422873,-9.098946725019298
7.513944064,0.9998732912599243,-9.3029508003626
7.52191232,0.9997575440019083,-9.505351154129066
7.529880576,0.9996549744794865,-9.706328123173291
7.537848832,0.9995712213344925,-9.90598671615328
7.545816576,0.9995107772663275,-10.104750977933074
7.553784832,0.9994770644102614,-10.302842779355094
7.561753088,0.9994720512035187,-10.500652028604966
7.569721344,0.9994959369018993,-10.69866379168201
7.577689088,0.9995473770416489,-10.897175085612407
7.585657344,0.9996238665388338,-11.096549104406938
7.5936256,0.9997209424356036,-11.297138589562314
7.601593856,0.9998334467294674,-11.499130141616215
7.6095616,0.9999550600074182,-11.702733120933376
7.617529856,1.0000791797441975,-11.90802031550554
7.625498112,1.0001990379017693,-12.114938697066329
7.633466368,1.000307816784704,-12.323446746190239
7.641434112,1.0003998472911422,-12.533303539201835
7.649402368,1.0004697638446158,-12.744303539416812
7.657370624,1.0005137828026993,-12.956089671829499
7.66533888,1.000529522362089,-13.168299725849138
7.673306624,1.0005160929701309,-13.380513474085108
7.68127488,1.0004740871833746,-13.592369326232648
7.689243136,1.00040580269992,-13.8035386366373
7.697211392,1.0003149541557697,-14.013640969614427
7.705179136,1.0002067280509281,-14.222397330320367
7.713147392,1.0000867017493635,-14.429613318765064
7.721115648,0.9999616056141207,-14.635218100514155
7.729083904,0.9998384449546179,-14.839144788358713
7.737051648,0.9997237934309021,-15.041481794007261
7.745019904,0.9996240747742831,-15.242379517962872
7.75298816,0.9995448708307816,-15.442069862569497
7.760956416,0.9994903655002408,-15.640862297988422
7.76892416,0.9994639166381271,-15.839143472607859
7.776892416,0.999466707973799,-16.03724062036138
7.784860672,0.9994987933765968,-16.235583878871186
7.792828928,0.9995584451950991,-16.43457460185854
7.800796672,0.9996422499632309,-16.634535386498463
7.808764928,0.9997457416041939,-16.835777120569336
7.816733184,0.9998632772653526,-17.038530748332082
7.82470144,0.9999882763793717,-17.24295105179756
7.832669184,1.0001141021577278,-17.449054939063004
7.84063744,1.0002336167734491,-17.656863401920013
7.848605696,1.0003402988580956,-17.866211156112456
7.856573952,1.0004282136937437,-18.07689465198148
7.864541696,1.000492576864607,-18.28860845385786
7.872509952,1.0005298721830875,-18.501034700314552
7.880478208,1.0005379256935893,-18.713780670845264
7.888446464,1.000516186397497,-18.926470456777285
7.896414208,1.0004660080692391,-19.138715889716472
7.904382464,1.0003900079254837,-19.35009280747679
7.91235072,1.000292253826349,-19.56030401019527
7.920318976,1.00017826300569,-19.7691404798408
7.92828672,1.000054110194616,-19.976364637313022
7.936254976,0.9999267007554434,-20.181882173695357
7.944223232,0.9998031378760925,-20.385724841173392
7.952191488,0.9996899286520106,-20.5880008794079
7.960159232,0.999593451947763,-20.78885687935406
7.968127488,0.9995193956230861,-20.98856385315855
7.976095744,0.9994713807726804,-21.187441326670562
7.984064,0.9994523664662698,-21.385894258999997
7.992031744,0.9994633103654139,-21.58429947475169
8.0,0.9995036802716117,-21.78305455481839
8.007968256,0.9995713045722974,-21.98255706765212
8.015936,0.9996625433365377,-22.18314867223303
8.023904256,0.9997723823314024,-22.385113999274985
8.031872512,0.9998946641779877,-22.588653999149116
8.039840768,1.0000226781256483,-22.793944663740152
8.047808512,1.0001496471736089,-23.000916112852398
8.055776768,1.0002684515652356,-23.209590313526167
8.063745024,1.0003724170000383,-23.419804074702945
8.07171328,1.0004559554153492,-23.631275047546254
8.079681024,1.0005143074355871,-23.84374983115727
8.08764928,1.00054442273465,-24.056838691719705
8.095617536,1.0005445150537595,-24.270145671342714
8.103585792,1.0005144490428537,-24.483283170326793
8.111553536,1.0004560400507887,-24.6957926769015
8.119521792,1.0003722054537996,-24.90740536623908
8.127490048,1.0002677695700644,-25.117777705853545
8.135458304,1.0001483319373472,-25.326602531708712
8.143426048,1.000020336618528,-25.53381296967021
8.151394304,0.99989090249707,-25.73929281549358
8.15936256,0.9997673847849233,-25.943075781490748
8.167330816,0.9996561643958686,-26.145283811134707
8.17529856,0.9995636111870121,-26.346090227954345
8.183266816,0.9994948728898899,-26.545839021832357
8.191235072,0.9994537831104437,-26.74485517298055
8.199203328,0.9994424128539198,-26.94353934117876
8.207171072,0.9994618238036798,-27.142278988687703
8.215139328,0.9995104897275179,-27.34149791467175
8.223107584,0.9995862245873212,-27.541559080081036
8.23107584,0.9996847846964961,-27.742820355397374
8.239043584,0.9998005269643641,-27.945554689269933
8.24701184,0.99992739246132,-28.14991488483586
8.254980096,1.00005823750112,-28.356046871383242
8.262948352,1.000185942033103,-28.563943577393164
8.270916096,1.0003034223016916,-28.773536694792583
8.278884352,1.0004042605659123,-28.984602017198654
8.286852608,1.000482992204414,-29.196898598029694
8.294820864,1.00053500954553,-29.41009617450313
8.302788608,1.0005575566814575,-29.62382918159948
8.310756864,1.0005493541178434,-29.837692792933787
8.31872512,1.0005108362485924,-30.051238778091143
8.326693376,1.0004439507797114,-30.264104202518347
8.33466112,1.000352558448447,-30.475917925601753
8.342629376,1.0002414182873722,-30.68637458398749
8.350597632,1.0001167106915465,-30.895268192527293
8.358565888,0.9999853829348407,-31.102418769407567
8.366533632,0.99985442096825,-31.30784526568522
8.374501888,0.9997311650494601,-31.511560550979716
8.382470144,0.9996223412437797,-31.713721906645958
8.3904384,0.999534146358666,-31.914557949828062
8.398406144,0.9994713341645269,-32.114354527157055
8.4063744,0.9994372869166891,-32.313563406391964
8.414342656,0.9994342122270394,-32.51248625833569
8.422310912,0.9994619957555587,-32.71158843602241
8.430278656,0.99951948711498,-32.91130880943637
8.438246912,0.9996032550937461,-33.111951990515124
8.446215168,0.9997089253602908,-33.313928985319386
8.454183424,0.9998305358841066,-33.517451977537156
8.462151168,0.9999616678952131,-33.72267533963314
8.470119424,1.000094702405647,-33.92972009842323
8.47808768,1.0002227938819006,-34.13855702167636
8.486055936,1.0003385397543487,-34.34904383446706
8.49402368,1.000435850534324,-34.56101238528044
8.501991936,1.0005090993264532,-34.77412621514953
8.509960192,1.0005544517923188,-34.98808286351274
8.517928448,1.0005690539981906,-35.20244454473633
8.525896192,1.0005523307929751,-35.41683355099293
8.533864448,1.0005051421464188,-35.63081384716831
8.541832704,1.0004298288630327,-35.843987741383536
8.54980096,1.0003308349958213,-36.05598986300079
8.557768704,1.000213143513732,-36.2665637789011
8.56573696,1.0000836592566544,-36.47547044280076
8.573705216,0.9999490867873376,-36.68261969985754
8.581673472,0.9998170873049999,-36.88796748472004
8.589641216,0.9996947032885761,-37.0916096236059
8.597609472,0.9995888725367503,-37.29372780325969
8.605577216,0.9995054771990495,-37.494589755421224
8.613545984,0.9994488962078996,-37.694515271414375
8.621513728,0.9994225540193489,-37.89386693909006
8.629482496,0.9994277707323952,-38.093098977640054
8.63745024,0.9994644275444785,-38.29263462005579
8.645417984,0.9995305209046307,-38.49285246061292
8.653386752,0.9996223273125273,-38.6941720565625
8.661354496,0.9997349266027514,-38.896895969041225
8.66932224,0.9998622160477,-39.101230784384626
8.677291008,0.9999972590077975,-39.3073634262424
8.685258752,1.0001324701024052,-39.51537344979094
8.69322752,1.0002602700593433,-39.725147884129626
8.701195264,1.0003738776533617,-39.93656759443775
8.709163008,1.0004671296589045,-40.14942574490379
8.717131776,1.000534493801811,-40.36336690612355
8.72509952,1.0005725234599814,-40.57805526615177
8.733067264,1.000579069128113,-40.79309876858863
8.741036032,1.0005536205817094,-41.00799338149773
8.749003776,1.0004975137423764,-41.22238571394643
8.756972544,1.000413800537435,-41.43584772713653
8.764940288,1.0003072362526997,-41.648029531090295
8.772908032,1.00018331603514,-41.85872209331911
8.7808768,1.0000490826329185,-42.06761936928486
8.788844544,0.9999117625940136,-42.274755479569244
8.796812288,0.9997789382207669,-42.48003835600712
8.804781056,0.9996579333720308,-42.68364701511376
8.8127488,0.9995556543703797,-42.885755973637586
8.820717568,0.9994773529150227,-43.08663011140441
8.828685312,0.9994276011935131,-43.28666914602484
8.836653056,0.9994092651063186,-43.486254444886704
8.844621824,0.9994231246516718,-43.68584203568814
8.852589568,0.9994687522715116,-43.88580364510143
8.860557312,0.9995435909574454,-44.08662033301488
8.86852608,0.9996434644128387,-44.28863360218483
8.876493824,0.9997630282365704,-44.4921294692158
8.884462592,0.9998957513808573,-44.6973638767598
8.892430336,1.0000342487802345,-44.90442399880333
8.90039808,1.000170907666432,-45.11337417686504
8.908366848,1.000298207433572,-45.324159654205694
8.916334592,1.0004092176369885,-45.53654124491462
8.924302336,1.0004977492087268,-45.75028786248928
8.932271104,1.0005589593852722,-45.965081023560124
8.940238848,1.000589414062332,-46.18053743000219
8.948207616,1.0005873833787367,-46.396163455767066
8.95617536,1.0005529275928486,-46.61160403775666
8.964143104,1.0004878786913058,-46.82637503915645
8.972111872,1.0003956387791668,-47.04014647842126
8.980079616,1.0002814804167275,-47.25248892546928
8.98804736,1.0001516126778673,-47.463240944886415
8.996016128,1.0000130138725931,-47.672194659895204
9.003983872,0.9998733227302385,-47.8792742107288
9.01195264,0.99974032335301,-48.0845248879733
9.019920384,0.999621108808474,-48.2880822002633
9.027888128,0.9995225646851186,-48.490163905815336
9.035856896,0.9994500064494173,-48.691150549064986
9.04382464,0.9994075087439991,-48.8913244799703
9.051792384,0.9993974731943517,-49.09115857996111
9.059761152,0.9994204991095196,-49.29111030004511
9.067728896,0.999475312932885,-49.491575201930175
9.075697664,0.9995588135333262,-49.69302179794987
9.083665408,0.9996666980808321,-49.89574546600782
9.091633152,0.9997930526626884,-50.10007528600773
9.09960192,0.9999307554846996,-50.30622567715316
9.107569664,1.0000725000081692,-50.5142725792967
9.115537408,1.000210352991056,-50.724241110171626
9.123506176,1.0003365230778347,-50.936002231812196
9.13147392,1.0004443838265173,-51.14937061406224
9.139442688,1.0005280062064181,-51.36404808089358
9.147410432,1.0005824126354232,-51.57968415903785
9.155378176,1.0006047663945483,-51.795864325729745
9.163346944,1.0005939349510693,-52.012132369475054
9.171314688,1.0005501385394227,-52.228085680773866
9.179282432,1.0004760030597768,-52.44326848048608
9.1872512,1.0003754088497285,-52.65726545070937
9.195218944,1.0002539495688523,-52.86981372501222
9.203187712,1.0001181399007646,-53.08061527763693
