freq,mag,phase
6.0,0.99999373479799,133.61828838842374
6.040816128,0.9999923224444798,130.8838776627359
6.081632768,0.9999906847208638,128.1526921373044
6.122448896,0.999989140184221,125.42465669699774
6.163265536,0.9999878331344947,122.69974322358458
6.204081664,0.9999867124604747,119.97787751859111
6.244897792,0.9999858318581012,117.25898851905653
6.285714432,0.9999852027907878,114.5430263062827
6.32653056,0.9999846927728862,111.82992144458879
6.367346688,0.9999845330735811,109.11960965047422
6.408163328,0.9999845368760667,106.41201761341092
6.448979456,0.9999846586604991,103.70705493663402
6.489796096,0.999985153314985,101.00466649946308
6.530612224,0.9999856870162589,98.30473692624027
6.571428352,0.999986404841484,95.60724181953569
6.612244992,0.9999873730785643,92.91204478790014
6.65306112,0.9999884741853929,90.21906696886205
6.69387776,0.999989583105448,87.5282507511086
6.734693888,0.9999909414828269,84.83947650859487
6.775510016,0.9999923038109503,82.15266879017182
6.816326656,0.9999938592594688,79.46770986865671
6.857142784,0.9999953207869122,76.78454311764943
6.897959424,0.9999968442609399,74.10305729177847
6.938775552,0.9999983303561942,71.42312190420631
6.97959168,0.9999999653552488,68.74470708134464
7.02040832,1.0000013748006702,66.0676503497325
7.061224448,1.0000028163203976,63.391870572786175
7.102040576,1.0000042628451118,60.71727660766879
7.142857216,1.0000055851928817,58.043749240788884
7.183673344,1.0000067751153232,55.37122566916471
7.224489984,1.0000079077762427,52.69956073262193
7.265306112,1.0000089416699203,50.0286503259519
7.30612224,1.0000098607942998,47.358404547969585
7.34693888,1.0000106498034225,44.68875108748908
7.387755008,1.0000112809347794,42.019522663483656
7.428571648,1.0000117550058039,39.3506606226622
7.469387776,1.0000121815294722,36.68204753882014
7.510203904,1.000012492149494,34.01356870997355
7.551020544,1.000012570882325,31.345134332384916
7.591836672,1.0000127499023226,28.67663241227077
7.632653312,1.000012656815546,26.007966100167728
7.67346944,1.0000125182662545,23.339038845195926
7.714285568,1.0000123250709476,20.669709654770088
7.755102208,1.0000120319968964,17.999929112155748
7.795918336,1.000011692300249,15.329562349998964
7.836734464,1.000011307934642,12.658517554279758
7.877551104,1.0000109982920578,9.986698797651407
7.918367232,1.0000106737341987,7.313987648801444
7.959183872,1.0000103039674153,4.640313727100776
8.0,1.000009978962837,1.9655613763872315
8.040816128,1.0000096813817154,-0.710357024669787
8.081632768,1.0000094281904008,-3.3875457240498874
8.122448896,1.0000092787998334,-6.066073459626597
8.163265536,1.0000091180302955,-8.746064701898666
8.204081664,1.0000091511318825,-11.427589544121954
8.244897792,1.0000092198398447,-14.110724413455337
8.285714432,1.000009392473108,-16.79557859806496
8.32653056,1.0000096815863286,-19.482221773752535
8.367346688,1.0000099835654233,-22.17075047237173
8.408163328,1.000010522222128,-24.86123702787863
8.448979456,1.0000109862130986,-27.553726151007865
8.489796096,1.0000116345286274,-30.248362680220566
8.530612224,1.00001224622711,-32.94516076779834
8.571428352,1.0000129941116476,-35.644206161651944
8.61224448,1.0000137139492142,-38.34557451426195
8.65306112,1.000014547575011,-41.049321901268975
8.69387776,1.0000153565597314,-43.755502861327926
8.734693376,1.0000160865872043,-46.46419083279897
8.775510016,1.0000168257429,-49.17544070723511
8.816326656,1.0000175350694702,-51.88927886223127
8.857143296,1.000018073162082,-54.605793968706124
8.897958912,1.0000185882839068,-57.324999270419745
8.938775552,1.000018979481167,-60.04693516356453
8.979592192,1.00001914686436,-62.771673333976196
9.020407808,1.00001930971557,-65.49922107957515
9.061224448,1.0000192486262465,-68.22961020391952
9.102041088,1.0000189052854014,-70.96285750035321
9.142856704,1.0000184372783179,-73.69903155840173
9.183673344,1.0000176371884777,-76.43808506612852
9.224489984,1.0000167449541246,-79.18009198571573
9.265306624,1.0000156022499178,-81.92505359223644
9.30612224,1.000014129988994,-84.6729546742976
9.34693888,1.0000125341192407,-87.42381568476473
9.38775552,1.0000106464439344,-90.17761953058141
9.428571136,1.0000086737287992,-92.9344046766583
9.469387776,1.0000063892264328,-95.6941135081865
9.510204416,1.000003984223439,-98.45675160306648
9.551020032,1.0000013239741385,-101.22231317773695
9.591836672,0.9999986498720709,-103.99077899731819
9.632653312,0.9999958471491419,-106.76212816090869
9.673468928,0.9999929056943395,-109.53631465933239
9.714285568,0.9999899675878701,-112.31330339357956
9.755102208,0.9999869665831407,-115.09310223136303
9.795918848,0.9999840379092227,-117.87562951978481
9.836734464,0.9999810832266003,-120.6608746821374
9.877551104,0.9999783253470435,-123.448771129797
9.918367744,0.9999757492616476,-126.2392860669051
9.95918336,0.9999732587804293,-129.0323432027061
10.0,0.9999710641329631,-131.8279119379256
10.04081664,0.9999691610065861,-134.6259107218914
10.081632256,0.9999674317793154,-137.4262755537424
10.122448896,0.9999661919753589,-140.22897521317435
10.163265536,0.9999652774804146,-143.03389097264892
10.204081152,0.9999647467826411,-145.8409843017426
10.244897792,0.9999646852185916,-148.65017923402536
10.285714432,0.9999650849939239,-151.46136880171682
10.326531072,0.9999659021180487,-154.27450874666394
10.367346688,0.9999671521504007,-157.08948026903911
10.408163328,0.9999688994392719,-159.9062208513834
10.448979968,0.9999711966269426,-162.72463071553818
10.489795584,0.9999738689783174,-165.54462033133632
10.530612224,0.999977090368125,-168.36607955954784
10.571428864,0.9999807277576163,-171.18892370633014
10.61224448,0.9999847903711916,-174.01305423581525
10.65306112,0.9999892114822355,-176.83836631428835
10.69387776,0.9999939303707674,-179.66476601919197
10.734693376,0.9999991029116417,177.50785954217105
10.775510016,1.0000045279666347,174.67963150358244
10.816326656,1.0000100555802054,171.85063818958412
10.857143296,1.0000158482879293,169.02100855976238
10.897958912,1.0000216793843766,166.19084313508984
10.938775552,1.0000276433330977,163.36023751103951
10.979592192,1.0000334774681927,160.5293482311071
11.020407808,1.0000392238098672,157.6982528788358
11.061224448,1.0000449118944417,154.8670968777761
11.102041088,1.0000501734049456,152.0359785237271
11.142856704,1.0000552095863757,149.20501326344444
11.183673344,1.0000600361550864,146.37432243783525
11.224489984,1.0000642777555193,143.54400998670718
11.265306624,1.0000681704559582,140.7142173526434
11.30612224,1.00007136671302,137.88503556174612
11.34693888,1.0000739752817556,135.0566189079929
11.38775552,1.000076024362631,132.22902805481993
11.428571136,1.0000773857884833,129.4024173031027
11.469387776,1.0000779869475191,126.57688702869898
11.510204416,1.0000778860991009,123.75254319118893
11.551020032,1.0000770548195947,120.92950837516406
11.591836672,1.0000752365143601,118.10787570431172
11.632653312,1.0000728255745635,115.2877463186552
11.673468928,1.0000695936009387,112.46924935737746
11.714285568,1.0000655909671974,109.6524715311386
11.755102208,1.000060882853567,106.83751705135518
11.795918848,1.0000554584097434,104.02445269776882
11.836734464,1.0000493163222826,101.2134095645527
11.877551104,1.0000426156978048,98.40446181602485
11.918367744,1.000035272716408,95.59769024383364
11.95918336,1.0000275435134924,92.7932008732017
12.0,1.0000193241449116,89.99103553823566
12.04081664,1.0000107033459484,87.19129816733815
12.081632256,1.0000019231029706,84.39404778684872
12.122448896,0.999992977080832,81.59936760625862
12.163265536,0.9999838749025148,78.80729657476573
12.204081152,0.9999747554257956,76.01791099092327
12.244897792,0.9999658131270382,73.23128277243326
12.285714432,0.9999570469300355,70.44743262888905
12.326531072,0.9999486083978855,67.66641127622513
12.367346688,0.9999405143526964,64.8882834246696
12.408163328,0.9999329782838526,62.11306670807323
12.448979968,0.9999260179334293,59.34080431474485
12.489795584,0.999919656361875,56.571535275707255
12.530612224,0.9999140553347615,53.805257557654905
12.571428864,0.9999093913126592,51.04201268931629
12.61224448,0.9999054481327222,48.28181459263046
12.65306112,0.9999024426315084,45.524674511664635
12.69387776,0.9999005672218705,42.770597027767934
12.734693376,0.9998996311792293,40.019592847675206
12.775510016,0.9998998402849109,37.27165055692792
12.816326656,0.9999009626741879,34.526798683012515
12.857143296,0.9999033000094517,31.784982330741517
12.897958912,0.999906702974824,29.04622100846219
12.938775552,0.9999111629434771,26.310491785829107
12.979592192,0.9999166137853647,23.57778792612557
13.020407808,0.9999231214032108,20.848070185392935
13.061224448,0.999930541662002,18.121315670791176
13.102041088,0.9999390104702666,15.397509226603969
13.142856704,0.9999480327422706,12.676602369141946
13.183673344,0.9999580363733914,9.958574890304115
13.224489984,0.9999686239944604,7.243397130368005
13.265306624,0.9999797594021193,4.531011847714516
13.30612224,0.999991374201446,1.821380023265831
13.34693888,1.000003382882966,-0.885530692736987
13.38775552,1.0000155414833833,-3.5897728086761846
13.428571136,1.0000278916666776,-6.291397510283758
13.469387776,1.0000401781647903,-8.990464240510164
13.510204416,1.000052393276506,-11.686998473844547
13.551020032,1.0000644312871563,-14.381078583905083
13.591836672,1.0000759464650708,-17.072753470666196
13.632653312,1.0000869816495892,-19.76207013182909
13.673468928,1.0000975121956943,-22.44910034762674
13.714285568,1.0001071883298083,-25.133907346641287
13.755102208,1.0001162047181082,-27.81653982280861
13.795918848,1.0001241792145157,-30.497070804077584
13.836734464,1.0001311203515015,-33.17556763529718
13.877551104,1.0001368405380695,-35.85209463778179
13.918367744,1.0001414965131896,-38.52671019793444
13.95918336,1.0001448804398283,-41.19949889751572
14.0,1.0001469347387844,-43.870524027169864
