freq,mag,phase
6.0,0.9999739512679771,-44.811531247875244
6.009346048,0.9999509668932199,-45.169662908116436
6.018691584,0.9999286549618847,-45.52754198436306
6.028037632,0.9999100457121008,-45.885159666725876
6.037383168,0.9998961349347981,-46.24259948743451
6.046729216,0.9998876462460059,-46.59991741287608
6.056074752,0.9998852807256822,-46.957161176435655
6.0654208,0.9998888105052911,-47.31446669439428
6.074766336,0.9998982360634792,-47.67191895396669
6.084112384,0.9999130273453911,-48.02953694741368
6.09345792,0.9999323461047976,-48.38740200617672
6.102803968,0.9999554342255732,-48.74559893468436
6.112149504,0.999981101269167,-49.10410906158817
6.121495552,1.0000077358097168,-49.462985164730405
6.130841088,1.0000339583046243,-49.82225230553646
6.140187136,1.0000587122012345,-50.1818947668694
6.149532672,1.0000806565418272,-50.54188543060252
6.15887872,1.000098367481248,-50.90216078153124
6.168224256,1.0001112481038759,-51.262641925526104
6.177570304,1.0001185455369221,-51.6232760143595
6.18691584,1.0001198891594758,-51.984003619105955
6.196261888,1.000115082997026,-52.344761955085445
6.205607424,1.0001043879358862,-52.70540680130849
6.214953472,1.0000883877372984,-53.066002582943185
6.224299008,1.0000680821704102,-53.426319056324296
6.233645056,1.000044571978081,-53.78637437609446
6.242990592,1.0000185016651313,-54.14615750184273
6.25233664,0.9999916924097766,-54.505578932923775
6.261682176,0.999965467169468,-54.86472016247336
6.271028224,0.999941038617267,-55.22354685455448
6.28037376,0.9999197496054584,-55.58210728698889
6.289719808,0.9999028613947459,-55.94046854453897
6.299065344,0.9998909860986127,-56.29863710621454
6.308411392,0.9998849778811222,-56.65669707520726
6.317756928,0.9998848457487395,-57.01478401169773
6.327102976,0.999890987280852,-57.37292791091562
6.336448512,0.9999028847874099,-57.731229639249186
6.34579456,0.9999197285915717,-58.089750648737414
6.355140096,0.9999411688711968,-58.448532743063765
6.364486144,0.9999655023400853,-58.80764255318726
6.37383168,0.9999920040656461,-59.167118036031674
6.383177728,1.0000188953611933,-59.52695427029369
6.392523264,1.0000450020252492,-59.88720469458676
6.401869312,1.0000689728414478,-60.24777245869082
6.411214848,1.000089507071948,-60.6086853696543
6.420560896,1.000105568423951,-60.96988363523984
6.429906432,1.0001164164172334,-61.331260843671245
6.43925248,1.0001212266944834,-61.69280182348122
6.448598016,1.0001199421492966,-62.05435776918892
6.457944064,1.000112778465771,-62.4158826928117
6.4672896,1.0000997054262675,-62.777310301526825
6.476635648,1.0000817127045762,-63.13858381431965
6.485981184,1.0000595613976124,-63.49961446358324
6.495327232,1.0000344270822803,-63.860336582470985
6.504672768,1.000007744180949,-64.22078179687368
6.514018816,0.999980637271475,-64.5808989935714
6.523364352,0.9999547044066006,-64.94070337501404
6.5327104,0.9999312069066303,-65.30019312273431
6.542055936,0.9999115417209085,-65.65942995534317
6.551401984,0.9998962662554123,-66.01849257122005
6.56074752,0.9998866968002347,-66.37738937923892
6.570093568,0.9998830708448009,-66.73621917751645
6.579439104,0.9998854198616615,-67.09509659960852
6.588785152,0.9998941078897444,-67.45406157219858
6.598130688,0.9999082484126395,-67.81320502242905
6.607476736,0.9999273492636338,-68.17257762332602
6.616822272,0.9999502712327655,-68.53229094031046
6.62616832,0.9999760215188527,-68.89229197127908
6.635513856,1.00000303542872,-69.25271818674022
6.644859904,1.0000300649476368,-69.613483481687
6.65420544,1.0000557753457757,-69.9746607784867
6.663551488,1.0000787568802236,-70.33617959485218
6.672897024,1.000097858254639,-70.69797563711023
6.682243072,1.0001119668683471,-71.06002744806638
6.691588608,1.0001205446329755,-71.422268912291
6.700934656,1.0001229054607421,-71.78458944512458
6.710280192,1.0001190019774733,-72.14694606859517
6.71962624,1.0001093083910886,-72.50921978754462
6.728971776,1.000093983669621,-72.87142034789488
6.738317824,1.000073989083757,-73.23333390032829
6.74766336,1.0000502394279904,-73.59502548642628
6.757009408,1.0000240891068253,-73.95641454704095
6.766354944,0.9999967306094822,-74.31750696481102
6.775700992,0.9999696379774468,-74.67823510558124
6.785046528,0.9999442447441624,-75.03866333334824
6.794392576,0.9999218078450013,-75.39881729789285
6.803738112,0.9999036290299098,-75.75868515817153
6.81308416,0.9998904641303166,-76.11837830825233
6.822429696,0.9998830858657427,-76.47801446124271
6.831775744,0.9998818889943213,-76.8376053327569
6.84112128,0.9998870856496929,-77.1972401745951
6.850467328,0.9998979719815262,-77.55695474211228
6.859812864,0.9999144609250539,-77.91695122884619
6.869158912,0.999935559157636,-78.27718553658114
6.878504448,0.9999598978714623,-78.63776859507495
6.887850496,0.9999866588527012,-78.9986832489718
6.897196032,1.0000143847735603,-79.3599580682002
6.90654208,1.0000412973255888,-79.72167153562201
6.915887616,1.000066283028607,-80.08369790438334
6.925233664,1.000088080185357,-80.44610880916983
6.9345792,1.00010540168079,-80.80878356111288
6.943925248,1.000117529365287,-81.17164011572535
6.953270784,1.000123698303665,-81.53471658976072
6.962616832,1.0001236295894889,-81.89778966591959
6.971962368,1.0001171903195116,-82.26091240074022
6.981308416,1.0001050515313135,-82.62389766354298
6.990653952,1.000087512647378,-82.98669039437651
7.0,1.0000654928798716,-83.34930040938531
7.009346048,1.00004023239994,-83.71160116276396
7.018691584,1.0000131416843738,-84.07360252794638
7.028037632,0.999985340712681,-84.43523771005029
7.037383168,0.9999586386939904,-84.79658729800224
7.046729216,0.9999340556367949,-85.15759793834187
7.056074752,0.999912940512487,-85.51834950766802
7.0654208,0.9998963742049667,-85.8788749528799
7.074766336,0.9998853737271478,-86.23922114383885
7.084112384,0.9998803754485532,-86.59949447366172
7.09345792,0.9998818565854477,-86.9597422851056
7.102803968,0.9998893871702503,-87.32012433696696
7.112149504,0.9999028260075427,-87.68066048722704
7.121495552,0.9999215772008414,-88.04144765914597
7.130841088,0.999944353183789,-88.40249951868809
7.140187136,0.9999702056700035,-88.76389621206651
7.149532672,0.999997752127987,-89.1256900717372
7.15887872,1.000025645894468,-89.4878497553159
7.168224256,1.000052285379788,-89.8503846082231
7.177570304,1.0000764285633035,-90.21329158585104
7.18691584,1.000096879719673,-90.57651079523033
7.196261888,1.000112300265238,-90.94000115901521
7.205607424,1.0001221971325214,-91.30365242283068
7.214953472,1.0001258369028656,-91.66745307806696
7.224299008,1.0001232813432832,-92.0312449768352
7.233645056,1.0001144098221886,-92.39504727316022
7.242990592,1.0000997167166097,-92.75868178432947
7.25233664,1.0000799936498252,-93.12211729969485
7.261682176,1.0000563399395304,-93.48528970272628
7.271028224,1.0000298681609916,-93.84817113177415
7.28037376,1.0000018751956314,-94.21070102389606
7.289719808,0.9999740462414592,-94.57290167000986
7.299065344,0.9999475809964694,-94.93478306305516
7.308411392,0.9999240078444287,-95.29633278611922
7.317756928,0.999904345054432,-95.65762608713256
7.327102976,0.9998899129308988,-96.01872044193799
7.336448512,0.9998811632219793,-96.37970543801661
7.34579456,0.9998787369170615,-96.74062638487241
7.355140096,0.9998827278573899,-97.1015708379774
7.364486144,0.9998927906010173,-97.46265389210257
7.37383168,0.9999086746151971,-97.82393432810547
7.383177728,0.9999293224319828,-98.1854514303825
7.392523264,0.9999539036330096,-98.54728007219683
7.401869312,0.999980928932498,-98.90948615821128
7.411214848,1.0000090001777129,-99.27207493978403
7.420560896,1.000037018514826,-99.63503183760328
7.429906432,1.000063099554202,-99.99842550749335
7.43925248,1.000086264175279,-100.36212731982417
7.448598016,1.0001049453820032,-100.72612542295566
7.457944064,1.000118396933222,-101.09035057824343
7.4672896,1.0001259531567943,-101.45473253258652
7.476635648,1.0001271962303642,-101.81922922127377
7.485981184,1.0001218792981272,-102.18368856027472
7.495327232,1.0001104387622046,-102.54809005698894
7.504672768,1.000093458238867,-102.91228435728524
7.514018816,1.0000717509273682,-103.27631280442968
7.523364352,1.0000464359717305,-103.64002346121
7.5327104,1.000018900617771,-104.00341098425041
7.542055936,0.9999904393577517,-104.36642074750263
7.551401984,0.9999626391434688,-104.72911936924733
7.56074752,0.9999368287020786,-105.09145787675097
7.570093568,0.9999143350159742,-105.45354353172021
7.579439104,0.9998964823751185,-105.81537145348777
7.588785152,0.9998840091546262,-106.17702805256364
7.598130688,0.9998776952884856,-106.53857538559852
7.607476736,0.9998778120427574,-106.90009080606637
7.616822272,0.9998843584714221,-107.26166384918955
7.62616832,0.9998969944314139,-107.62342855324954
7.635513856,0.9999151315712379,-107.9853545910465
7.644859904,0.999937861306643,-108.34760906883403
7.65420544,0.9999638461323891,-108.71021151159889
7.663551488,0.9999919509261462,-109.07316334942111
7.672897024,1.0000204817896798,-109.436520684719
7.682243072,1.0000482881410901,-109.80025340964525
7.691588608,1.0000736463923316,-110.1643649535643
7.700934656,1.0000953669489088,-110.52882619688471
7.710280192,1.000112350217988,-110.89351070747213
7.71962624,1.0001237347113408,-111.25844104677768
7.728971776,1.0001287631443603,-111.62348829740878
7.738317824,1.0001274203510522,-111.98862032634803
7.74766336,1.0001193733065208,-112.35366445079731
7.757009408,1.0001055632556286,-112.7185807573812
7.766354944,1.000086247854075,-113.08336081619075
7.775700992,1.0000627096838712,-113.44782311996642
7.785046528,1.0000359507814318,-113.81198706280342
7.794392576,1.0000074907425953,-114.17582739027125
7.803738112,0.9999787412121771,-114.53929650058106
7.81308416,0.9999511611190729,-114.90244256652713
7.822429696,0.9999261641496624,-115.26523966409138
7.831775744,0.999905127205906,-115.62774373986362
7.84112128,0.9998890704997829,-115.99004969010986
7.850467328,0.9998789266202323,-116.35218210250957
7.859812864,0.9998750436510535,-116.7142711825997
7.869158912,0.9998777955061074,-117.07633050880423
7.878504448,0.9998870146062571,-117.43852023799658
7.887850496,0.9999020586197525,-117.80089752652046
7.897196032,0.9999225161571643,-118.1634773672151
7.90654208,0.9999469851365239,-118.5263919623526
7.915887616,0.9999743610937427,-118.88968024056625
7.925233664,1.000003167360048,-119.25336397376152
7.9345792,1.000031983145112,-119.6174027878272
7.943925248,1.0000593538568257,-119.98185950711168
7.953270784,1.0000837810594256,-120.3466570874978
7.962616832,1.000104027661516,-120.71177621141806
7.971962368,1.0001189976166485,-121.07715435471383
7.981308416,1.0001280730809876,-121.44271288081929
7.990653952,1.0001306387532478,-121.80833252202818
8.0,1.0001265660394196,-122.17400853412852
8.009346048,1.0001160603905994,-122.53957005388772
8.018691584,1.0000996982236965,-122.90496752948088
8.028037632,1.0000782423852774,-123.27017524995905
8.037383168,1.0000528890291354,-123.63507544559472
8.046729216,1.0000248871373731,-123.99964322933965
8.056074752,0.9999956738963667,-124.36386872594662
8.0654208,0.9999668529469347,-124.72771222844725
8.074766336,0.9999397960686792,-125.0912152899526
8.084112384,0.9999159198727264,-125.45440785329224
8.09345792,0.9998964731243954,-125.81732095245565
8.102803968,0.99988238281955,-126.18004430911341
8.112149504,0.9998746415228719,-126.54263960349093
8.121495552,0.9998733391703577,-126.90519848788492
8.130841088,0.9998787556021796,-127.26776730356616
8.140187136,0.9998905243804479,-127.63049905189763
8.149532672,0.9999081223776253,-127.99341427069875
8.15887872,0.9999305913470062,-128.35660669457474
8.168224256,0.999956716190777,-128.72015015542382
8.177570304,0.9999852276209105,-129.0840979344137
8.18691584,1.0000147693435613,-129.44839543900954
8.196261888,1.0000435710933158,-129.81310209689795
8.205607424,1.0000702634090324,-130.1782260744539
8.214953472,1.0000935073520345,-130.54363245387384
8.224299008,1.0001120849163987,-130.90934650525452
8.233645056,1.000124958794726,-131.2753185677692
8.242990592,1.0001315369355193,-131.64141268175928
8.25233664,1.0001314387724063,-132.00756236386692
8.261682176,1.0001246549389196,-132.373671368657
8.271028224,1.000111582007032,-132.73972183393946
8.28037376,1.0000927898073382,-133.10552170982052
8.289719808,1.00006933899019,-133.47108188538238
8.299065344,1.0000423589183633,-133.83634166750176
8.308411392,1.0000132850910743,-134.20124374535123
8.317756928,0.9999835610762696,-134.56577453217912
8.327102976,0.9999549170263548,-134.92993034139403
8.336448512,0.9999284934886593,-135.2937485193355
8.34579456,0.9999059529085139,-135.6572691629588
8.355140096,0.999888298609131,-136.02052573455657
8.364486144,0.9998764490981558,-136.38361553754459
8.37383168,0.9998710895609986,-136.7465914693817
8.383177728,0.9998725787301954,-137.10955205056194
8.392523264,0.9998807256839654,-137.47259187952767
8.401869312,0.9998950129673038,-137.83581895199046
8.411214848,0.9999149704619648,-138.19925493920493
8.420560896,0.9999394352679463,-138.5630142647771
8.429906432,0.9999670667104127,-138.92709293623025
8.43925248,0.9999965631085195,-139.29161715751593
8.448598016,1.0000264113685202,-139.6565273491842
8.457944064,1.0000550460907336,-140.0218051705108
8.4672896,1.0000809335810177,-140.38748537991177
8.476635648,1.0001027536167533,-140.7534777238219
8.485981184,1.0001194115850354,-141.1197239284553
8.495327232,1.000130120375183,-141.4861871017013
8.504672768,1.0001341001697706,-141.85276330691616
8.514018816,1.000131274315292,-142.21934436083097
8.523364352,1.0001218513770056,-142.58587568679303
8.5327104,1.0001061334240375,-142.95226486615272
8.542055936,1.0000850808154869,-143.31841069661937
8.551401984,1.000059710202052,-143.6842657943637
8.56074752,1.0000313470955955,-144.04977818179194
8.570093568,1.0000013600706399,-144.41491768733505
8.579439104,0.9999714112167452,-144.77969800660483
8.588785152,0.9999429649041544,-145.1440931331779
8.598130688,0.9999176016678796,-145.5081545204972
8.607476736,0.9998964603333517,-145.87193387126842
8.616822784,0.9998808342530953,-146.2354697986884
8.626167808,0.9998713780683776,-146.59886831613235
8.635513856,0.999868715813796,-146.96217858348083
8.644859904,0.9998728675334325,-147.32551104028002
8.654205952,0.999883724363776,-147.68898578645224
8.663550976,0.9999005970424786,-148.0526199236784
8.672897024,0.9999228280485698,-148.41652063413216
8.682243072,0.9999491137815179,-148.78077597945125
8.69158912,0.9999781557368143,-149.1453793254535
8.700934144,1.0000083976275878,-149.51040461869655
8.710280192,1.0000384662267272,-149.875838403631
8.71962624,1.0000666191672336,-150.24162994324274
8.728972288,1.0000914353599497,-150.6077795409218
8.738317312,1.0001116510465762,-150.9742732558066
8.74766336,1.000126237930428,-151.34100945410714
8.757009408,1.000134452720443,-151.70788869604894
8.766355456,1.000135794086862,-152.07485434894548
8.77570048,1.000130279085988,-152.44180528680783
8.785046528,1.0001180517686947,-152.80862828153337
8.794392576,1.000099875396242,-153.1752925324755
8.803738624,1.0000765863071155,-153.54167139075787
8.813083648,1.0000494550110361,-153.9077344454991
8.822429696,1.000019798236265,-154.27343402079373
8.831775744,0.9999891877969218,-154.63879036472966
8.841121792,0.999959129603888,-155.00372519240608
8.850466816,0.9999313567158555,-155.3682888529026
8.859812864,0.9999071638400816,-155.73252095378078
8.869158912,0.9998877057959701,-156.0965130672178
8.87850496,0.999874249706112,-156.46025995453212
8.887849984,0.9998672820504977,-156.82389330570408
8.897196032,0.9998673500619859,-157.18749964031443
8.90654208,0.9998741577964214,-157.55114378162241
8.915888128,0.9998877767501748,-157.91494307365835
8.925233152,0.9999071453400966,-158.27898217816883
8.9345792,0.999931472235393,-158.6432663525751
8.943925248,0.9999594778812342,-159.0079229640001
8.953271296,0.9999897073647741,-159.37299052393485
8.96261632,1.0000206183217446,-159.7384766022666
8.971962368,1.000050547670946,-160.10435043254063
8.981308416,1.0000779724068651,-160.4705996247507
8.990654464,1.0001015189048703,-160.8371883204537
8.999999488,1.0001200211993828,-161.20408718470634
9.009345536,1.0001323635833212,-161.57117097081925
9.018691584,1.0001379203439509,-161.9384180119937
9.028037632,1.0001365866963154,-162.30566683678487
9.03738368,1.0001282578432575,-162.67286842257172
9.046728704,1.0001133988690472,-163.03995574348312
9.056074752,1.0000927587845472,-163.40678810699475
9.0654208,1.000067344796029,-163.77335535365904
9.074766848,1.0000385552189626,-164.1395528650995
9.084111872,1.000007905458123,-164.50535451082874
9.09345792,0.9999768235869216,-164.870799698873
9.102803968,0.9999469402857744,-165.23583135153208
9.112150016,0.9999199228923067,-165.6004992891863
9.12149504,0.9998970872756522,-165.96486571595426
9.130841088,0.9998796307758963,-166.32895278315416
9.140187136,0.9998684306490345,-166.69286060457048
9.149533184,0.9998640429460762,-167.05668752317845
9.158878208,0.9998669058621112,-167.42050971698143
9.168224256,0.9998766505487162,-167.78439925946142
9.177570304,0.9998928641368751,-168.14848279946105
9.186916352,0.9999147611809193,-168.5128198524258
9.196261376,0.9999410707250118,-168.87746098993472
9.205607424,0.999970614203449,-169.24249246938453
9.214953472,1.0000017997214543,-169.60793508057435
9.22429952,1.0000331063568253,-169.9737918512256
9.233644544,1.0000626622930238,-170.34004392574985
9.242990592,1.0000892295726387,-170.70666143851182
9.25233664,1.000111332170542,-171.07363172786634
9.261682688,1.0001277200571452,-171.44083246521214
9.271027712,1.0001376851007593,-171.80821635006134
9.28037376,1.0001406737442835,-172.17568776356524
9.289719808,1.000136432426731,-172.5431846895759
9.299065856,1.0001253614110488,-172.91057899492841
9.30841088,1.000107760734606,-173.277790270236
9.317756928,1.0000846916868538,-173.64472685399718
9.327102976,1.0000573854424568,-174.0113748764643
9.336449024,1.0000270385238128,-174.3776287956621
9.345794048,0.9999955507626438,-174.7434713715445
9.355140096,0.9999642649999463,-175.1089282167664
9.364486144,0.9999348312163242,-175.47398054875882
9.373832192,0.999908894799945,-175.83869699676754
9.383177216,0.9998875640295731,-176.20306538232984
9.392523264,0.9998721485332553,-176.56721583354758
9.401869312,0.9998635257014502,-176.93122539109964
9.41121536,0.9998619549103467,-177.29516436941586
9.420560384,0.9998675893430712,-177.65912798573214
9.429906432,0.999880134552123,-178.02323245269844
9.43925248,0.9998990257920634,-178.387521592879
9.448598528,0.9999231522892478,-178.75211644461493
9.457943552,0.9999514813509539,-179.11704956198756
9.4672896,0.9999823986933555,-179.48235401185676
9.476635648,1.0000142421691127,-179.84812219023996
9.485981696,1.000045736730341,179.78571991974795
9.49532672,1.000074868896701,179.41918208349182
9.504672768,1.0001002201855906,179.05225490368284
9.514018816,1.0001205687057926,178.6850369134086
9.523364864,1.0001347867328196,178.31758302313685
9.532709888,1.0001422371824868,177.94997649975454
9.542055936,1.0001422913504119,177.58231434572784
9.551401984,1.0001352327481565,177.21468767452237
9.560748032,1.000121325824983,176.8472237701919
9.570093056,1.0001011095211938,176.4799608323782
9.579439104,1.0000758235911342,176.11298455970513
9.588785152,1.000046616962799,175.74637440054133
9.5981312,1.0000149797197577,175.38015443951647
9.607476224,0.9999827951573269,175.01435907320038
9.616822272,0.9999513991662595,174.6489468175112
9.62616832,0.9999227172782823,174.28396176205896
9.635514368,0.999897954252192,173.9193113833678
9.644859392,0.9998784699481129,173.55493797931595
9.65420544,0.9998654097329877,173.19078555585588
9.663551488,0.999859298882896,172.82676507808318
9.672897536,0.9998606219968806,172.46277092554325
9.68224256,0.9998690866915312,172.09871537715838
9.691588608,0.999884540445132,171.73449431711475
9.700934656,0.9999060961257706,171.3700251204724
9.710280704,0.9999325205945185,171.0052532266427
9.719625728,0.99996253342189,170.64010511585056
9.728971776,0.9999946768909806,170.27455525923412
