freq,mag,phase
6.0,0.9993635817025769,-28.94896277558572
6.011834368,0.9994988260813201,-29.396734519678674
6.023668736,0.9996581854708986,-29.846601524977974
6.035503104,0.9998340339848825,-30.298832599774414
6.047337472,1.0000182869486332,-30.753550928392364
6.05917184,1.0002018380035094,-31.21081742116244
6.071005696,1.000376392726427,-31.67058701077854
6.082840064,1.0005336629576338,-32.13273729316151
6.094674432,1.0006663472740036,-32.59692126470943
6.1065088,1.0007677327887377,-33.062826361874464
6.118343168,1.0008333560849159,-33.53002456590976
6.130177536,1.0008600463593644,-33.99805808395387
6.142011904,1.0008462884448701,-34.46647442530551
6.153846272,1.0007930008771786,-34.93473682740164
6.16568064,1.000702291494709,-35.40232896547668
6.177515008,1.0005784917890086,-35.86889054175828
6.189348864,1.0004275917118812,-36.333986012911716
6.201183232,1.0002562793895653,-36.79734409445962
6.2130176,1.000073047101645,-37.25871011692077
6.224851968,0.9998858716638485,-37.71807058736937
6.236686336,0.9997040954446261,-38.17532564986796
6.248520704,0.9995362458476612,-38.6306808684136
6.260355072,0.9993900311977398,-39.08437357746875
6.27218944,0.9992725472374453,-39.53661772600198
6.284023808,0.999189255778487,-39.9878502790824
6.295858176,0.9991441810659798,-40.43858493790562
6.307692544,0.9991397323240414,-40.88919648956269
6.3195264,0.9991758115185071,-41.3403382423265
6.331360768,0.9992511761721086,-41.792355953904426
6.343195136,0.9993618492336254,-42.245828892226626
6.355029504,0.9995031896392522,-42.70120072924816
6.366863872,0.9996681707134666,-43.15867694119827
6.37869824,0.999849248478076,-43.61860568442229
6.390532608,1.0000377768951654,-44.08105583429039
6.402366976,1.0002251512864866,-44.546166121254316
6.414201344,1.0004021773861913,-45.01386041719841
6.426035712,1.0005607261148977,-45.4838560433553
6.437869568,1.0006934618799446,-45.95598754824654
6.449703936,1.0007937509436002,-46.42981873612802
6.461538304,1.0008570265776187,-46.90494472979513
6.473372672,1.0008804816027594,-47.380890867506
6.48520704,1.0008623219416106,-47.85718740381563
6.497041408,1.0008040994083705,-48.33325245742724
6.508875776,1.0007078635558357,-48.80862136477625
6.520710144,1.0005785074995093,-49.282862625550116
6.532544512,1.000421659067712,-49.75561480166884
6.54437888,1.0002450712823852,-50.226519284309624
6.556213248,1.0000566369390047,-50.69545698708997
6.568047104,0.9998654756613773,-51.16226550951163
6.579881472,0.9996804330118537,-51.62699176985786
6.59171584,0.9995101579838209,-52.08979848188831
6.603550208,0.9993628435717654,-52.55083345622299
6.615384576,0.9992453876374664,-53.01053290573544
6.627218944,0.9991636399044235,-53.469213828821616
6.639053312,0.9991211123111036,-53.92739824206683
6.65088768,0.9991200323610793,-54.385540568942375
6.662722048,0.9991607460481289,-54.84423002771207
6.674556416,0.9992410829401959,-55.303883288373775
6.686390784,0.9993574400949079,-55.765074414522346
6.69822464,0.9995042735139199,-56.228210247179966
6.710059008,0.9996750414515407,-56.69355484522183
6.721893376,0.9998614813054248,-57.16138817339741
6.733727744,1.0000547274059144,-57.63192937992817
6.745562112,1.0002460078147275,-58.105095760632764
6.75739648,1.0004260919497654,-58.58088776654447
6.769230848,1.0005867527912395,-59.05907642838782
6.781065216,1.000720060379148,-59.539401246907204
6.792899584,1.0008200324479914,-60.02141623788744
6.804733952,1.0008817831769818,-60.50472303069135
6.816567808,1.0009022388665627,-60.98886869305869
6.828402176,1.0008806089181668,-61.4732793618224
6.840236544,1.0008177436575376,-61.95740756002165
6.852070912,1.0007165062831271,-62.44088056669851
6.86390528,1.0005813523072096,-62.92309176538289
6.875739648,1.0004189421543639,-63.40375504437911
6.887574016,1.0002365489765614,-63.88256255838635
6.899408384,1.0000430294832905,-64.35930284154867
6.911242752,0.9998471526789177,-64.83385333783258
6.92307712,0.9996582947608517,-65.30629112861834
6.934911488,0.9994851947371312,-65.77676962445013
6.946745344,0.9993361820208113,-66.24548162189323
6.958579712,0.9992182475796025,-66.71278003428854
6.97041408,0.9991369018699516,-67.17912863367422
6.982248448,0.9990963368110356,-67.64495975934842
6.994082816,0.9990981952073417,-68.11085043066234
7.005917184,0.9991426410060217,-68.5772563309387
7.017751552,0.999227710126451,-69.04477206753168
7.02958592,0.9993492964652197,-69.51382180664831
7.041420288,0.9995018696903645,-69.98488219031336
7.053254656,0.9996782851377839,-70.45826736639813
7.065088512,0.9998702011106237,-70.9342433230132
7.07692288,1.0000686881694956,-71.41291031255317
7.088757248,1.0002644528347324,-71.89429760003735
7.100591616,1.000448341545889,-72.37838751120023
7.112425984,1.0006116169498607,-72.86489425221058
7.124260352,1.0007465267766666,-73.35357940462657
7.13609472,1.0008469111054885,-73.84399971460499
7.147929088,1.0009077144407141,-74.33570879956777
7.159763456,1.0009262736542939,-74.82820170545415
7.171597824,1.0009015600613314,-75.32094202539159
7.183432192,1.0008345555282443,-75.81339127278542
7.195266048,1.000728346003391,-76.30509596223027
7.207100416,1.000587996681205,-76.79550402590316
7.218934784,1.0004199307002628,-77.28433198912626
7.230769152,1.0002317792096551,-77.77117177736315
7.24260352,1.0000326156203714,-78.25591947073472
7.254437888,0.9998316331407694,-78.73839716346393
7.266272256,0.9996383550669653,-79.21873199464974
7.278106624,0.9994616918091634,-79.69701872926028
7.289940992,0.999310018434539,-80.17357040525768
7.30177536,0.9991906167722312,-80.64866631400636
7.313609216,0.9991092572650012,-81.1227675087526
7.325443584,0.9990696560405569,-81.59638612770654
7.337277952,0.9990736664105779,-82.07005281682994
7.34911232,0.9991214372115625,-82.54433786957483
7.360946688,0.9992108205889093,-83.01972533261755
7.372781056,0.9993373622058987,-83.49674415264239
7.384615424,0.999495464512229,-83.97581618420543
7.396449792,0.9996776381972683,-84.45726634189901
7.40828416,0.9998754117330048,-84.94138959936566
7.420118528,1.0000795996311649,-85.428286846808
7.431952896,1.000280478324417,-85.91799100152366
7.443786752,1.0004686711592887,-86.41042682933997
7.45562112,1.0006354103134776,-86.90535520938037
7.467455488,1.000772843983917,-87.40241964972343
7.479289856,1.0008744701646117,-87.90133766819972
7.491124224,1.000935254996802,-88.4015069865372
7.502958592,1.0009526551541654,-88.90246988259811
7.51479296,1.0009253942492722,-89.40366609725936
7.526627328,1.0008549273475391,-89.90454969066236
7.538461696,1.0007442559353223,-90.40456364937907
7.550296064,1.0005986852892588,-90.90331188415979
7.562130432,1.000424777840874,-91.40032017316473
7.573964288,1.0002308540507783,-91.8953719224134
7.585798656,1.0000255854033044,-92.38817913419742
7.597633024,0.9998189022966898,-92.87871964031733
7.609467392,0.9996203100430613,-93.3670213515354
7.62130176,0.9994393276127788,-93.85319369827576
7.633136128,0.9992842442827674,-94.33756703075791
7.644970496,0.9991625051623498,-94.82047729758976
7.656804864,0.9990799280702933,-95.30237105955838
7.668639232,0.9990405826049089,-95.78376079192483
7.6804736,0.9990460616838297,-96.26522901809808
7.692307456,0.999096404864937,-96.74730287330097
7.704141824,0.9991895566170764,-97.23050219128883
7.715976192,0.999320930333769,-97.71541621324249
7.72781056,0.9994844812074384,-98.20246886371183
7.739644928,0.9996725918813354,-98.69192578746656
7.751479296,0.9998767005072201,-99.18414224451601
7.763313664,1.000086933097476,-99.6792174423416
7.775148032,1.0002937124892097,-100.17716908892875
7.7869824,1.000487253647136,-100.67787444379253
7.798816768,1.000658374941813,-101.18114605041102
7.810651136,1.0007992503020477,-101.6866685607772
7.822484992,1.0009030662456395,-102.19398175360335
7.83431936,1.0009648931282837,-102.70260581067176
7.846153728,1.0009818798423968,-103.21201474868965
7.857988096,1.0009529156802324,-103.7216619325346
7.869822464,1.0008794578897,-104.23094419805034
7.881656832,1.0007647959873127,-104.73931262015473
7.8934912,1.0006140706453632,-105.24636570812297
7.905325568,1.0004343839712144,-105.75162886392773
7.917159936,1.0002341028643167,-106.25481230689684
7.928994304,1.0000224687233852,-106.75569309265119
7.94082816,0.9998094081378743,-107.2542282069797
7.952662528,0.9996048033617371,-107.75040767296167
7.964496896,0.999418306264936,-108.24445691852185
7.976331264,0.9992587406154673,-108.73653534269653
7.988165632,0.9991336538600338,-109.22717027346597
8.0,0.999048905374878,-109.71674447397848
8.011834368,0.9990087391766744,-110.20577549678544
8.023668736,0.999014831966821,-110.6948659135836
8.035503104,0.9990673574108171,-111.18458306527606
8.047337472,0.9991637669354556,-111.67545707764317
8.05917184,0.9992994614710284,-112.16808587795832
8.071005696,0.9994685527907718,-112.66284758335424
8.082840064,0.9996628926646293,-113.1601785758865
8.094674432,0.9998734768075656,-113.66026371345255
8.1065088,1.0000905883997644,-114.16332440770263
8.118343168,1.0003039983778208,-114.66929114762964
8.130177536,1.0005038329455336,-115.17814004511602
8.142011904,1.0006804279167223,-115.6895882285701
8.153846272,1.000825811474399,-116.20332181666522
8.16568064,1.000932919534017,-116.71892908275186
8.177515008,1.0009968718458486,-117.23584823128786
8.189348864,1.0010143444342121,-117.75356343356287
8.201183232,1.0009845347689004,-118.2714764141124
8.2130176,1.000908751832636,-118.78902674706572
8.224851968,1.0007903007777563,-119.3056569914515
8.236686336,1.0006347917150558,-119.82087157325041
8.248520704,1.0004492015474997,-120.33422787402289
8.260355072,1.000242348912722,-120.84541314308427
8.27218944,1.000023615314497,-121.35421406899509
8.284023808,0.9998033461517393,-121.86054435194865
8.295858176,0.9995918623279183,-122.36445188089132
8.307692544,0.9993989125387901,-122.86611097071578
8.3195264,0.9992337178618425,-123.36575683571563
8.331360768,0.9991040247309263,-123.86385332406442
8.343195136,0.9990160470373605,-124.36082875311656
8.355029504,0.9989739788841306,-124.85721520620426
8.366863872,0.9989798681178969,-125.35366640162152
8.37869824,0.9990336377868546,-125.85070049398526
8.390532608,0.9991328069496731,-126.3489338865896
8.402366976,0.9992727591460037,-126.84892532401646
8.414201344,0.9994472187714568,-127.35114168293086
8.426035712,0.9996479880530026,-127.85591495632184
8.437869568,0.9998657436738171,-128.3635679900683
8.449703936,1.0000903759608637,-128.874208675308
8.461538304,1.0003113966062904,-129.38791311896907
8.473372672,1.0005184196727863,-129.90453342604275
8.48520704,1.000701814650791,-130.4238544614058
8.497041408,1.000852935773031,-130.94549171257407
8.508875776,1.0009646254257296,-131.46907002650917
8.520710144,1.0010317064846765,-131.99400109567392
8.532544512,1.0010507735807812,-132.51973866718316
8.54437888,1.001020875245171,-133.04566340551023
8.556213248,1.0009433811958446,-133.5712348830797
8.568047104,1.0008217107667035,-134.09581786839124
8.579881472,1.0006613583794035,-134.61891031301568
8.591716352,1.0004697919341419,-135.14009143857226
8.60355072,1.0002558462807505,-135.65899729820995
8.615385088,1.000029393870539,-136.17542370339066
8.627218432,0.9998011058886588,-136.68925169622102
8.6390528,0.9995815113028554,-137.20056394258438
8.650887168,0.9993809473292105,-137.70948638070874
8.662721536,0.9992087677550638,-138.2163297150369
8.674555904,0.9990732202533016,-138.72150128155852
8.686390272,0.9989806949815472,-139.22545354339107
8.69822464,0.9989356193156438,-139.7287940440245
8.710059008,0.9989402351069487,-140.23212727461578
8.721893376,0.998994477610627,-140.7360149256127
8.733727744,0.9990958386847625,-141.24112603883682
8.745562112,0.9992398133624261,-141.748007204038
8.75739648,0.9994197142996334,-142.25712283282115
8.769230848,0.9996272387601619,-142.76887574898137
8.781065216,0.9998527165711601,-143.28359471412398
8.792899584,1.000085697104672,-143.80138376996638
8.804733952,1.0003153897638948,-144.32229786164294
8.81656832,1.0005308724971238,-144.846216763278
8.828402688,1.000722290011615,-145.3729325052461
8.840237056,1.0008805039118152,-145.9020417059219
8.852071424,1.0009981533947447,-146.43312161015905
8.863905792,1.0010695953993556,-146.9656465664367
8.875739136,1.001091405306084,-147.49898045852117
8.887573504,1.0010624386251743,-148.0325165893207
8.899407872,1.0009838612221449,-148.56566313273726
8.91124224,1.0008592512891088,-149.09780745443848
8.923076608,1.0006943025810222,-149.62839040624434
8.934910976,1.0004964797511664,-150.15694611241923
8.946745344,1.0002749772363497,-150.683165237805
8.958579712,1.0000400948145645,-151.20677085707416
8.97041408,0.9998026797026054,-151.72765814867702
8.982248448,0.9995738073966084,-152.24589261113107
8.994082816,0.9993642009226958,-152.76160389489084
9.005917184,0.9991836573061456,-153.27511233422126
9.017751552,0.9990408313528182,-153.78681265015345
9.02958592,0.998942380596987,-154.2972315616792
9.041420288,0.998893053531816,-154.8069230958605
9.053254656,0.9988952952013468,-155.3165096749839
9.065089024,0.9989491715929119,-155.82667163665118
9.076923392,0.9990522347499456,-156.33800703935648
9.08875776,0.9991998971257087,-156.8511364397357
9.100592128,0.9993853782649904,-157.3665143759516
9.112426496,0.9995999786309908,-157.88461466047488
9.124260864,0.9998339884803475,-158.40573197560718
9.136094208,1.0000762941424113,-158.9300127909867
9.147928576,1.000315789171454,-159.45750734913415
9.159762944,1.0005412585084015,-159.9881151727855
9.171597312,1.000742010389747,-160.52158515375655
9.18343168,1.0009089271233174,-161.05759016433015
9.195266048,1.0010340403099274,-161.5956101787271
9.207100416,1.001111245195984,-162.1351389646629
9.218934784,1.0011369464993802,-162.6755256440152
9.230769152,1.001109828836969,-163.2161401211013
9.24260352,1.001030889624511,-163.7563130590724
9.254437888,1.0009038740904175,-164.29547271417078
9.266272256,1.000734234675434,-164.8329954871983
9.278106624,1.000529983753879,-165.36843786824053
9.289940992,1.0003003481221586,-165.90136668704457
9.30177536,1.000056083851451,-166.43160554569485
9.313609728,0.9998083916004679,-166.9589628440456
9.325444096,0.9995689007477065,-167.48353413901603
9.337278464,0.999348681468802,-168.00540789486118
9.349112832,0.9991582907696636,-168.5249302674085
9.3609472,0.9990064504876013,-169.04249578427815
9.372781568,0.9989005595862293,-169.55865218449424
9.384614912,0.9988456318612081,-170.07397769826744
9.39644928,0.9988444616730031,-170.58910263178151
9.408283648,0.9988970358732784,-171.1047701518456
9.420118016,0.9990013400212372,-171.62156546750205
9.431952384,0.9991524053603424,-172.14014168612724
9.443786752,0.9993435651735025,-172.66104099213905
9.45562112,0.9995659010293255,-173.18469298616952
9.467455488,0.9998090965026397,-173.71139798722703
9.479289856,1.0000619362565482,-174.24139547006138
9.491124224,1.0003126586726518,-174.77472441630144
9.502958592,1.0005495660153105,-175.3112648771839
9.51479296,1.0007615808665737,-175.85080124244624
9.526627328,1.0009386986147386,-176.39296093288485
9.538461696,1.001072846691984,-176.93722480963152
9.550296064,1.001157385591147,-177.4830845348092
9.562130432,1.0011883596645852,-178.0298379046433
9.5739648,1.0011642570412835,-178.5768763596509
9.585799168,1.0010857197525882,-179.1234700367255
9.597633536,1.0009565513180874,-179.6689775176014
9.609467904,1.0007823590580571,179.78719817818066
9.621302272,1.0005712095632293,179.24554383449635
9.633135616,1.0003327495152707,178.70650572791763
9.644969984,1.0000779241205968,178.1703302074312
9.656804352,0.9998186606467712,177.63717026065137
9.66863872,0.9995669266815467,177.1070371818574
9.680473088,0.9993344641630468,176.57971812992935
9.692307456,0.9991322442515561,176.0549388959518
9.704141824,0.9989697315708657,175.5322851838775
9.715976192,0.9988546927853419,175.01120524816017
9.72781056,0.9987926521438333,174.49107638467038
9.739644928,0.9987866783939975,173.97124980869708
9.751479296,0.9988371000211244,173.45098867552989
9.763313664,0.9989418928502288,172.92959310169985
9.775148032,0.9990964880873668,172.40646491107705
9.7869824,0.9992934602280903,171.88097653318633
9.798816768,0.9995240642211628,171.3526884551295
9.810651136,0.9997774756074861,170.82121775026528
9.822485504,1.0000421345989479,170.28639321813412
9.834319872,1.0003057039310816,169.74811330936632
9.84615424,1.0005557668663854,169.2064602593994
9.857988608,1.0007807749547553,168.66169440357717
9.869822976,1.0009704052053432,168.11419773754943
9.88165632,1.0011153101264463,167.56443263569057
9.893490688,1.0012089776184658,167.01302459378306
9.905325056,1.0012465911680437,166.4606121052061
9.917159424,1.001226489651198,165.90790686941656
9.928993792,1.001149186085158,165.35563341275707
9.94082816,1.00101825500656,164.804463575953
9.952662528,1.0008393147398102,164.25504073847551
9.964496896,1.0006208325581818,163.70789529833766
9.976331264,1.0003725574307614,163.1634981577631
9.988165632,1.000105991493344,162.62213240559262
10.0,0.9998335871645048,162.08395907230317
10.011834368,0.9995676730639451,161.54896434034794
10.023668736,0.9993210216723574,161.01702653539454
10.035503104,0.9991050240923932,160.48785958257895
10.047337472,0.9989297359421621,159.96097402037572
10.05917184,0.99880374344471,159.43586543448652
10.071006208,0.9987328737966019,158.91185299990525
10.082840576,0.9987207053569228,158.3882512903717
10.094674944,0.9987681472913603,157.8643246339247
10.106509312,0.998872971270389,157.33933253603078
10.11834368,0.9990306993002965,156.81258562584566
10.130177024,0.9992340668516296,156.28349588587176
10.142011392,0.9994736986316118,155.75150580546966
10.15384576,0.9997386782453624,155.21626913456558
10.165680128,1.0000166316594823,154.67751863098968
10.177514496,1.0002948724554235,154.13519942913692
10.189348864,1.0005602520730006,153.589355707878
10.201183232,1.0008006676764012,153.04021940102456
10.2130176,1.0010045872828615,152.48820143229568
10.224851968,1.001162503447383,151.93379164864305
10.236686336,1.0012669359211495,151.3775983737491
10.248520704,1.0013129235443683,150.8203133338367
10.260355072,1.0012979563838451,150.26267675825483
10.27218944,1.001222628737009,149.7054435601138
10.284023808,1.0010901619364037,149.1493575234014
10.295858176,1.000906471232145,148.5950497798231
10.307692544,1.0006798925694327,148.0431525209962
10.319526912,1.0004206858944675,147.49414226693588
10.33136128,1.0001408761016468,146.94832207007093
10.343195648,0.9998533223630955,146.4059079213325
10.355030016,0.9995713101027701,145.86689603335844
10.366864384,0.9993079955712636,145.33119166648214
10.378697728,0.9990758866021778,144.79844988036376
10.390532096,0.9988855549908051,144.26825128235438
10.402366464,0.9987464159856312,143.74001177660324
10.414200832,0.9986649134577353,143.2130660735618
10.4260352,0.9986452675013311,142.68667623838624
10.437869568,0.9986884285069861,142.1600628489097
10.449703936,0.9987928444968021,141.63244245621647
10.461538304,0.9989536155856041,141.10308677871674
10.473372672,0.9991638092816373,140.57136417338526
10.48520704,0.9994136316423207,140.03665744345403
10.497041408,0.9996915936033139,139.49859747545338
10.508875776,0.9999849424596038,138.9568855621287
10.520710144,1.0002799462579708,138.4114209632984
10.532544512,1.0005631622826576,137.8622567413964
10.54437888,1.0008212149789661,137.3096046767674
10.556213248,1.0010420241521643,136.75388545026848
10.568047616,1.0012153614597175,136.19559340497645
10.579881984,1.0013328262140209,135.63537178956096
10.591716352,1.0013887970978028,135.07395551834713
10.60355072,1.0013804361475396,134.5121027075278
10.615385088,1.001307954140252,133.95060636014315
10.627218432,1.0011742176068144,133.39026257658972
10.6390528,1.000985363681004,132.83177679630788
10.650887168,1.000749812714217,132.27579285017987
10.662721536,1.0004782604059212,131.722844295536
10.674555904,1.0001832799625539,131.17328666511014
10.686390272,0.9998782908746084,130.62737494841693
10.69822464,0.9995775246213767,130.0851292501439
10.710059008,0.9992949461638884,129.54639734513069
10.721893376,0.9990438193037049,129.0109201995407
