freq,mag,phase
6.0,0.9998277105411585,42.54215900086143
6.005934592,0.9997867203589719,42.40760504267699
6.011869184,0.9997570701213763,42.273545163850024
6.017804288,0.9997416303034755,42.139766699873334
6.02373888,0.9997414993657231,42.00614257852201
6.029673472,0.999756517822944,41.87238264696366
6.035608064,0.9997858889358991,41.7382912298977
6.041543168,0.9998279371090384,41.603736915106246
6.04747776,0.9998800875817627,41.46850190546636
6.053412352,0.9999395153864231,41.33247250644832
6.059346944,1.000002636045615,41.19558622360465
6.065282048,1.0000658242695186,41.05782197503892
6.07121664,1.0001253181491276,40.91923596976895
6.077151232,1.0001778744630412,40.77983366439307
6.083085824,1.0002203486540937,40.63979825834891
6.089020928,1.0002501308187277,40.499207086522794
6.09495552,1.000265651043976,40.35831765722647
6.100890112,1.000265918022905,40.217365283865824
6.106824704,1.000250978080956,40.07643008731673
6.112759808,1.0002215369849046,39.935840435700634
6.1186944,1.0001796104255014,39.79570438732853
6.124628992,1.000127257379623,39.65627460438036
6.130563584,1.0000677193998213,39.517578869823346
6.136498688,1.0000044120994744,39.379740046512985
6.14243328,0.9999409375833188,39.24278949287682
6.148367872,0.9998810836570303,39.1066548815834
6.154302464,0.9998282950689436,38.971343945016535
6.160237568,0.9997856418211245,38.836659895891046
6.16617216,0.9997555860036301,38.70252015184898
6.172106752,0.9997398352836677,38.568695044246645
6.178041344,0.9997394008979349,38.434941223735734
6.183976448,0.9997542657985767,38.3010816507309
6.18991104,0.9997836153653814,38.16692875186883
6.195845632,0.9998256704757563,38.0322437860847
6.201780224,0.9998781439723008,37.89694140787846
6.207715328,0.9999377733803368,37.7608450985163
6.21364992,1.0000012013695403,37.623907184192646
6.219584512,1.0000649027081654,37.486025678856386
6.225519104,1.000124903726472,37.34733181794843
6.231454208,1.0001779354482692,37.20782865452604
6.2373888,1.0002207962990537,37.06764709228241
6.243323392,1.000251050425096,36.926976193946935
6.249257984,1.000266910273978,36.78595309090684
6.255193088,1.0002674403690257,36.644804177875656
6.26112768,1.0002526163969812,36.50378294986533
6.267062272,1.0002233224728982,36.36307304404934
6.272996864,1.0001811705352701,36.2228140585615
6.278931968,1.000128713223295,36.083199227886425
6.28486656,1.0000688476825002,35.94439496551319
6.290801152,1.0000051664197398,35.806434217545004
6.296735744,0.9999413809018415,35.669338459210806
6.302670848,0.9998810193419443,35.53313441836856
6.30860544,0.999827703209384,35.39768758879717
6.314540032,0.9997846019467601,35.26290974574221
6.320474624,0.9997540571339638,35.12863974351684
6.326409728,0.999737963624135,34.994690795468344
6.33234432,0.9997373196697331,34.8608725067919
6.338278912,0.9997519860646137,34.72695832195245
6.344213504,0.9997813179254517,34.59273065075064
6.350148608,0.9998234566463076,34.458000038309116
6.3560832,0.9998760675021066,34.32260009178615
6.362017792,0.9999360039379634,34.186383524567646
6.367952384,0.9999998792794142,34.04934356270748
6.373887488,1.0000639559773319,33.91138641189749
6.37982208,1.0001244840292691,33.772573433878804
6.385756672,1.0001780015671762,33.63295250199929
6.391691264,1.0002213643216222,33.49265951335969
6.397626368,1.000251998693158,33.351842913251446
6.40356096,1.0002681888134661,33.21071442939036
6.409495552,1.0002690683878026,33.06943132649056
6.415430144,1.0002544449143111,32.92826262993881
6.421364736,1.0002251193469174,32.78736171337522
6.42729984,1.0001829409539915,32.64698490903513
6.433234432,1.000130307601516,32.50725870477847
6.439169024,1.000070139306586,32.368315521656804
6.445103616,1.0000060801575248,32.23021004856664
6.45103872,0.9999417276765421,32.093008469422685
6.456973312,0.9998809481851829,31.956688498907933
6.462907904,0.9998271585867652,31.82109737543719
6.468842496,0.9997835593173666,31.686237247164144
6.4747776,0.9997525740414643,31.551882774498424
6.480712192,0.9997361269425503,31.417844688767243
6.486646784,0.9997351690104175,31.283905757870237
6.492581376,0.9997497308623441,31.14993027911165
6.49851648,0.9997790242705095,31.015576415566738
6.504451072,0.9998212482629432,30.880745572077448
6.510385664,0.9998739995868354,30.74527189682213
6.516320256,0.9999342477795137,30.608998606680657
6.52225536,0.9999985059351738,30.471854940238238
6.528189952,1.0000630514549764,30.333784483646884
6.534124544,1.0001240964350238,30.19487746098804
6.540059136,1.0001780314834803,30.055152407912285
6.54599424,1.0002219891463107,29.914727293372614
6.551928832,1.0002530897549748,29.77375353380997
6.557863424,1.000269687246267,29.632514582607875
6.563798016,1.0002707847134222,29.49105846076664
6.56973312,1.0002562750206057,29.34976793088642
6.575667712,1.0002270884603106,29.20874000497743
6.581602304,1.000184778307468,29.06819445789664
6.587536896,1.0001318942009316,28.92832511498523
6.593472,1.0000714622578468,28.789252831857763
6.599406592,1.0000070201813755,28.651034940036592
6.605341184,0.9999422223687946,28.513651080583042
6.611275776,0.9998809602709361,28.377215468664893
6.61721088,0.9998266360092848,28.24154880662715
6.623145472,0.9997824586099325,28.106565645182723
6.629080064,0.9997510301984462,27.97210059833416
6.635014656,0.9997342388466057,27.837967667413892
6.64094976,0.9997329269169234,27.70395250817283
6.646884352,0.9997474069502742,27.56982345674999
6.652818944,0.999776562770454,27.435446568707686
6.658753536,0.999818893982739,27.30053791780255
6.66468864,0.9998717990001805,27.164946432787485
6.670623232,0.9999324565502673,27.028574791421175
6.676557824,0.9999970913126567,26.891342817354424
6.682492416,1.0000621565203383,26.75318504158408
6.68842752,1.0001236789419834,26.614128732715145
6.694362112,1.0001782382738622,26.474308893303718
6.700296704,1.0002226007845285,26.33372878037404
6.706231296,1.0002541939920135,26.192667909301704
6.7121664,1.0002711816050833,26.05124736746152
6.718100992,1.000272549536343,25.90970221778306
6.724035584,1.0002582514115812,25.768229541278505
6.729970176,1.00022909607661,25.627037921997996
6.73590528,1.0001867376928428,25.486370994940902
6.741839872,1.0001336926412823,25.34633551740586
6.747774464,1.0000729507871313,25.207139699081157
6.753709056,1.000008064061101,25.068736222611825
6.75964416,0.999942776656349,24.931272608271478
6.765578752,0.999880844767905,24.794683097735486
6.771513344,0.9998260610754282,24.658907095593825
6.777447936,0.9997813688262212,24.523810926265792
6.78338304,0.9997495717781328,24.389225427793658
6.789317632,0.9997323240767855,24.255007708545193
6.795252224,0.9997307305449703,24.120925650585484
6.801186816,0.9997449054699714,23.986732833703417
6.807121408,0.9997741070265049,23.852218720932665
6.813056512,0.999816481215374,23.71721809404259
6.818991104,0.9998696922432138,23.5815234977239
6.824925696,0.9999305933554751,23.445072015378834
6.830860288,0.999995697875369,23.30770917264727
6.836795392,1.0000612232158173,23.16948711754818
6.842729984,1.0001232724106397,23.03031932350624
6.848664576,1.000178361161405,22.89034652861172
6.854599168,1.00022334702601,22.74966903208238
6.860534272,1.000255375305903,22.60845382788143
6.866468864,1.0002727399431925,22.466886346536782
6.872403456,1.0002744705015525,22.325177209920692
6.878338048,1.0002603918299033,22.18355388819186
6.884273152,1.0002312064372483,22.042228003438556
6.890207744,1.0001888078722219,21.901394378591384
6.896142336,1.0001354878449438,21.761218878147318
6.902076928,1.0000744295543254,21.62184417888392
6.908012032,1.0000091237078688,21.48330458794623
6.913946624,0.9999433216052271,21.34571295588611
6.919881216,0.9998809038230108,21.208979481077858
6.925815808,0.9998254828570832,21.07309779019445
6.931750912,0.999780278429678,20.93788011341681
6.937685504,0.9997479467396723,20.803204497700143
6.943620096,0.9997303145484773,20.668879316653797
6.949554688,0.9997284454551669,20.534679896587686
6.955489792,0.9997424905533759,20.400402371647026
6.961424384,0.999771533684589,20.265829862804303
6.967358976,0.9998140466390588,20.130713183793418
6.973293568,0.9998674383615435,19.994938100440685
6.979228672,0.9999287512869645,19.85836796484789
6.985163264,0.9999943231173617,19.720930316138663
6.991097856,1.0000603261871404,19.582552525167298
6.997032448,1.0001230122805818,19.443283434481305
7.002967552,1.0001786609728236,19.303196168423447
7.008902144,1.000224080780264,19.162378032576804
7.014836736,1.0002566968863735,19.0210193509114
7.020771328,1.0002744656491682,18.879297848012584
7.026706432,1.0002764407231703,18.737463635969714
7.032641024,1.0002624857300826,18.595686760779518
7.038575616,1.0002334148448435,18.4542084354372
7.044510208,1.0001909265782511,18.313191672014355
7.050445312,1.0001374388784645,18.172876293726205
7.056379904,1.0000759243120838,18.033332665546858
7.062314496,1.0000101343562473,17.89469542008816
7.068249088,0.999943826909001,17.75691614496188
7.074184192,0.9998808616432769,17.62006688458623
7.080118784,0.999824858948634,17.48403256551588
7.086053376,0.9997791620962051,17.34871432585585
7.091987968,0.999746260563996,17.21392326086488
7.097923072,0.9997283202420756,17.079510185881137
7.103857664,0.9997260747295944,16.9451935877187
7.109792256,0.999739885843326,16.810813778318124
7.115726848,0.9997690320152547,16.676153669400843
7.121661952,0.9998116059322081,16.540940016656815
7.127596544,0.9998652641839144,16.405082996400782
7.133531136,0.9999267716753059,16.268423120562492
7.139465728,0.9999928663344625,16.130849864846397
7.145400832,1.0000593576112886,15.9923713036025
7.151335424,1.0001226031574295,15.85299134058358
7.157270016,1.0001788926711381,15.712748372932813
7.163204608,1.0002249028552577,15.571823011171471
7.169139712,1.0002580224581281,15.430304221169177
7.175074304,1.0002761964344336,15.288450969248748
7.181008896,1.000278546273624,15.14641361016634
7.186943488,1.000264849456602,15.004474638768711
7.192878592,1.0002357909896595,14.862870088661442
7.198813184,1.0001931061466587,14.721698206787712
7.204747776,1.0001394136516781,14.58121597775366
7.210682368,1.0000775837591,14.441501291766974
7.21661696,1.0000113297197835,14.30267408427813
7.222552064,0.9999445201785557,14.164812514916092
7.228486656,0.9998809936581675,14.027809724169655
7.234421248,0.9998243857073047,13.891666132633816
7.24035584,0.999778010213093,13.756222498490464
7.246290944,0.9997446463630182,13.621304533333944
7.252225536,0.9997261068397152,13.48675046197975
7.258160128,0.9997236612774756,13.352394924471183
7.26409472,0.9997374066143235,13.217914818842578
7.270029824,0.9997663135899427,13.08310365994952
7.275964416,0.9998090055496303,12.94782695386694
7.281899008,0.999862952851859,12.811884269891685
7.2878336,0.9999249300363252,12.67509028090931
7.293768704,0.9999914046083571,12.537453826356193
7.299703296,1.000058431439223,12.39885849456987
7.305637888,1.0001223244970507,12.2593128964652
7.31157248,1.000179210916768,12.118969014783204
7.317507584,1.0002258306568557,11.977852750638815
7.323442176,1.0002594408766239,11.836213807497645
7.329376768,1.000278105838826,11.694198625964422
7.33531136,1.0002807495112855,11.552030102780957
7.341246464,1.0002671910221554,11.40990226705722
7.347181056,1.0002382164192296,11.268104671908008
7.353115648,1.0001954892991098,11.126790767695594
7.35905024,1.0001414291691912,10.986148922680083
7.364985344,1.0000792717180995,10.846277942152277
7.370919936,1.0000125752974018,10.70730786986152
7.376854528,0.9999451809791493,10.569278101488193
7.38278912,0.9998809220407605,10.432116487296183
7.388724224,0.9998237454676535,10.295861290607109
7.394658816,0.9997768706448501,10.160302681299257
7.400593408,0.999742970902978,10.025299125096007
7.406528,0.9997240636994668,9.89062626374052
7.412463104,0.9997211804961162,9.756122872917686
7.418397696,0.9997346679620952,9.621551168543284
7.424332288,0.9997636039943454,9.486660127584342
7.43026688,0.9998063610221737,9.351274568490007
7.436201984,0.9998605928989462,9.21523149760568
7.442136576,0.9999229407447078,9.078361536690496
7.448071168,0.9999898952882074,8.940559972508954
7.45400576,1.0000575987976348,8.801852166367809
7.459940864,1.0001220645471371,8.662214050883396
7.465875456,1.0001795035346728,8.521716040368188
7.471810048,1.000226780708218,8.380474217908814
7.47774464,1.0002608660170584,8.238675935974129
7.483679744,1.0002800542810668,8.096495669651397
7.489614336,1.0002830505707534,7.954139519645654
7.495548928,1.0002696693441635,7.811864112053722
7.50148352,1.0002408289524218,7.669877488583557
7.507418624,1.0001978677304084,7.528403743244105
7.513353216,1.0001436378964994,7.387557284927125
7.519287808,1.0000810433834693,7.24754061113793
7.5252224,1.0000138802644396,7.108431745877778
7.531157504,0.999945904896548,6.970213893984272
7.537092096,0.9998810666848981,6.832963092151493
7.543026688,0.9998231925475543,6.696527904866901
7.54896128,0.999775638900644,6.560840452023125
7.554896384,0.9997411560724714,6.4257032839416555
7.560830976,0.9997218316501869,6.290963883824557
7.566765568,0.9997186558054103,6.1563519340440545
7.57270016,0.9997318839699684,6.021695099894824
7.578635264,0.99976081255822,5.8867051276588604
7.584569856,0.9998036724050572,5.751209725776768
7.590504448,0.9998581565490403,5.615054341049613
7.59643904,0.9999208990153199,5.478042872970984
7.602373632,0.9999883544963613,5.340177102557945
7.608308736,1.00005666512765,5.20133504505212
7.614243328,1.0001217074969322,5.061555165148313
7.62017792,1.0001799094340218,4.920925653977426
7.626112512,1.000227757962733,4.7795421065563
7.632047616,1.0002624805023719,4.63756774155032
7.637982208,1.0002821427465867,4.495229123891026
7.6439168,1.0002853979683866,4.352728787024244
7.649851392,1.000272232047543,4.210263542667212
7.655786496,1.0002434567007639,4.06809771199142
7.661721088,1.0002004163592693,3.9264309614982333
7.66765568,1.000145948181483,3.785441754979703
7.673590272,1.0000829838312624,3.6452618944386224
7.679525376,1.000015209617117,3.5059698062713434
7.685459968,0.9999466053165781,3.3675956246179948
7.69139456,0.9998812125941364,3.23017857867365
7.697329152,0.9998226941055565,3.0936176380386495
7.703264256,0.9997744679763815,2.957787808668327
7.709198848,0.9997394100756636,2.8225350203799304
7.71513344,0.9997195798656284,2.6876980847307914
7.721068032,0.9997160537151593,2.552968803928373
7.727003136,0.999729112839705,2.418186484698872
7.732937728,0.9997579370717722,2.283112198441333
7.73887232,0.9998009895531662,2.147535379685021
7.744806912,0.9998557013842805,2.0112545341832866
7.750742016,0.9999188713581403,1.8741526693961896
7.756676608,0.9999868105320487,1.7361648232200286
7.7626112,1.0000557639899903,1.5971864575784955
7.768545792,1.0001214040251507,1.4572558174774446
7.774480896,1.0001802582131873,1.3164739229701972
7.780415488,1.0002287815128241,1.1749500611964736
7.78635008,1.0002642008927947,1.0328407549382268
7.792284672,1.000284200286521,0.890327258853505
7.798219776,1.0002878100093586,0.7476206755650965
7.804154368,1.0002748745782732,0.6050233407883309
7.81008896,1.0002461160393068,0.46267436051360916
7.816023552,1.0002030754639877,0.3208084634702277
7.821958656,1.0001483234444009,0.17961919365511095
7.827893248,1.0000848733659515,0.03925914634635885
7.83382784,1.0000166687821896,-0.10019973060138361
7.839762432,0.99994740290693,-0.23868283901742682
7.845697536,0.9998813110821035,-0.37626752269753444
7.851632128,0.9998220957960939,-0.5129644750231286
7.85756672,0.9997731945548469,-0.6489366569249226
7.863501312,0.9997375860091355,-0.7843045335242286
7.869436416,0.9997172289438268,-0.9193034719424413
7.875371008,0.9997133325798222,-1.054124605112137
7.8813056,0.9997262072929439,-1.1890222618234716
7.887240192,0.999755037002887,-1.3241613705866633
7.893175296,0.9997980956152805,-1.4598778771411338
7.899109888,0.9998531092817541,-1.5962473928882042
7.90504448,0.9999166760494678,-1.7334435235304064
7.910979072,0.9999852841956872,-1.8716057371397112
7.916914176,1.0000547841409042,-2.0106703211662795
7.922848768,1.0001211691859768,-2.150717818247895
7.92878336,1.0001807318367337,-2.291640621181529
7.934717952,1.0002298847370226,-2.4333583857030945
7.940653056,1.0002658100699873,-2.575650326295375
7.946587648,1.000286455606827,-2.7183312877273638
7.95252224,1.0002904355526403,-2.8611976300841127
7.958456832,1.0002777248590244,-3.0040075218838864
7.964391936,1.000249031066257,-3.1465184144106337
7.970326528,1.0002058253686317,-3.2885769942995062
7.97626112,1.0001506903851551,-3.4299186622792353
7.982195712,1.0000868162247918,-3.5704932352072847
7.988130816,1.0000180679218251,-3.710113717752844
7.994065408,0.9999481937471764,-3.8487725941869844
8.0,0.9998814041619623,-3.9864968890499046
8.005934592,0.9998214601755142,-4.123329862471633
8.011869184,0.9997719329948938,-4.25943645123251
8.017804288,0.9997356042370272,-4.394949459190794
8.02373888,0.9997147916102197,-4.530037555051429
8.029673472,0.9997104984070913,-4.664975149458081
8.035608064,0.9997232080076514,-4.799976710044477
8.041543168,0.9997519594792268,-4.935266750241119
8.04747776,0.9997952265557659,-5.071067321633872
8.053412352,0.9998504019205965,-5.207575351112594
8.059346944,0.999914502389288,-5.344884968329088
8.065282048,0.9999836613096219,-5.483126437000881
8.07121664,1.0000537125607136,-5.622349007132319
8.077151232,1.0001209488576186,-5.762519287142656
8.083085824,1.0001811551879591,-5.90362615955616
8.089020928,1.0002310125042935,-6.045465386967736
8.09495552,1.0002676070391177,-6.187940607984527
8.100890112,1.0002886958481958,-6.3307858139104365
8.106824704,1.0002931469964615,-6.473836217873228
8.112759808,1.0002806075271546,-6.61685275430186
8.1186944,1.0002519488357753,-6.759541548106073
8.124628992,1.000208586220329,-6.90180481291152
8.130563584,1.0001532792122119,-7.043339865048355
8.136498688,1.0000890341086386,-7.184087551831254
8.14243328,1.0000196557457166,-7.323865211636646
8.148367872,0.999949200575726,-7.462690338907763
8.154302464,0.9998815444744259,-7.600576524072914
8.160237568,0.9998209289692679,-7.737586665732513
8.16617216,0.9997705809990667,-7.873829998177607
8.172106752,0.9997337829064813,-8.009453407767234
8.178041344,0.9997124493644041,-8.144671267975578
8.183976448,0.9997077674478264,-8.279728348782713
8.18991104,0.9997200960336062,-8.414835582361157
8.195845632,0.9997488436087919,-8.550241545129923
8.201780224,0.9997921948962305,-8.686127550121173
8.207715328,0.999847738545055,-8.822711655333682
8.21364992,0.9999121980229101,-8.960170306428267
8.219584512,0.9999819150924728,-9.098555761874847
8.225519104,1.0000527492508235,-9.237919086867642
8.231454208,1.000120635005625,-9.378252473927539
8.2373888,1.0001816521789761,-9.519476338916311
8.243323392,1.0002322326478583,-9.661473471627563
8.249257984,1.000269488133404,-9.804120131787226
8.255193088,1.000291113137247,-9.947155674028673
8.26112768,1.0002959668874816,-10.090398686319515
8.267062272,1.0002837010737957,-10.23362263369183
8.272996864,1.0002551008042426,-10.376513382058521
8.278931968,1.0002116088175559,-10.518938842405419
8.28486656,1.0001559324019549,-10.660696549753307
8.290801152,1.0000912817967127,-10.801598242418816
8.296735744,1.000021287528398,-10.941587849089155
8.302670848,0.9999500130837287,-11.080594392174334
8.30860544,0.9998817854528027,-11.218641551127778
8.314540032,0.999820270565159,-11.355786130016579
8.320474624,0.9997692791726377,-11.492189422841761
8.326409728,0.9997317757629227,-11.627919852487878
8.33234432,0.9997098041186359,-11.763273485589231
8.338278912,0.9997047633807644,-11.898439371390978
8.344213504,0.9997168530421966,-12.03366801201407
8.350148608,0.9997456046895388,-12.169167009856016
8.3560832,0.9997890293252188,-12.305200330141313
8.362017792,0.9998448594389167,-12.441901485609886
8.367952384,0.9999099367915127,-12.579468467919494
8.373887488,0.9999800966711124,-12.717991847686838
8.37982208,1.000051730865463,-12.85746984012037
8.385756672,1.000120443440497,-12.997949915921264
8.391691264,1.0001822207682753,-13.139333297680063
8.397626368,1.0002335655001475,-13.28153391000298
8.40356096,1.000271452402292,-13.424319831798066
