freq,mag,phase
6.0,1.0003756338760026,-131.64910046024033
6.00357632,1.0003113510692798,-131.85857816089722
6.00715264,1.000227661378461,-132.06702892287777
6.010728448,1.0001297397998212,-132.27419686023777
6.014304768,1.0000235701867455,-132.4799469871367
6.017881088,0.9999156214315913,-132.68418144492546
6.021457408,0.999812330215816,-132.88694190165847
6.025033728,0.9997201142583809,-133.08831783687447
6.028609536,0.9996445197625441,-133.2884935236713
6.032185856,0.9995901962114894,-133.4877755057478
6.035762176,0.9995604348823259,-133.68646965276767
6.039338496,0.9995570215884265,-133.8849427539649
6.042914816,0.9995802766702514,-134.0835466780071
6.046490624,0.9996286945346687,-134.28270649974002
6.050066944,0.9996993765128189,-134.48272678904826
6.053643264,0.9997881117292371,-134.6838920998719
6.057219584,0.9998893736148893,-134.88641035262813
6.060795904,0.9999971403847412,-135.09043833941217
6.064371712,1.0001047915405261,-135.29604374327127
6.067948032,1.00020578255221,-135.50311623179502
6.071524352,1.0002940084045624,-135.71155801371086
6.075100672,1.0003640224774404,-135.9211528730949
6.078676992,1.0004116831324643,-136.1315985858142
6.0822528,1.000434010950002,-136.34253707858312
6.08582912,1.0004296774606252,-136.5536465011354
6.08940544,1.0003988667907735,-136.7645188675791
6.09298176,1.0003435818611068,-136.97479291694535
6.09655808,1.0002669293807636,-137.18413191700827
6.100133888,1.0001737640414523,-137.3922837180654
6.103710208,1.000069702394399,-137.59907671551284
6.107286528,0.999960902976404,-137.8043279204993
6.110862848,0.9998541703345281,-138.0080501219543
6.114439168,0.9997558870771448,-138.21037519782638
6.118014976,0.999672078976522,-138.41141908093167
6.121591296,0.9996079095030913,-138.61140261993876
6.125167616,0.9995671175705583,-138.81064995108414
6.128743936,0.9995524022172858,-139.009498917462
6.132320256,0.9995645229925347,-139.20838825496537
6.135896064,0.9996028601771142,-139.4076245124781
6.139472384,0.9996650258633794,-139.60758617234586
6.143048704,0.9997472553703487,-139.80857329090261
6.146625024,0.9998445400420684,-140.01088329128987
6.150201344,0.9999510305555489,-140.2146404024755
6.153777152,1.0000601782664391,-140.41996542872832
6.157353472,1.00016548094266,-140.6267952507718
6.160929792,1.0002604314940957,-140.8350770956806
6.164506112,1.000339297202253,-141.0446158315861
6.168082432,1.0003971727480454,-141.25516978392193
6.17165824,1.000430685643845,-141.4663431600504
6.17523456,1.0004377601326269,-141.67786754382507
6.17881088,1.0004178836710642,-141.8892851766118
6.1823872,1.000372241685943,-142.10027172994836
6.18596352,1.0003036767456164,-142.31044514968352
6.189539328,1.000216366370042,-142.51952681042152
6.193115648,1.000115423290711,-142.72728253135713
6.196691968,1.000007158444863,-142.9335708294269
6.200268288,0.9998980386612251,-143.13832127580577
6.203844608,0.9997948079939333,-143.34157268290136
6.207420416,0.9997035450503615,-143.54347405461297
6.210996736,0.999630062685285,-143.7441990720015
6.214573056,0.9995786396064335,-143.94404110116253
6.218149376,0.9995525403280195,-144.14335893399868
6.221725696,0.9995533316098856,-144.34248159194158
6.225301504,0.9995809042551012,-144.54183707251212
6.228877824,0.9996337376614752,-144.7417751626655
6.232454144,0.9997084794125459,-144.94264884192134
6.236030464,0.9998006544922255,-145.1446861630738
6.239606784,0.9999048372412203,-145.34817831544584
6.243182592,1.0000143281119318,-145.55317723700136
6.246758912,1.0001227885266681,-145.75975382768073
6.250335232,1.0002235233064471,-145.96779666707025
6.253911552,1.000310389030307,-146.17721819270201
6.257487872,1.0003781100716391,-146.3877733133255
6.26106368,1.0004225781252865,-146.59910866546562
6.26464,1.0004410992393833,-146.81088619278782
6.26821632,1.0004324878953552,-147.0228174520246
6.27179264,1.0003972853731915,-147.2343852035146
6.27536896,1.0003375911740109,-147.44533208235248
6.278944768,1.000257109863089,-147.65528571552784
6.282521088,1.0001605686736426,-147.8639993437208
6.286097408,1.0000539591037145,-148.07126132531616
6.289673728,0.9999436241223042,-148.2770056185775
6.293250048,0.9998363498789362,-148.4812289749402
6.296825856,0.9997386402206226,-148.68398858942902
6.300402176,0.99965650719224,-148.88549036120898
6.303978496,0.999594819734176,-149.0859501070704
6.307554816,0.9995574629014756,-149.28576699269806
6.311131136,0.9995467153473598,-149.48520021867583
6.314706944,0.999563158058841,-149.68469350816102
6.318283264,0.9996058152588565,-149.8846504617703
6.321859584,0.9996722643944982,-150.08536913872047
6.325435904,0.9997582586201216,-150.28720919547803
6.329012224,0.9998586741584001,-150.49033335685277
6.332588032,0.9999674859333252,-150.69503273053195
6.336164352,1.000078011174757,-150.90125742446398
6.339740672,1.0001834656669568,-151.10903630867938
6.343316992,1.0002775725249216,-151.31827367742025
6.346893312,1.0003544716371067,-151.5286968488212
6.350469632,1.0004096291626174,-151.74009879855916
6.35404544,1.0004396098752504,-151.95211644279277
6.35762176,1.0004425182199688,-152.16440261433897
6.36119808,1.0004182619218551,-152.3765222714508
6.3647744,1.0003682642730103,-152.58812732551863
6.36835072,1.00029562693863,-152.7988801625624
6.371926528,1.0002045846026515,-153.0084759618806
6.375502848,1.0001007117038094,-153.21671784731546
6.379079168,0.9999904120882351,-153.4234254094436
6.382655488,0.9998802688591648,-153.6285944114563
6.386231808,0.9997771094618548,-153.83224858285246
6.389807616,0.9996870845489024,-154.03452560407234
6.393383936,0.9996156962447267,-154.23570238240885
6.396960256,0.9995673570736866,-154.43600832650566
6.400536576,0.9995449449055981,-154.63579814860603
6.404112896,0.9995499101918616,-154.83549674343257
6.407688704,0.9995819387069372,-155.0354666234422
6.411265024,0.9996390830126247,-155.23608885761433
6.414841344,0.9997178955495504,-155.43766657170556
6.418417664,0.9998135212420928,-155.64051947809133
6.421993984,0.9999203368524084,-155.84481257379588
6.425569792,1.0000317284042781,-156.05070584352887
6.429146112,1.0001408791723114,-156.25812534718648
6.432722432,1.0002412314456872,-156.46706940108422
6.436298752,1.0003267296459837,-156.6773461472542
6.439875072,1.0003920436763996,-156.88871750277468
6.44345088,1.0004332388974544,-157.1008316487391
6.4470272,1.0004478375588532,-157.31338485708457
6.45060352,1.0004350322580322,-157.52595830751804
6.45417984,1.0003953728482642,-157.73816280479957
6.45775616,1.0003314180124807,-157.94963733687624
6.461331968,1.0002469810830028,-158.16006422534434
6.464908288,1.0001471805543782,-158.36920893462457
6.468484608,1.0000380427849158,-158.57687796313652
6.472060928,0.999926230298151,-158.7829885099799
6.475637248,0.999818527855124,-158.9875357052545
6.479213056,0.9997215239986905,-159.19066370074444
6.482789376,0.9996410744311953,-159.3924928655057
6.486365696,0.9995820262751332,-159.59334817312347
6.489942016,0.9995481514778318,-159.79356280008162
6.493518336,0.9995413954212572,-159.99347801874367
6.497094144,0.9995621438820438,-160.19353397528155
6.500670464,0.9996093203857969,-160.3940567554195
6.504246784,0.999679927052199,-160.5954214894324
6.507823104,0.9997697976903778,-160.79796405817515
6.511399424,0.9998733370885218,-161.0018979125249
6.514975232,0.9999843408299343,-161.20731974467978
6.518551552,1.0000960348698533,-161.4144008832085
6.522127872,1.0002016194006478,-161.62297330476966
6.525704192,1.0002947653035523,-161.8330156545486
6.529280512,1.000369725504807,-162.04426460697854
6.53285632,1.0004219550959896,-162.25640284694185
6.53643264,1.0004483193002374,-162.46912989946088
6.54000896,1.0004471102929515,-162.68203204427638
6.54358528,1.0004184388850943,-162.89473289317715
6.5471616,1.0003640029597034,-163.10685495283914
6.550737408,1.0002872048942861,-163.31807861618935
6.554313728,1.0001926055791273,-163.5280933002302
6.557890048,1.0000858417322618,-163.7366498497725
6.561466368,0.9999735935398925,-163.9436935911199
6.565042688,0.9998625271555421,-164.14912681042728
6.568618496,0.9997595025386959,-164.3530677863569
6.572194816,0.9996707273193232,-164.55565555911366
6.575771136,0.9996015964592324,-164.75711182487936
6.579347456,0.999556330235481,-164.9577323343848
6.582923776,0.9995377295657829,-165.1579459032422
6.586499584,0.9995469545878997,-165.35808941532312
6.590075904,0.9995834181327461,-165.5585776113262
6.593652224,0.999644931369071,-165.75975232991567
6.597228544,0.9997278301840972,-165.96197689776028
6.600804864,0.9998269418435044,-166.16550423101347
6.604380672,0.9999363361393242,-166.3705104559541
6.607956992,1.0000493684480007,-166.57712393273695
6.611533312,1.0001592065744231,-166.78532381461648
6.615109632,1.0002590528327182,-166.99504038850932
6.618685952,1.0003430575691814,-167.2060438615719
6.62226176,1.0004058138845895,-167.4181222179076
6.62583808,1.0004436859688406,-167.63092613115083
6.6294144,1.0004544621781666,-167.84407945280915
6.63299072,1.0004372066306373,-168.05719857389298
6.63656704,1.0003930520460438,-168.26990647775258
6.640142848,1.0003248883198026,-168.48179885210584
6.643719168,1.0002365130422353,-168.69257868131518
6.647295488,1.0001334553196999,-168.90203798874128
6.650871808,1.0000218902677154,-169.10997245239847
6.654448128,0.9999086767124151,-169.31631756410712
6.658023936,0.999800585103956,-169.52108208422453
6.661600256,0.9997043433664099,-169.7244179340904
6.665176576,0.9996256042874219,-169.9264992603028
6.668752896,0.9995693838346901,-170.12762067930115
6.672329216,0.9995390691901551,-170.32815760559714
6.675905024,0.999536313775488,-170.52844627637688
6.679481344,0.9995615595694629,-170.7289159432669
6.683057664,0.9996131935012049,-170.92990472041774
6.686633984,0.9996880755929735,-171.131834285082
6.690210304,0.999781606445878,-171.33494651918045
6.693786112,0.9998882773520374,-171.53951312886883
6.697362432,1.0000012681174095,-171.74564253336302
6.700938752,1.0001142572747335,-171.95338098941727
6.704515072,1.0002198115643677,-172.16267297781462
6.708091392,1.000311953805368,-172.3734074612405
6.7116672,1.0003848203068084,-172.58531107025098
6.71524352,1.0004341336474072,-172.7981001991033
6.71881984,1.000456713567943,-173.01139678254495
6.72239616,1.0004512257820255,-173.22481357016267
6.72597248,1.0004181274456778,-173.43800708378706
6.729548288,1.000359383747862,-173.6505199505606
6.733124608,1.0002783406177451,-173.8620511236665
6.736700928,1.000180132638656,-174.0723238737938
6.740277248,1.0000705438198296,-174.28112404083723
6.743853568,0.9999563229748769,-174.488338327554
6.747429376,0.9998445525626017,-174.69395716088363
6.751005696,0.9997416541648159,-174.89804308645523
6.754582016,0.9996541763248239,-175.10078034152457
6.758158336,0.9995874996402065,-175.30244501737363
6.761734656,0.9995453793863012,-175.50332444923885
6.765310464,0.9995306843868713,-175.70379612880387
6.768886784,0.999544282178048,-175.90428619932678
6.772463104,0.9995851453691317,-176.1051441953336
6.776039424,0.9996511439883835,-176.3067694583771
6.779615744,0.9997379862573221,-176.50950019712127
6.783191552,0.9998405221548977,-176.713607650928
6.786767872,0.9999525545025456,-176.91922256651796
6.790344192,1.0000673332039351,-177.1264717708061
6.793920512,1.0001775229928913,-177.3352965451772
6.797496832,1.000276953185709,-177.54566637120487
6.80107264,1.00035920745758,-177.7572961647669
6.80464896,1.000419387791437,-177.96993802885672
6.80822528,1.0004539860138029,-178.18330677774037
6.8118016,1.000460582560099,-178.39693483819286
6.81537792,1.000438901239498,-178.6104940296936
6.818953728,1.00039028654884,-178.82354670937116
6.822530048,1.0003177300540917,-179.03573984080535
6.826106368,1.0002255467140329,-179.24677848096402
6.829682688,1.000119155364641,-179.45643145284603
6.833259008,1.0000052837577997,-179.6644889037183
6.836834816,0.999890718264498,-179.8709418092264
6.840411136,0.9997824239687971,179.92419690654347
6.843987456,0.9996870881645438,179.7207441785265
6.847563776,0.9996102496630629,179.51854937420302
6.851140096,0.9995569333862656,179.3172605557305
6.854715904,0.9995301533915227,179.11657760914446
6.858292224,0.999531686403787,178.91602568301573
6.861868544,0.9995613499975473,178.71525903834922
6.865444864,0.9996174042573692,178.5138755417794
6.869021184,0.9996965752338217,178.3115201617903
6.872596992,0.9997938933251883,178.10793306828998
6.876173312,0.9999035065856272,177.902843433573
6.879749632,1.0000187390317747,177.69614599484916
6.883325952,1.0001327041010146,177.4878102294322
6.886902272,1.0002382922906012,177.27793757304315
6.89047808,1.0003292044273344,177.06662506919042
6.8940544,1.0003999152818581,176.85419061302753
6.89763072,1.0004460153615802,176.64088525812042
6.90120704,1.0004648050905334,176.42713466063788
6.90478336,1.0004551501044763,176.2133056733485
6.908359168,1.0004174825983982,175.99981996964846
6.911935488,1.0003541999264147,175.78701793587118
6.915511808,1.0002690669721412,175.57526920177824
6.919088128,1.0001673027255447,175.36486501981042
6.922664448,1.0000548826150506,175.1559434729926
6.926240256,0.999938779852118,174.94867671594113
6.929816576,0.9998260982297781,174.74302346246452
6.933392896,0.9997237755396475,174.5388757636312
6.936969216,0.9996378560921304,174.33611065584876
6.940545536,0.999573458338299,174.13437599316356
6.944121344,0.9995347222741077,173.93338200199585
6.947697664,0.9995239734346718,173.73273188472578
6.951273984,0.9995418952280827,173.53203140355473
6.954850304,0.9995874734166557,173.33088477280052
6.958426624,0.9996578055923844,173.12892695927195
6.962002432,0.9997486959184005,172.92576499357585
6.965578752,0.9998547354491465,172.72124146593478
6.969155072,0.9999692547207576,172.5151598716834
6.972731392,1.000085498316684,172.30737709151992
6.976307712,1.000196364775377,172.09800286624542
6.97988352,1.0002949614350363,171.88716768900298
6.98345984,1.0003755081895984,171.67499607179744
6.98703616,1.0004330300121043,171.46186305420622
6.99061248,1.0004639745629984,171.2480894661633
6.9941888,1.0004665747172772,171.03408060059257
6.997764608,1.0004404080340388,170.82023885537305
7.001340928,1.000387227028842,170.60692908471094
7.004917248,1.0003103215678202,170.39455786947545
7.008493568,1.0002140342293728,170.18341121748398
7.012069888,1.0001045098906796,169.97372011114774
7.015646208,0.9999883389845339,169.76563773375852
7.019222016,0.9998724447642074,169.55918888267465
7.022798336,0.9997640860418407,169.3543375132476
7.026374656,0.9996695425858899,169.1509322798401
7.029950976,0.999594851867443,168.94873150783644
7.033527296,0.999544393741374,168.74743341957478
7.037103104,0.9995213547114874,168.54663428371387
7.040679424,0.9995271816099346,168.34595384815316
7.044255744,0.9995614358567081,168.14498833730906
7.047832064,0.9996220921644298,167.94337769186842
7.051408384,0.9997054881476365,167.74070128164772
7.054984192,0.9998066206299199,167.5367369194824
7.058560512,0.9999192438417348,167.33121635565408
7.062136832,1.000036535085918,167.12408994939904
7.065713152,1.0001513898101022,166.9152852671164
7.069289472,1.0002568685667248,166.70491173077576
7.07286528,1.0003465344589202,166.4931659615873
7.0764416,1.000414902338455,166.28027740759447
7.08001792,1.0004577976388704,166.06659374141802
7.08359424,1.0004726658203351,165.85250284281932
7.08717056,1.000458699725652,165.63838916326114
7.090746368,1.0004163429909299,165.4246909611149
7.094322688,1.0003485645573056,165.211768642833
7.097899008,1.000259282762767,164.99994662166762
7.101475328,1.0001538172994155,164.78950001157884
7.105051648,1.000038752129421,164.58061116825846
7.108627456,0.9999208729424534,164.37340483128344
7.112203776,0.9998075190970527,164.16784355874944
7.115780096,0.9997054465952274,163.96379205193085
7.119356416,0.999621116841743,163.76106340692888
7.122932736,0.9995593744369552,163.5593889457207
7.126508544,0.9995240886807437,163.35840568037693
7.130084864,0.9995175290497539,163.1577082468897
7.133661184,0.9995399234382117,162.95690903916994
7.137237504,0.999590016363817,162.7555782724324
7.140813824,0.9996649248283961,162.5534080332343
7.144389632,0.9997598420066203,162.3499531629933
7.147965952,0.9998692460758358,162.1450904565998
7.151542272,0.9999862911154563,161.9386004452051
7.155118592,1.000104124398974,161.7304546380823
7.158694912,1.0002152908354234,161.5206376245047
7.16227072,1.000313246033608,161.30937935465334
7.16584704,1.0003918226062183,161.09683125293392
7.16942336,1.0004466567280126,160.88334556239644
7.17299968,1.0004738873565666,160.6692661420767
7.176576,1.0004720725640321,160.45500789166792
7.180151808,1.0004414967096658,160.2409641192814
7.183728128,1.0003836019043313,160.02754925214742
7.187304448,1.0003022243482274,159.8151154655295
7.190880768,1.0002020165138445,159.60399595285895
7.194457088,1.0000893360506817,159.3943716044835
7.198032896,0.9999709342020686,159.18638189630266
7.201609216,0.9998538590643918,158.98007518745933
7.205185536,0.9997453016835898,158.77536997476727
7.208761856,0.999651802602269,158.57211131924132
7.212338176,0.9995792945375958,158.37002087787258
7.215913984,0.9995320658761822,158.16878561274044
7.219490304,0.9995129270016072,157.96804313709993
7.223066624,0.9995230633255057,157.76734877631517
7.226642944,0.9995620015738826,157.5663075282057
7.230219264,0.9996272032786068,157.36450201369888
7.233795072,0.9997149799846341,157.16166618533143
7.237371392,0.9998198443921461,156.95743369619026
7.240947712,0.9999353518208827,156.7516347980898
7.244524032,1.0000547524296306,156.54413232784293
7.248100352,1.0001705063369672,156.33499387150985
7.25167616,1.000275682238351,156.1242589837907
7.25525248,1.0003639573758076,155.91214147187316
7.2588288,1.0004299486069943,155.69895566585157
7.26240512,1.0004694696705938,155.484965566538
7.26598144,1.000480307567529,155.27067499833052
7.269557248,1.0004617155742357,155.05639679764926
7.273133568,1.0004147775940428,154.8425870410208
7.276709888,1.0003423576750436,154.62961659761535
7.280286208,1.0002487842667487,154.41786970509088
7.283862528,1.0001398101577348,154.20753032003475
7.287438336,1.0000219024099486,153.99879934258118
7.291014656,0.9999024236622207,153.79175778881654
7.294590976,0.9997884458534476,153.5863784495464
7.298167296,0.9996868649641246,153.38253917615356
7.301743616,0.9996042305293883,153.18003013473518
7.305319424,0.9995451392552324,152.97851133212274
7.308895744,0.999513461918972,152.77763972114062
7.312472064,0.9995110861949801,152.57698487679082
7.316048384,0.9995381670494402,152.37620151648662
7.319624704,0.9995929743115604,152.17483661104222
7.323200512,0.9996723669711575,151.97250550946086
7.326776832,0.9997715128667249,151.76890383591544
7.330353152,0.9998843494652733,151.5637974455744
7.333929472,1.000003895540634,151.35702174245375
7.337505792,1.000123083576435,151.1485757510751
7.3410816,1.0002345600340958,150.93848233781932
7.34465792,1.0003316807913467,150.72688067501377
7.34823424,1.0004082600650577,150.5140552553217
7.35181056,1.0004599395172729,150.3003352423563
7.35538688,1.0004834639980897,150.08605738881474
7.358962688,1.0004773197177161,149.87163996891735
7.362539008,1.0004419199408732,149.6575504088462
7.366115328,1.0003793157616334,149.44412586457713
7.369691648,1.0002935429660882,149.2317861246618
7.373267968,1.000189406845627,149.02079780930066
7.376843776,1.0000735503578655,148.81135037530464
7.380420096,0.99995274008482,148.60357714754556
7.383996416,0.999834658845336,148.3975224480971
7.387572736,0.999726041564174,148.19307106629915
7.391149056,0.999633888145441,147.99008543566248
7.394724864,0.9995636238757739,147.78823410509955
7.398301184,0.9995195559338976,147.58720279581055
7.401877504,0.999504351526937,147.38658103265564
7.405453824,0.9995190564884806,147.18600649313663
7.409030144,0.9995627927594128,146.98496935701917
7.412605952,0.9996328709503896,146.783160106349
7.416182272,0.9997249867511466,146.58017861832073
7.419758592,0.999833651775697,146.37579401840594
7.423334912,0.9999522317311366,146.16976999076547
7.426911232,1.0000733909055652,145.96205782204126
7.43048704,1.0001900023301717,145.75263495874606
