freq,mag,phase
6.0,0.9996392019546777,-23.0020176152678
6.012739072,0.9995514226066841,-23.466580404501816
6.025477632,0.9994841279062667,-23.93043860429156
6.038216704,0.9994408347456545,-24.393896106171905
6.050955264,0.9994237659976305,-24.857100791560715
6.063694336,0.9994337400013228,-25.320582671611483
6.076432896,0.9994704980061245,-25.78457247163567
6.089171968,0.999531987116042,-26.24942452859494
6.10191104,0.99961586573833,-26.71542521634375
6.1146496,0.9997182327876256,-27.182814462655152
6.127388672,0.999834072315213,-27.6518639532982
6.140127232,0.99995809493257,-28.122612787774102
6.152866304,1.000084324224004,-28.59524956108543
6.165604864,1.000207073514182,-29.06964870451913
6.178343936,1.0003203778364158,-29.54580701509179
6.191083008,1.0004190261896146,-30.023515201135876
6.203821568,1.0004982945310914,-30.502607683445834
6.21656064,1.000554253199799,-30.982842177362432
6.2292992,1.0005843485825834,-31.46385319991909
6.242038272,1.0005870114275224,-31.94533416440997
6.254776832,1.0005621369287567,-32.426966093684655
6.267515904,1.0005107057797014,-32.908362373912524
6.280254976,1.0004351132129994,-33.38926001014428
6.292993536,1.0003385913118064,-33.86937303435423
6.305732608,1.0002259629454429,-34.34843046597084
6.318471168,1.0001021750498862,-34.82628953138331
6.33121024,0.9999733064994683,-35.3028020697165
6.3439488,0.9998452328103294,-35.77802691722158
6.356687872,0.9997238384523408,-36.25185948831252
6.369426944,0.9996150443042447,-36.72461398219634
6.382165504,0.9995239821612384,-37.196322003005655
6.394904576,0.9994550075494701,-37.66726478611819
6.407643136,0.9994115013799817,-38.13779238621095
6.420382208,0.9993954862413448,-38.608201749027636
6.433120768,0.9994078129489009,-39.07880455804937
6.44585984,0.9994481125394571,-39.550017158593604
6.458598912,0.9995143784332008,-40.02215975310831
6.471337472,0.9996038990933376,-40.49550138483668
6.484076544,0.9997121266516054,-40.97036152431726
6.496815104,0.9998342705847865,-41.44688538926667
6.509554176,0.9999645930992417,-41.925299501569405
6.522293248,1.000097215695546,-42.40560663151681
6.535031808,1.0002254660979135,-42.88781749659741
6.54777088,1.0003435551644184,-43.37180579853857
6.56050944,1.0004461554238706,-43.85748461218184
6.573248512,1.000527837778499,-44.34458037639782
6.585987072,1.0005851530521008,-44.832804966315116
6.598726144,1.0006152695404178,-45.32188005976747
6.611465216,1.0006164060270013,-45.81139744648776
6.624203776,1.0005886346720108,-46.301073319253426
6.636942848,1.0005331303907559,-46.79051543518209
6.649681408,1.0004524026241388,-47.279366735799705
6.66242048,1.0003502594258047,-47.76737680006339
6.67515904,1.0002311564489617,-48.25425568609491
6.687898112,1.0001007040322532,-48.739916954104075
6.700637184,0.9999651861689777,-49.22414571416576
6.713375744,0.9998308092022721,-49.706990220638474
6.726114816,0.9997038628195748,-50.18844457082611
6.738853376,0.9995904300482749,-50.66869281770671
6.751592448,0.9994956406492764,-51.14788424656287
6.764331008,0.9994243755586978,-51.62634747462712
6.77707008,0.9993799281345026,-52.10430462715443
6.789809152,0.9993643658780046,-52.58219132849778
6.802547712,0.9993786719919879,-53.06029131104102
6.815286784,0.9994221954661346,-53.539026470953445
6.828025344,0.9994931094615171,-54.01873497464682
6.840764416,0.9995878809701791,-54.49977681550299
6.853502976,0.9997024995588281,-54.982361534489286
6.866242048,0.9998313294957633,-55.46678667442494
6.87898112,0.9999688167692565,-55.95307680297997
6.89171968,1.0001080785562007,-56.441433878210155
6.904458752,1.0002428077148404,-56.931752622668206
6.917197312,1.0003665429114998,-57.423962086028325
6.929936384,1.0004736145724265,-57.9178900698775
6.942674944,1.000558785908897,-58.41331965963567
6.955414016,1.0006181751069507,-58.909969496858736
6.968153088,1.0006487275537255,-59.40746236864889
6.980891648,1.0006490012925264,-59.90541465311886
6.99363072,1.0006188205386046,-60.40347980504447
7.00636928,1.0005595487999468,-60.90128430272353
7.019108352,1.0004737638173382,-61.39852668643284
7.031846912,1.000365532310184,-61.89482025891172
7.044585984,1.0002397576386932,-62.38995264545226
7.057325056,1.0001023176775836,-62.883710911664586
7.070063616,0.9999594269329828,-63.376005757524815
7.082802688,0.9998181060271988,-63.8668582784414
7.095541248,0.9996847473869349,-64.35624820238874
7.10828032,0.9995655306724044,-64.84433498743331
7.12101888,0.9994664076574084,-65.33135480208436
7.133757952,0.999391873586082,-65.81753562320917
7.146497024,0.9993456973994908,-66.30325186606696
7.159235584,0.9993299143047165,-66.78884632005351
7.171974656,0.9993457472184087,-67.27470903579842
7.184713216,0.99939209622738,-67.76126161575438
7.197452288,0.9994674434070873,-68.2488220644182
7.210190848,0.9995677590325335,-68.73772422774556
7.22292992,0.9996888691316494,-69.22831502401961
7.235668992,0.9998250522285902,-69.72079950420596
7.248407552,0.9999698505986104,-70.21528036081726
7.261146624,1.0001167538466442,-70.71190385046671
7.273885184,1.0002586423253765,-71.21060886866006
7.286624256,1.000388885664401,-71.71129120462108
7.299362816,1.0005016168109018,-72.21381358223397
7.312101888,1.0005911464780792,-72.71787597267083
7.32484096,1.0006534899385586,-73.22316145055807
7.33757952,1.0006853782098526,-73.7293634534651
7.350318592,1.0006854003558074,-74.2360531376679
7.363057152,1.000653332478854,-74.74287235674423
7.375796224,1.0005904667187286,-75.24938964344824
7.388534784,1.0004998855396205,-75.75528477036798
7.401273856,1.0003854722720626,-76.26015037241014
7.414012928,1.000252639669157,-76.76383344221841
7.426751488,1.0001074775051917,-77.26603167905888
7.43949056,0.9999567513559167,-77.76669833495828
7.45222912,0.9998074009873676,-78.26579753363373
7.464968192,0.9996666258226057,-78.76337089914159
7.477706752,0.999540834364889,-79.2595805496795
7.490445824,0.9994361357433087,-79.75460507833989
7.503184896,0.9993573867164599,-80.24880255517952
7.515923456,0.9993084746634809,-80.74242947429356
7.528662528,0.999291877969087,-81.23593663546673
7.541401088,0.9993082793319066,-81.72978003028346
7.55414016,0.9993573390880793,-82.22422970987316
7.566879232,0.9994365910341421,-82.71977892568894
7.579617792,0.9995425807999684,-83.21676932854933
7.592356864,0.9996705215984012,-83.71548217199985
7.605095424,0.9998143242557048,-84.21616642293415
7.617834496,0.9999674360679038,-84.71902547694548
7.630573056,1.000122695064472,-85.22408752207521
7.643312128,1.0002727190982994,-85.73135275646369
7.6560512,1.0004108270369914,-86.24069639075746
7.66878976,1.0005301756617213,-86.75191060297239
7.681528832,1.0006252030086205,-87.26482065414852
7.694267392,1.0006914214727451,-87.77899794838875
7.707006464,1.0007256769617654,-88.29412517824319
7.719745024,1.0007261244003351,-88.80979209017107
7.732484096,1.00069279199345,-89.3255616816752
7.745223168,1.000626838906718,-89.84103648761429
7.757961728,1.0005312950467358,-90.355796791326
7.7707008,1.0004107199938428,-90.86951920785259
7.78343936,1.0002703789868959,-91.3819524597986
7.796178432,1.000116918770891,-91.89284378557991
7.808916992,0.9999574065404381,-92.40208354292317
7.821656064,0.9997991904450231,-92.90961630154214
7.834395136,0.9996497154663744,-93.4155611940804
7.847133696,0.9995161297982437,-93.92001508694868
7.859872768,0.999404591259361,-94.42321269448178
7.872611328,0.9993204762020319,-94.92547517946768
7.8853504,0.9992678246589338,-95.42716036454495
7.89808896,0.9992492779920894,-95.9286805824061
7.910828032,0.9992658481315444,-96.43045782938187
7.923567104,0.9993167804766828,-96.93294368969939
7.936305664,0.9993999184374752,-97.4365356791715
7.949044736,0.9995114416165793,-97.94163844123413
7.961783296,0.9996463317122134,-98.44854338666576
7.974522368,0.9997983026285125,-98.95750459386872
7.987260928,0.9999604714699492,-99.46873436522415
8.0,1.0001251269621516,-99.98228228096775
8.012739072,1.000284592682646,-100.49813925596166
8.025477632,1.000431537397887,-101.01620153065268
8.038216704,1.0005588557879934,-101.5362765715375
8.050955264,1.0006607239048808,-102.0580923069933
8.063694336,1.000732243295253,-102.58128341018896
8.076432896,1.0007698399223073,-103.10549178946339
8.089171968,1.0007717761147559,-103.63022307430333
8.10191104,1.0007377528228771,-104.15508393531823
8.1146496,1.000669226947263,-104.67961449600382
8.127388672,1.0005690770228062,-105.20341934130752
8.140127232,1.000442049133594,-105.72610463735687
8.152866304,1.0002939293719657,-106.24743873882744
8.165604864,1.0001314768910345,-106.76708609913968
8.178343936,0.9999621738393011,-107.2850207401495
8.191083008,0.9997940124995395,-107.8010952416743
8.203821568,0.9996346947256075,-108.31543802048051
8.21656064,0.9994918622772135,-108.82820141209642
8.2292992,0.9993721749119175,-109.33958290220531
8.242038272,0.9992812130878276,-109.84996696530806
8.254776832,0.9992235812347091,-110.35965560594755
8.267515904,0.999201986795934,-110.86917338454597
8.280254976,0.9992175867309181,-111.37889415650403
8.292993536,0.9992698913403789,-111.88931377701094
8.305732608,0.9993565565492555,-112.40084166752273
8.318471168,0.9994736169224551,-112.9139692747531
8.33121024,0.9996157854478295,-113.42894463315288
8.3439488,0.9997766173416572,-113.94611679490872
8.356687872,0.9999486026310804,-114.46560278520938
8.369426944,1.0001237488992865,-114.98760389831946
8.382165504,1.0002938782797213,-115.51200731056474
8.394904576,1.00045108486241,-116.0387509992121
8.407643136,1.0005880871878066,-116.56760786204512
8.420382208,1.000698243791514,-117.09832923096107
8.433120768,1.000776385405801,-117.63049411706622
8.44585984,1.000818751096972,-118.16375999808008
8.458598912,1.0008232231955416,-118.69757875738931
8.471337472,1.000789421187162,-119.23156854112639
8.484076544,1.0007186989217849,-119.76520622772044
8.496815104,1.0006141673533742,-120.29807259936352
8.509554176,1.0004807371537132,-120.82978295811556
8.522293248,1.000324198414544,-121.35997114070257
8.535031808,1.0001519724496013,-121.88843168580195
8.54777088,0.9999719879513739,-122.41499531345593
8.56050944,0.9997923886736976,-122.9395926724608
8.573248512,0.9996217802091775,-123.46234200291013
8.585987072,0.9994680264459751,-123.98331635932107
8.598725632,0.9993384504529456,-124.50280624220254
8.611465216,0.999239175611884,-125.02113368107905
8.624203776,0.9991749546111159,-125.53873944301796
8.636942336,0.9991489764363549,-126.05601290668419
8.64968192,0.9991626456910992,-126.57348292195074
8.66242048,0.9992154449727056,-127.09164487460254
8.67515904,0.999305055629882,-127.61092070527073
8.6878976,0.9994276046942863,-128.13180227882373
8.700637184,0.999577488489645,-128.65466940664973
8.713375744,0.9997476443756248,-129.17978240089872
8.726114304,0.9999304502030908,-129.70737660669232
8.738853888,1.0001173468077493,-130.23752933281168
8.751592448,1.0002996552009584,-130.77027830359765
8.764331008,1.000468964881528,-131.30550539594094
8.777069568,1.0006171741215681,-131.84297315958435
8.789809152,1.0007374331464132,-132.3824356267594
8.802547712,1.0008239532568453,-132.92344374254026
8.815286272,1.0008726197123734,-133.4656380855757
8.828025856,1.000880928053916,-134.00847583121433
8.840764416,1.0008483417457146,-134.55146505753126
8.853502976,1.0007761602828782,-135.0941008003987
8.866241536,1.0006676502872733,-135.6359437881134
8.87898112,1.0005276557281104,-136.1765474238161
8.89171968,1.0003623478805932,-136.7155427782367
8.90445824,1.000179477016268,-137.2526535249043
8.917197824,0.9999874584302981,-137.78775953302014
8.929936384,0.9997951146122585,-138.32071493102785
8.942674944,0.9996114025717351,-138.85162893307856
8.955413504,0.9994450022251149,-139.38065037186138
8.968153088,0.999303652428405,-139.9079794472489
8.980891648,0.9991941047128138,-140.43404335799045
8.993630208,0.9991216176806911,-140.95921170714556
9.006369792,0.9990897195910273,-141.48400146706575
9.019108352,0.99910012840429,-142.0088688172474
9.031846912,0.9991525697038136,-142.53437610523014
9.044586496,0.9992447721299001,-143.06103931377572
9.057325056,0.9993725862288017,-143.5893274136102
9.070063616,0.9995302752977675,-144.11964753729814
9.082802176,0.999710610911457,-144.65235554792798
9.09554176,0.9999054226614829,-145.1876218772419
9.10828032,1.0001055423668646,-145.7256204348177
9.12101888,1.0003016964278577,-146.2663565393476
9.133758464,1.000484944573257,-146.80971014549337
9.146497024,1.0006465182507753,-147.35549030694892
9.159235584,1.0007788901221522,-147.90339520096936
9.171974144,1.0008757331525073,-148.4530029734857
9.184713728,1.000932504280321,-149.00384787237442
9.197452288,1.000946190238132,-149.55545536459152
9.210190848,1.0009160754244988,-150.10721153501947
9.222930432,1.000843301813933,-150.6586531131643
9.235668992,1.0007310623190404,-151.20926314990945
9.248407552,1.0005843301216348,-151.75851778004989
9.261146112,1.0004096869719217,-152.3061049508403
9.273885696,1.0002152629550511,-152.85164001727554
9.286624256,1.0000098672617632,-153.39499870922336
9.299362816,0.9998030021224662,-153.93606789700516
9.3121024,0.9996043739081866,-154.47486810997594
9.32484096,0.9994230001482636,-155.01155633052988
9.33757952,0.999267704450917,-155.54638912268365
9.35031808,0.9991457161458593,-156.07976415012956
9.363057664,0.9990628431091119,-156.61207148457126
9.375796224,0.9990231891005293,-157.1438504008332
9.388534784,0.9990288114116672,-157.6756703927743
9.401274368,0.9990797486264872,-158.20803561265703
9.414012928,0.9991737679043527,-158.74157122947847
9.426751488,0.9993066762480038,-159.27672727150303
9.439490048,0.9994726256872574,-159.8139722157536
9.452229632,0.9996639533886676,-160.35368355192858
9.464968192,0.9998718442735617,-160.8961353882711
9.477706752,1.0000868857361822,-161.44142454648372
9.490446336,1.0002989933462711,-161.98964671717252
9.503184896,1.0004983371641267,-162.54068295301937
9.515923456,1.000675613606381,-163.09430040355704
9.528662016,1.0008224954412344,-163.65021204901598
9.5414016,1.0009320364803493,-164.20798041480683
9.55414016,1.0009989148701768,-164.76715393912278
9.56687872,1.0010198645172053,-165.32712239115656
9.579618304,1.000993584103243,-165.8873364458548
9.592356864,1.000921207140493,-166.4472299447612
9.605095424,1.0008058131307942,-167.00623842585196
9.617833984,1.0006523586701928,-167.56387497442282
9.630573568,1.0004678276706291,-168.11968601729194
9.643312128,1.0002607373789176,-168.67330959811378
9.656050688,1.0000403748909057,-169.22456234546314
9.668790272,0.9998170742629552,-169.7733040158931
9.681528832,0.9996010679412327,-170.31957205500177
9.694267392,0.999402505129095,-170.86348135660614
9.707005952,0.9992306550502142,-171.40532616515299
9.719745536,0.9990935860020712,-171.94545901899346
9.732484096,0.9989980270115543,-172.48437824518152
9.745222656,0.9989484607128123,-173.02256835594713
9.75796224,0.9989476403073619,-173.56066718335265
9.7707008,0.9989956405245759,-174.0992709895498
9.78343936,0.9990907459541005,-174.6389658124534
9.79617792,0.9992286264511637,-175.18031961858662
9.808917504,0.9994030024060597,-175.7238279577608
9.821656064,0.9996061624524053,-176.2698846923892
9.834394624,0.9998287981080513,-176.81880658825781
9.847134208,1.0000605864374807,-177.3707712503556
9.859872768,1.0002908221077362,-177.92585300608533
9.872611328,1.0005088920601435,-178.4839515435302
9.885349888,1.000704698057372,-179.0448421422646
9.898089472,1.000868830408499,-179.60822164255597
9.910828032,1.0009936771310457,179.8263437775996
9.923566592,1.0010731813173301,179.25941345433435
9.936306176,1.0011035032644102,178.6915099123581
9.949044736,1.0010827313171535,178.12325338722354
9.961783296,1.0010120066487693,177.55533817599692
9.974521856,1.0008938229338116,176.98830606902612
9.98726144,1.0007335439234466,176.42276049497386
10.0,1.0005385801851363,175.8591370566881
10.01273856,1.0003174915840967,175.29785780320174
10.025478144,1.0000804644261398,174.73916342760117
10.038216704,0.9998383530174245,174.1832109069194
10.050955264,0.9996024109015339,173.63000941046846
10.063693824,0.9993835177044638,173.0794251124183
10.076433408,0.9991919946005186,172.5311860036198
10.089171968,0.9990369929799164,171.9849097838228
10.101910528,0.9989258308135657,171.44009235156994
10.114650112,0.9988639007392638,170.89617375297354
10.127388672,0.9988543312032285,170.35252145913907
10.140127232,0.998898002658653,169.80849728983856
10.152865792,0.998993153639474,169.26340752309935
10.165605376,0.9991354402784587,168.71668467427588
10.178343936,0.9993187852518864,168.16771940106105
10.191082496,0.9995349330410965,167.61610821506014
10.20382208,0.9997738521969802,167.06148772458306
10.21656064,1.000024582437252,166.50361061273392
10.2292992,1.0002757366604278,165.94242835049957
10.24203776,1.0005155654771938,165.37798159058033
10.254777344,1.0007330564510406,164.81048684696052
10.267515904,1.000917673822284,164.2402567267316
10.280254464,1.0010610504347708,163.66776402839116
10.292994048,1.0011560158288932,163.09354376216936
10.305732608,1.0011981748058794,162.51824999285083
10.318471168,1.0011851599595891,161.94250026309788
10.331209728,1.001117241970524,161.36701792875004
10.343949312,1.000997117242306,160.79245240139235
10.356687872,1.000830249514152,160.21940376941234
10.369426432,1.0006237706999588,159.64844186092506
10.382166016,1.0003872398130103,159.0800033353261
10.394904576,1.00013137178311,158.51436935363967
10.407643136,0.9998677915462312,157.95174275026986
10.420381696,0.9996087152416127,157.39216325573616
10.43312128,0.9993662766034129,156.83552387879922
10.44585984,0.9991516424428258,156.28151648831061
10.4585984,0.9989750557338648,155.72979566435026
10.471337984,0.9988449445854155,155.17983042985713
10.484076544,0.9987675666878172,154.63097745765293
10.496815104,0.9987469734472695,154.08260025287473
10.509553664,0.9987843392410766,153.5339558173816
10.522293248,0.9988784427718568,152.98436870794902
10.535031808,0.9990249801046971,152.43311643231303
10.547770368,0.9992178348336491,151.87961525373186
10.560509952,0.9994481124795702,151.3233255674884
10.573248512,0.9997053245758474,150.76384930762765
10.585987072,0.999977871564283,150.2009051314854
10.598725632,1.0002530443665854,149.6343814154389
10.611465216,1.0005182132848365,149.0643165634859
10.624203776,1.000761118907481,148.49090360556582
10.636942336,1.0009702153976807,147.91448415434368
10.64968192,1.001135823334863,147.33552892749586
10.66242048,1.0012498974321862,146.75462715868824
10.67515904,1.0013068842827473,146.17242663506653
10.6878976,1.0013037863860679,145.58965508716426
10.700637184,1.0012403356552793,145.0070722164911
10.713375744,1.0011191621378916,144.4253864776185
10.726114304,1.0009453342587837,143.8452985303906
10.738853888,1.0007266767381542,143.26741176883027
10.751592448,1.0004728787577861,142.69221955371336
10.764331008,1.0001954775858777,142.12013147466527
10.777069568,0.9999072402656115,141.5513595515932
10.789809152,0.9996212755518042,140.98595961780794
10.802547712,0.9993510453495923,140.4238253531176
10.815286272,0.9991090163348973,139.86473241308775
10.828025856,0.998906658305114,139.3082482542931
10.840764416,0.9987535453810138,138.7538515466027
10.853502976,0.9986572628855205,138.20087609990443
10.866241536,0.9986225106981843,137.64859483858226
10.87898112,0.9986513436032473,137.09623533567782
10.89171968,0.9987431020413399,136.54300388608027
10.90445824,0.998893490172058,135.98816331392302
10.917197824,0.9990962962298868,135.43097821077333
10.929936384,0.9993421628962497,134.87089990704357
10.942674944,0.9996202702109234,134.3074203192181
10.955413504,0.9999176955891631,133.74020883321006
10.968153088,1.0002208511667874,133.16911776260213
10.980891648,1.000515743368602,132.59417064519263
10.993630208,1.0007888329212575,132.01550269995917
11.006369792,1.0010271443666559,131.43350483194777
11.019108352,1.001219524098592,130.8486059592572
11.031846912,1.00135688961228,130.26147831568503
11.044586496,1.0014323155400708,129.6728202360978
11.057325056,1.0014420584158368,129.0833842953192
11.070063616,1.0013851120527206,128.49403142445055
