freq,mag,phase
6.0,1.0001918033947488,143.61419029970543
6.002287616,1.0003992957250918,143.45223604472469
6.004575232,1.000581213540874,143.28750361944626
6.006862848,1.0007267141864389,143.12039687821684
6.009150464,1.0008266168831386,142.95155346625938
6.011438592,1.0008747076917865,142.781635743875
6.013726208,1.0008679972319618,142.61144834596618
6.016013824,1.0008065938979163,142.44179112296428
6.01830144,1.0006946212830103,142.27337772818657
6.020589056,1.0005391489324031,142.10698097299476
6.022876672,1.0003496846698632,141.94306216744278
6.025164288,1.000138529697386,141.78206773966986
6.027451904,0.9999188343464086,141.62424253148546
6.029740032,0.999704490251158,141.46957021938755
6.032027648,0.9995090758708292,141.31794073651326
6.034315264,0.9993450620970639,141.16891882366733
6.03660288,0.9992225752675414,141.02199842986505
6.038890496,0.9991497840184999,140.8765257206158
6.041178112,0.9991309545809404,140.73175518610273
6.043465728,0.9991675201317579,140.58689215323574
6.045753344,0.9992572001129981,140.44111538767146
6.04804096,0.9993941647010164,140.29372439251983
6.050329088,0.999569820736617,140.14406002933688
6.052616704,0.9997730522186006,139.99171949345404
6.05490432,0.9999911174636575,139.83628281140906
6.057191936,1.0002099705243557,139.6777385953205
6.059479552,1.000416018877222,139.51611053765907
6.061767168,1.0005961429340413,139.35167017175425
6.064054784,1.0007390319859975,139.18497435356707
6.0663424,1.00083543535134,139.01654822472628
6.068630016,1.0008795922945095,138.84709433062477
6.070918144,1.000868484166311,138.67743789735857
6.07320576,1.0008027344705541,138.50837644074215
6.075493376,1.0006866609472327,138.34064452141828
6.077780992,1.0005275317852405,138.17491483470354
6.080068608,1.0003352707321764,138.01173415927425
6.082356224,1.0001221543465442,137.8515723963432
6.08464384,0.9999013872521763,137.69455010850572
6.086931456,0.9996871386930475,137.54069983128724
6.089219584,0.9994930119972165,137.3898611946049
6.0915072,0.9993312851033715,137.24161398463218
6.093794816,0.9992120831893546,137.09547681781237
6.096082432,0.9991429815694185,136.95071515291642
6.098370048,0.9991284716531166,136.80657507485944
6.100657664,0.9991694431184777,136.6622531954729
6.10294528,0.9992634509708568,136.5169931572582
6.105232896,0.9994043142720038,136.37005266591908
6.107520512,0.9995832474792815,136.22079626963847
6.10980864,0.9997889511412842,136.0687754252239
6.112096256,1.0000083202235566,135.91368694267285
6.114383872,1.0002276069714773,135.75543298473556
6.116671488,1.0004328747215614,135.59410029306144
6.118959104,1.0006112286097426,135.43005539037884
6.12124672,1.0007511865220395,135.26370100973514
6.123534336,1.0008442307106735,135.09566754779752
6.125821952,1.0008842415076016,134.9267237733485
6.128109568,1.000868651673165,134.75759604338901
6.130397696,1.000798523285983,134.58910207232714
6.132685312,1.0006783380414923,134.4220168332129
6.134972928,1.0005155180921308,134.25701754461684
6.137260544,1.0003203010317792,134.09463305774085
6.13954816,1.0001052759833382,133.93524553478846
6.141835776,0.9998836346209999,133.7790294308859
6.144123392,0.9996696564656546,133.62602690834996
6.146411008,0.9994770029829894,133.4759883478098
6.148699136,0.9993175334154287,133.32850931932435
6.150986752,0.9992015530244719,133.18309694222143
6.153274368,0.9991364467729741,133.0390135168825
6.155561984,0.9991262294974469,132.89552976071656
6.1578496,0.9991717224201537,132.75178278773893
6.160137216,0.9992700220435051,132.6070220117921
6.162424832,0.9994148483628085,132.46050854261
6.164712448,0.9995970240811733,132.31164967706798
6.167000064,0.9998050556144933,132.1599742280869
6.169288192,1.0000259065473114,132.00518125062354
6.171575808,1.0002455621984663,131.8472587095963
6.173863424,1.000449877641903,131.68624321358382
6.17615104,1.0006262975981892,131.52249623754406
6.178438656,1.0007634479719147,131.35650292182066
6.180726272,1.000852720657569,131.18889594073298
6.183013888,1.0008885147600266,131.02039850067334
6.185301504,1.0008684291362062,130.85182080876334
6.18758912,1.0007938425198164,130.68392549351086
6.189877248,1.00066936177343,130.51750376434552
6.192164864,1.00050294740528,130.35319753278395
6.19445248,1.0003049426214745,130.1915870833696
6.196740096,1.000087963987224,130.03297178712424
6.199027712,0.999865712444349,129.87760986735205
6.201315328,0.9996519034218858,129.72539288028503
6.203602944,0.9994607129027905,129.5761648181384
6.20589056,0.9993037757536773,129.42950119390255
6.208178688,0.9991911792359174,129.28482620476044
6.210466304,0.9991299959969356,129.14141964207846
6.21275392,0.9991243330673751,128.99851943641355
6.215041536,0.9991744754891361,128.8553509599102
6.217329152,0.9992772323999731,128.7110563258118
6.219616768,0.9994260604663521,128.56498475184748
6.221904384,0.9996114559475255,128.41647421113655
6.224192,0.9998219217400789,128.26514521054742
6.226479616,1.00004401612993,128.1106855431595
6.228767744,1.000263797312676,127.95303870566283
6.23105536,1.0004672243338297,127.79234772532675
6.233342976,1.0006415013560561,127.62890149835451
6.235630592,1.0007756036539643,127.46329540302575
6.237918208,1.0008611155427962,127.29607921824379
6.240205824,1.000892592964613,127.12803504005807
6.24249344,1.0008680071588483,126.95995751682507
6.244781056,1.000788858483516,126.79267767969077
6.247068672,1.000660177955789,126.62692990541662
6.2493568,1.000490021088044,126.46333110468784
6.251644416,1.0002891308629995,126.30245824724544
6.253932032,1.0000703204094483,126.14469091242627
6.256219648,0.9998472078720962,125.99010273968261
6.258507264,0.9996341280371974,125.83871677287335
6.26079488,0.9994442936250216,125.69031670968045
6.263082496,0.9992900711169186,125.54439855611689
6.265370112,0.9991808066681941,125.40044933936903
6.26765824,0.9991238993382913,125.2577003825431
6.269945856,0.9991226931072514,125.11544296026764
6.272233472,0.9991773768850051,124.97278464052432
6.274521088,0.999284612350131,124.82898450519053
6.276808704,0.9994373449136212,124.68331172110713
6.27909632,0.9996262488613553,124.53519345329617
6.281383936,0.9998389759184528,124.38417093771464
6.283671552,1.0000623315356534,124.22999705746221
6.285959168,1.0002821609718178,124.07262943726205
6.288247296,1.000484507496555,123.91222779830083
6.290534912,1.0006566679470876,123.74909472154465
6.292822528,1.0007876787370882,123.58380783343107
6.295110144,1.0008692494760574,123.41703573501455
6.29739776,1.0008962901687333,123.2494705522531
6.299685376,1.0008670508833193,123.08191904473169
6.301972992,1.0007832733242052,122.91523407568371
6.304260608,1.000650383300582,122.75012796644613
6.306548224,1.0004765221346412,122.58726945535722
6.308836352,1.0002729065664748,122.42716436027067
6.311123968,1.0000522107407905,122.27014132261532
6.313411584,0.9998286144105354,122.11638477158662
6.3156992,0.9996160092505778,121.96583190183924
6.317986816,0.9994278912539138,121.81820178789268
6.320274432,0.9992762704323,121.67307091835625
6.322562048,0.9991707293150508,121.52981368029364
6.324849664,0.9991181459222492,121.38774774026334
6.327137792,0.9991215537823397,121.2460763085498
6.329425408,0.9991809763782841,121.10396943868324
6.331713024,0.9992925758707542,120.96061973284813
6.33400064,0.9994493706088993,120.8153625105096
6.336288256,0.9996412881072476,120.66756760453902
6.338575872,0.9998564099049955,120.51685260611987
6.340863488,1.0000809792509133,120.3629721120736
6.343151104,1.0003008505828919,120.20587312108655
6.34543872,1.0005019787095604,120.04571971923059
6.347726848,1.000671799934992,119.88292595317635
6.350014464,1.0007996335059086,119.71798998623149
6.35230208,1.0008772059135338,119.55157179723254
6.354589696,1.0008996654876121,119.38447087103532
6.356877312,1.0008656450661515,119.21745803868907
6.359164928,1.0007772128877395,119.05136454875445
6.361452544,1.0006400059296985,118.88691707120009
6.36374016,1.0004625941504155,118.72476380214852
6.366027776,1.0002561297121608,118.56540899332373
6.368315904,1.0000338273346057,118.40919144667906
6.37060352,0.9998095194378313,118.2562423884869
6.372891136,0.9995975818277235,118.10650080511768
6.375178752,0.9994112906965147,117.95966205424298
6.377466368,0.9992625590743088,117.81528843880932
6.379753984,0.9991608079809163,117.67274036415799
6.3820416,0.9991124549550312,117.5313354912381
6.384329216,0.9991206490084446,117.39022010452926
6.386617344,0.9991847757640167,117.24863655493088
6.38890496,0.9993010376146166,117.10576320490249
6.391192576,0.9994616760230859,116.96087178539652
6.393480192,0.9996570134953537,116.81340666023989
6.395767808,0.999874312398866,116.66297113400994
6.398055424,1.0001000075270947,116.5093477931171
6.40034304,1.0003196388706077,116.35250948725391
6.402630656,1.0005195759562362,116.19264608842396
6.404918272,1.0006869693568163,116.03012634807604
6.4072064,1.0008114272042412,115.86553744680761
6.409494016,1.0008848538744581,115.69951732114578
6.411781632,1.000902749392647,115.53285116923595
6.414069248,1.0008639258954515,115.3663737618759
6.416356864,1.0007707858429313,115.20084793546364
6.41864448,1.0006292860988892,115.03705803432466
6.420932096,1.0004482803630526,114.8756105274983
6.423219712,1.000239112743812,114.7170104227884
6.425507328,1.000015065290243,114.56159011679802
6.427795456,0.9997902328284922,114.40944526653533
6.430083072,0.9995790000883653,114.2605022187452
6.432370688,0.9993946921475738,114.11444841234481
6.434658304,0.9992489975247828,113.9708012743074
6.43694592,0.9991509897231352,113.82896972424649
6.439233536,0.9991071400944049,113.6882001810987
6.441521152,0.9991200373588108,113.54766735416375
6.443808768,0.9991891194524192,113.40655833977655
6.446096896,0.9993099048465576,113.26408969714973
6.448384512,0.9994745934018646,113.11957749219192
6.450672128,0.9996731955209357,112.97242382893572
6.452959744,0.9998926347914756,112.82226796941451
6.45524736,1.0001192981176723,112.66889723581116
6.457534976,1.0003388384547829,112.51230352189512
6.459822592,1.0005372477943608,112.35270359219984
6.462110208,1.0007020766962027,112.19047387709895
6.464397824,1.0008230020141127,112.02618318511783
6.466685952,1.000892315784296,111.86055242056777
6.468973568,1.0009054291528834,111.69432325728971
6.471261184,1.0008618529327393,111.5283488251086
6.4735488,1.0007638306974493,111.36342055943867
6.475836416,1.000618060996683,111.20026784731353
6.478124032,1.000433251334863,111.03954681001402
6.480411648,1.0002214742595044,110.88170693812813
6.482699264,0.9999959065825507,110.72706743229824
6.48498688,0.9997706758229937,110.57573048725902
6.487275008,0.9995602973892718,110.42754529633696
6.489562624,0.9993781299282756,110.28229276753352
6.49185024,0.999235417472251,110.13937339877961
6.494137856,0.9991413464047079,109.99825136531668
6.496425472,0.999102177344342,109.85807640438932
6.498713088,0.9991199644408862,109.71807449299767
6.501000704,0.9991938233545611,109.57744650037495
6.50328832,0.9993192991733453,109.43540661333816
6.505576448,0.9994880496314283,109.29123173529476
6.507864064,0.9996896405515148,109.14436935517571
6.51015168,0.9999112842668748,108.99448183699585
6.512439296,1.0001389211119442,108.84133734341603
6.514726912,1.0003581324244453,108.68496679213513
6.517014528,1.000555075498788,108.52560766801639
6.519302144,1.0007174028497552,108.36365482407888
6.52158976,1.000834614307581,108.19967542026049
6.523877376,1.0008995436336359,108.03442654751454
6.526165504,1.0009078843122605,107.86862752147736
6.52845312,1.0008591429386864,107.70315489312347
6.530740736,1.0007564902686101,107.53882263417908
6.533028352,1.0006062500655635,107.37630034269476
6.535315968,1.0004179833844913,107.21627430574867
6.537603584,1.0002034941660396,107.05917133119468
6.5398912,0.9999763477734304,106.90532679632861
6.542178816,0.9997508826603473,106.75475696333092
6.544466432,0.9995415949767841,106.60738453334115
6.54675456,0.9993613653658352,106.4628708427488
6.549042176,0.9992219886288127,106.32067024976561
6.551329792,0.999132092741949,106.18022273515281
6.553617408,0.9990974748647902,106.04067227139677
6.555905024,0.9991202565580981,105.90121924303165
6.55819264,0.9991991456422479,105.76103568427867
6.560480256,0.9993292037267224,105.61936649929491
6.562767872,0.9995018985920361,105.47552789832585
6.565056,0.9997066282003636,105.32896756692759
6.567343616,0.9999303914890477,105.17930307945055
6.569631232,1.000158848614305,105.02635583681321
6.571918848,1.0003776260037716,104.87020124723053
6.574206464,1.0005730074090853,104.71106312084682
6.57649408,1.000732478944676,104.5493472742077
6.578781696,1.000845969188644,104.38569626802786
6.581069312,1.0009063886882632,104.22079418855525
6.583356928,1.0009098578494233,104.05545290281266
6.585645056,1.0008560797669124,103.89046787075306
6.587932672,1.0007485886303886,103.726707766667
6.590220288,1.0005939402450017,103.56482804840502
6.592507904,1.0004021076658298,103.40550235863579
6.59479552,1.0001850101837548,103.24912692130594
6.597083136,0.9999564183329802,103.0960369232742
6.599370752,0.999730864936831,102.94626189369653
6.601658368,0.9995225544669414,102.79964839505057
6.603945984,0.9993446233699333,102.65589370711604
6.606234112,0.9992085417041529,102.51442916442639
6.608521728,0.9991229409807109,102.37459240291012
6.610809344,0.9990929853722901,102.23561592188041
6.61309696,0.9991209454280833,102.09669150951794
6.615384576,0.999204922673009,101.95696760384496
6.617672192,0.9993395079567527,101.81567433106304
6.619959808,0.9995163505246975,101.67211438755768
6.622247424,0.9997241327846309,101.52581108961819
6.624535552,0.9999498547046123,101.37634773546026
6.626823168,1.00017905308183,101.22364274074467
6.629110784,1.0003973382783506,101.06767309084108
6.6313984,1.0005909247306386,100.90872592214639
6.633686016,1.00074748893083,100.74727783260933
6.635973632,1.0008571079936917,100.5839087364184
6.638261248,1.0009129636116976,100.41934374251406
6.640548864,1.0009114247257993,100.25441821884698
6.64283648,1.0008525697882935,100.089946999632
6.645124608,1.0007401761673247,99.92672292143442
6.647412224,1.000581216006355,99.7654708137946
6.64969984,1.0003857271667829,99.6068405745291
6.651987456,1.0001661392651309,99.45123199882426
6.654275072,0.9999361409599353,99.29888450044749
6.656562688,0.9997105305289722,99.14987413359545
6.658850304,0.9995034707507203,99.00403573210686
6.66113792,0.9993279893579039,98.86100213985713
6.663426048,0.9991953346610923,98.72023916877738
6.665713664,0.9991139577500223,98.58103415105394
6.66800128,0.9990890325485716,98.44262104494116
6.670288896,0.999122003762052,98.30418660441386
6.672576512,0.9992111295759806,98.16488883472417
6.674864128,0.9993504305408243,98.02393881765609
6.677151744,0.9995312985713561,97.88066968835045
6.67943936,0.9997421303840466,97.73459261345833
6.681726976,0.9999697437347969,97.58532036265451
6.684015104,1.0001995460975563,97.43278037092095
6.68630272,1.0004172763110963,97.27697503564552
6.688590336,1.0006089828492004,97.1182277881432
6.690877952,1.0007624266776158,96.95700509767317
6.693165568,1.0008680442678097,96.79390897468745
6.695453184,1.0009193065708697,96.62969749530197
6.6977408,1.0009126237013377,96.46517024717319
6.700028416,1.0008487020849877,96.30116640431585
6.702316032,1.0007313040491013,96.13852016225312
6.70460416,1.0005678660411657,95.97790818101811
6.706891776,1.0003688699180686,95.81994675113893
6.709179392,1.000146832861993,95.66504911553311
6.711467008,0.9999156395551932,95.5134607059615
6.713754624,0.9996899709669066,95.3652136331956
6.71604224,0.9994842129483229,95.22012356003675
6.718329856,0.9993113109364088,95.0778296248867
6.720617472,0.999182269722218,94.93771452791243
6.7229056,0.9991053420557516,94.7991304201083
6.725193216,0.9990853890698465,94.66128132150084
6.727480832,0.999123567370846,94.52331988608216
6.729768448,0.9992177111018318,94.38439975975552
6.732056064,0.9993617456588041,94.24377385442963
6.73434368,0.9995466113114536,94.1007802589086
6.736631296,0.9997604438376059,93.954902712246
6.738918912,0.9999898459164903,93.80580697340868
6.741206528,1.000220345796117,93.65340960045079
6.743494656,1.0004373051387785,93.49777318336609
6.745782272,1.0006268226802177,93.33920691692838
6.748069888,1.0007772547195306,93.17817522011715
6.750357504,1.0008787462192852,93.01535476335113
6.75264512,1.0009251915648578,92.85148620696854
6.754932736,1.0009134198453795,92.68735449922441
6.757220352,1.000844169095479,92.52383450386215
6.759507968,1.0007217602239356,92.36172149970366
6.761795584,1.000554059569098,92.20173445581635
6.764083712,1.0003516135799861,92.04443340739353
6.766371328,1.0001270640789985,91.89026965940593
6.768658944,0.9998946079783041,91.73940936805694
6.77094656,0.9996692002381865,91.59191430502497
6.773234176,0.9994648861970301,91.44755244054409
6.775521792,0.9992946266473416,91.30594341433914
6.777809408,0.9991694738935184,91.16650275610685
6.780097024,0.9990970274071121,91.028519492269
6.782385152,0.999082183919707,90.89119500006782
6.784672768,0.9991256131031261,90.75368181430572
6.786960384,0.9992249676202042,90.61512361107047
6.789248,0.9993737173288569,90.474810979723
6.791535616,0.9995624785243081,90.33204395518081
6.793823232,0.9997793268564068,90.18635202983542
6.796110848,1.000010465392362,90.03743052501764
6.798398464,1.000241381509189,89.88515742911427
6.80068608,1.0004574562185653,89.72965659375737
6.802974208,1.0006449250347507,89.57124503688415
6.805261824,1.0007919629749464,89.41042042890281
6.80754944,1.0008892353376433,89.24784724686324
6.809837056,1.0009307069764024,89.08428413923839
6.812124672,1.000913744115353,88.92055650268772
6.814412288,1.0008391189514443,88.75749821107841
6.816699904,1.0007118619691038,88.59590967808641
6.81898752,1.0005397399643055,88.43652532007991
6.821275136,1.0003337591113062,88.27989237388067
6.823563264,1.000106931155178,88.1264287806597
6.82585088,0.9998733761144348,87.97629295654941
6.828138496,0.9996481680812354,87.8295324144054
6.830426112,0.9994454645808493,87.68589842856596
6.832713728,0.9992780527391352,87.54497975112061
6.835001344,0.999156634788961,87.40616525243497
6.83728896,0.9990889722277371,87.2687856687417
6.839576576,0.9990792163302781,87.13193218053198
6.841864704,0.9991282441584598,86.9948568839287
6.84415232,0.9992326702941269,86.85665857693999
6.846439936,0.9993861599595989,86.71661309984518
6.848727552,0.9995787837119612,86.57407050089961
6.851015168,0.9997986531626747,86.42853002791082
6.853302784,1.0000315366897072,86.27974122353925
6.8555904,1.0002627674075462,86.12755813341735
6.857878016,1.000477818374783,85.97218073797555
6.860165632,1.0006630159167131,85.81390516654723
6.86245376,1.0008065093535963,85.65327391134474
6.864741376,1.0008994907027697,85.49092573043961
6.867028992,1.000935909505852,85.3276521660816
6.869316608,1.0009135194986662,85.16431119949412
6.871604224,1.0008336953872925,85.00170373998073
6.87389184,1.0007012434457678,84.84066855431809
6.876179456,1.000524888248006,84.68185590217779
6.878467072,1.0003154509397363,84.52588341075337
6.880754688,1.000086323846189,84.37310441652694
6.883042816,0.9998518673653473,84.22370704344657
6.885330432,0.9996270138698644,84.07765806882196
6.887618048,0.9994260032331815,83.93473325928785
6.889905664,0.9992615493050484,83.79447167377943
6.89219328,0.9991441361598191,83.65628365350473
6.894480896,0.9990812255349076,83.51943734854517
6.896768512,0.9990767918412604,83.38309218878058
6.899056128,0.9991312536503983,83.24639820675397
6.901344256,0.9992409559741724,83.10854122303078
6.903631872,0.9993991504991151,82.96872888620871
6.905919488,0.9995957860084733,82.82636589597283
6.908207104,0.9998183950979386,82.68096060791846
6.91049472,1.000052797422682,82.53228037349945
6.912782336,1.0002843151945693,82.38021723122333
6.915069952,1.0004982317081146,82.22491084181615
6.917357568,1.0006809661823595,82.06675970113076
6.919645184,1.0008210051424378,81.90628652639487
6.921933312,1.0009095236803638,81.74416583393544
6.924220928,1.0009407841976221,81.58117212605245
6.926508544,1.000912960793588,81.41820218163197
6.92879616,1.000827644827634,81.25604684975154
