freq,mag,phase
6.0,1.0002174707415403,120.6284098957216
6.002286592,1.0000822246424728,120.48754486455275
6.004572672,0.999942653505616,120.34874371263025
6.006859264,0.9998068082858815,120.21198803788246
6.009145344,0.999683514823652,120.07718312998006
6.011431936,0.9995806533029321,119.94405395578909
6.013718016,0.9995046947630336,119.81230051751076
6.016004608,0.9994605151749327,119.68148114108958
6.018290688,0.9994508188805906,119.55109586485948
6.02057728,0.9994763862265337,119.42065788667492
6.022863872,0.9995357062988451,119.28965519823092
6.025149952,0.9996248225297316,119.1576169437203
6.027436544,0.9997382022358551,119.02416019283505
6.029722624,0.999868662607027,118.88898288796716
6.032009216,1.0000079658920435,118.75189796973132
6.034295296,1.000147196009174,118.61285302110856
6.036581888,1.0002777977694914,118.4718847182683
6.03886848,1.0003911078615215,118.32920059672983
6.04115456,1.0004802237057653,118.18507180178682
6.043441152,1.0005393835770422,118.0399435694707
6.045727232,1.0005648700390553,117.89423171425045
6.048013824,1.0005548590059035,117.74848321363916
6.050299904,1.0005101901891416,117.60312655690406
6.052586496,1.0004335428846294,117.45872806906274
6.054872576,1.0003298545758796,117.31567858897346
6.057159168,1.000205389815807,117.17434842545397
6.05944576,1.000068364210844,117.03493224336397
6.06173184,0.9999271625621978,116.89762955808384
6.064018432,0.9997908969049671,116.76238185549788
6.066304512,0.9996681447489877,116.62905768981743
6.068591104,0.99956689828292,116.49739862922964
6.070877184,0.9994932641408654,116.36711163492328
6.073163776,0.9994521145223824,116.23768001411383
6.075450368,0.9994461580226597,116.10864489011905
6.077736448,0.999475693128571,115.97949833785125
6.08002304,0.9995389020252936,115.849723438896
6.08230912,0.9996318611579903,115.71886487955405
6.084595712,0.9997484764241756,115.58652911943848
6.086881792,0.9998817046651595,115.45244389537575
6.089168384,1.000022788223453,115.3163755531487
6.091454464,1.0001631118873284,115.17835484385206
6.093741056,1.0002934451537027,115.03838080104195
6.096027648,1.00040576166233,114.89670878777132
6.098313728,1.0004928093675134,114.75363351263799
6.10060032,1.0005491574735446,114.60957253622733
6.1028864,1.0005710609285658,114.46496349688604
6.105172992,1.0005571891589164,114.32034195571265
6.107459072,1.0005084873727659,114.17622847012636
6.109745664,1.0004278950737326,114.03310221990081
6.112032256,1.0003205201304353,113.89138164107871
6.114318336,1.0001930197626914,113.75140285388652
6.116604928,1.0000536542830167,113.61344222626259
6.118891008,0.9999112098120578,113.47753043549544
6.1211776,0.9997745427869453,113.34373852050842
6.12346368,0.9996525829417313,113.21184111047242
6.125750272,0.9995528249198543,113.08161069635331
6.128036352,0.999481766393324,112.95270945328586
6.130322944,0.9994439547336207,112.82458226065008
6.132609536,0.9994417947414481,112.69685738537056
6.134895616,0.9994754291348755,112.56894202325842
6.137182208,0.9995427760356211,112.44033353366353
6.139468288,0.9996395586560031,112.31056164373763
6.14175488,0.9997596451637828,112.17929893344711
6.14404096,0.9998954057780334,112.04616822478457
6.146327552,1.0000384228544168,111.91110642480086
6.148614144,1.0001794964372606,111.77402377075283
6.150900224,1.000309635971863,111.63500109850698
6.153186816,1.0004206136238571,111.49425437233396
6.155472896,1.000505462319393,111.35215616846934
6.157759488,1.0005587169323493,111.20905091065929
6.160045568,1.00057695787318,111.06551659592601
6.16233216,1.000559191210493,110.92199149705975
6.16461824,1.000506288236046,110.77907186801824
6.166904832,1.0004215241978833,110.63711633639632
6.169191424,1.0003103786994727,110.49668681918926
6.171477504,1.0001800540785395,110.35804065170578
6.173764096,1.000038284888545,110.22142017398693
6.176050176,0.9998945495972956,110.08688406027484
6.178336768,0.9997577249676505,109.95447230411308
6.180622848,0.9996365857783299,109.82397204410186
6.18290944,0.9995386123211301,109.69509328490854
6.18519552,0.999470280374584,109.56750218901198
6.187482112,0.9994359974230027,109.4407079875338
6.189768704,0.9994377277261738,109.31417120378681
6.192054784,0.9994755520776424,109.18740340594657
6.194341376,0.9995470899898822,109.05990330456112
6.196627456,0.9996477978107055,108.93117300735138
6.198914048,0.9997712492718867,108.80085920629958
6.201200128,0.9999098387026553,108.6686836534589
6.20348672,1.0000544958673405,108.5345032890913
6.205773312,1.0001961770252932,108.39826749214674
6.208059392,1.0003259632479167,108.26011448567476
6.210345984,1.0004356132191614,108.12027739179871
6.212632064,1.0005180133951443,107.97907935209166
6.214918656,1.0005680444025196,107.83692506244867
6.217204736,1.000582548705827,107.69440097932872
6.219491328,1.0005604694292405,107.55192457583132
6.221777408,1.0005032759862973,107.41006814570363
6.224064,1.000414432391469,107.26931947553933
6.226350592,1.0002997673956053,107.1300789986916
6.228636672,1.0001661388503014,106.99272271782478
6.230923264,1.000022438684539,106.85739110513676
6.233209344,0.9998774412952597,106.72419932217491
6.235495936,0.9997406083027351,106.59309143712396
6.237782016,0.9996203975698219,106.46390365159894
6.240068608,0.9995244055519001,106.33635069947518
6.2423552,0.9994591757856014,106.21000735562812
6.24464128,0.9994283940612909,106.08438775587064
6.246927872,0.9994342829744609,105.9590222665727
6.249213952,0.9994764885908815,105.83334510210152
6.251500544,0.9995523580666037,105.70684665128688
6.253786624,0.999656991029375,105.57911018382094
6.256073216,0.9997839609504946,105.44969420899683
6.258359296,0.9999249451169611,105.31838884139361
6.260645888,1.0000713464112931,105.1850185388387
6.26293248,1.0002136287226289,105.04960390548943
6.26521856,1.0003427822187005,104.91226003062818
6.267505152,1.0004508428538648,104.77322022296259
6.269791232,1.0005306351226813,104.63284000263552
6.272077824,1.0005773264894353,104.491593543282
6.274363904,1.0005878117357734,104.34997125664547
6.276650496,1.0005613342638382,104.20849763126988
6.278937088,1.0004997130853313,104.06771654258834
6.281223168,1.0004066631098942,103.92809386313832
6.28350976,1.0002881499328802,103.79001155488805
6.28579584,1.0001516607388647,103.65386752255023
6.288082432,1.000005745826734,103.51979230020989
6.290368512,0.999859685663029,103.3878654471844
6.292655104,0.9997228363866665,103.25804321052483
6.294941184,0.9996037918916579,103.13014176890117
6.297227776,0.9995101863728156,103.0038263177977
6.299514368,0.9994478475723511,102.87868222902154
6.301800448,0.9994211156756323,102.75422920309396
6.30408704,0.9994312545507902,102.62991733426976
6.30637312,0.9994779503969874,102.50527270328224
6.308659712,0.9995581601728981,102.37974294428285
6.310945792,0.9996668639409115,102.25285783858112
6.313232384,0.9997971813508837,102.12429549142097
6.315518464,0.9999408343027987,101.99375023632771
6.317805056,1.0000888187439771,101.8611485636785
6.320091648,1.000231383547629,101.72645359190713
6.322377728,1.000360075357753,101.58984671028125
6.32466432,1.0004662471345824,101.45156031939163
6.3269504,1.0005432668061676,101.31197395072631
6.329236992,1.0005864104269198,101.171559019201
6.331523072,1.0005926211298295,101.0308157468216
6.333809664,1.0005618040835145,100.89028275355336
6.336096256,1.0004955137210916,100.75047536751694
6.338382336,1.0003981878013417,100.611910274935
6.340668928,1.000275963212802,100.47496573792084
6.342955008,1.0001364173945222,100.33996301246609
6.3452416,0.9999885074911941,100.20708561261876
6.34752768,0.9998414760882658,100.0764079359594
6.349814272,0.9997048594349538,99.94781123360679
6.352100352,0.9995870557197054,99.82111768302546
6.354386944,0.9994958624423543,99.69598205492535
6.356673536,0.9994369324109711,99.5719722392203
6.358959616,0.9994139945695942,99.44859710946484
6.361246208,0.9994286319222434,99.32535089326201
6.363532288,0.9994799676835154,99.20162147578642
6.36581888,0.9995647694111253,99.07695732833177
6.36810496,0.9996775354664501,98.95088869182194
6.370391552,0.9998112019520777,98.82309626796203
6.372678144,0.9999574550334097,98.69326632755201
6.374964224,1.0001067485288835,98.56134862771152
6.377250816,1.0002498000023612,98.42733843802338
6.379536896,1.0003775763428895,98.29139295560968
6.381823488,1.0004817457171775,98.15378495973647
6.384109568,1.0005558241311396,98.01493934292498
6.38639616,1.0005951013710703,97.87526840195177
6.38868224,1.0005970360904335,97.73536472079552
6.390968832,1.0005615706561537,97.59571608030434
6.393255424,1.0004906816398198,97.45686930006615
6.395541504,1.0003890407014806,97.31930302671599
6.397828096,1.0002630807037052,97.18343485549836
6.400114176,1.0001204640278394,97.0495640662155
6.402400768,0.9999706155864447,96.91782795654488
6.404686848,0.9998228342667219,96.78831734216296
6.40697344,0.9996864391006461,96.66090723786964
6.409260032,0.9995703136218795,96.53533760722736
6.411546112,0.9994816022800022,96.41133058407993
6.413832704,0.9994261541158126,96.28841333387626
6.416118784,0.9994074720375425,96.16604080408304
6.418405376,0.9994267470465098,96.04373600572582
6.420691456,0.9994827749316093,95.92091740548554
6.422978048,0.9995720790996382,95.79705717428011
6.425264128,0.9996889749774752,95.67175672628623
6.42755072,0.9998260587794899,95.54462321647112
6.429837312,0.9999747338419296,95.41544136690575
6.432123392,1.0001254286621597,95.28414281338678
6.434409984,1.0002685268953904,95.15072993808067
6.436696064,1.0003951843163663,95.01538876989841
6.438982656,1.0004972952091111,94.87841253502883
6.441268736,1.0005682182000817,94.74018304045626
6.443555328,1.0006035489747043,94.60126815309034
6.44584192,1.0006010008572122,94.46210284583343
6.448128,1.0005606798655262,94.32331454505962
6.450414592,1.0004852231838632,94.18535081122688
6.452700672,1.0003790801410084,94.04878676313687
6.454987264,1.0002493391759666,93.91393904934195
6.457273344,1.0001038618006384,93.7811177790132
6.459559936,0.9999521989119184,93.65048118228893
6.461846016,0.9998036460144782,93.5220862115124
6.464132608,0.9996678084544134,93.39577930860386
6.4664192,0.9995533318794331,93.27131926456977
6.46870528,0.9994674998815772,93.14837602575308
6.470991872,0.9994157878575252,93.02648216729126
6.473277952,0.9994013367443139,92.90508406585414
6.475564544,0.9994253488919164,92.78363789568702
6.477850624,0.9994862702601918,92.66163281816485
6.480137216,0.9995801518515934,92.53852397642534
6.482423296,0.9997011944801762,92.41389356592214
6.484709888,0.9998416215531444,92.2873847352504
6.48699648,0.9999926296621562,92.15880026955702
6.48928256,1.0001444892635898,92.02802345977942
6.491569152,1.0002877391281177,91.89515008735867
6.493855232,1.0004131882602803,91.76035047827075
6.496141824,1.000512828371312,91.62393956511963
6.498427904,1.0005804425623408,91.48634382160485
6.500714496,1.000611679684222,91.34805529542635
6.503001088,1.0006044549996211,91.20963005885099
6.505287168,1.0005590808663505,91.0715868836614
6.50757376,1.000478780019195,90.93450925505759
6.50985984,1.0003683126706702,90.79884586955036
6.512146432,1.0002347314763855,90.66495982692273
6.514432512,1.000086454648603,90.53317381815282
6.516719104,0.9999328972068763,90.40359446802813
6.519005184,0.9997839336731008,90.27628153970538
6.521291776,0.9996487647124256,90.15100835899368
6.523578368,0.9995361536660916,90.02762999002277
6.525864448,0.9994532890020128,89.90569833451836
6.52815104,0.9994053447586799,89.78473474706564
6.53043712,0.9993955443589323,89.6642288603854
6.532723712,0.9994245117770092,89.54362397774723
6.535009792,0.9994903318179116,89.42235950759894
6.537296384,0.9995889601038905,89.29991045854123
6.539582976,0.9997140706326262,89.17589812433265
6.541869056,0.9998578520114668,89.04992577138955
6.544155648,1.0000111627802997,88.92184701698793
6.546441728,1.0001640966962182,88.79155773354597
6.54872832,1.0003071650769833,88.65914636355919
6.5510144,1.0004312261051036,88.52483110222308
6.553300992,1.0005284306380935,88.38891962637999
6.555587072,1.0005924069468264,88.25187231252444
6.557873664,1.000619191544203,88.11418104987298
6.560160256,1.0006071818121294,87.97643424511165
6.562446336,1.0005569449691172,87.83912393500812
6.564732928,1.0004716970181855,87.70284433959691
6.567019008,1.0003567435002496,87.56805576783407
6.5693056,1.00021942532131,87.43511707197148
6.57159168,1.0000683538741029,87.30430171204921
6.573878272,0.9999131870901021,87.17573449146566
6.576164864,0.9997637928757126,87.04942743948094
6.578450944,0.9996295464291135,86.92516194487146
6.580737536,0.9995190199913148,86.80278982397532
6.583023616,0.9994394125945001,86.68177927365223
6.585310208,0.9993955531928068,86.56171854191584
6.587596288,0.9993904870646513,86.4420276664517
6.58988288,0.9994243465608361,86.32219231705112
6.59216896,0.9994952420265248,86.20160150108904
6.594455552,0.9995987110624703,86.07977291028075
6.596742144,0.9997279008212534,85.95628246805423
6.599028224,0.9998749534406756,85.83079413624604
6.601314816,1.0000304162355698,85.70313286958596
6.603600896,1.0001843164830877,85.57326209465973
6.605887488,1.0003270397704171,85.441276907388
6.608173568,1.0004494655212515,85.30737394151673
6.61046016,1.000543853569074,85.17192480543646
6.612746752,1.000604158239987,85.03536299294484
6.615032832,1.0006264233392086,84.89822914263075
6.617319424,1.0006093900973183,84.76107696560682
6.619605504,1.0005540272740447,84.62446767072277
6.621892096,1.0004637565823336,84.48894383553936
6.624178176,1.0003443694242529,84.35497845566377
6.626464768,1.0002033429248192,84.22293223774157
6.628750848,1.0000495553678634,84.09302706598034
6.63103744,0.999892845127352,83.96540696801924
6.633324032,0.9997431424250622,83.84006730091538
6.635610112,0.9996100592632488,83.71680229875767
6.637896704,0.9995018350821117,83.59533333086016
6.640182784,0.9994255100900643,83.47522726534459
6.642469376,0.9993859997590899,83.35598046589394
6.644755456,0.9993857717046043,83.23709230371242
6.647042048,0.9994249308790186,83.11790869885924
6.649328128,0.9995009539898919,82.99792611846478
6.65161472,0.9996091803979382,82.87663545184058
6.653901312,0.9997425863717615,82.75362376019687
6.656187392,0.9998928399355641,82.62855101165653
6.658473984,1.0000503286631395,82.50126265492462
6.660760064,1.0002050186171334,82.3717406477707
6.663046656,1.0003472886004496,82.24009493021049
6.665332736,1.0004678347099887,82.10654216725591
6.667619328,1.0005592935701846,81.97149486947134
6.66990592,1.0006156012968443,81.83536886740897
6.672192,1.0006332389059172,81.69873265266845
6.674478592,1.0006110771912444,81.56214692540493
6.676764672,1.000550428900966,81.42619280037533
6.679051264,1.0004551096711387,81.29138191357653
6.681337344,1.0003312558804343,81.15818675168367
6.683623936,1.000186526935778,81.02696325008978
6.685910016,1.0000301123583695,80.89795845726607
6.688196608,0.9998721015697969,80.77124381926178
6.6904832,0.9997223272178902,80.6468149531308
6.69276928,0.9995904077794048,80.52445724703111
6.695055872,0.9994846548234442,80.40386264656038
6.697341952,0.9994119656190867,80.284609279495
6.699628544,0.999376915291553,80.16612705577235
6.701914624,0.999381788860718,80.04793147915922
6.704201216,0.9994261940547907,79.92939048318335
6.706487808,0.9995074929766598,79.80994161339605
6.708773888,0.9996204946429775,79.68912682463667
6.71106048,0.9997580247192206,79.56650253038956
6.71334656,0.9999113669344774,79.44178207198325
6.715633152,1.0000707971530844,79.31479282558506
6.717919232,1.0002262086359754,79.18555447865813
6.720205824,1.0003677253202259,79.05419346954086
6.722491904,1.0004863801555428,78.92093331680121
6.724778496,1.0005746167124019,78.78618967971954
6.727065088,1.0006267192677372,78.65047129819112
6.729351168,1.000639406799232,78.5142935665197
6.73163776,1.0006120272604977,78.37822712450813
6.73392384,1.0005460464115736,78.2428529750721
6.736210432,1.0004456511067508,78.10873222290421
6.738496512,1.000317184519659,77.97625016954493
6.740783104,1.0001688343899475,77.84584045350059
6.743069696,1.0000100498150044,77.71767238785618
6.745355776,0.9998506772502396,77.59182697426557
6.747642368,0.9997010047157494,77.4682587137678
6.749928448,0.9995705334700582,77.34675667683216
6.75221504,0.9994676263149035,77.2269939392409
6.75450112,0.9993987209680026,77.10848371370949
6.756787712,0.9993682360505775,76.99074489497893
6.759073792,0.9993783082756098,76.8731694088177
6.761360384,0.9994281625356408,76.75517987740352
6.763646976,0.9995147256268531,76.63619702185036
6.765933056,0.9996325820392026,76.51579593905649
6.768219648,0.9997742005636848,76.39348503278585
6.770505728,0.9999305770363114,76.26904667996588
6.77279232,1.000091905763159,76.14231140533745
6.7750784,1.0002477252016795,76.01330535147933
6.777364992,1.0003883747467122,75.88214691785689
6.779651584,1.0005048165967212,75.74915211032199
6.781937664,1.000589619967583,75.6147017814327
6.784224256,1.0006374062502505,75.47930413699724
6.786510336,1.0006451448763818,75.34352519694026
6.788796928,1.000612248527057,75.2079269269574
6.791083008,1.0005408193393592,75.07310910712106
6.7933696,1.0004352581784137,74.93960916720287
6.79565568,1.000302400619959,74.80782618126798
6.797942272,1.000150428124964,74.67816599400469
6.800228864,0.9999891985576177,74.55078153986449
6.802514944,0.9998287712449772,74.42576017552938
6.804801536,0.9996794787603291,74.30302333431375
6.807087616,0.9995506318292274,74.18231900054482
6.809374208,0.9994506163663521,74.06331959249863
6.811660288,0.999385664695507,73.94552256094136
6.81394688,0.9993600701089719,73.82842115336923
6.81623296,0.9993755327020274,73.71141233709302
6.818519552,0.9994309853396293,73.59392939635599
6.820806144,0.9995229435986613,73.4753717163289
6.823092224,0.9996456245777281,73.35527303866992
6.825378816,0.9997912995277142,73.23324056810316
6.827664896,0.9999505943681017,73.10903587458749
6.829951488,1.0001135293010566,72.9824905473002
6.832237568,1.000269728377021,72.85361486721214
6.83452416,1.0004092736647778,72.72260585308709
6.836810752,1.000523346852383,72.58979146195786
6.839096832,1.0006045689451235,72.45556441011877
6.841383424,1.0006477856028684,72.32046398699627
6.843669504,1.0006502515396636,72.18502747744658
6.845956096,1.0006118016433347,72.04987233276384
6.848242176,1.0005348747489071,71.91554813954555
6.850528768,1.0004241385888517,71.78262828237521
6.852814848,1.0002867551452617,71.65151349048155
6.85510144,1.0001313890895507,71.5225451555351
6.857388032,0.9999678216278489,71.39591379471236
6.859674112,0.9998065102174318,71.27166474481606
6.861960704,0.9996575731740682,71.14968322330283
6.864246784,0.9995306417752499,71.02974445831396
6.866533376,0.9994337541361348,70.91143837904399
6.868819456,0.9993730408913405,70.79431898846786
6.871106048,0.9993525411980951,70.67779987418191
6.87339264,0.9993734363696798,70.5613020023354
6.87567872,0.9994344886119298,70.44423221145678
6.877965312,0.9995319255942711,70.32602131026626
6.880251392,0.999659416462846,70.20619673337286
6.882537984,0.9998090796405635,70.0843695721008
6.884824064,0.9999712902566488,69.96029158235265
6.887110656,1.0001357092650984,69.83385782456872
6.889396736,1.0002920286013646,69.70507489470161
6.891683328,1.0004304018178731,69.57421596633085
6.89396992,1.0005417420053928,69.44152388274713
6.896256,1.0006190586229262,69.30745381629434
6.898542592,1.0006575595979128,69.17257555424575
6.900828672,1.0006546827008522,69.03745209180464
6.903115264,1.000610591341311,68.90268158945591
6.905401344,1.0005279817973873,68.76885141561573
6.907687936,1.000412162395609,68.63644465436458
6.909974528,1.000270277764593,68.50593951520248
6.912260608,1.0001114578100316,68.37763206464281
6.9145472,0.9999457948631896,68.2517159971582
6.91683328,0.9997836926378763,68.12817732164582
6.919119872,0.9996354669206958,68.00692951706118
6.921405952,0.9995106413236555,67.88767845217524
6.923692544,0.9994170946895128,67.77003734768827
6.925978624,0.9993607907536158,67.65351156996351
6.928265216,0.9993455375679623,67.53751543910563
6.930551808,0.9993720385544813,67.42146841920625
6.932837888,0.9994389536483362,67.30475417531683
