freq,mag,phase
6.0,0.9992086574117517,173.01123777765315
6.002286592,0.9991448073512709,172.86877740440931
6.004572672,0.9991371510407866,172.72682946194723
6.006859264,0.9991840248941457,172.58463693454047
6.009145344,0.9992825023096271,172.44144777909162
6.011431936,0.9994263436030506,172.29649112743434
6.013718016,0.9996064178892665,172.14922802997873
6.016004608,0.9998114973905035,171.99917745829495
6.018290688,1.0000284443304994,171.84612485934116
6.02057728,1.0002436535823909,171.68993252181016
6.022863872,1.0004433642799466,171.53075980209115
6.025149952,1.0006150209168931,171.36893061374312
6.027436544,1.0007478254316036,171.2049366375469
6.029722624,1.000833227758452,171.03937514336158
6.032009216,1.000866029214013,170.8729984738482
6.034295296,1.0008439639160094,170.7065528003254
6.036581888,1.0007684876138145,170.54086290901654
6.03886848,1.0006443273536818,170.376634295638
6.04115456,1.0004793194888468,170.2145408750164
6.043441152,1.0002837741626491,170.0550834381427
6.045727232,1.0000701999823494,169.8986367748743
6.048013824,0.9998519723635552,169.74534667000708
6.050299904,0.9996429756844196,169.5951837961927
6.052586496,0.9994563066546406,169.44794484621428
6.054872576,0.9993040543734104,169.30316425695247
6.057159168,0.9991954948167315,169.16037968303658
6.05944576,0.9991380105800998,169.01880329993952
6.06173184,0.9991349820348737,168.87768960111322
6.064018432,0.9991866319045338,168.73626161489696
6.066304512,0.9992896912716602,168.59377133956
6.068591104,0.9994376984781614,168.44946364246488
6.070877184,0.9996214059997222,168.30278306804067
6.073163776,0.9998288949498618,168.15326271500365
6.075450368,1.0000473181148433,168.00068829351844
6.077736448,1.0002627006794715,167.845005105653
6.08002304,1.0004613247600977,167.6863596751345
6.08230912,1.00063086504484,167.52506104183965
6.084595712,1.0007605289790455,167.3616126424142
6.086881792,1.000842033295756,167.196700459838
6.089168384,1.0008702511551526,167.03096098166435
6.091454464,1.0008433673883683,166.86527865413865
6.093741056,1.000763050093683,166.70040568955284
6.096027648,1.0006345400212493,166.53705476866435
6.098313728,1.0004656117088349,166.37590441038287
6.10060032,1.0002670669837728,166.21746033172292
6.1028864,1.0000514719790317,166.06200565894696
6.105172992,0.999832549659771,165.90979567720404
6.107459072,0.9996239112938138,165.76069430010443
6.109745664,0.9994389000644531,165.61448967331916
6.112032256,0.9992893963925857,165.47072548510712
6.114318336,0.999184603798758,165.3289092464348
6.116604928,0.9991313554876383,165.18824439554373
6.118891008,0.999133099760932,165.04797925951036
6.1211776,0.999189636129923,164.90731435499418
6.12346368,0.999297380069686,164.76551574963526
6.125750272,0.9994495756141427,164.6218403158464
6.128036352,0.9996366532605977,164.47572899001122
6.130322944,0.9998467144968896,164.32677393668965
6.132609536,1.0000664505459849,164.17471236989388
6.134895616,1.0002818468271164,164.0195382513202
6.137182208,1.000479463485056,163.86139531691197
6.139468288,1.0006467228242433,163.70059841343942
6.14175488,1.0007730704715578,163.5377733524148
6.14404096,1.0008505551710736,163.37343334831777
6.146327552,1.0008740593307694,163.20845001576149
6.148614144,1.000842315461561,163.0434849571997
6.150900224,1.000757227439143,162.87947683767237
6.153186816,1.0006240379244924,162.717026834472
6.155472896,1.0004512488902777,162.55681899052013
6.157759488,1.0002497859497486,162.39936461988677
6.160045568,1.0000323888295877,162.24502070519648
6.16233216,0.999812615923261,162.09387480746915
6.16461824,0.9996045702502954,161.94582672704013
6.166904832,0.9994215263568434,161.80068208944033
6.169191424,0.9992747298682627,161.6579714360628
6.171477504,0.9991737267202969,161.51708507797795
6.173764096,0.9991250399344279,161.37731964196885
6.176050176,0.9991316450426762,161.237925098639
6.178336768,0.9991931875820776,161.0980254126727
6.180622848,0.9993056783460033,160.9569336499702
6.18290944,0.999462201881991,160.81389139355653
6.18519552,0.999652769996157,160.66836227113555
6.187482112,0.9998650346715444,160.5199579345727
6.189768704,1.0000860000842167,160.3684407273946
6.192054784,1.0003015336303969,160.21375498707093
6.194341376,1.0004978932037198,160.05611805605997
6.196627456,1.0006626732808734,159.89588122863867
6.198914048,1.000785584138055,159.73364042789612
6.201200128,1.0008587979428223,159.56994970960915
6.20348672,1.0008774781604632,159.4056317615698
6.205773312,1.0008406719510723,159.24150049633317
6.208059392,1.0007506971366458,159.07830380220267
6.210345984,1.0006129299770972,158.9167892609304
6.212632064,1.0004363744945255,158.7575859204196
6.214918656,1.0002320321794205,158.60117911040388
6.217204736,1.0000126826281335,158.4478564128555
6.219491328,0.9997924495203331,158.29778759997623
6.221777408,0.9995850958345539,158.15083249302953
6.224064,0.9994037823045044,158.006766742107
6.226350592,0.999260057538812,157.86504482025515
6.228636672,0.9991630181182695,157.72517788983254
6.230923264,0.9991190158715589,157.58632248000634
6.233209344,0.9991306676401445,157.44776413315864
6.235495936,0.9991971870305727,157.30868853806552
6.237782016,0.9993144957331341,157.16828185056718
6.240068608,0.9994753029584545,157.02588462658525
6.2423552,0.9996691254424006,156.880948110869
6.24464128,0.9998839296402225,156.73305231848838
6.246927872,1.000105971848354,156.58204260364073
6.249213952,1.0003214206844855,156.4278667127453
6.251500544,1.0005164500221246,156.27077098510412
6.253786624,1.000678673892899,156.11108781987716
6.256073216,1.000798055792361,155.94939299861616
6.258359296,1.000866792324079,155.78639753142892
6.260645888,1.000880621232872,155.6227878636786
6.26293248,1.0008387100894172,155.4594324491216
6.26521856,1.0007436453889607,155.29709487205517
6.267505152,1.0006014863001167,155.13653934307382
6.269791232,1.0004209239806858,154.97829845175312
6.272077824,1.0002137468413244,154.82293890860888
6.274363904,0.9999926215639874,154.670701564016
6.276650496,0.9997718795440227,154.5217421242686
6.278937088,0.9995653626538801,154.37588638363908
6.281223168,0.9993862144538554,154.232890673154
6.28350976,0.9992456795785395,154.09223231508224
6.28579584,0.9991527130661597,153.9533083715024
6.288082432,0.9991133621751985,153.8153838105499
6.290368512,0.9991302010971765,153.67771210294188
6.292655104,0.999201833391147,153.53935284938947
6.294941184,0.9993241143302151,153.3996830745766
6.297227776,0.9994890059610555,153.25790320849086
6.299514368,0.9996863568708553,153.11352562904372
6.301800448,0.9999034620318186,152.96620460597464
6.30408704,1.0001265753187898,152.81568916183218
6.30637312,1.0003417605346538,152.66203011838772
6.308659712,1.0005352385574535,152.50542230923784
6.310945792,1.000694803785025,152.3463248055827
6.313232384,1.0008103266494732,152.1852242963215
6.315518464,1.0008744787031878,152.02287738915024
6.317805056,1.0008833137609006,151.85998275402727
6.320091648,1.0008362570832876,151.69745293040245
6.322377728,1.0007361081724322,151.53597488507603
6.32466432,1.0005892248432062,151.37636315158426
6.3269504,1.0004048981582379,151.21916456081794
6.329236992,1.0001946721951016,151.06482987885275
6.331523072,0.9999719751421059,150.91369296464146
6.333809664,0.9997508292848011,150.76584132916415
6.336096256,0.9995453921404198,150.62105018796424
6.338382336,0.9993683137862285,150.47915625221066
6.340668928,0.9992310199283049,150.33954294320492
6.342955008,0.9991424822797397,150.20161550132335
6.3452416,0.9991079486258784,150.06463733708506
6.34752768,0.9991299937025866,149.92776954650398
6.349814272,0.9992069539136014,149.7901984476976
6.352100352,0.9993341160197409,149.65119884795678
6.354386944,0.9995034414635899,149.51006989869157
6.356673536,0.9997040688771458,149.36626513338447
6.358959616,0.9999234438564658,149.2194655844169
6.361246208,1.0001476588634328,149.06948783537104
6.363532288,1.0003624043329875,148.91630832919816
6.36581888,1.0005542046951759,148.76023838109808
6.36810496,1.0007108596189984,148.60167851095534
6.370391552,1.0008225401463622,148.44119063845446
6.372678144,1.0008821163444332,148.2794849319992
6.374964224,1.0008857149261108,148.11736710722457
6.377250816,1.000833326664945,147.9555870547339
6.379536896,1.0007279858275953,147.79504629565062
6.381823488,1.0005765210879345,147.63637290266243
6.384109568,1.000388255073722,147.48016208656966
6.38639616,1.0001752846792824,147.32693534164878
6.38868224,0.9999509490582146,147.17688987728206
6.390968832,0.9997294769402599,147.03011903913412
6.393255424,0.9995250680946851,146.8865077733545
6.395541504,0.9993504395377331,146.7456387659261
6.397828096,0.9992166679163483,146.60708946107968
6.400114176,0.9991324474565534,146.47016067334832
6.402400768,0.9991030386865088,146.33406261008545
6.404686848,0.9991304133131997,146.1980246546976
6.40697344,0.9992127397015836,146.0612573440658
6.409260032,0.9993448538745894,145.92292285247916
6.411546112,0.99951844594119,145.7823918575802
6.413832704,0.99972234288189,145.6391960386994
6.416118784,0.9999439475766502,145.49289719808084
6.418405376,1.000168990605857,145.34341244751133
6.420691456,1.000383311406817,145.19074527013447
6.422978048,1.0005732007634047,145.03519950080195
6.425264128,1.000726824940653,144.87716811183915
6.42755072,1.0008344668345734,144.7172664267158
6.429837312,1.0008891990027056,144.5562336634574
6.432123392,1.0008875713614467,144.39486008027777
6.434409984,1.00082962157762,144.23392397044145
6.436696064,1.0007191554587982,144.07424862706824
6.438982656,1.0005629607697049,143.9165467064858
6.441268736,1.0003709466445203,143.76136815310807
6.443555328,1.0001552270592964,143.60922324610536
6.44584192,0.9999292848416768,143.46030570695464
6.448128,0.9997078764863437,143.31462632593616
6.450414592,0.9995045729066546,143.17213635931336
6.452700672,0.9993324392422718,143.0323742414621
6.454987264,0.9992024488484685,142.89484627441385
6.457273344,0.999122822960571,142.75888872024146
6.459559936,0.9990984980082717,142.62369707687535
6.461846016,0.9991312685291373,142.48852312564486
6.464132608,0.9992191074053127,142.35247098153567
6.4664192,0.9993561803485872,142.214814168284
6.46870528,0.9995341213030194,142.07493033294475
6.470991872,0.9997412897968445,141.9322583176713
6.473277952,0.9999649081402865,141.7864707318558
6.475564544,1.0001907617832004,141.63747424041475
6.477850624,1.000404372398881,141.4853196538367
6.480137216,1.0005924250719676,141.33025495610545
6.482423296,1.0007428200904436,141.1727565542752
6.484709888,1.0008461648969218,141.0134744018657
6.48699648,1.0008958649523114,140.8531217298699
6.48928256,1.0008888382205294,140.69248547923672
6.491569152,1.0008254298754007,140.53239112469717
6.493855232,1.000709610815776,140.3736005979003
6.496141824,1.0005486675188118,140.21687547810168
6.498427904,1.0003529025224613,140.06275608013212
6.500714496,1.0001344322153978,139.91165469678882
6.503001088,0.9999072982887693,139.76385147633079
6.505287168,0.9996856677980991,139.61933421588498
6.50757376,0.9994836763753411,139.47791259928212
6.50985984,0.9993144636937293,139.33925827110716
6.512146432,0.9991882441869958,139.20276168492975
6.514432512,0.9991133463154777,139.06777778913926
6.516719104,0.9990945469647231,138.9335005824475
6.519005184,0.9991328491999608,138.79914362151533
6.521291776,0.9992260661852727,138.66382189043762
6.523578368,0.9993681943445285,138.5268501708263
6.525864448,0.9995503981497806,138.3875459177049
6.52815104,0.9997609773525025,138.24540412106188
6.53043712,0.9999866671811011,138.1001222745927
6.532723712,1.0002129689815324,137.95159033946004
6.535009792,1.0004258206540109,137.79991819732993
6.537296384,1.0006116264776796,137.64537949781229
6.539582976,1.0007588084958923,137.4884534203865
6.541869056,1.0008577086967103,137.32976323129583
6.544155648,1.0009023622423026,137.17007626500202
6.546441728,1.0008897483764017,137.01018059968425
6.54872832,1.0008206257919134,136.85088631072853
6.5510144,1.0006995149876776,136.69300487561748
6.553300992,1.0005338194101838,136.53727187526874
6.555587072,1.0003341961299612,136.38417515870742
6.557873664,1.0001131010260975,136.23418123373537
6.560160256,0.9998846264980229,136.08747089997095
6.562446336,0.9996631782947983,135.94408605852232
6.564732928,0.9994628421152502,135.80379212651198
6.567019008,0.999296244500952,135.66619631752502
6.5693056,0.9991741633413608,135.530751246716
6.57159168,0.9991041187225761,135.3967105233237
6.573878272,0.9990906816930738,135.2633537436688
6.576164864,0.9991348258753816,135.1297601200568
6.578450944,0.9992335881265448,134.99518112268987
6.580737536,0.9993809699648626,134.8588546373317
6.583023616,0.9995674254209146,134.72014799583548
6.585310208,0.9997811890679724,134.57853673660014
6.587596288,1.0000087360707453,134.43375761297162
6.58988288,1.0002355957849505,134.28569141183434
6.59216896,1.0004475892570937,134.13450515603748
6.594455552,1.0006311652702982,133.98043955965383
6.596742144,1.0007746919469773,133.82403024544067
6.599028224,1.0008690722308098,133.6659673782204
6.601314816,1.0009084184148347,133.50691292343657
6.603600896,1.000890220155112,133.3477620379189
6.605887488,1.0008152659094527,133.18930098211416
6.608173568,1.0006886286416306,133.03236907454155
6.61046016,1.000518355104524,132.87759169113465
6.612746752,1.0003149522007213,132.72553359090884
6.615032832,1.0000913315425854,132.57663050209905
6.617319424,0.9998616100830895,132.43104236888948
6.619605504,0.9996405222384726,132.28877995474753
6.621892096,0.9994418392390807,132.14957182219274
6.624178176,0.9992783195362341,132.0130755752249
6.626464768,0.9991603380920547,131.87864494622286
6.628750848,0.9990953348969276,131.74556075769442
6.63103744,0.999087653137624,131.6130745014115
6.633324032,0.9991376714560257,131.4803139160056
6.635610112,0.9992420722129837,131.3464415150847
6.637896704,0.9993943696260797,131.2107392882914
6.640182784,0.9995851086546942,131.0725640123107
6.642469376,0.9998020343875134,130.93147185441848
6.644755456,1.000031394803759,130.7871587304685
6.647042048,1.0002587609996945,130.63955199603322
6.649328128,1.0004696883149151,130.48878337607826
6.65161472,1.000650680659738,130.33521963057908
6.653901312,1.0007905651943698,130.17938003948584
6.656187392,1.0008801870372939,130.02186157193378
6.658473984,1.0009140450236051,129.8634968245205
6.660760064,1.00088984227285,129.70510071047192
6.663046656,1.000809152031419,129.54748197364842
6.665332736,1.0006771797480192,129.39141388272995
6.667619328,1.0005021835290613,129.23761223520444
6.66990592,1.0002950416212848,129.0866357469247
6.672192,1.0000689819101223,128.9388277378621
6.674478592,0.9998382781980162,128.79436241347204
6.676764672,0.9996175277989205,128.6531794010773
6.679051264,0.9994206441186948,128.51515387287705
6.681337344,0.9992604674897523,128.37968659403455
6.683623936,0.999146772935919,128.24624083879587
6.685910016,0.9990870803709997,128.11412935397726
6.688196608,0.9990850868446695,127.98248464494324
6.6904832,0.9991409501280271,127.85049243086875
6.69276928,0.9992511233623382,127.7173447360678
6.695055872,0.9994087482083793,127.58223342937059
6.697341952,0.9996036532219029,127.44458948167686
6.699628544,0.9998236786491697,127.30398631533406
6.701914624,1.0000547316981054,127.16012164604444
6.704201216,1.0002823066147974,127.01296694373814
6.706487808,1.0004919489609454,126.86265847453168
6.708773888,1.0006703330722977,126.70957673866005
6.71106048,1.0008062137596727,126.55423584795004
6.71334656,1.0008908373056384,126.39732540006078
6.715633152,1.0009191932664,126.23959455181581
6.717919232,1.0008890952372247,126.08193512926317
6.720205824,1.0008024191913283,125.92514190563145
6.722491904,1.0006651338195605,125.77000436353445
6.724778496,1.0004851752629054,125.61720451405556
6.727065088,1.0002743631177649,125.46725837051419
6.729351168,1.0000458862154227,125.32053044834875
6.73163776,0.9998142073923979,125.17719381051576
6.73392384,0.9995942338432027,125.03715286732664
6.736210432,0.9993994135137412,124.90019222633885
6.738496512,0.9992425393937597,124.76578184750824
6.740783104,0.9991335478816596,124.63336930991869
6.743069696,0.9990791521627707,124.50216006912727
6.745355776,0.9990829725784216,124.37136475089176
6.747642368,0.9991450267309541,124.2401304514413
6.749928448,0.9992609272194538,124.10762826488066
6.75221504,0.999423670249184,123.97311752964663
6.75450112,0.9996228640508457,123.83601447654767
6.756787712,0.9998459569484333,123.69588692962279
6.759073792,1.000078588587598,123.55246667634295
6.761360384,1.0003061374292537,123.40572283872045
6.763646976,1.0005145124906387,123.25585370929413
6.765933056,1.0006899323229392,123.10320305501594
6.768219648,1.0008217710721294,122.94837655471895
6.770505728,1.0009013278862138,122.79202712965579
6.77279232,1.0009238982310722,122.63499886539338
6.7750784,1.0008876910670663,122.47804054793683
6.777364992,1.0007952280191492,122.32207350578774
6.779651584,1.0006521183006607,122.16786330226638
6.781937664,1.0004676361213714,122.01603946633726
6.784224256,1.0002530551012354,121.86715495391654
6.786510336,1.0000223323146222,121.721495501751
6.788796928,0.999789835705153,121.57926758993412
6.791083008,0.9995704797395886,121.44033388763663
6.7933696,0.999377953700834,121.30445311126859
6.79565568,0.9992247925887595,121.17110515545089
6.797942272,0.9991203197976203,121.03968639679512
6.800228864,0.9990716231311861,120.90940672775379
6.802514944,0.9990816483678835,120.77944207730776
6.804801536,0.999149565378009,120.64889996764366
6.807087616,0.9992714329377866,120.51706926275271
6.809374208,0.9994393769605179,120.38313193322867
6.811660288,0.9996427135449505,120.24651954267502
6.81394688,0.9998686258833032,120.10683965053926
6.81623296,1.000102954070465,119.96380530630523
6.818519552,1.0003305129944189,119.81748019271961
6.820806144,1.0005369795890642,119.66802628098398
6.823092224,1.0007095173815654,119.5158318966767
6.825378816,1.0008370029509568,119.36149932555682
6.827664896,1.000911326496988,119.20574000023181
6.829951488,1.0009279432563074,119.0493175076912
6.832237568,1.0008856529594379,118.89315660964553
6.83452416,1.000787103590661,118.7379985703096
6.836810752,1.0006383820306597,118.5846849947528
6.839096832,1.000449159022672,118.43384140631721
6.841383424,1.000231110705665,118.28599429638916
6.843669504,0.9999982032419515,118.14144064849292
6.845956096,0.9997650394764762,118.0003049905166
6.848242176,0.9995465230946669,117.8624984229476
6.850528768,0.9993564641147659,117.7276785094461
6.852814848,0.9992070474118,117.59534632916001
6.85510144,0.9991076301022005,117.46492413190047
6.857388032,0.9990645516149641,117.33551508436577
6.859674112,0.9990806714468734,117.20636657754476
6.861960704,0.999155037615857,117.07655667115822
6.864246784,0.9992826392467034,116.94532237216634
6.866533376,0.9994558343683972,116.81193464163984
6.868819456,0.9996633780171417,116.67581456696507
6.871106048,0.9998920751573475,116.53652467700317
6.87339264,1.0001277063045495,116.39392309202105
6.87567872,1.0003550264939232,116.24794523487775
6.877965312,1.0005597860193118,116.09889499363962
6.880251392,1.0007291410588233,115.94714425759429
6.882537984,1.0008521238525556,115.79331715750018
6.884824064,1.0009210514482412,115.63808053110108
6.887110656,1.0009316070530951,115.48234057507864
6.889396736,1.0008828831324894,115.32686748203902
6.891683328,1.0007782035228059,115.17257143248207
6.89396992,1.000623919882858,115.02013666138149
6.896256,1.0004299375130665,114.8702768043588
6.898542592,1.0002083942789148,114.72347561237538
6.900828672,0.9999735057804714,114.579986330564
6.903115264,0.9997399626180735,114.43996208468462
6.905401344,0.999522453750242,114.30323429448251
6.907687936,0.9993350313701338,114.16948912465773
6.909974528,0.9991894550226155,114.03820105512254
6.912260608,0.9990952483150612,113.90869226080983
6.9145472,0.9990580051572111,113.78016151789505
6.91683328,0.9990805534317473,113.65176330494769
6.919119872,0.9991611593149312,113.52269431954872
6.921405952,0.9992948413828308,113.39203901924824
6.923692544,0.9994730474699088,113.25918008090541
