freq,mag,phase
6.0,1.0000589892463956,-45.1267039320046
6.002669568,0.9999247390692934,-45.24993345110931
6.005338624,0.999796633495331,-45.37134233186454
6.008008192,0.9996816845712324,-45.49098506642504
6.010677248,0.9995869991879169,-45.609137514621274
6.013346816,0.9995187215537443,-45.72610212336946
6.016015872,0.9994808124046272,-45.84236421202075
6.01868544,0.9994761527750787,-45.958367468012575
6.021354496,0.999504686696847,-46.07453095069537
6.024024064,0.9995648521411913,-46.19137220674068
6.02669312,0.9996527129000284,-46.309294100839466
6.029362688,0.9997627501409871,-46.42870582725656
6.032032256,0.9998880038922154,-46.54987140754121
6.034701312,1.0000207365601337,-46.67293854896462
6.03737088,1.0001523908568333,-46.797900711520874
6.040039936,1.0002745834986622,-46.924760168759235
6.042709504,1.0003798596203577,-47.05331636185692
6.04537856,1.0004615041309284,-47.183260067177606
6.048048128,1.000514364244618,-47.31417588377553
6.050717184,1.0005349748200563,-47.445683367944994
6.053386752,1.0005220496882063,-47.577248527780874
6.056055808,1.000476561197376,-47.70841872764571
6.058725376,1.0004012789389252,-47.83880547448921
6.061394944,1.0003007196928184,-47.96787300628546
6.064064,1.0001816868013294,-48.095447832543634
6.066733568,1.0000514302467047,-48.22118912756417
6.069402624,0.9999179349263321,-48.34506634305189
6.072072192,0.9997899373713564,-48.46707851939863
6.074741248,0.9996753021458569,-48.58738571564451
6.077410816,0.999581539010582,-48.70614333188336
6.080079872,0.9995144063895945,-48.823827395004884
6.08274944,0.9994780657733109,-48.94071947683368
6.085419008,0.9994750420905711,-49.0573823192689
6.088088064,0.9995053681653547,-49.17428172381171
6.090757632,0.9995670362568927,-49.29188761569557
6.093426688,0.9996564582805907,-49.41060767323402
6.096096256,0.99976765537612,-49.53082092191648
6.098765312,0.9998939657412658,-49.65277426746698
6.10143488,1.0000273356047984,-49.776634804928165
6.104103936,1.000159156880505,-49.90243820597038
6.106773504,1.0002810779251354,-50.03016508235338
6.10944256,1.0003856893639966,-50.159512012896826
6.112112128,1.0004663782621133,-50.29025527601848
6.114781696,1.0005178451102341,-50.42201728138613
6.117450752,1.0005369482995778,-50.55425841968362
6.12012032,1.000522521282436,-50.68655530946582
6.122789376,1.000475357970337,-50.81848308018827
6.125458944,1.000398361818313,-50.949532937526286
6.128128,1.0002966177915296,-51.079294571744285
6.130797568,1.000176265885556,-51.20752012186897
6.133466624,1.0000449539511698,-51.33385852109901
6.136136192,0.9999111962115005,-51.45837627864939
6.138805248,0.9997831123798335,-51.58103858949071
6.141474816,0.999668974806437,-51.701944223264086
6.144144384,0.9995760310805312,-51.821380120797464
6.14681344,0.9995101219087539,-51.93968635826023
6.149483008,0.9994752021386117,-52.05732621381049
6.152152064,0.9994737190078739,-52.174643582665006
6.154821632,0.9995057954257587,-52.2922690606414
6.157490688,0.9995690886524153,-52.410586585798825
6.160160256,0.9996600591950419,-52.53011964379424
6.162829312,0.9997726806962328,-52.65107892472416
6.16549888,0.9998999035209911,-52.773859106855724
6.168167936,1.000033821681491,-52.89853130897097
6.170837504,1.0001657807690558,-53.02517178530706
6.173507072,1.0002877844828506,-53.1536925034883
6.176176128,1.0003915444595584,-53.28384863807528
6.178845696,1.0004712174368235,-53.41542045096538
6.181514752,1.0005214501603208,-53.547903969449344
6.18418432,1.0005390261780567,-53.6809425740976
6.186853376,1.0005228173759348,-53.81401349168678
6.189522944,1.0004739321369187,-53.94663228473492
6.192192,1.0003953770506029,-54.07834946457497
6.194861568,1.000292256067772,-54.20878645459721
6.197530624,1.0001708364417903,-54.33764556025327
6.200200192,1.0000388019539106,-54.464702110787584
6.20286976,0.9999046330423117,-54.58984901528879
6.205538816,0.9997767248525042,-54.7131225073284
6.208208384,0.9996629640424988,-54.834638273229196
6.21087744,0.9995707224453503,-54.95468291282105
6.213547008,0.9995057978169575,-55.07366662359241
6.216216064,0.999472434247767,-55.19193272034307
6.218885632,0.9994724766395257,-55.31004959384877
6.221554688,0.9995061658503779,-55.42833974350761
6.224224256,0.9995713239079521,-55.547422124107825
6.226893312,0.9996636178437026,-55.66765064386427
6.22956288,0.9997774653097479,-55.789466544895994
6.232232448,0.9999056556863525,-55.912987822765814
6.234901504,1.0000401759437423,-56.038497589724365
6.237571072,1.0001724806404317,-56.165927559109946
6.240240128,1.0002940007691212,-56.29527069858016
6.242909696,1.000397449959762,-56.42626593290893
6.245578752,1.0004759457394061,-56.5586117265229
6.24824832,1.0005248867187593,-56.69184491483581
6.250917376,1.0005408074802045,-56.825636063419715
6.253586944,1.0005230681301636,-56.95942300244202
6.256256512,1.0004726197781808,-57.09277137524492
6.258925568,1.000392601919328,-57.22522801175748
6.261595136,1.000287873775015,-57.35631034339661
6.264264192,1.0001653762122884,-57.48583435998955
6.26693376,1.0000324399281324,-57.613497913663224
6.269602816,0.9998981028369307,-57.73929643882071
6.272272384,0.9997700810942687,-57.86314884704572
6.27494144,0.9996569213567728,-57.98528631677287
6.277611008,0.9995656051654814,-58.105999579479686
6.280280064,0.9995018051949187,-58.22563666125327
6.282949632,0.9994695319755511,-58.34457883405295
6.2856192,0.9994713631131503,-58.46330556715454
6.288288256,0.9995065334897779,-58.58235981940065
6.290957824,0.9995733292037723,-58.702144999996875
6.29362688,0.9996670023027399,-58.82317343666177
6.296296448,0.999782265197322,-58.94572677546902
6.298965504,0.9999114318256513,-59.0700767392664
6.301635072,1.0000465063435222,-59.196359276897255
6.304304128,1.00017893543772,-59.324603162438024
6.306973696,1.0003003549844378,-59.45473671083469
6.309642752,1.0004030613123327,-59.58653316053766
6.31231232,1.0004805964837948,-59.71963109066844
6.314981888,1.0005282776716766,-59.85368250516088
6.317650944,1.0005428539138697,-59.98822194733728
6.320320512,1.0005234309107214,-60.122755733786576
6.322989568,1.0004712576633619,-60.25679469563592
6.325659136,1.000389661709022,-60.389866114020734
6.328328192,1.0002837861247333,-60.521678048239494
6.33099776,1.0001602626929456,-60.651793022572875
6.333666816,1.0000267066092707,-60.78010270783408
6.336336384,0.9998916536449979,-60.906475585448575
6.33900544,0.9997637432704637,-61.03097470769299
6.341675008,0.9996508141966859,-61.15379307082166
6.344344576,0.9995604191165086,-61.27509635528879
6.347013632,0.9994977741789264,-61.39535233734555
6.3496832,0.999467002063996,-61.51494173957321
6.352352256,0.9994701011252198,-61.63440312535682
6.355021824,0.9995068354777551,-61.75413113155906
6.35769088,0.999575244419272,-61.87465366712413
6.360360448,0.9996704642938534,-61.99642779057673
6.363029504,0.9997868450383703,-62.119720461064226
6.365699072,0.9999167889936873,-62.24484918167452
6.368368128,1.0000526438791573,-62.371969889511924
6.371037696,1.0001852653465402,-62.50101025553303
6.373707264,1.0003063521702515,-62.631912613405184
6.37637632,1.0004085309371213,-62.76449009817566
6.379045888,1.0004851758936182,-62.89838338954572
6.381714944,1.0005316871132146,-63.03320585963056
6.384384512,1.000544701279943,-63.16848699644518
6.387053568,1.0005238432470676,-63.30373579021668
6.389723136,1.000470068596937,-63.438459908948104
6.392392192,1.0003870398501733,-63.57224381191144
6.39506176,1.000279643788397,-63.70466630132914
6.397730816,1.0001550618618498,-63.83543816059215
6.400400384,1.0000207109341115,-63.964349905653656
6.403069952,0.9998854217900064,-64.09134585309502
6.405739008,0.9997575508638692,-64.21646843082424
6.408408576,0.999644900395628,-64.3398862907403
6.411077632,0.9995551531232637,-64.46184553012367
6.4137472,0.9994935551862892,-64.58275204104338
6.416416256,0.9994642092986434,-64.70299566352342
6.419085824,0.9994689075446216,-64.82306859614184
6.42175488,0.9995073881377944,-64.94350516420042
6.424424448,0.999577167073509,-65.0647425600541
6.427094016,0.999673911165326,-65.18722841149122
6.429763072,0.9997914680145514,-65.31132855411289
6.43243264,0.9999224839202642,-65.43718328051314
6.435101696,1.0000585304729546,-65.56509156149532
6.437771264,1.0001913491324326,-65.69490997981676
6.44044032,1.000312418601605,-65.82662238266298
6.443109888,1.0004139374535868,-65.96000763149353
6.445778944,1.0004896897632036,-66.0946736133463
6.448448512,1.000534896949625,-66.23022315712339
6.451117568,1.000546641658504,-66.36622269899256
6.453787136,1.0005241109545218,-66.50218483320576
6.456456704,1.000468860037727,-66.63761627579125
6.45912576,1.0003842829271081,-66.77203465909142
6.461795328,1.0002756946281008,-66.90510453903002
6.464464384,1.000150016074062,-67.03655167624319
6.467133952,1.0000149554101074,-67.1660641275532
6.469803008,0.9998793295389605,-67.2936717288576
6.472472576,0.999751346240367,-67.41938687892105
6.475141632,0.999639217755573,-67.54338788133597
6.4778112,0.9995501844019397,-67.66595296350971
6.480480256,0.999489736278977,-67.78745528144844
6.483149824,0.9994616531445304,-67.90835165474398
6.485819392,0.9994677003975635,-68.02913748702689
6.488488448,0.99950774782428,-68.15025839997945
6.491158016,0.9995790870395941,-68.27218045835292
6.493827072,0.9996772662786444,-68.39539208805074
6.49649664,0.9997959443857897,-68.5202125985199
6.499165696,0.9999277885962269,-68.64686377019459
6.501835264,1.0000645545277842,-68.7755222629516
6.50450432,1.0001975966507965,-68.90615800065422
6.507173888,1.0003183813212082,-69.03862368130456
6.509842944,1.0004193114528577,-69.17271908744733
6.512512512,1.0004941795288222,-69.30815869365334
6.51518208,1.000538218169888,-69.4444920965841
6.517851136,1.000548427733168,-69.58120363545994
6.520520704,1.0005244511457236,-69.71783903064612
6.52318976,1.0004678484855767,-69.85398971585515
6.525859328,1.0003817521993317,-69.98906781205609
6.528528384,1.0002718391502672,-70.1227577272177
6.531197952,1.0001451838075424,-70.25477206740133
6.533867008,1.0000094485804285,-70.38492107889064
6.536536576,0.9998732450435308,-70.51313923917382
6.539205632,0.9997453120545685,-70.63944789258858
6.5418752,0.9996336893536732,-70.76405249331677
6.544544768,0.9995452970164213,-70.88722033218879
6.547213824,0.9994858322901274,-71.00934232313146
6.549883392,0.9994591273289878,-71.13089730387168
6.552552448,0.999466786020956,-71.25227253655348
6.555222016,0.9995081110341443,-71.37407396262633
6.557891072,0.9995808504567585,-71.49672662815732
6.56056064,0.9996804240821804,-71.62069005464686
6.563229696,0.9998002840854128,-71.74619111002494
6.565899264,0.9999330568408721,-71.87359981108152
6.56856832,1.0000702968575772,-72.00299205853058
6.571237888,1.0002035378935517,-72.13439894387062
6.573907456,1.0003240289054631,-72.26762845994922
6.576576512,1.000424597849619,-72.40247437017081
6.57924608,1.0004984761178959,-72.53864405739441
6.581915136,1.0005413781220862,-72.6756939104761
6.584584704,1.000550404912787,-72.81313202789319
6.58725376,1.000524959042727,-72.95051192623843
6.589923328,1.0004665594242406,-73.0872561459889
6.592592384,1.0003792095801545,-73.22296981785118
6.595261952,1.0002681239931381,-73.35729704266124
6.59793152,1.0001402731786826,-73.48994871499677
6.600600576,1.000003875932442,-73.62069438049387
6.603270144,0.999867290178628,-73.74946019920732
6.6059392,0.9997393120968657,-73.87638686427961
6.608608768,0.9996280595027343,-74.00156535201347
6.611277824,0.9995404441637413,-74.12531674589167
6.613947392,0.9994820175054251,-74.24804441814321
6.616616448,0.9994564671414095,-74.37021416232461
6.619286016,0.9994654580569096,-74.49224972973907
6.621955072,0.9995084543731716,-74.61473680534492
6.62462464,0.9995826697057518,-74.73803866991145
6.627294208,0.9996835316713573,-74.86268760099689
6.629963264,0.9998045571708125,-74.98894488054235
6.632632832,0.9999382274893235,-75.11708131480793
6.635301888,1.0000760751848867,-75.24722564072135
6.637971456,1.0002094642305848,-75.37933688079077
6.640640512,1.0003297840823706,-75.51333153744142
6.64331008,1.0004296894591647,-75.64898314643267
6.645979136,1.0005028590779947,-75.78580235294946
6.648648704,1.0005445142658005,-75.92356448969178
6.65131776,1.0005522861861174,-76.06170978931756
6.653987328,1.0005253500300608,-76.19975573713684
6.656656896,1.0004656535594274,-76.33715461006702
6.659325952,1.0003768052205186,-76.47352375879873
6.66199552,1.0002644271991559,-76.60849430096046
6.664664576,1.0001355354524109,-76.7416828607764
6.667334144,0.9999983766656598,-76.87303125369145
6.6700032,0.9998615749696237,-77.00241172787943
6.672672768,0.9997336862915306,-77.12987345189906
6.675341824,0.9996226224453397,-77.2556427907586
6.678011392,0.9995358241092993,-77.37999443093226
6.680680448,0.9994783171580699,-77.50329871906312
6.683350016,0.9994540280529614,-77.62606662349776
6.686019584,0.9994643814193165,-77.7487315147238
6.68868864,0.9995088139834769,-77.87185105418462
6.691358208,0.9995844417054937,-77.99585939313943
6.694027264,0.9996865749853442,-78.12117101827889
6.696696832,0.9998088497984801,-78.24814504945206
6.699365888,0.9999433393116943,-78.37698491312675
6.702035456,1.0000817146792818,-78.5078326916413
6.704704512,1.0002152169230436,-78.64070496585948
6.70737408,1.0003353487817843,-78.77542668645
6.710043136,1.0004348485112122,-78.91176092721064
6.712712704,1.0005071647509989,-79.04936165926843
6.715382272,1.0005477336045163,-79.18781969933521
6.718051328,1.000554120946956,-79.32661348191344
6.720720896,1.0005257184233425,-79.46532405411672
6.723389952,1.0004646058667326,-79.60338999444686
6.72605952,1.0003744379550008,-79.74037163942118
6.728728576,1.0002608393384491,-79.87590944382153
6.731398144,1.0001309319075724,-80.00974453545228
6.7340672,0.9999931833003571,-80.14161554229153
6.736736768,0.9998559067746194,-80.2715575381247
6.739405824,0.9997279037098764,-80.3995616774986
6.742075392,0.9996173689568814,-80.52590666837628
6.74474496,0.999531011090364,-80.6508329182134
6.747414016,0.9994745681544844,-80.77474225541381
6.750083584,0.9994514651279631,-80.89808475239461
6.75275264,0.9994632615088478,-81.02133206156032
6.755422208,0.9995090027536433,-81.1451074743613
6.758091264,0.9995860607723084,-81.26977185623714
6.760760832,0.9996895794398423,-81.39573038012519
6.763429888,0.999812917480916,-81.52338316440428
6.766099456,0.9999482148960962,-81.65295255395283
6.768769024,1.0000871618055156,-81.78450025817374
6.77143808,1.0002208721568493,-81.91808750728119
6.774107648,1.0003410219509605,-82.05348137872639
6.776776704,1.0004398236444652,-82.19056678147278
6.779446272,1.0005112832994705,-82.32887260348508
6.782115328,1.0005507713104083,-82.46798368892897
6.784784896,1.0005558817059708,-82.60748327285327
6.787453952,1.0005262361042098,-82.74682256345245
6.79012352,1.000463563196985,-82.88551769588126
6.792792576,1.0003720410979142,-83.0231069666368
6.795462144,1.0002572760403412,-83.1592382365075
6.798131712,1.0001264330723674,-83.2935870080003
6.800800768,0.9999878313945845,-83.42603059482788
6.803470336,0.9998502473013703,-83.55653581866605
6.806139392,0.9997222395374419,-83.68508321330192
6.80880896,0.9996119764764387,-83.8119506146444
6.811478016,0.9995263230010553,-83.93742862245487
6.814147584,0.9994707894337106,-84.06191651258288
6.81681664,0.9994489131687782,-84.18584381720807
6.819486208,0.9994620035012032,-84.3096832955902
6.822155264,0.9995092481200208,-84.43407031675339
6.824824832,0.9995877847268252,-84.55934731285285
6.8274944,0.9996923998620211,-84.68601191242794
6.830163456,0.9998168003505642,-84.81431317191182
6.832833024,0.9999529970989369,-84.94454356649084
6.83550208,1.0000924992901559,-85.07680951702125
6.838171648,1.0002264717902238,-85.21106292701313
6.840840704,1.0003462953304751,-85.34719008839878
6.843510272,1.0004447870602442,-85.48493984709029
6.846179328,1.0005154877319224,-85.62389668569647
6.848848896,1.0005539255848104,-85.76372238260038
6.851517952,1.0005577743514373,-85.90384885449023
6.85418752,1.0005266667231054,-86.04378732408057
6.856857088,1.0004626431252024,-86.18311471360026
6.859526144,1.0003698277657862,-86.32129438826767
6.862195712,1.0002537494604236,-86.45800593324985
6.864864768,1.0001220541732816,-86.59290598518074
6.867534336,0.9999827082542649,-86.72592880316292
6.870203392,0.9998447671569392,-86.85691828091048
6.87287296,0.9997167334429736,-86.98603185774573
6.875542016,0.9996067045002712,-87.11344045058357
6.878211584,0.9995218960222552,-87.2394012910174
6.88088064,0.999467274266801,-87.36442127226354
6.883550208,0.9994463777815344,-87.48894696820246
6.886219776,0.9994608057250315,-87.61339586336967
6.888888832,0.9995093548283114,-87.73836280672172
6.8915584,0.9995892665477065,-87.86422415070356
6.894227456,0.9996952482074681,-87.9915019285492
6.896897024,0.9998207895340809,-88.12049288691213
6.89956608,0.999957826699282,-88.25137249795543
6.902235648,1.0000979074147667,-88.38432608816814
6.904904704,1.0002319613714978,-88.51927118965324
6.907574272,1.0003518382151637,-88.6560445472602
6.910243328,1.0004496122539515,-88.79445998223004
6.912912896,1.0005195505948383,-88.93410295012217
6.915582464,1.000557038825926,-89.07457767507921
6.91825152,1.0005595833439702,-89.21531285757376
6.920921088,1.0005273054784454,-89.35588198274863
6.923590144,1.0004618135171965,-89.49578336214583
6.926259712,1.0003676065465028,-89.63454025475347
6.928928768,1.0002504048571341,-89.77180468912422
6.931598336,1.0001177769920613,-89.90728125662282
6.934267392,0.9999777824943048,-90.04079290723992
6.93693696,0.999839355024303,-90.17227316562152
6.939606528,0.9997112066028219,-90.30191157798785
6.942275584,0.9996015964032821,-90.42982210578411
6.944945152,0.9995171717483297,-90.55632859849716
6.947614208,0.9994635263896614,-90.6818791766441
6.950283776,0.9994438811709577,-90.8069224029861
6.952952832,0.9994595708273593,-90.93194592251592
6.9556224,0.9995095635656377,-91.05744419569852
6.958291456,0.9995907069424943,-91.18393556630228
6.960961024,0.9996979791270595,-91.31183185891294
6.96363008,0.9998245746130877,-91.441406804637
6.966299648,0.9999624505117991,-91.57299575175517
6.968969216,1.0001030066897805,-91.7065579126799
6.971638272,1.0002373989005504,-91.84215779900984
6.97430784,1.000357001973328,-91.97961053679363
6.976976896,1.0004546123513618,-92.11867140970901
6.979646464,1.000523614017285,-92.25897076436836
6.98231552,1.0005601118103609,-92.40003301509812
6.984985088,1.000561447894472,-92.5413936677906
6.987654144,1.0005277416801122,-92.68258261627092
6.990323712,1.000461001090042,-92.82306191302729
6.992992768,1.0003654581088863,-92.96234668357985
6.995662336,1.0002472134962657,-93.10011913099396
6.998331904,1.0001134269578844,-93.23609514283746
7.00100096,0.9999727328305342,-93.37012895136473
7.003670528,0.9998338910423312,-93.50215130892474
7.006339584,0.9997058739802815,-93.63223311591159
7.009009152,0.9995965851667267,-93.76064161864537
7.011678208,0.9995127065069845,-93.88768047390364
7.014347776,0.9994599458606834,-94.01369262958079
7.017016832,0.9994414317444648,-94.13925156548538
7.0196864,0.9994582750050682,-94.26482611283929
7.022355456,0.9995096511436061,-94.39090278657676
7.025025024,0.99959213823343,-94.51798087881943
7.027694592,0.9997006233275081,-94.64645153571259
7.030363648,0.9998282057466671,-94.77666905941875
7.033033216,0.9999669240616988,-94.90884226134925
7.035702272,1.0001080882778335,-95.0430361288898
7.03837184,1.0002426746465851,-95.1792890877841
7.041040896,1.000362281787787,-95.31735801905184
7.043710464,1.0004593164412516,-95.45704514612393
7.04637952,1.0005276217355061,-95.59796512221315
7.049049088,1.0005631216605457,-95.73962804945842
7.051718144,1.0005632522073327,-95.8816015435628
7.054387712,1.0005283158004183,-96.0233276200636
7.05705728,1.000460187489259,-96.16433900415096
7.059726336,1.0003634079709607,-96.30419224305503
7.062395904,1.000243922173833,-96.44249195708117
7.06506496,1.0001092356927666,-96.57896149570574
7.067734528,0.9999678322388589,-96.71346672035686
7.070403584,0.9998287744850411,-96.84595358233051
7.073073152,0.999700596506097,-96.9765117738644
