freq,mag,phase
6.0,1.0001547093918426,114.15318324923192
6.002285056,1.0003425738333676,113.98373679717419
6.004570112,1.000509097735708,113.81174493238524
6.006855168,1.0006439966067053,113.63758545031908
6.009140224,1.0007388329623772,113.46179623406191
6.01142528,1.0007876322574885,113.28497504534128
6.013710336,1.0007872187107298,113.10781215523322
6.015995392,1.0007374965209774,112.93105603691042
6.018280448,1.0006419469446877,112.75533949833495
6.020565504,1.000506226029926,112.58134116399305
6.02285056,1.0003390935577972,112.40953287113791
6.025135616,1.0001508646534887,112.24033613240277
6.027420672,0.9999536542618505,112.07392825355221
6.029705728,0.9997597541312802,111.91039643188208
6.031990784,0.9995814271824404,111.74960297386356
6.03427584,0.9994298670921532,111.5911930768515
6.036560896,0.9993148775683462,111.43475429948244
6.038845952,0.9992434621619543,111.27970952161986
6.041131008,0.9992203414900586,111.12534806720451
6.043416064,0.999247055355327,110.97099090870122
6.04570112,0.9993216878210271,110.81591935045361
6.047986176,0.9994397209826176,110.6594621455137
6.050271232,0.9995937248583958,110.50105482022218
6.052556288,0.9997737713466953,110.34022627457436
6.054841344,0.9999687197426389,110.17671102930419
6.0571264,1.0001661111051832,110.01036903612916
6.059411456,1.0003536358985934,109.8412711079941
6.061696512,1.000519359114729,109.66959125457136
6.063981568,1.000652771804481,109.49577116117052
6.066266624,1.0007455365703593,109.32034550887714
6.06855168,1.000791823594119,109.14393120060177
6.070836736,1.0007886604813776,108.9672187632077
6.073121792,1.0007362155229877,108.7909206013961
6.075406848,1.0006378462511518,108.6157407099427
6.077691904,1.0004996413317442,108.44228772075087
6.07997696,1.0003304115883103,108.27107100070978
6.082262016,1.0001407137785887,108.10248053316464
6.084547072,0.9999425459086383,107.936728091614
6.086832128,0.9997483624054947,107.77383114315174
6.089117184,0.9995705725413355,107.61367114311444
6.09140224,0.9994201613083605,107.45589492794339
6.093687296,0.9993069468751937,107.30006525790843
6.095972352,0.9992378754616321,107.14558291688198
6.098257408,0.9992174716180139,106.9917504816858
6.100542464,0.9992468771386951,106.83789124729887
6.10282752,0.9993244114131723,106.68327652538966
6.105112576,0.9994451495633221,106.52725592093134
6.107397632,0.9996013320006035,106.36919260994178
6.1096832,0.9997833270246967,106.20872438329336
6.111968256,0.999979494696209,106.04554977183474
6.114253312,1.0001774085588795,105.87950006087998
6.116538368,1.0003646795326622,105.71069990815053
6.118823424,1.0005295199999666,105.53935459767668
6.12110848,1.0006613520514787,105.365881834083
6.123393536,1.0007520071712614,105.19081335185315
6.125678592,1.0007958260654652,105.01478611150381
6.127963648,1.0007898702526068,104.83850394174776
6.130248704,1.0007345381201154,104.66266374031457
6.13253376,1.0006333619864618,104.4879953284051
6.134818816,1.0004926427365575,104.31508751898616
6.137103872,1.000321297813356,104.14447268347392
6.139388928,1.0001299826048096,103.9764931549471
6.141673984,0.9999309408611917,103.81135539613508
6.14395904,0.9997366113348751,103.64909723668093
6.146244096,0.9995592972539913,103.48955667022838
6.148529152,0.999410274482943,103.33241035756058
6.150814208,0.9992988122814369,103.17716327663415
6.153099264,0.9992322228879136,103.02324065119572
6.15538432,0.9992145700481512,102.86993436169789
6.157669376,0.9992468699798239,102.71656835157877
6.159954432,0.9993273700893002,102.56238173717112
6.162239488,0.9994508184523886,102.40674465348253
6.164524544,0.99960937382265,102.24906532281959
6.1668096,0.999793098850603,102.08892165694232
6.169094656,0.9999905507580434,101.92603164401633
6.171379712,1.0001890385985406,101.76029797968323
6.173664768,1.000376008730425,101.59176441933583
6.175949824,1.0005399000843318,101.42073042846648
6.17823488,1.0006702275576336,101.24756798206423
6.180519936,1.0007587105894544,101.07284589156403
6.182804992,1.0007998148076882,100.89720258922219
6.185090048,1.0007909813719904,100.72133300558197
6.187375104,1.0007327298273971,100.54595381552963
6.18966016,1.0006287158455167,100.37178853921866
6.191945216,1.0004854270753152,100.19941599171351
6.194230272,1.0003119272134453,100.02935304066744
6.196515328,1.0001190822332604,99.86197461791663
6.198800384,0.9999191826445374,99.69745586180089
6.20108544,0.9997247165369264,99.53581028181829
6.203370496,0.9995480263265801,99.37690259052111
6.205655552,0.9994003527142,99.2203534979098
6.207940608,0.9992908689119926,99.06569140079162
6.210225664,0.9992266369327496,98.912305359007
6.21251072,0.9992118114131673,98.75951736504418
6.214795776,0.9992470068539425,98.60660926706359
6.217080832,0.9993304185699666,98.45285406786381
6.219365888,0.9994566435669173,98.29759417447389
6.221650944,0.9996176613241642,98.14025132508085
6.223936,0.999803251556747,97.98042797172434
6.226221056,1.0000018559838244,97.81783006067799
6.228506112,1.0002007239576634,97.65236333006517
6.230791168,1.0003875235098467,97.48412185579552
6.233076224,1.0005504049144243,97.31335778138245
6.23536128,1.0006788988319253,97.14049992514725
6.237646336,1.0007652495413943,96.96609948819645
6.239931392,1.0008037197295512,96.79080426371972
6.242216448,1.0007918864369738,96.61533335718646
6.244501504,1.0007306725016043,96.4404157318666
6.24678656,1.0006236896012881,96.26673372624373
6.249071616,1.0004777835615513,96.0948890263737
6.251356672,1.00030219039168,95.9253893478831
6.253641728,1.0001078399550853,95.75861302928509
6.255926784,0.9999071319443392,95.59469242943067
6.25821184,0.9997125570654248,95.43365504187295
6.260496896,0.9995365357119389,95.27534305644754
6.262781952,0.999390223886201,95.11938571814358
6.265067008,0.9992828112348615,94.96529430399899
6.267352064,0.9992210459423038,94.81244528614071
6.26963712,0.9992090862983024,94.66016376977237
6.271922176,0.9992474437221971,94.50768455750318
6.274207232,0.9993338434977497,94.3543319497681
6.276492288,0.999462798783534,94.19943391505252
6.278777344,0.9996261660281713,94.0424297245437
6.2810624,0.9998136719052914,93.88287853129778
6.283347456,1.0000133389477923,93.72053960693682
6.285632512,1.0002127706741346,93.55533260298529
6.287917568,1.0003991789599787,93.38734393901288
6.290202624,1.0005610308937263,93.21684529542323
6.29248768,1.0006877880292033,93.044260923791
6.294772736,1.0007717172501691,92.8701734166448
6.297057792,1.0008075284123552,92.69523155817244
6.299342848,1.0007927787539244,92.52016251393397
6.301627904,1.0007283841159882,92.34568699500096
6.30391296,1.0006185142528075,92.17245175858122
6.306198016,1.0004700827633533,92.00113905688177
6.308483072,1.0002923439639877,91.83218454975494
6.310768128,1.000096453067209,91.66595379266813
6.313053184,0.9998947857517378,91.50264239054582
6.31533824,0.9997002444860582,91.34221796688794
6.317623296,0.9995250288342119,91.18448765059675
6.319908352,0.9993801390211806,91.02910176037992
6.322193408,0.9992747519131675,90.87553675553058
6.324478976,0.999215627889664,90.72320237303008
6.326764032,0.9992065193895121,90.5713889707884
6.329049088,0.9992479704322655,90.4193564447158
6.331334144,0.9993373870157186,90.26637883192046
6.3336192,0.9994691566902056,90.11180802841629
6.335904256,0.9996349303047417,89.955112183553
6.338189312,0.9998242553980667,89.79583542635929
6.340474368,1.0000250774630235,89.63377410804046
6.342759424,1.0002249020144132,89.4687888282087
6.34504448,1.0004109697166061,89.30102796168605
6.347329536,1.000571595120888,89.13076738905127
6.349614592,1.000696653663739,88.95845379070411
6.351899648,1.0007781428426645,88.78466930550314
6.354184704,1.0008111238918453,88.61006862487136
6.35646976,1.0007932367292138,88.43535179680734
6.358754816,1.0007258689822331,88.2612856618576
6.361039872,1.0006130448725903,88.08853760748862
6.363324928,1.0004618508458225,87.91771016816043
6.365609984,1.000281943101785,87.74930893047376
6.36789504,1.0000845787671555,87.58364185444242
6.370180096,0.999882245435519,87.42090486948824
6.372465152,0.9996876811161415,87.26103542438993
6.374750208,0.9995132302887624,87.10390632465496
6.377035264,0.9993699020979768,86.94907078450308
6.37932032,0.999266676861763,86.79605798475029
6.381605376,0.9992102480188116,86.64421840791131
6.383890432,0.9992041506704877,86.49284799150166
6.386175488,0.9992487308205128,86.3412237003522
6.388460544,0.9993412667526343,86.18860357381986
6.3907456,0.9994759269194923,86.03436321478011
6.393030656,0.9996440625845774,85.87793102222936
6.395315712,0.9998351790405918,85.71890471699147
6.397600768,1.0000371798098149,85.55706196173547
6.399885824,1.000237318348693,85.39228953989789
6.40217088,1.000423007211637,85.22474733915472
6.404455936,1.0005824335000317,85.05473037096384
6.406740992,1.0007056114278934,84.88266051300907
6.409026048,1.0007845833238111,84.70916282866018
6.411311104,1.0008147418755844,84.53485078820331
6.41359616,1.0007938042158204,84.36050753555185
6.415881216,1.000723102406164,84.18684183812003
6.418166272,1.0006072848175573,84.01453477181008
6.420451328,1.0004534358245454,83.8442060952745
6.422736384,1.0002714751332935,83.67631329055041
6.42502144,1.0000726812459992,83.51119547579967
6.427306496,0.9998696059256479,83.34901500761922
6.429591552,0.9996750919857716,83.18973337580292
6.431876608,0.999501424838122,83.03313815072258
6.434161664,0.9993596900518336,82.87885266118568
6.43644672,0.9992588183534713,82.72634856356191
6.438731776,0.9992050933551886,82.5749901031403
6.441016832,0.9992020690393691,82.4240516379331
6.443301888,0.9992498772793312,82.27281332089912
6.445586944,0.9993455169381721,82.12053826551578
6.447872,0.9994829136590232,81.96659512584495
6.450157056,0.9996536024548474,81.81041506152874
6.452442112,0.9998465101368559,81.65164087689966
6.454727168,1.0000496361727493,81.48997022079011
6.457012224,1.000249994449547,81.32539842936072
6.45929728,1.0004352386643351,81.1580577139087
6.461582336,1.0005933389796806,80.98823361155702
6.463867392,1.0007144503889864,80.81639378543987
6.466152448,1.000791048457218,80.64314562474294
6.468437504,1.00081811351654,80.46914098984983
6.47072256,1.0007939740124765,80.29513552983646
6.473007616,1.0007202320895021,80.12186770783688
6.475292672,1.0006013285609763,79.94998914546305
6.477577728,1.00044487075121,79.7801251291734
6.479862784,1.0002606761749724,79.61274411812693
6.48214784,1.0000603659469876,79.44816770144848
6.484432896,0.9998565961181705,79.28652302714568
6.486717952,0.9996621897295286,79.12779999531864
6.489003008,0.9994895120010342,78.97175910765979
6.491288064,0.9993493609146301,78.81798618956624
6.49357312,0.9992507574824694,78.66597948198466
6.495858176,0.9991999162069296,78.51506622402226
6.498143232,0.9991999123233337,78.3645375622836
6.500428288,0.9992509872575206,78.2136648471897
6.502713344,0.9993498777366058,78.06171581706928
6.5049984,0.999490200347373,77.90802942877538
6.507283456,0.9996631687746965,77.75209435388736
6.509568512,0.999857909624438,77.59351990188526
6.511853568,1.000062128011279,77.43202892931701
6.514138624,1.0002629112679327,77.26763327059405
6.51642368,1.000447498284041,77.10045273218081
6.518708736,1.0006043480851816,76.93082132238314
6.520993792,1.0007234535268572,76.75919733178144
6.523278848,1.000797345099388,76.58617956629185
6.525563904,1.0008213884110218,76.41247302588192
6.52784896,1.000794052078894,76.23879307494285
6.530134016,1.0007169619684968,76.06588343680588
6.532419072,1.0005950880684815,75.89441921171363
6.534704128,1.000435882770585,75.72501482147078
6.536989184,1.0002495695896572,75.55812535915858
6.53927424,1.0000478867244686,75.39405052248081
6.541559808,0.9998435010851383,75.23295163869233
6.543844864,0.999649242689533,75.07474600982265
6.54612992,0.9994775296464649,74.91922845413694
6.548414976,0.9993391886836331,74.76597376027215
6.550700032,0.9992429156572149,74.61443214476056
6.552985088,0.9991949142450561,74.46396924181572
6.555270144,0.9991981170374212,74.3138373044036
6.5575552,0.9992525500298062,74.16329221547623
6.559840256,0.9993546274465533,74.01163336949233
6.562125312,0.9994977891014905,73.85822079943027
6.564410368,0.9996732006677096,73.70247960634646
6.566695424,0.9998697699072423,73.54408559698032
6.56898048,1.0000750487712182,73.38275497167011
6.571265536,1.000275946939359,73.21849604604225
6.573550592,1.000459940547511,73.05146089399025
6.575835648,1.0006153579565291,72.88197782689186
6.578120704,1.0007323569173612,72.71054677219921
6.58040576,1.0008036340649729,72.53775952370438
6.582690816,1.0008245221533763,72.36431325674788
6.584975872,1.0007939623259858,72.19093477071459
6.587260928,1.0007135633479094,72.01839362526108
6.589545984,1.0005884798262408,71.84731684243893
6.59183104,1.0004266848351286,71.67835745861596
6.594116096,1.0002383022393446,71.51194497571075
6.596401152,1.000035134263226,71.34837756046744
6.598686208,0.9998301268479558,71.18779210119733
6.600971264,0.999636130597368,71.0301050785954
6.60325632,0.9994654375238269,70.87509746241854
6.605541376,0.99932882215595,70.7223070787638
6.607826432,0.999235164059402,70.57124122221929
6.610111488,0.9991900027976732,70.42118053595746
6.612396544,0.9991964967632898,70.27140588281856
6.6146816,0.9992542306725114,70.12120484599282
6.616966656,0.9993594801179068,69.96980761792732
6.619251712,0.9995057077591859,69.81659699263977
6.621536768,0.9996835143828908,69.661069487306
6.623821824,0.9998817902786403,69.5028089500269
6.62610688,1.000088031423859,69.3416180635725
6.628391936,1.00028911753443,69.1774781304725
6.630676992,1.0004724833669705,69.01058567585893
6.632962048,1.0006263615111686,68.8412418755031
6.635247104,1.0007412211752156,68.66998465873787
6.63753216,1.000809717645673,68.49739270878358
6.639817216,1.0008275777856004,68.32417955876093
6.642102272,1.0007935187797927,68.1511018031273
6.644387328,1.0007097944234544,67.97888302694697
6.646672384,1.0005817181646308,67.80821328048901
6.64895744,1.000417223513596,67.63967125448946
6.651242496,1.0002265798530516,67.47370797402299
6.653527552,1.0000221247444503,67.31062836454112
6.655812608,0.9998165323307986,67.15052571311362
6.658097664,0.9996227893325857,66.99334444133044
6.66038272,0.9994532606986256,66.83881885331137
6.662667776,0.9993186066935765,66.68650186186012
6.664952832,0.9992272989563159,66.53585837445532
6.667237888,0.9991852370722589,66.38618823326514
6.669522944,0.9991950482515665,66.23676267135723
6.671808,0.9992561414630577,66.08683272972671
6.674093056,0.9993646919822701,65.93570524249373
6.676378112,0.9995138396034305,65.78269732930326
6.678663168,0.9996941396057698,65.62730906227172
6.680948224,0.9998941947912073,65.46918628549645
6.68323328,1.0001013016981806,65.308115927461
6.685518336,1.0003025403545271,65.14408059360048
6.687803392,1.0004851449761332,64.97727088985725
6.690088448,1.0006375563939163,64.80805446972275
6.692373504,1.0007500991014706,64.63692085753667
6.69465856,1.0008157802907371,64.46450955016597
6.696943616,1.000830424630564,64.29152833318642
6.699228672,1.0007929527496229,64.11872073296678
6.701513728,1.000705804009639,63.94682616653842
6.703798784,1.000574558796973,63.776519417525385
6.70608384,1.0004073970018703,63.60838623001856
6.708368896,1.000214751707123,63.4428691064427
6.710653952,1.0000088446468036,63.28024297978054
6.712939008,0.9998027831024857,63.12064043665427
6.715224064,0.999609374825455,62.963933714119925
6.71750912,0.9994409530224753,62.809865124092866
6.719794176,0.9993082431437937,62.65800408350324
6.722079232,0.999219532806177,62.507752422098484
6.724364288,0.9991806036593059,62.3584570146571
6.726649344,0.9991938401791887,62.20935955444542
6.7289344,0.9992583519366771,62.05970758392281
6.731219456,0.9993701480400596,61.90877710287349
6.733504512,0.999522283288643,61.755941066907035
6.735789568,0.9997049407370941,61.60069949393607
6.738074624,0.9999067370561668,61.44267974273045
6.74035968,1.0001147886259965,61.281674874198984
6.742644736,1.0003160783434493,61.11772922646607
6.744929792,1.0004978382235798,60.951007351691985
6.747214848,1.0006485868412953,60.781872992865516
6.749499904,1.0007588785240935,60.61087065944121
6.75178496,1.0008216824084881,60.43862155087259
6.754070016,1.0008330091296103,60.26584312546869
6.756355072,1.000792137491818,60.09328564047708
6.75864064,1.000701674312929,59.921708131820274
6.760925696,1.0005672076290846,59.75172595079569
6.763210752,1.0003972979751456,59.5839801331944
6.765495808,1.0002026295450936,59.41889328535923
6.767780864,0.9999954910211943,59.25672687779809
6.77006592,0.9997888886339044,59.097558199521515
6.772350976,0.9995958768504082,58.9413154865693
6.774636032,0.9994287529021862,58.78769225387926
6.776921088,0.9992980252828366,58.6362483362585
6.779206144,0.9992120524821548,58.48641860076651
6.7814912,0.9991762076706551,58.337428600889
6.783776256,0.9991927425864573,58.18863998129388
6.786061312,0.9992608841568422,58.03922672437729
6.788346368,0.999375995335546,57.88850463128352
6.790631424,0.9995310509676606,57.73581744937492
6.79291648,0.9997161341483319,57.580695016095675
6.795201536,0.9999195650461138,57.42273959899886
6.797486592,1.00012852734061,57.261781780777135
6.799771648,1.000329858872178,57.09788585929575
6.802056704,1.0005107443111279,56.931214020455506
6.80434176,1.0006598312202395,56.76216292069495
6.806626816,1.000767686120394,56.59125742064273
6.808911872,1.0008275335557277,56.419140688499596
6.811196928,1.0008354859965372,56.24656623165967
6.813481984,1.0007911531694929,56.07422390364168
6.81576704,1.0006972068138718,55.90291542547626
6.818052096,1.0005596510972044,55.733271755790064
6.820337152,1.0003870414966625,55.56590987394684
6.822622208,1.0001902901728752,55.40121135204394
6.824907264,0.9999818369581854,55.23947559909196
6.82719232,0.9997747615424444,55.080750978202104
6.829477376,0.9995822531058907,54.92494858014189
6.831762432,0.9994163951328072,54.77175359603299
6.834047488,0.9992878406052245,54.620713419401234
6.836332544,0.9992045320798898,54.47121208042022
6.8386176,0.9991718283954194,54.32258976020406
6.840902656,0.9991919593884415,54.17405068834425
6.843187712,0.9992634940471773,54.02487424500128
6.845472768,0.9993820635942887,53.874308094016364
6.847757824,0.9995400333032474,53.72174277671286
6.85004288,0.9997274455314984,53.56667397193057
6.852327936,0.9999325770028413,53.40877620148419
6.854612992,1.0001424100259233,53.247867497254084
6.856898048,1.0003436109663002,53.08398982836716
6.859183104,1.000523646214946,52.91734769558956
6.86146816,1.0006709472599113,52.74836025196038
6.863753216,1.0007763759967943,52.57753086221624
6.866038272,1.0008332161636888,52.405531712359625
6.868323328,1.000837781217321,52.233118567122176
6.870608384,1.0007898422589698,52.060989521409795
6.87289344,1.0006925108866664,51.88994731080579
6.875178496,1.0005517151720789,51.720619242510814
6.877463552,1.000376406448532,51.55360211546389
6.879748608,1.000177637993129,51.38929106263513
6.882033664,0.9999679003480958,51.22797055054151
6.88431872,0.9997605052571124,51.069649090558634
6.886603776,0.9995685188908014,50.9142748747966
6.888888832,0.999404093779011,50.761491374529434
6.891173888,0.9992776529524859,50.61081105493871
6.893458944,0.9991970910332968,50.46167663422213
6.895744,0.9991678210311724,50.31332307720874
6.898029056,0.9991913289500329,50.16503845098073
6.900314112,0.9992664721972401,50.016050402451825
6.902599168,0.9993883701735714,49.86562219489526
6.904884224,0.9995493317770899,49.71314028337808
6.90716928,0.999739122490852,49.55813993781595
6.909454336,0.9999459411905094,49.40026712599428
6.911739392,1.0001564897999045,49.2393491563176
6.914024448,1.0003576418316376,49.07547788766427
6.916309504,1.0005365674222442,48.90885119309814
6.91859456,1.0006820977122934,48.73988363062913
6.920879616,1.0007849864407712,48.56911446127584
6.923164672,1.000838606046318,48.39722365326661
6.925449728,1.0008397824563473,48.2249372242865
6.927734784,1.000788386074791,48.05301487719694
6.93001984,1.0006874969635011,47.88221149408086
6.932304896,1.000543488383186,47.71317377892364
6.934589952,1.0003654985235237,47.54648337095579
