freq,mag,phase
6.0,1.0000110278046008,-103.13798191240166
6.002957312,0.9999529023110519,-103.29660257949452
6.005915136,0.9998978541962561,-103.4544499893313
6.008872448,0.9998492303585634,-103.61154430503618
6.01182976,0.9998101437590947,-103.76803440933563
6.014787584,0.9997831300871348,-103.92404067663944
6.017744896,0.999769654412356,-104.07975487064539
6.020702208,0.9997707408152168,-104.23541268850983
6.023660032,0.9997862741078141,-104.39119078204007
6.026617344,0.9998153384047075,-104.54731267419042
6.029574656,0.9998561157664424,-104.70395747993622
6.03253248,0.9999060565860748,-104.86124638754417
6.035489792,0.9999621098543989,-105.01932172170585
6.038447104,1.0000208344488613,-105.17822628149801
6.041404928,1.0000784377882308,-105.33800718638409
6.04436224,1.0001314829113626,-105.4985809494885
6.047319552,1.0001764918974474,-105.65987386489626
6.050277376,1.0002107773743483,-105.82175180577524
6.053234688,1.0002322717716239,-105.98403813212157
6.056192,1.0002395193832725,-106.14656288880822
6.059149824,1.0002320377383829,-106.30908687109903
6.062107136,1.000210381789317,-106.47140088398068
6.065064448,1.0001757515641245,-106.63333169343112
6.068022272,1.0001303350061008,-106.79473391519994
6.070979584,1.0000771124478267,-106.95541598336692
6.073937408,1.0000190269461486,-107.11530044312245
6.07689472,0.9999599486217108,-107.27438944910908
6.079852032,0.9999035673686889,-107.43262683250447
6.082809856,0.9998531323416896,-107.5901248990544
6.085767168,0.9998121668697969,-107.74696059741257
6.08872448,0.999783026338659,-107.90329878682408
6.091682304,0.9997673497658978,-108.05933662183656
6.094639616,0.9997665698500104,-108.21526047310405
6.097596928,0.9997802317672699,-108.37130322227561
6.100554752,0.9998079711090133,-108.52764129759875
6.103512064,0.9998477638210965,-108.68448414452173
6.106469376,0.9998974563421809,-108.84196094533002
6.1094272,0.999953634237009,-109.00022938523611
6.112384512,1.0000128538742585,-109.15934563086306
6.115341824,1.0000716689158113,-109.31931405502017
6.118299648,1.000126145033892,-109.48011316209688
6.12125696,1.0001731604965076,-109.64166204197849
6.124214272,1.0002096788412227,-109.80380722698581
6.127172096,1.0002331526305914,-109.96641920199939
6.130129408,1.0002425065866287,-110.12927691676637
6.13308672,1.00023696863923,-110.29217455999635
6.136044544,1.000216908332458,-110.45488338563459
6.139001856,1.000183473707161,-110.61725146368374
6.141959168,1.0001387705983034,-110.77904431804753
6.144916992,1.0000856201644281,-110.94015922121929
6.147874304,1.0000271909418368,-111.1004797519797
6.150831616,0.9999672507808126,-111.25994129929897
6.15378944,0.9999095174243656,-111.41861154423147
6.156746752,0.9998574397155119,-111.5764777089248
6.159704064,0.9998143953861286,-111.7336624550211
6.162661888,0.9997830453408719,-111.89030891979128
6.1656192,0.9997653545489248,-112.0466472604809
6.168576512,0.9997624933846236,-112.20283381174194
6.171534336,0.9997744854064295,-112.35906670279269
6.174491648,0.9998007323491385,-112.51561332822108
6.17744896,0.9998395486026586,-112.67262060687654
6.180406784,0.9998886499471816,-112.83031831445147
6.183364096,0.9999448095367606,-112.98871675444356
6.186321408,1.0000047303369732,-113.14800090862671
6.189279232,1.0000646332077794,-113.3081679825454
6.192236544,1.0001205973422693,-113.46915602496395
6.195193856,1.0001694157197865,-113.6309154531735
6.19815168,1.0002079179270302,-113.79332864243784
6.201108992,1.000233824367512,-113.95620455423254
6.204066304,1.0002452605815848,-114.1193853768533
6.207024128,1.000241594727758,-114.2826273342687
6.20998144,1.000223226058061,-114.44570771682004
6.212938752,1.0001910606070579,-114.60843975831719
6.215896576,1.0001471739032117,-114.77064738364491
6.218853888,1.0000942798389758,-114.9321389147995
6.221811712,1.000035534843918,-115.09286818922665
6.224769024,0.9999748847561185,-115.25272382379184
6.227726336,0.9999158026292256,-115.41177616776075
6.23068416,0.9998619973437525,-115.56997745081551
6.233641472,0.9998170272722608,-115.72752031716834
6.236598784,0.9997835938417594,-115.88447389458443
6.239556608,0.9997635871112391,-116.04106560733976
6.24251392,0.9997585184265146,-116.19748795229322
6.245471232,0.9997686957226476,-116.35395055456847
6.248429056,0.9997934148227865,-116.51064902410081
6.251386368,0.9998311714293505,-116.66782834402129
6.25434368,0.9998797013835143,-116.82563530580977
6.257301504,0.9999357971097034,-116.9842215441638
6.260258816,0.9999961985349752,-117.1436490899759
6.263216128,1.0000571221075127,-117.30396717004791
6.266173952,1.0001147475789374,-117.4651037866822
6.269131264,1.0001653513635311,-117.6270825214231
6.272088576,1.0002059180264213,-117.7897055824973
6.2750464,1.0002339131833002,-117.95284068061002
6.278003712,1.0002476199101646,-118.11628111227438
6.280961024,1.0002460021869881,-118.27982623765244
6.283918848,1.000229369966915,-118.44322921729787
6.28687616,1.000198520634793,-118.60635649536185
6.289833472,1.000155506850327,-118.76893817613498
6.292791296,1.000102960235966,-118.9308038453448
6.295748608,1.000044035823068,-119.09191592972743
6.29870592,0.9999826841015594,-119.25215613882604
6.301663744,0.9999222555866124,-119.41155355316333
6.304621056,0.9998668473918014,-119.57011296885945
6.307578368,0.9998198923357258,-119.72792128495249
6.310536192,0.9997842762949921,-119.88517835218444
6.313493504,0.9997621184050189,-120.04200239506402
6.316450816,0.9997549215361566,-120.19864429765978
6.31940864,0.9997631339006536,-120.35526633757871
6.322365952,0.9997862637996858,-120.51214459240725
6.325323264,0.9998228774186478,-120.66948598611434
6.328281088,0.9998707063357745,-120.8274009349392
6.3312384,0.9999268200839815,-120.98610845125754
6.334195712,0.9999876265104946,-121.14565024833885
6.337153536,1.0000495425944296,-121.30607032880495
6.340110848,1.0001085478546863,-121.46736662666453
6.34306816,1.0001610164380872,-121.62951778912051
6.346025984,1.0002036910417489,-121.79231893710778
6.348983296,1.0002339609274151,-121.95567567533277
6.351940608,1.0002498434154041,-122.11938747624079
6.354898432,1.000250301894364,-122.28319121722099
6.357855744,1.0002353884336936,-122.4469528343183
6.360813056,1.0002060939008872,-122.61036499622804
6.36377088,1.0001640082225458,-122.77329833862329
6.366728192,1.0001118393057498,-122.93553516785542
6.369686016,1.000052772014416,-123.09699547127028
6.372643328,0.9999906201094418,-123.25759737134572
6.37560064,0.9999291246224729,-123.41734454196279
6.378558464,0.9998720778196346,-123.57622401948915
6.381515776,0.9998230897646723,-123.73433409277635
6.384473088,0.9997851987023105,-123.89183058164734
6.387430912,0.9997607994211528,-124.04890176596983
6.390388224,0.9997515111461264,-124.20572065184973
6.393345536,0.9997576557843293,-124.36249898212806
6.39630336,0.999779102329096,-124.51952165412906
6.399260672,0.9998145013935748,-124.67696210873252
6.402217984,0.9998616057920681,-124.8349776544131
6.405175808,0.9999175549627259,-124.99376949889074
6.40813312,0.9999788124160016,-125.153381523497
6.411090432,1.000041638485369,-125.31393127005175
6.414048256,1.000102058074787,-125.4753354163736
6.417005568,1.0001563117044452,-125.63759621388307
6.41996288,1.0002010554749985,-125.80061709542024
6.422920704,1.0002335649694392,-125.96415068918198
6.425878016,1.00025176675713,-126.12807018008094
6.428835328,1.0002544226310597,-126.29216736943619
6.431793152,1.0002414734774618,-126.45619171942832
6.434750464,1.0002135695083798,-126.61992843185209
6.437707776,1.0001724379904322,-126.78315687330918
6.4406656,1.0001208128144787,-126.94574663444986
6.443622912,1.000061747172546,-127.10756330707468
6.446580224,0.9999989492721135,-127.2684878969802
6.449538048,0.9999363389889959,-127.42851766015018
6.45249536,0.9998775965566032,-127.58769665317914
6.455452672,0.9998267397479653,-127.74609087800559
6.458410496,0.9997865611643855,-127.90380607201236
6.461367808,0.9997599607795812,-128.0610855274985
6.46432512,0.999748304286481,-128.21809428569645
6.467282944,0.9997524834092101,-128.37503694398845
6.470240256,0.9997721249316878,-128.53215524301262
6.473197568,0.9998061948672312,-128.68966233821996
6.476155392,0.9998525468949822,-128.8477770020787
6.479112704,0.9999082190631474,-129.00660971335756
6.482070016,0.999969725811892,-129.16629387108682
6.48502784,1.0000333519453009,-129.3268932324138
6.487985152,1.0000952412213528,-129.4884148717484
6.490942464,1.0001512838355988,-129.6507918502493
6.493900288,1.000198204302812,-129.813879534867
6.4968576,1.0002329400045393,-129.977626423248
6.499814912,1.000253429881727,-130.1417287792685
6.502772736,1.0002582826944093,-130.3060234071903
6.505730048,1.000247187468478,-130.47030711049095
6.50868736,1.0002208577452516,-130.63430650698416
6.511645184,1.0001810007209604,-130.79788526979198
6.514602496,1.0001298917641617,-130.9607993774325
6.51756032,1.0000708328776995,-131.12285821825796
6.520517632,1.0000074269521022,-131.28412911363287
6.523474944,0.9999437018149939,-131.44449216189065
6.526432768,0.9998834882246451,-131.6039113083809
6.52939008,0.9998305980424346,-131.7625318281432
6.532347392,0.9997882908567957,-131.92053108260336
6.535305216,0.9997593878027813,-132.07795241417978
6.538262528,0.999745476915823,-132.23510965244284
6.54121984,0.9997474397963451,-132.39216614857062
6.544177664,0.9997653598965585,-132.54937936687332
6.547134976,0.9997980432685389,-132.70697463225864
6.550092288,0.9998433294557644,-132.86511055413928
6.553050112,0.9998987292088097,-133.02398500837725
6.556007424,0.9999604872983582,-133.1837176989551
6.558964736,1.0000250706417164,-133.34437304375913
6.56192256,1.0000881179098375,-133.5059222718065
6.564879872,1.000146005803068,-133.66837911312118
6.567837184,1.0001950094853913,-133.8315808900183
6.570795008,1.0002319769011558,-133.99545741982146
6.57375232,1.000254805330162,-134.15973875611007
6.576709632,1.0002618254670912,-134.32424368258845
6.579667456,1.000252854266491,-134.48875428443674
6.582624768,1.0002282174197623,-134.653002272768
6.58558208,1.0001894873798465,-134.816813506619
6.588539904,1.0001390861490829,-134.98002000617146
6.591497216,1.0000801165258801,-135.14241096659728
6.594454528,1.0000162041084573,-135.30395439047047
6.597412352,0.9999514247510717,-135.4645649318071
6.600369664,0.9998896452074657,-135.62424886772234
6.603326976,0.9998347998695039,-135.78310895416334
6.6062848,0.999790300751465,-135.94126287328564
6.609242112,0.9997590111180483,-136.09887994764674
6.612199424,0.9997427017792851,-136.25616054626175
6.615157248,0.9997425927382005,-136.41330477760644
6.61811456,0.9997585497744309,-136.57059632786587
6.621071872,0.9997897612049713,-136.72820904415704
6.624029696,0.9998341838688427,-136.88638971173128
6.626987008,0.9998890363251866,-137.0452743635903
6.62994432,0.9999510525977916,-137.20499221254627
6.632902144,1.0000162683437248,-137.36566414868713
6.635859456,1.0000807018572264,-137.52724934232054
6.638816768,1.0001402875169847,-137.68977022602948
6.641774592,1.0001913506262263,-137.85306469391944
6.644731904,1.0002307030283586,-138.0169860972991
6.647689216,1.0002558730888862,-138.18141904227562
6.65064704,1.0002653170095295,-138.34610640012943
6.653604352,1.000258364257544,-138.51078887650277
6.656562176,1.0002354768630106,-138.67528552891753
6.659519488,1.000197976641032,-138.8393874392596
6.6624768,1.000148343246037,-139.00279523034845
6.665434624,1.0000895339773146,-139.16546459018076
6.668391936,1.0000252034245802,-139.32727590415013
6.671349248,0.9999594168908883,-139.4881463220846
6.674307072,0.9998961650999744,-139.64806811226404
6.677264384,0.9998393342774976,-139.80713324698146
6.680221696,0.9997926594076632,-139.9654587413061
6.68317952,0.9997589584894524,-140.12323442508657
6.686136832,0.9997403454306479,-140.28060864440815
6.689094144,0.9997378663015655,-140.43785816676998
6.692051968,0.9997519416607354,-140.59513428425998
6.69500928,0.9997815607271292,-140.75279307946377
6.697966592,0.9998248795078096,-140.91097316379853
6.700924416,0.9998792790577733,-141.06983858651526
6.703881728,0.9999413542478971,-141.2295479776243
6.70683904,1.0000073120739108,-141.39019917758014
6.709796864,1.0000729348320152,-141.55177628065522
6.712754176,1.0001342391281254,-141.71429859189965
6.715711488,1.000187411656171,-141.8776045274748
6.718669312,1.0002290650697923,-142.0416291777439
6.721626624,1.0002566373641204,-142.20617004136324
6.724583936,1.00026841279937,-142.37100523038293
6.72754176,1.0002636173261148,-142.53586274866117
6.730499072,1.0002425052576942,-142.700569934507
6.733456384,1.000206436670154,-142.86484498015116
6.736414208,1.0001576765048694,-143.02851925429266
6.73937152,1.000099123298591,-143.1914341172856
6.742328832,1.000034337846993,-143.35346702463266
6.745286656,0.9999675691842596,-143.5145699317481
6.748243968,0.9999028934524408,-143.67471051599836
6.75120128,0.9998442716794058,-143.83395498261683
6.754159104,0.9997953283860942,-143.99244109952943
6.757116416,0.9997592616749712,-144.15034035388544
6.760073728,0.9997382233673391,-144.30780301650708
6.763031552,0.9997334733826216,-144.46508723287334
6.765988864,0.99974553011286,-144.62241395498268
6.768946176,0.9997734769034268,-144.780052704199
6.771904,0.9998156801957186,-144.93817581292367
6.774861312,0.9998694480019594,-145.09700453687205
6.777818624,0.9999316210660707,-145.25665417205676
6.780776448,0.9999981111947008,-145.41727903164974
6.78373376,1.0000649419136525,-145.57882390721758
6.786691072,1.000127968478802,-145.7412920006821
6.789648896,1.0001831508957613,-145.90465615970737
6.792606208,1.0002270999395113,-146.06874438845327
6.79556352,1.0002571210306954,-146.23332459691454
6.798521344,1.0002712524367126,-146.39826593784247
6.801478656,1.0002686831560186,-146.56327481123998
6.80443648,1.0002495437284418,-146.7281325800395
6.807393792,1.000214859762631,-146.89260669794064
6.810351104,1.0001669600001957,-147.0565140145606
6.813308928,1.00010872026408,-147.2196303934953
6.81626624,1.0000437547822782,-147.3819003198157
6.819223552,0.99997616938211,-147.54319511239763
6.822181376,0.9999099936156653,-147.703535023881
6.825138688,0.999849482274784,-147.86294965764412
6.828096,0.9997984488485737,-148.02155859112258
6.831053824,0.9997598489871764,-148.17952804700644
6.834011136,0.999736322721166,-148.33707431254257
6.836968448,0.9997292277429163,-148.49438554373086
6.839926272,0.9997391499408376,-148.6517448216028
6.842883584,0.9997653790912991,-148.80931209227663
6.845840896,0.9998063029533245,-148.9674028891966
6.84879872,0.999859486868459,-149.12615217268223
6.851756032,0.9999215653612074,-149.28573529214196
6.854713344,0.999988596538263,-149.446261406916
6.857671168,1.0000565621572821,-149.6077438441092
6.86062848,1.0001212631968213,-149.77019634671709
6.863585792,1.0001785313669536,-149.9335100851908
6.866543616,1.000224774105049,-150.0976223488029
6.869500928,1.000257214148494,-150.26226601082735
6.87245824,1.0002738233683726,-150.42726087942438
6.875416064,1.0002735829068599,-150.5923914072926
6.878373376,1.0002563324702543,-150.75739932294982
6.881330688,1.000223239497355,-150.92205284715817
6.884288512,1.000176365186795,-151.08612769703078
6.887245824,1.0001185461111077,-151.2494473071528
6.890203136,1.0000533828474936,-151.41187754975016
6.89316096,0.9999848822418167,-151.5733651689392
6.896118272,0.9999174124296601,-151.73385792611091
6.899075584,0.9998550045319671,-151.89343009672515
6.902033408,0.99980171995709,-152.05218089892207
6.90499072,0.9997608431164928,-152.21023504229504
6.907948032,0.9997347759701625,-152.36779978568657
6.910905856,0.9997253232729069,-152.52512157882225
6.913863168,0.9997330358801696,-152.68242643543007
6.91682048,0.9997575077306271,-152.83994705309374
6.919778304,0.999797160069507,-152.9979555301131
6.922735616,0.9998495563313592,-153.15662381812518
6.925692928,0.9999114290002832,-153.31609469932198
6.928650752,0.9999789797877705,-153.476523700305
6.931608064,1.0000480606346882,-153.63793595094995
6.934565376,1.0001142851183635,-153.80031813684172
6.9375232,1.0001735349663479,-153.96359709837998
6.940480512,1.000222167379656,-154.12762118875276
6.943437824,1.0002571202140655,-154.29233389771937
6.946395648,1.0002762708685284,-154.4573530599748
6.94935296,1.000278248942145,-154.6225642908664
6.952310784,1.0002630535249126,-154.7876766279538
6.955268096,1.0002316174100205,-154.95247091711332
6.958225408,1.0001858449267838,-155.11670729530775
6.961183232,1.0001285043811217,-155.28020245319436
6.964140544,1.0000632782463756,-155.4427998063313
6.967097856,0.9999940340905535,-155.60444524425228
6.97005568,0.9999251604300291,-155.7650976448621
6.973012992,0.9998610232751377,-155.924798660647
6.975970304,0.9998055500121336,-156.08361126061877
6.978928128,0.9997621460246495,-156.24175037724677
6.98188544,0.9997336387733996,-156.39934806412185
6.984842752,0.9997217356365172,-156.55663459321062
6.987800576,0.9997271742620776,-156.71387923748938
6.990757888,0.9997497270923964,-156.87134817482124
6.9937152,0.9997879809214305,-157.02923866774984
6.996673024,0.9998395351240469,-157.18777410282928
6.999630336,0.9999012200606444,-157.3471136030288
7.002587648,0.99996917833861,-157.5074196549587
7.005545472,1.0000392829626634,-157.66867468479518
7.008502784,1.0001069936371842,-157.83097589777546
7.011460096,1.000168283155931,-157.9941531417847
7.01441792,1.000219288636798,-158.1581851669873
7.017375232,1.00025674357759,-158.32282820481126
7.020332544,1.0002784330755872,-158.48789497664626
7.023290368,1.0002828398445098,-158.65315758029055
7.02624768,1.0002697647365617,-158.81834806561898
7.029204992,1.000240021883094,-158.98326784356973
7.032162816,1.000195381811389,-159.1476061416742
7.035120128,1.0001386949522746,-159.31125449114003
7.03807744,1.000073308571292,-159.47401331161214
7.041035264,1.000003398359612,-159.6357920650042
7.043992576,0.9999333157893321,-159.79657609128105
7.046949888,0.9998673234075697,-159.95635151321642
7.049907712,0.9998097075420721,-160.1152783930713
7.052865024,0.9997638162371442,-160.2734161351494
7.055822336,0.9997327343148914,-160.43101945640916
7.05878016,0.9997182998552288,-160.58829506642545
7.061737472,0.9997214703463159,-160.7454753341186
7.064694784,0.9997420916085369,-160.90282690583595
7.067652608,0.9997788306948405,-161.06059047955395
7.07060992,0.999829417088208,-161.21896128334373
7.073567232,0.9998909012154167,-161.37816170060074
7.076525056,0.9999591065596165,-161.53828897692355
7.079482368,1.0000301682777366,-161.69942514264525
7.08243968,1.000099410235013,-161.86155831273604
7.085397504,1.000162709791201,-162.0246702541866
7.088354816,1.00021599280214,-162.188568927547
7.09131264,1.0002560018541646,-162.35317024334844
7.094269952,1.0002802146992427,-162.5182555922578
7.097227264,1.0002870965484654,-162.68351033928795
7.100185088,1.000276255148637,-162.8488137661282
7.1031424,1.0002482187097896,-163.01377459210224
7.106099712,1.0002048993563548,-163.1782547673943
7.109057536,1.000148821495039,-163.34199223129002
7.112014848,1.0000834964679817,-163.50487076772288
7.11497216,1.0000129287033632,-163.66676797006195
7.117929984,0.9999416402874064,-163.82766018247185
7.120887296,0.9998739357409525,-163.98755101802973
7.123844608,0.9998141387569806,-164.1464877501295
7.126802432,0.9997658575181975,-164.30466288722013
7.129759744,0.9997321593179858,-164.46222024126055
7.132717056,0.9997151828098949,-164.61944961314592
7.13567488,0.9997159562500626,-164.77654694324403
7.138632192,0.99973452234188,-164.93376779144342
7.141589504,0.999769702588542,-165.09136240575907
7.144547328,0.999819269163222,-165.24957927292493
7.14750464,0.9998802150942488,-165.4086064425555
7.150461952,0.9999487747592092,-165.56852331766248
7.153419776,1.0000206780064005,-165.7294736772472
7.156377088,1.0000914272989716,-165.89145243957802
7.1593344,1.0001567084335994,-166.05441523266595
7.162292224,1.000212320549142,-166.2182062713897
7.165249536,1.0002547819229455,-166.38274189618747
7.168206848,1.0002816932368055,-166.5477803864931
7.171164672,1.0002910638615856,-166.71305984958758
