freq,mag,phase
6.0,1.0002668101246588,-115.78643836250576
6.004587008,1.0004961585828238,-116.048332643879
6.009174528,1.0006971452209632,-116.31331378598009
6.013761536,1.0008572833258236,-116.5808602113628
6.018348544,1.0009671458232543,-116.85031612109826
6.022935552,1.0010202614480816,-117.1209575411945
6.027523072,1.0010135219065117,-117.39194029908309
6.03211008,1.0009473256029946,-117.66248544646511
6.036697088,1.0008254562761294,-117.93171226588981
6.041284608,1.0006549967913783,-118.19896749915814
6.045871616,1.0004461456478126,-118.463611891149
6.050458624,1.000211054076867,-118.7251559232767
6.055045632,0.9999635715896806,-118.9834003765456
6.059633152,0.9997183666405047,-119.2381575293964
6.06422016,0.9994898165738932,-119.4896715534752
6.068807168,0.9992914964733615,-119.73820713819433
6.073394688,0.9991350823454964,-119.98431045933559
6.077981696,0.9990299192333563,-120.22858263142572
6.082568704,0.9989822121033256,-120.47181768080445
6.087155712,0.9989947659869409,-120.71484055073613
6.091743232,0.9990669152440226,-120.95848983372731
6.09633024,0.9991945053307982,-121.20356656160479
6.100917248,0.99936980206332,-121.4507849291245
6.105504768,0.9995826067157901,-121.7007723122684
6.110091776,0.9998202981422996,-121.95396933713228
6.114678784,1.0000690436166602,-122.21058326334554
6.119266304,1.0003138962010112,-122.47070892755123
6.123853312,1.000540590057622,-122.73419819463072
6.12844032,1.0007357472134444,-123.00061181352267
6.133027328,1.0008878522319922,-123.26954488230403
6.137614848,1.0009879036381435,-123.5402725119972
6.142201856,1.0010300276676944,-123.81197630989621
6.146788864,1.0010116388565147,-124.08393358435961
6.151376384,1.0009339808839965,-124.35522803056341
6.155963392,1.0008013678436716,-124.62508995019992
6.1605504,1.0006217272838924,-124.89284741390208
6.165137408,1.0004054924829673,-125.15782143147935
6.169724928,1.0001655324291743,-125.41965226725372
6.174311936,0.9999158485842354,-125.67805308291139
6.178898944,0.9996712351699014,-125.93303539644631
6.183486464,0.9994461397878812,-126.18477540170962
6.188073472,0.9992537660072974,-126.43359209038266
6.19266048,0.9991056317286087,-126.6800770818331
6.197247488,0.999010378561947,-126.92484489555602
6.201835008,0.9989738577845362,-127.16875186910204
6.206422016,0.9989980065022377,-127.41256092741166
6.211009024,0.9990815713046899,-127.65717588920975
6.215596544,0.999219694567028,-127.90337128812905
6.220183552,0.9994041569126996,-128.15186189476364
6.22477056,0.9996240466750534,-128.4031971210559
6.229357568,0.9998663706741421,-128.65785647232573
6.233945088,1.0001170390535232,-128.91593825517654
6.238532096,1.0003610503864522,-129.17756917226808
6.243119104,1.0005841048493693,-129.4424857598604
6.247706624,1.0007730382321862,-129.7102944602209
6.252293632,1.0009167921517925,-129.98046116708935
6.25688064,1.0010067203053936,-130.2523442053908
6.261467648,1.001037606338206,-130.52508923117827
6.266055168,1.0010077433336537,-130.79781837538857
6.270642176,1.0009185669345162,-131.0698144222678
6.275229184,1.000775490818377,-131.3401681448675
6.279816704,1.000586866886368,-131.60825490766692
6.284403712,1.0003638230664484,-131.87349755539648
6.28899072,1.0001194578437722,-132.1354932412197
6.293577728,0.9998680156593888,-132.39403056736225
6.298165248,0.9996244585486169,-132.64915274829846
6.302752256,0.9994032110692606,-132.90103854231728
6.307339264,0.9992172873610834,-133.15007680295446
6.311926784,0.9990776558778219,-133.39686523448506
6.316513792,0.998992647014495,-133.64209868766855
6.3211008,0.998967224095781,-133.886586069484
6.32568832,0.9990031345150104,-134.13115765214744
6.330275328,0.9990980758265676,-134.37666331736395
6.334862336,0.999246510962557,-134.62393156509623
6.339449344,0.9994397551079212,-134.87358482629259
6.344036864,0.9996663308106041,-135.12625124518138
6.348623872,0.9999129463410982,-135.382229873677
6.35321088,1.0001649675228175,-135.6417469567654
6.3577984,1.0004077287874205,-135.90477118488369
6.362385408,1.0006265588676466,-136.1710265486732
6.366972416,1.0008088965701905,-136.44015161657953
6.371559424,1.0009439340765405,-136.71149726073065
6.376146944,1.001023662326523,-136.98438769937607
6.380733952,1.0010432654656012,-137.25798027097696
6.38532096,1.0010016528640044,-137.53144498676028
6.38990848,1.0009012743344206,-137.8039858566697
6.394495488,1.0007479831056463,-138.0747633860468
6.399082496,1.0005507927786477,-138.34307870357077
6.403669504,1.0003211985122626,-138.60849993438586
6.408257024,1.0000727487236183,-138.87057804684244
6.412844032,0.9998201153223198,-139.12914603315673
6.41743104,0.9995781832026941,-139.38430813266677
6.42201856,0.9993612462267387,-139.6362433826111
6.426605568,0.9991821631041242,-139.88541496902948
6.431192576,0.9990513222770108,-140.1324644276445
6.435779584,0.9989767614436609,-140.37809325796795
6.440367104,0.9989627950473368,-140.62309307396092
6.444954112,0.9990102781824538,-140.86836072589705
6.44954112,0.9991164727465395,-141.1147184866634
6.45412864,0.9992751056950704,-141.36296141833301
6.458715648,0.9994767815771137,-141.61375418951596
6.463302656,0.9997096568883056,-141.86765447297856
6.467889664,0.9999600927399078,-142.12492648823294
6.472477184,1.0002130807507297,-142.38574461886597
6.477064192,1.0004539205025311,-142.65005603384017
6.4816512,1.0006683263690834,-142.91761121204703
6.48623872,1.000843759398376,-143.18786707763226
6.490825728,1.0009697240750448,-143.46029615768504
6.495412736,1.001038954112566,-143.73409505997068
6.499999744,1.0010470837190644,-144.00847483175332
6.504587264,1.0009939305429891,-144.2825368501374
6.509174272,1.0008824359377366,-144.55548899794803
6.51376128,1.0007191307825212,-144.82655332648991
6.5183488,1.0005135282722288,-145.09506502297194
6.522935808,1.0002778228051243,-145.36049152412448
6.527522816,1.0000258533298603,-145.62253912288136
6.532110336,0.9997725037743168,-145.88108279767556
6.536697344,0.9995325680599287,-146.1361643282892
6.541284352,0.9993204079649665,-146.38810877021487
6.54587136,0.9991483604698161,-146.63736324483747
6.55045888,0.9990267832036079,-146.88459376345074
6.555045888,0.9989628026268482,-147.13051641955477
6.559632896,0.9989603128458026,-147.37599803691148
6.564220416,0.9990194367958648,-147.62189656994502
6.568807424,0.9991367268393861,-147.86904041266845
6.573394432,0.9993051931160429,-148.11820968275018
6.57798144,0.9995150197327123,-148.37006596741855
6.58256896,0.9997538079352081,-148.62508995027898
6.587155968,1.0000074510912105,-148.88356190604102
6.591742976,1.0002610617112402,-149.1456347834823
6.596330496,1.0004995342840106,-149.41116244967677
6.600917504,1.0007089930937592,-149.67984447855883
6.605504512,1.000877035428974,-149.95120782257615
6.61009152,1.0009936961245396,-150.22456266479472
6.61467904,1.0010521156780137,-150.49915719445505
6.619266048,1.0010489218342205,-150.7741725364006
6.623853056,1.0009840409425792,-151.04871241523455
6.628440576,1.000861563455703,-151.3220380085049
6.633027584,1.0006883884676385,-151.5932460162268
6.637614592,1.0004747818717852,-151.8617767703768
6.6422016,1.0002334657169565,-152.127188412595
6.64678912,0.9999783255777941,-152.3890729707397
6.651376128,0.9997246693530593,-152.64745256977744
6.655963136,0.9994872905293026,-152.90239995800604
6.660550656,0.9992802171879451,-153.15427505134846
6.665137664,0.9991158651700579,-153.40353092509375
6.669724672,0.9990036683361051,-153.65084798736237
6.67431168,0.9989505865968948,-153.897026054973
6.6788992,0.9989596403786778,-154.14291495685947
6.683486208,0.9990303281847364,-154.38937129317384
6.688073216,0.9991586728567741,-154.6372333126537
6.692660736,0.9993368572873962,-154.887264292651
6.697247744,0.9995545334339258,-155.1401060624685
6.701834752,0.9997987780844281,-155.39616777537483
6.706422272,1.000055268558803,-155.65580123424212
6.71100928,1.000308896833518,-155.91897923072295
6.715596288,1.0005446735540202,-156.18565083372977
6.720183296,1.0007486371515586,-156.4553813971563
6.724770816,1.000908993283367,-156.72770535193357
6.729357824,1.001016048608662,-157.0018850853709
6.733944832,1.0010635762778153,-157.27717300940142
6.738532352,1.0010486906757572,-157.55271503344585
6.74311936,1.000972340730624,-157.82765007927293
6.747706368,1.0008389738242884,-158.10112401420562
6.752293376,1.0006563482089643,-158.3723954576045
6.756880896,1.0004350930352932,-158.64087484113378
6.761467904,1.0001883628315142,-158.90609668502768
6.766054912,0.9999305828580176,-159.1678084375507
6.770642432,0.999677000465814,-159.4259157911087
6.77522944,0.9994426202032228,-159.6806477296488
6.779816448,0.9992411918237882,-159.93232824821862
6.784403456,0.9990846719359908,-160.18149012565823
6.788990976,0.9989823074275733,-160.42886455158353
6.793577984,0.9989402823832675,-160.67521663100126
6.798164992,0.9989609854538107,-160.92144095262876
6.802752512,0.9990433239121636,-161.16839413872665
6.80733952,0.9991823988122878,-161.41691982339418
6.811926528,0.9993700562500852,-161.6677574034236
6.816513536,0.9995951731184503,-161.92146765859525
6.821101056,0.9998445821226282,-162.1785393975976
6.825688064,1.0001034857347388,-162.4391998998745
6.830275072,1.0003567323439833,-162.7034514455327
6.834862592,1.0005893165755477,-162.97111340388332
6.8394496,1.0007875340245445,-163.24180128806614
6.844036608,1.0009396740806664,-163.5149423900283
6.848623616,1.00103674596117,-163.78985785987754
6.853211136,1.0010731227703284,-164.06573115630746
6.857798144,1.001046599168432,-164.34167931296727
6.862385152,1.000958696349666,-164.61684482478398
6.866972672,1.0008145609447432,-164.89040043359603
6.87155968,1.0006225265279163,-165.16162844678766
6.876146688,1.0003940390777677,-165.42988949680975
6.880733696,1.0001423819711166,-165.69487216681006
6.885321216,0.9998823431336527,-165.95622076315556
6.889908224,0.9996294972490929,-166.21402852091848
6.894495232,0.9993984982991159,-166.4684258059376
6.899082752,0.9992030754086991,-166.71986955326852
6.90366976,0.9990549044863184,-166.9688644678301
6.908256768,0.9989626137927117,-167.216205979337
6.912844288,0.9989318179798504,-167.46265659041276
6.917431296,0.9989642603873703,-167.70917151256873
6.922018304,0.9990581847630665,-167.95654406522954
6.926605312,0.9992079325593689,-168.20563780573707
6.931192832,0.9994047963848924,-168.45719405597166
6.93577984,0.9996370881998661,-168.71175168652414
6.940366848,0.9998912125274829,-168.969742432173
6.944954368,1.000151997425137,-169.23134584557022
6.949541376,1.0004043616447722,-169.49654573675048
6.954128384,1.0006331875811887,-169.7651070201376
6.958715392,1.0008251754775264,-170.03665156349444
6.963302912,1.0009687897689752,-170.31055073995964
6.96788992,1.001055751405824,-170.58607852515735
6.972476928,1.001080860338927,-170.8623883071063
6.977064448,1.0010426016417813,-171.13861933243632
6.981651456,1.0009431236353075,-171.41389596715473
6.986238464,1.0007883760090417,-171.6874308882477
6.990825472,1.0005872403582097,-171.9584490513363
6.995412992,1.0003516788031737,-172.22645400129434
7.0,1.0000954895399132,-172.49103363493177
7.004587008,0.9998338757222466,-172.75198976256232
7.009174528,0.9995819897168097,-173.00933035767136
7.013761536,0.9993549942147104,-173.26334033683221
7.018348544,0.9991660372695942,-173.51441794868617
7.022935552,0.9990264718780614,-173.76317391491278
7.027523072,0.9989445307335193,-174.01041522845276
7.03211008,0.9989252444673821,-174.25692908950467
7.036697088,0.9989694883853323,-174.50365698376234
7.041284608,0.9990749108332528,-174.7513804485056
7.045871616,0.9992351824990561,-175.00098250844954
7.050458624,0.9994409512032677,-175.2531939104709
7.055045632,0.9996801700336506,-175.50849296690924
7.059633152,0.9999384976687599,-175.76732822923265
7.06422016,1.0002008898084498,-176.02978730487987
7.068807168,1.0004518259775912,-176.29585208495996
7.073394688,1.0006765571510208,-176.565248770035
7.077981696,1.0008618095705164,-176.83753222582317
7.082568704,1.0009966237461148,-177.112059519574
7.087155712,1.0010731563341453,-177.38806496671108
7.091743232,1.0010866362905926,-177.6647183149855
7.09633024,1.0010365236159275,-177.94112301044495
7.100917248,1.0009256538103062,-178.21640212411472
7.105504768,1.0007603334098105,-178.48976574777137
7.110091776,1.000550370520744,-178.76053290131293
7.114678784,1.000308298500232,-179.02810418339692
7.119266304,1.0000479376691713,-179.29218586714964
7.123853312,0.9997848471141881,-179.55261887233326
7.12844032,0.9995347108637391,-179.8094446905484
7.133027328,0.9993119907400987,179.93704674399112
7.137614848,0.9991299569120444,179.6863900127256
7.142201856,0.9989994462260718,179.43792125974568
7.146788864,0.9989281350007102,179.19087800236431
7.151376384,0.9989203990439613,178.94438341718873
7.155963392,0.998976656366428,178.69755175941006
7.1605504,0.9990934223471897,178.4495017336205
7.165137408,0.9992642818493044,178.19942941266055
7.169724928,0.9994786918261194,177.94666648302692
7.174311936,0.9997243218706711,177.69067205689856
7.178898944,0.9999865241899525,177.43111504403134
7.183486464,1.000249939810777,177.16785230762827
7.188073472,1.0004991116534596,176.9010193778266
7.19266048,1.0007191723956939,176.63088592814975
7.197247488,1.0008972621017336,176.3579765191376
7.201835008,1.0010229538287554,176.08292194977588
7.206422016,1.0010886270079111,175.8065501345402
7.211009024,1.0010905088873006,175.52967486290692
7.215596544,1.0010283887121982,175.25321721788015
7.220183552,1.0009061041842497,174.9780589527569
7.22477056,1.0007304989179342,174.7049647600561
7.229357568,1.0005119546360541,174.434622535421
7.233945088,1.0002634448941201,174.16756240540485
7.238532096,0.9999995322276537,173.90406156805236
7.243119104,0.9997356561985109,173.64425957151627
7.247706624,0.9994874323253792,173.3880604414526
7.252293632,0.9992695265596769,173.1351417236092
7.25688064,0.9990949792236392,172.88497247990293
7.261467648,0.9989738375122211,172.6368922407336
7.266055168,0.9989135451014772,172.3900890422111
7.270642176,0.998917549321838,172.14367285793907
7.275229184,0.9989857277586066,171.89677740957865
7.279816704,0.999114121042348,171.6484926331382
7.284403712,0.9992951436195228,171.39803910282183
7.28899072,0.9995179764577945,171.14473548502514
7.293577728,0.999769743001338,170.8881446427293
7.298165248,1.0000353758481215,170.62789605467106
7.302752256,1.0002995021602743,170.36393555847317
7.307339264,1.0005462735787138,170.09643857046223
7.311926784,1.0007612434702562,169.82566157974836
7.316513792,1.0009318009730281,169.5522104533989
7.3211008,1.0010478822497761,169.2767445219021
7.32568832,1.0011024695592905,169.00011035071756
7.330275328,1.001092529427094,168.72313973671888
7.334862336,1.0010184051109672,168.44675845533024
7.339449344,1.0008846850596387,168.17182655427507
7.344036864,1.000698887546124,167.89911353147386
7.348623872,1.0004721007168569,167.62927446416057
7.35321088,1.000217521172056,167.362852117174
7.3577984,0.9999504252880209,167.10004024163626
7.362385408,0.9996860474442004,166.84100159863127
7.366972416,0.9994404360821616,166.58550380551569
7.371559424,0.9992278855284229,166.33324366882528
7.376146944,0.9990611186531174,166.08363793721574
7.380733952,0.9989497285412411,165.8360312206589
7.38532096,0.9989006263825654,165.58950144315185
7.38990848,0.99891661543226,165.34327201162884
7.394495488,0.9989970086086315,165.096349424428
7.399082496,0.99913670919618,164.84786245551516
7.403669504,0.9993278206770914,164.5970989857275
7.408257024,0.999558845104474,164.3433636553328
7.412844032,0.9998162718953628,164.08620163416316
7.41743104,1.0000850717447096,163.8253535129357
7.42201856,1.0003492372390803,163.56078962672944
7.426605568,1.0005932191404805,163.2926770967407
7.431192576,1.0008026603148745,163.0213546726191
7.435779584,1.0009651394304422,162.74749302954461
7.440367104,1.001071230221616,162.47171991878193
7.444954112,1.0011144448768337,162.194915330525
7.44954112,1.0010925263852706,161.91795871115613
7.45412864,1.0010064278287358,161.64175936241102
7.458715648,1.0008611821489415,161.36716526489835
7.463302656,1.00066542206489,161.09497018851977
7.467889664,1.000430649906571,160.82577382018044
7.472477184,1.000170541623372,160.56005125551576
7.477064192,0.9999004416083216,160.298053360491
7.4816512,0.9996363238941149,160.03981738140317
7.48623872,0.9993936888619083,159.7851053638061
7.490825728,0.99918693098045,159.53359475209433
7.495412736,0.9990282767043002,159.28464620110202
7.500000256,0.9989270995554822,159.03753534536372
7.504587264,0.9988895971450251,158.79139736629023
7.509174272,0.9989177272558845,158.54535794635288
7.51376128,0.9990101277671855,158.29846103747272
7.5183488,0.9991612424790353,158.0498856481289
7.522935808,0.9993621891122338,157.7988755202511
7.527522816,0.9996011928725327,157.54473466218832
7.532110336,0.9998640324483646,157.28710490539632
7.536697344,1.0001354163856788,157.02571472105646
7.541284352,1.0003991422157439,156.76061963848596
7.54587136,1.0006399239636303,156.49198454161535
7.55045888,1.0008432058458219,156.22023736540493
7.555045888,1.0009973359929212,155.94601022725487
7.559632896,1.0010929409367004,155.67002833643537
7.564220416,1.0011247395100007,155.39319214956598
7.568807424,1.0010904592558176,155.11634255990623
7.573394432,1.0009921297685005,154.84043190442407
7.57798144,1.0008356626598718,154.56629761371968
7.58256896,1.0006301310326513,154.29472072151978
7.587155968,1.0003875579046462,154.02627192016817
7.591742976,1.0001221897557449,153.76137221315224
7.596330496,0.9998497514083876,153.50026653114185
7.600917504,0.9995862086745323,153.24293919986297
7.605504512,0.9993471287308666,152.9891145599448
7.61009152,0.9991466748904001,152.73838629787693
7.61467904,0.9989966928391637,152.4901805606097
7.619266048,0.9989061503678643,152.24362963767553
7.623853056,0.9988803698975431,151.9979540474482
7.628440576,0.9989208235566778,151.75216586999937
7.633027584,0.9990254029169084,151.50537382936324
7.637614592,0.9991878065272425,151.25672596718408
7.6422016,0.9993985546023321,151.00546071714078
7.64678912,0.9996451152934014,150.75100578770358
7.651376128,0.9999130554782315,150.49296825683675
7.655963136,1.0001864170080317,150.23111449967416
7.660550656,1.0004493851907765,149.9655232466031
7.665137664,1.0006861875423996,149.69646702117976
7.669724672,1.0008830288169315,149.42437670215392
7.67431168,1.0010282034141071,149.14988583394683
7.6788992,1.0011132406566692,148.8738083618649
7.683486208,1.0011329726112779,148.59700475626127
7.688073216,1.001086223398411,148.32039238925378
7.692660736,1.0009758389258496,148.04490155949355
7.697247744,1.0008081369652189,147.77133305300927
7.701834752,1.000592887246776,147.50046580539558
7.706422272,1.0003428068821565,147.23285599862473
7.71100928,1.0000727126175424,146.9688992530139
7.715596288,0.9997982951692225,146.70875958358013
7.720183296,0.9995358229038311,146.45241626490994
7.724770816,0.9993008829212583,146.19955081254102
7.729357824,0.999107252820417,145.94973628476478
7.733944832,0.9989663237955667,145.7022861969699
7.738532352,0.9988867160077368,145.45638168494676
7.74311936,0.9988730034103419,145.2111653217233
7.747706368,0.9989261031840501,144.96570565273007
7.752293376,0.9990429415464164,144.7190580115754
7.756880896,0.9992165585068457,144.47038159980022
7.761467904,0.9994368194476744,144.2189572553362
7.766054912,0.9996906450780952,143.96422002360518
7.770642432,0.9999632180124063,143.7058122961726
7.77522944,1.0002383440230924,143.44356972211855
7.779816448,1.0004998188112135,143.17760170873572
7.784403456,1.0007323240908466,142.90816297093477
7.788990976,1.0009220935786824,142.6357847311991
7.793577984,1.0010578689942369,142.36115154991808
7.798164992,1.0011317533963804,142.08504223706052
7.802752512,1.0011393039851368,141.80840190060132
7.80733952,1.0010800208331658,141.5321202960347
7.811926528,1.0009573570639114,141.25712066594244
7.816513536,1.000778376932903,140.9842320829956
7.821101056,1.0005538674882468,140.7141848538651
7.825688064,1.0002966305123597,140.44750171482278
7.830275072,1.0000219950903142,140.18457813762612
