freq,mag,phase
6.0,0.9996637311448348,95.24930461036946
6.002285568,0.9997727984842883,95.08010960875977
6.004571648,0.9998976492847232,94.90920247238701
6.006857216,1.0000287680045838,94.73648230935608
6.009142784,1.0001578370658104,94.5618680417195
6.011428352,1.0002768882383763,94.38547331876556
6.013714432,1.0003783724413249,94.20751617638285
6.016,1.0004558551188623,94.02827740680492
6.018285568,1.0005043815273744,93.84812354215052
6.020571648,1.0005211247619108,93.66752284260214
6.022857216,1.000504705081801,93.48694039569801
6.025142784,1.000456381297261,93.30683674102315
6.027428352,1.0003791514963014,93.12766492389355
6.029714432,1.0002777976006296,92.94978556084726
6.032,1.000158721182258,92.77352499847733
6.034285568,1.0000293356883043,92.59907323583603
6.036571648,0.9998978474525144,92.42654020577902
6.038857216,0.9997726221678219,92.25586952971729
6.041142784,0.9996613867115419,92.086920714806
6.043428352,0.9995712556172507,91.9194763248864
6.045714432,0.9995079175034296,91.75313319239632
6.048,0.9994753711474373,91.587522542459
6.050285568,0.9994756111219979,91.42215493369046
6.052571648,0.9995087767264941,91.25657340157517
6.054857216,0.9995726484942835,91.09029618484202
6.057142784,0.9996632166647667,90.92290361789671
6.059428352,0.9997749758737527,90.7540860155651
6.061714432,0.999900642612352,90.58354674209862
6.064,1.0000324234344713,90.41115053706467
6.066285568,1.0001619715547563,90.23690023229028
6.068571648,1.0002811826032367,90.06084030325326
6.070857216,1.0003825945873495,89.88320256004637
6.073142784,1.00045976289264,89.70429593550014
6.075428352,1.0005077184657922,89.52447748893758
6.077714432,1.000523652347798,89.34423251729368
6.08,1.000506329945936,89.16399202311952
6.082285568,1.0004570159757034,88.98427359562605
6.084571648,1.0003788107349871,88.80547737851913
6.086857216,1.0002762729319548,88.62801347867678
6.089142784,1.000156260619582,88.45216184665621
6.091428352,1.0000260839896022,88.27814189895379
6.093714432,0.999894110252276,88.10602603439719
6.096,0.9997685127092181,87.93580154258994
6.098285568,0.9996572113750806,87.76731599036643
6.100571648,0.9995672267293536,87.60031255716642
6.102857216,0.9995043672600896,87.43440443584642
6.105142784,0.9994725343875549,87.26923062466814
6.107428352,0.9994736826520438,87.10428857131318
6.109714432,0.9995077551760984,86.93910365245662
6.112,0.9995726917181822,86.77321248605067
6.114285568,0.9996643855496503,86.60620101175195
6.116571648,0.9997771333801111,86.43771793686724
6.118857216,0.999903666474463,86.26753790652256
6.121142784,1.0000361127258508,86.09547810471778
6.123428352,1.0001662485530858,85.92152273224033
6.125714432,1.0002856641030549,85.74579913636259
6.128,1.0003869882613754,85.56848243999129
6.130285568,1.000463712298647,85.38986878901734
6.132571648,1.0005111530456223,85.21038896213675
6.134857216,1.000526197275455,85.03047704959347
6.137142784,1.000507978968562,84.85059651122604
6.139428352,1.0004576049950529,84.67122167911805
6.141714432,1.0003781853056786,84.49278460454735
6.144,1.0002747168328106,84.31571657833103
6.146285568,1.0001536395289459,84.14026407646277
6.148571648,1.0000227257620355,83.96667526151099
6.150857216,0.9998901687852905,83.79498710021106
6.153142784,0.9997641959603129,83.62519148221396
6.155428352,0.9996528942619451,83.45711864228247
6.157714432,0.9995631715750476,83.29055380777281
6.16,0.9995007079885825,83.125093286031
6.162285568,0.9994695883983317,82.96030784327354
6.164571648,0.9994715783414034,82.79577273261543
6.166857216,0.9995068105210628,82.63097407277456
6.169142784,0.9995728725895258,82.46545218819666
6.171428352,0.9996656493457206,82.29881957327862
6.173714432,0.9997793761093818,82.13068030723709
6.176,0.9999068496137461,81.96081315730245
6.178285568,1.0000400373674503,81.78907808699618
6.180571648,1.0001705264160383,81.61542017590673
6.182857216,1.000290159859072,81.43998522893007
6.185142784,1.0003913964026805,81.26296535446369
6.187428352,1.0004678365255522,81.08466643744632
6.189714432,1.0005146723347054,80.90548757997327
6.192,1.0005288763479143,80.72588913672749
6.194285568,1.0005095799726207,80.54632037668267
6.196571648,1.0004581089596636,80.36729204339508
6.198857216,1.0003775788516478,80.18922658179883
6.201142784,1.0002729430000732,80.01253117129848
6.203428352,1.00015108373074,79.83747543526492
6.205714432,1.0000193097395345,79.66425853991822
6.208,0.9998860686595997,79.49298293770967
6.210285568,0.9997597962803965,79.32362592378243
6.212571648,0.9996484436053312,79.15597296438409
6.214857216,0.9995590497451985,78.98981100830513
6.217142784,0.9994970561292442,78.82475617617806
6.219428352,0.9994665960169057,78.66039024829671
6.221714432,0.9994696154514305,78.49623532923579
6.224,0.9995059074429525,78.33181430702065
6.226285568,0.9995729831062053,78.16665114225606
6.228571648,0.999667015163297,78.00034343976812
6.230857216,0.9997817524661751,77.8325210781495
6.233142784,0.9999101044480725,77.66297072021757
6.235428352,1.000044036297326,77.491525640353
6.237714432,1.0001750533445875,77.31817175960369
6.24,1.0002948493887869,77.14301220413559
6.242285568,1.0003959745794189,76.96627564954898
6.244571648,1.0004719188677373,76.78825802659938
6.246857216,1.0005182190893616,76.60937639432358
6.249142784,1.0005315848980552,76.43006440010001
6.251428352,1.0005113238009098,76.25081197539674
6.253714432,1.0004586868819172,76.0721025216185
6.256,1.0003769184182196,75.89439001460622
6.258285568,1.0002712519464272,75.71803468775292
6.260571648,1.0001483230833457,75.54335924145174
6.262857216,1.000015779471401,75.37053551272646
6.265142784,0.9998819304160658,75.1996702223228
6.267428352,0.9997553099461174,75.03067816812319
6.269714432,0.9996439224304016,74.86343954844402
6.272,0.9995546650297144,74.69768920066835
6.274285568,0.9994932766955963,74.53303363744799
6.276571648,0.9994636742783538,74.36904177659922
6.278857216,0.9994676263963412,74.20526113765136
6.281142784,0.9995048732792324,74.04118074309422
6.283428352,0.9995732487356715,73.8763682847896
6.285714432,0.9996683675210296,73.71038006833435
6.288,0.999784206994675,73.54288832944498
6.290285568,0.9999135137432732,73.37359632538512
6.292571648,1.0000481391530822,73.20243216611739
6.294857216,1.0001795120344688,73.02934282614476
6.297142784,1.0002996521564083,72.8544634493457
6.299428352,1.0004005379864078,72.67796060058497
6.301714432,1.000476243032855,72.50022118874269
6.304,1.0005217700120599,72.32160299238328
6.306285568,1.00053423261782,72.14258277930186
6.308571648,1.0005129206059082,71.96364170723125
6.310857216,1.0004591266831855,71.7852426815709
6.313142784,1.0003762178985165,71.60784259031124
6.315428352,1.0002694996238672,71.43183220890259
6.317714432,1.000145409681084,71.257496688798
6.32,1.0000120045317478,71.08505613601308
6.322285568,0.9998776804510572,70.91455803534365
6.324571648,0.9997506963622746,70.74597355842863
6.326857216,0.9996392268650472,70.57912001985675
6.329142784,0.9995503228134297,70.41375281804059
6.331428352,0.9994894807413338,70.24945355307777
6.333714432,0.9994606240748755,70.08584909254668
6.336,0.9994655720706852,69.92242300870159
6.338285568,0.9995040111160683,69.75868194800574
6.340571648,0.9995735711464231,69.59419038123667
6.342857216,0.9996698541064897,69.4285042173154
6.345142784,0.9997867804356517,69.26127159246612
6.347428352,0.9999169611176731,69.09229668952715
6.349714432,1.0000523369405885,68.92135212602632
6.352,1.0001842582118055,68.74853520689167
6.354285568,1.0003044168120847,68.57387546396824
6.356571648,1.000405279221076,68.39762699985565
6.358857216,1.000480499747215,68.22013645380828
6.361142784,1.0005253953242428,68.04176359119796
6.363428352,1.0005369484235511,67.86301754642047
6.365714432,1.000514530616103,67.68433476739602
6.368,1.0004596019997694,67.50623263196798
6.370285568,1.000375492922391,67.32913478395866
6.372571648,1.0002675573949174,67.15346119987794
6.374857216,1.000142482496699,66.97947034421387
6.377142784,1.0000081848365858,66.80737549314752
6.379428352,0.9998732307298438,66.63724355905701
6.381714432,0.9997459533169277,66.46902269441952
6.384,0.9996344718414506,66.3025434282975
6.386285568,0.9995458928972658,66.13753276239592
6.388571648,0.9994856099454092,65.97360586435552
6.390857216,0.999457543364827,65.81033751709083
6.393142784,0.9994635453783565,65.64725465116369
6.395428352,0.9995030758673975,65.48385226695181
6.397714432,0.9995739366107376,65.319648333466
6.4,0.9996713658468211,65.15424521483587
6.402285568,0.9997894729838648,64.98730237578874
6.404571648,0.9999206543130376,64.81854075778051
6.406857216,1.000056692364937,64.64786968899791
6.409142784,1.0001890531956843,64.47525742635156
6.411428352,1.000309442721755,64.30082790266387
6.413714432,1.0004102211324186,64.12481456316918
6.416,1.0004849667442761,63.9475299495484
6.418285568,1.0005290818409842,63.76939399635959
6.420571648,1.0005397458293621,63.59088380445429
6.422857216,1.0005162186405063,63.412468222871546
6.425142784,1.0004600270383754,63.234641999905634
6.427428352,1.000374660576832,63.05784850481612
6.429714432,1.000265509082221,62.88246782735628
6.432,1.000139486708547,62.708795312373546
6.434285568,1.0000043256515156,62.537034546225186
6.436571648,0.9998687113972752,62.36724915501793
6.438857216,0.9997412515704682,62.1993697067655
6.441142784,0.9996296572513672,62.033256393468285
6.443428352,0.9995412886544642,61.868598046193995
6.445714432,0.999481647633396,61.705019072412554
6.448,0.9994544365927802,61.542094797439574
6.450285568,0.999461517787691,61.379326997365375
6.452571648,0.9995022712000827,61.21621138677844
6.454857216,0.9995742900055065,61.05229090000331
6.457142784,0.9996730367643757,60.88715346350309
6.459428352,0.9997921389723355,60.72044791698406
6.461714432,0.999924370312955,60.551934234578695
6.464,1.0000611497571492,60.38147506960479
6.466285568,1.0001940159317702,60.20905604231359
6.468571648,1.000314547116935,60.0348313029364
6.470857216,1.000415120113153,59.85900993551144
6.473142784,1.0004894413806793,59.68193814291921
6.475428352,1.0005328533718412,59.504012968024014
6.477714432,1.0005424856967076,59.32572123097047
6.48,1.0005178858903605,59.14755836662522
6.482285568,1.0004604351517603,58.969966939006014
6.484571648,1.0003738453915862,58.793450984609706
6.486857216,1.0002635277137288,58.61836076464159
6.489142784,1.0001363403488681,58.445000100812585
6.491428352,1.0000003320938937,58.2735617933784
6.493714432,0.9998642290898098,58.10410103623847
6.496,0.9997362772647345,57.93656139936773
6.498285568,0.9996247571830008,57.77078770396945
6.500571648,0.9995367227145056,57.60645074556074
6.502857216,0.9994776653772504,57.44319441956572
6.505142784,0.9994513731846173,57.28058432645231
6.507428352,0.9994594372433588,57.118107789815866
6.509714432,0.999501407640714,56.95527918856077
6.512,0.9995747199613322,56.79163181420211
6.514285568,0.9996747096335272,56.626733286548514
6.516571648,0.9997950205015175,56.46024063610644
6.518857216,0.9999282115674245,56.29193103317549
6.521142784,1.0000657455996098,56.12166849353863
6.523428352,1.0001990535523972,55.9494447880554
6.525714432,1.000319693883217,55.77541144576396
6.528,1.000420125198005,55.59977508854187
6.530285568,1.000494019952748,55.42286088015461
6.532571648,1.0005365993312871,55.24514895846703
6.534857216,1.0005453224611949,55.067042893035534
6.537142784,1.0005195119706851,54.88909382729119
6.539428352,1.0004608488259144,54.71175222083665
6.541714432,1.0003730075658557,54.53548405522096
6.544,1.000261400292173,54.36066993652742
6.546285568,1.0001331610319522,54.18759236515845
6.548571648,0.9999963194281402,54.016452269713824
6.550857216,0.9998595241068851,53.84730631646243
6.553142784,0.9997313695820134,53.68008808604218
6.555428352,0.9996198093554196,53.514615542050606
6.557714432,0.9995321016926791,53.350590997184725
6.56,0.9994736708036757,53.18766129310471
6.562285568,0.9994482178805526,53.02533495497627
6.564571648,0.9994574325934662,52.8631297339021
6.566857216,0.9995006203148187,52.70057639426906
6.569142784,0.9995752682494579,52.537168713931784
6.571428352,0.9996765008157932,52.37249289499585
6.573714432,0.9997980248533997,52.20622104788872
6.576,0.9999321515284173,52.0380901639629
6.578285568,1.000070384249707,51.86800607733021
6.580571648,1.0002041637732382,51.695930233283086
6.582857216,1.000324993399007,51.52205587364912
6.585142784,1.0004252136685823,51.346562014463736
6.587428352,1.0004985784809899,51.16985088271047
6.589714432,1.0005404435516263,50.9922927446823
6.592,1.0005481216883734,50.81437580534828
6.594285568,1.0005210608602877,50.63663413967043
6.596571648,1.0004611321141084,50.459500258806465
6.598857216,1.0003719366728498,50.283463982270625
6.601142784,1.000259185908485,50.10889276202926
6.603428352,1.000129877394296,49.93608142821913
6.605714432,0.9999921342245752,49.76524442907659
6.608,0.9998546053055022,49.596374145922425
6.610285568,0.9997261572036039,49.42943891874665
6.612571648,0.9996147280154197,49.264276533649344
6.614857216,0.9995272671478417,49.100552445406954
6.617142784,0.9994695527071735,48.93788805845385
6.619428352,0.9994450018297022,48.77584491609657
6.621714432,0.9994553578807867,48.6139203996401
6.624,0.9994998160065651,48.45158345348736
6.626285568,0.999575785048655,48.28839358530913
6.628571648,0.9996782874496052,48.12392387086266
6.630857216,0.999801032587159,47.95782840234285
6.633142784,0.9999361214644643,47.78986365035321
6.635428352,1.0000752467838645,47.61994173636407
6.637714432,1.0002094823878078,47.4480142361845
6.64,1.0003304272043347,47.27427658455907
6.642285568,1.0004304561348298,47.09893808715837
6.644571648,1.000503284954128,46.922332498769
6.646857216,1.0005443229671689,46.74493536764151
6.649142784,1.0005509277598534,46.567188883417614
6.651428352,1.0005227476645695,46.389597475723384
6.653714432,1.000461432006609,46.21267727336992
6.656,1.0003709351378895,46.03686120270661
6.658285568,1.0002568696778789,45.862516213693816
6.660571648,1.0001264467997097,45.68996897477819
6.662857216,0.9999878753986264,45.519357814604014
6.665142784,0.9998497542065821,45.3507785084452
6.667428352,0.9997209063971516,45.1841202039551
6.669714432,0.9996095486751087,45.01923685478036
6.672,0.9995225066538372,44.85577973117415
6.674285568,0.999465414883558,44.69339428857807
6.676571648,0.9994418492868409,44.531600380932254
6.678857216,0.999453379726007,44.36989456018984
6.681142784,0.9994991436064781,44.207791724527596
6.683428352,0.9995763488436593,44.04481892208165
6.685714432,0.9996802271656271,43.88052107570422
6.688,0.9998041111507998,43.71457788470471
6.690285568,0.9999402182012174,43.54676708055134
6.692571648,1.000080054938833,43.37694951322214
6.694857216,1.0002148080828117,43.20516326824164
6.697142784,1.0003358552545103,43.0315372259982
6.699428352,1.0004356630966695,42.8562978248025
6.701714432,1.0005079609170728,42.67984280059742
6.704,1.0005482239055812,42.50254304827144
6.706285568,1.0005537980724732,42.32495962379857
6.708571648,1.0005242843492788,42.147537489512075
6.710857216,1.000461670568729,41.97077239431771
6.713142784,1.000369825449245,41.79515600605316
6.715428352,1.000254496902928,41.62101810275406
6.717714432,1.0001229218574539,41.448696006626676
6.72,0.9999834675318261,41.27833124301247
6.722285568,0.9998446889260642,41.109997128892765
6.724571648,0.9997156232419969,40.94361267406184
6.726857216,0.9996042155689497,40.7789819145345
6.729142784,0.9995176062838332,40.61578909532199
6.731428352,0.9994611943953641,40.4536540721204
6.733714432,0.9994385923879856,40.292084523300666
6.736,0.9994512776965038,40.13061337675023
6.738285568,0.9994983599822206,39.96869661472404
6.740571648,0.9995769897846293,39.8058930503855
6.742857216,0.9996821255819598,39.64175734732993
6.745142784,0.9998072806188096,39.47594916337097
6.747428352,0.9999444687583493,39.30827294313102
6.749714432,1.0000850631517655,39.13855548577522
6.752,1.000220184185287,38.9668685239153
6.754285568,1.0003414276713947,38.79333396760469
6.756571648,1.000441007808397,38.618173719660255
6.758857216,1.0005127649101015,38.441806777806114
6.761142784,1.0005521240617508,38.264658694305226
6.763428352,1.0005566137313153,38.08715699003766
6.765714432,1.0005258497793241,37.90987657861735
6.768,1.0004619037955174,37.73328203864515
6.770285568,1.0003686171015935,37.55783903618399
6.772571648,1.00025201218386,37.383894958351085
6.774857216,1.0001192967028782,37.21175562211899
6.777142784,0.9999788614130387,37.04162273398363
6.779428352,0.9998395939814918,36.873523008769
6.781714432,0.9997102302819544,36.70738062568758
6.784,0.9995988362253132,36.54298047171273
6.786285568,0.9995125949684063,36.38002875630826
6.788571648,0.9994568329515855,36.218109152694296
6.790857216,0.9994352780075295,36.056768927901025
6.793142784,0.9994491571606164,35.895492223807715
6.795428352,0.9994975618388618,35.73375529418529
6.797714432,0.9995776865254361,35.571090838473026
6.8,0.9996841778212918,35.40709996072538
6.802285568,0.9998105966100892,35.24142788628341
6.804571648,0.999948804260658,35.073820683718445
6.806857216,1.0000901807316247,34.90421971793224
6.809142784,1.0002258024772392,34.73259399525064
6.811428352,1.0003471283041057,34.55912375320008
6.813714432,1.0004464754998628,34.38406378317676
6.816,1.0005176761592824,34.2077465465766
6.818285568,1.0005561459157644,34.03067053868732
6.820571648,1.0005595210154903,33.853290541520025
6.822857216,1.0005274865555671,33.67610876671489
6.825142784,1.0004621126648954,33.4996390822314
6.827428352,1.0003674972944159,33.324328723836295
6.829714432,1.000249501442482,33.15057899757859
6.832,1.0001156550632782,32.97863692426264
6.834285568,0.9999742458477551,32.80870087385088
6.836571648,0.9998343371192324,32.64080737658995
6.838857216,0.9997046541742807,32.474873697527244
6.841142784,0.9995933950653382,32.310709325220365
6.843428352,0.9995075481734985,32.1479763206422
6.845714432,0.9994526180257973,31.98627583752092
6.848,0.9994320038258387,31.825101150663478
6.850285568,0.9994471100129867,31.663993616184058
6.852571648,0.9994968458312704,31.502430100364098
6.854857216,0.9995782750669399,31.339907008760186
6.857142784,0.9996862081950366,31.17601279505486
6.859428352,0.9998138863278208,31.010433688172327
6.861714432,0.9999531129205347,30.842907204972267
6.864,1.0000952721346483,30.673360470729264
6.866285568,1.0002313667232765,30.501803600902754
6.868571648,1.000352824904754,30.32837649762003
6.870857216,1.0004520435028261,30.153365250847987
6.873142784,1.0005225327915492,29.977111964541834
6.875428352,1.0005601645841447,29.800080424527902
6.877714432,1.0005624232503387,29.622779431087515
6.88,1.000529078769274,29.445695188940565
6.882285568,1.0004622676054276,29.269336137519183
6.884571648,1.000366205755507,29.09416414178147
6.886857216,1.0002469557657538,28.920549668368157
6.889142784,1.0001118588251796,28.748782356338978
6.891428352,0.9999696109939958,28.579027620301247
6.893714432,0.9998290460449921,28.411331452291467
6.896,0.9996990828078746,28.245611266668917
6.898285568,0.9995878641252646,28.081624975136847
6.900571648,0.9995024579872303,27.919086744926144
6.902857216,0.9994482292475716,27.757559792745816
6.905142784,0.999428634035543,27.59657596533235
6.907428352,0.9994450228351982,27.435619171108137
6.909714432,0.9994961748367569,27.274197506806438
6.912,0.9995789906921495,27.11179203119682
6.914285568,0.9996883542704165,26.947974584266802
6.916571648,0.9998171957011374,26.78246874037102
6.918857216,0.99995757180342,26.61500136082459
6.921142784,1.000100485955546,26.445495663453016
6.923428352,1.0002370072769622,26.273958880022832
6.925714432,1.0003585978102356,26.100553983052322
6.928,1.0004574367353227,25.925564888130353
6.930285568,1.0005275062595067,25.74934136121376
6.932571648,1.000564102015358,25.57235508269233
6.934857216,1.0005651789576258,25.395104793407565
6.937142784,1.0005305526581185,25.218094873780334
6.939428352,1.0004622971966688,25.041837823448834
6.941714432,1.0003648286964124,24.86676955385319
6.944,1.0002442146291266,24.693285370199202
6.946285568,1.0001079631418228,24.52167223486028
6.948571648,0.9999647608503626,24.35208939846257
