freq,mag,phase
6.0,1.0003581266931254,-4.282884205381152
6.013605376,1.0002312319839965,-4.7330152601631745
6.027210752,1.0000933359091768,-5.181699699353763
6.040816128,0.9999506970667806,-5.628864090881413
6.054422016,0.999809973230066,-6.074469403396109
6.068027392,0.9996778808525945,-6.518596409291252
6.081632768,0.9995601800305197,-6.961323886434049
6.095238144,0.9994626543113685,-7.402976412658035
6.10884352,0.9993896641650741,-7.8437530502054225
6.122448896,0.9993448340745734,-8.283985823941999
6.136054272,0.999330334241216,-8.724064281208697
6.149659648,0.9993467641782873,-9.164318661871372
6.163265536,0.9993934553617984,-9.605200409949102
6.176870912,0.9994683670089872,-10.047048332204746
6.190476288,0.9995683975561802,-10.490136404747101
6.204081664,0.9996884557560544,-10.934827908046897
6.21768704,0.9998235576459074,-11.381294267399987
6.231292416,0.9999670828245195,-11.829690727203722
6.244897792,1.0001127877734741,-12.28008342456689
6.258503168,1.000253732856724,-12.732503026131221
6.272109056,1.0003834273758945,-13.186799291224892
6.285714432,1.0004957580572122,-13.642784427161523
6.299319808,1.0005857166407393,-14.10023717506205
6.312925184,1.0006487815227696,-14.55891958359201
6.32653056,1.0006823519601198,-15.018398014831087
6.340135936,1.0006844266906123,-15.478331733857392
6.353741312,1.00065511565776,-15.938339171842836
6.367346688,1.000595453848853,-16.397985522934032
6.380952576,1.0005081781206795,-16.85696940215309
6.394557952,1.0003972272197417,-17.315009412651968
6.408163328,1.0002676482519506,-17.77173202442513
6.421768704,1.000125297238946,-18.227020224168466
6.43537408,0.9999768882330252,-18.680743801597146
6.448979456,0.99982913582403,-19.132824967747602
6.462584832,0.9996888101810926,-19.58333239188485
6.47619072,0.9995624545514163,-20.03246021699839
6.489796096,0.9994560812335038,-20.480351160537957
6.503401472,0.9993746365524433,-20.927242435948926
6.517006848,0.9993217389769727,-21.373532542180893
6.530612224,0.9993000778066442,-21.819586341459072
6.5442176,0.9993108044899072,-22.26580831554616
6.557822976,0.9993535256551411,-22.7125172944448
6.571428352,0.9994262314463422,-23.16020873967518
6.58503424,0.9995258119636377,-23.60914947893147
6.598639616,0.9996476017655429,-24.059685659894757
6.612244992,0.9997860452335892,-24.51210086206993
6.625850368,0.9999349430596367,-24.96645997241868
6.639455744,1.0000873331469102,-25.42293345092322
6.65306112,1.000236221076979,-25.881509471293604
6.666666496,1.0003747620585035,-26.342092204600124
6.680271872,1.0004964769363525,-26.804503146967743
6.69387776,1.0005958694363801,-27.26854860608509
6.707483136,1.0006679278128123,-27.733862241130257
6.721088512,1.0007095907916355,-28.200131851285885
6.734693888,1.0007184850933004,-28.666987280371828
6.748299264,1.000694657934845,-29.133984792922043
6.76190464,1.0006386538802579,-29.600716768780636
6.775510016,1.0005530241114267,-30.066861487709758
6.789115392,1.000441710521674,-30.532004799123143
6.80272128,1.0003096994708205,-30.995941023966026
6.816326656,1.0001630739574459,-31.458353561293265
6.829932032,1.0000084288667679,-31.919146256681756
6.843537408,0.999852889791341,-32.378257258450354
6.857142784,0.99970387219616,-32.83574101962552
6.87074816,0.9995679068215555,-33.291663989501686
6.884353536,0.9994515814903933,-33.74628489449701
6.897959424,0.9993601863510652,-34.199819553734905
6.9115648,0.9992980432764549,-34.6526417820197
6.925170176,0.9992682109651535,-35.105109929347215
6.938775552,0.9992721514925164,-35.557667229696406
6.952380928,0.9993096031212073,-36.01069700743394
6.965986304,0.9993791969183097,-36.46461791579272
6.97959168,0.9994776944389977,-36.91982645837024
6.993197056,0.9996005561840121,-37.376615724393076
7.006802944,0.9997425792610771,-37.83528115802641
7.02040832,0.999896691268478,-38.29600717455131
7.034013696,1.0000562937921653,-38.75895748010607
7.047619072,1.000213793268305,-39.22406444064036
7.061224448,1.000362093852171,-39.69133892188598
7.074829824,1.000494251636868,-40.16059354456396
7.0884352,1.000604176011474,-40.63163030460353
7.102040576,1.0006864960441577,-41.10409052830177
7.115646464,1.0007376139982647,-41.577621562073844
7.12925184,1.0007550035263286,-42.05185330372361
7.142857216,1.000737749285916,-42.526329079080696
7.156462592,1.0006864569054514,-43.000680070390985
7.170067968,1.0006035281491825,-43.47443568113318
7.183673344,1.0004925018121038,-43.94726930728587
7.19727872,1.0003584333243434,-44.41887955567261
7.210884608,1.0002074533933947,-44.888964632699526
7.224489984,1.0000464118668042,-45.357391197676996
7.23809536,0.9998826713232974,-45.82404558336435
7.251700736,0.9997239698283931,-46.288970553650195
7.265306112,0.9995773440779507,-46.75226274374106
7.278911488,0.9994498592584214,-47.2140922852127
7.292516864,0.9993471845258614,-47.67475043666549
7.30612224,0.99927439156306,-48.13455637529385
7.319728128,0.9992348360988129,-48.59389675098639
7.333333504,0.9992303310366893,-49.05322683884882
7.34693888,0.999261386754961,-49.51296667180433
7.360544256,0.9993267682537033,-49.97350628738464
7.374149632,0.9994234014657143,-50.43534380205216
7.387755008,0.9995468558367117,-50.89877401621349
7.401360384,0.9996917703895394,-51.3640973797637
7.41496576,0.9998514652941242,-51.831556951414065
7.428571648,1.0000184462693742,-52.301301290220245
7.442177024,1.0001854216825385,-52.773361212189535
7.4557824,1.0003443205656863,-53.24768395563057
7.469387776,1.0004880469455888,-53.724177932451155
7.482993152,1.0006098529330365,-54.20257671579707
7.496598528,1.0007041206117264,-54.68255919414571
7.510203904,1.0007662360547627,-55.16383091176381
7.52380928,1.0007934761482722,-55.64589103423065
7.537415168,1.00078433708055,-56.128365337393824
7.551020544,1.0007391478311447,-56.6107650189713
7.56462592,1.000659819169973,-57.092691180640045
7.578231296,1.00054990872099,-57.57374151979439
7.591836672,1.0004143116168076,-58.053547231071946
7.605442048,1.0002592142666153,-58.531854908353495
7.619047424,1.0000915812435582,-59.008394991232684
7.632653312,0.9999192662328452,-59.483137458521554
7.646258688,0.9997501928559319,-59.956047574032176
7.659864064,0.99959177163226,-60.42720035619054
7.67346944,0.9994516854353634,-60.8967378613439
7.687074816,0.999336261758016,-61.364995252214364
7.700680192,0.9992510894549835,-61.83221444958624
7.714285568,0.9992000814524733,-62.29887681179796
7.727890944,0.9991856950422985,-62.7654106365703
7.741496832,0.9992088816967799,-63.232219195537965
7.755102208,0.9992685078035224,-63.699803761780075
7.768707584,0.9993621165634571,-64.16857700058627
7.78231296,0.9994854146407581,-64.63894482281147
7.795918336,0.9996329937349264,-65.11126995990878
7.809523712,0.9997978349468934,-65.58581781798912
7.823129088,0.9999727377029731,-66.06270173666739
7.836734464,1.000149537496421,-66.54202363103968
7.850340352,1.0003202021718123,-67.02377928683886
7.863945728,1.0004767410000632,-67.50784163229945
7.877551104,1.0006119823676993,-67.99395542398173
7.89115648,1.0007195402193834,-68.48189287726055
7.904761856,1.0007947038501215,-68.97122597930023
7.918367232,1.0008335784021327,-69.46159511608515
7.931972608,1.0008343014948171,-69.95245324107412
7.945577984,1.0007967293022004,-70.44344454794452
7.959183872,1.000722543415174,-70.93398738418682
7.972789248,1.0006149473531396,-71.42376358064269
7.986394624,1.000478667854837,-71.91227604472546
8.0,1.0003197763537222,-72.3992824867202
8.013605376,1.0001457220670142,-72.88450859697706
8.027210752,0.999964177024478,-73.36787460005986
8.040816128,0.9997838237605103,-73.84924575272964
8.054422016,0.9996124071211442,-74.32874514844933
8.068027392,0.9994583698238338,-74.80650422780653
8.081632768,0.9993286375214738,-75.28279741462482
8.095238144,0.9992291986713163,-75.75791178693413
8.10884352,0.9991648867681077,-76.23228967534412
8.122448896,0.9991386419114437,-76.70635229256175
8.136054272,0.9991519522695037,-77.18063651646955
8.149659648,0.9992043587915226,-77.65558295806728
8.163265536,0.9992935480048593,-78.13164663884633
8.176870912,0.9994155008938818,-78.60931446858027
8.190476288,0.9995649429073686,-79.08891066092369
8.204081664,0.9997347974193855,-79.57077110307797
8.21768704,0.9999176194814084,-80.05507853552845
8.231292416,1.0001048750382768,-80.54196813264173
8.244897792,1.000288081469311,-81.03140900209974
8.258503168,1.0004587676958347,-81.523332173554
8.272109056,1.0006092483752416,-82.01754598468685
8.285714432,1.0007321836050536,-82.51375162138854
8.299319808,1.000822057407307,-83.01156749561632
8.312925184,1.0008746931416386,-83.51055148229331
8.32653056,1.0008873913505185,-84.01025670922563
8.340135936,1.0008594883716204,-84.51021037249001
8.353741312,1.0007920358026698,-85.00986767483818
8.367346688,1.000688026311044,-85.50879393262
8.380952576,1.0005519474784097,-86.0065556795873
8.394557952,1.0003901392378605,-86.50277736302874
8.408163328,1.000209655386238,-86.99719458806577
8.421768704,1.0000187864833463,-87.48963275447967
8.43537408,0.9998264427529381,-87.97996414003703
8.448979456,0.9996410862678653,-88.46831332568024
8.462584832,0.9994715691101604,-88.95472207655322
8.47619072,0.9993255286867899,-89.43949364589761
8.489796096,0.9992098317715357,-89.92290225337797
8.503401472,0.9991299234931238,-90.40537178707282
8.517006848,0.9990896227043712,-90.887404060549
8.530612224,0.9990910096468453,-91.36945483008525
8.5442176,0.9991339754010446,-91.85204039299192
8.557822976,0.9992170619952424,-92.3356841041534
8.571428352,0.9993362860775666,-92.820862474363
8.58503424,0.9994865788397167,-93.30799198379941
8.598639616,0.9996609322269631,-93.79740380072485
8.61224448,0.9998515349606811,-94.289352581904
8.625850368,1.0000498678479157,-94.78400232427535
8.639456256,1.000246630989255,-95.28139112133259
8.65306112,1.0004329836421568,-95.78141256418752
8.666667008,1.0006002110478467,-96.283952463698
8.680271872,1.0007406320075565,-96.78869682705185
8.69387776,1.0008477701689513,-97.29527884191197
8.707482624,1.0009165016178976,-97.80328273109724
8.721088512,1.0009435699784182,-98.31215299960974
8.734693376,1.000927478045862,-98.8214809542894
8.748299264,1.0008688814117777,-99.33063555150657
8.761905152,1.000770339182016,-99.83915204451608
8.775510016,1.0006360044484566,-100.34656972565234
8.789115904,1.0004719047242256,-100.85247300376466
8.802720768,1.0002856841569951,-101.3565227417367
8.816326656,1.0000852837554635,-101.85853923919842
8.82993152,0.9998802853089263,-102.35834022173003
8.843537408,0.9996797175185937,-102.85595212063915
8.857143296,0.9994929005764952,-103.35147954356702
8.87074816,0.9993285687275162,-103.8450996689732
8.884354048,0.9991942779941171,-104.33719349245318
8.897958912,0.9990963254607795,-104.82812370297583
8.9115648,0.9990393143742919,-105.31840775261355
8.925169664,0.9990260359429255,-105.80852352910581
8.938775552,0.9990574242986211,-106.29900780061091
8.95238144,0.9991320346253143,-106.79044751985874
8.965986304,0.9992467887796148,-107.28332826013079
8.979592192,0.9993965225146896,-107.77813882544898
8.993197056,0.9995744837791164,-108.27527735821684
9.006802944,0.9997728321366811,-108.77499237163211
9.020407808,0.9999822618297233,-109.27758124335692
9.034013696,1.0001934959503893,-109.78300130189437
9.04761856,1.0003968010808852,-110.29131932419816
9.061224448,1.000582823506795,-110.80236589624826
9.074830336,1.0007429451944578,-111.3158436741452
9.0884352,1.000869860663814,-111.83141468956002
9.102041088,1.0009574818994356,-112.34864461917758
9.115645952,1.0010016370309596,-112.86702677773644
9.12925184,1.001000287453249,-113.38598830141343
9.142856704,1.0009531950762467,-113.90500851483002
9.156462592,1.0008622078551939,-114.42352091234004
9.17006848,1.0007314028598027,-114.9410020057493
9.183673344,1.0005665511413826,-115.45699937027098
9.197279232,1.000374991959823,-115.97112816936784
9.210884096,1.0001653716903873,-116.48311408453164
9.224489984,0.999947152048069,-116.99279160306826
9.238094848,0.9997302782106517,-117.50010696193613
9.251700736,0.999524663574215,-118.00512410082159
9.265306624,0.9993398887403524,-118.50802580728197
9.278911488,0.9991843933195979,-119.00913393802391
9.292517376,0.9990653954095691,-119.5088167560878
9.30612224,0.9989885862079478,-120.007608335911
9.319728128,0.9989578191843226,-120.50600132137521
9.333332992,0.9989744809516995,-121.00460008953432
9.34693888,0.9990381547246199,-121.5039584384941
9.360543744,0.999146009291927,-122.00470569079525
9.374149632,0.9992935326316201,-122.5072891677018
9.38775552,0.9994739358261945,-123.01219564006438
9.401360384,0.9996792517168683,-123.5197651954565
9.414966272,0.9999001462502004,-124.0302801563852
9.428571136,1.0001265354697408,-124.54385583951432
9.442177024,1.0003482661756171,-125.06049798631776
9.455781888,1.0005549735356984,-125.58010550175744
9.469387776,1.0007373188604827,-126.10243699716446
9.482993664,1.0008868167180722,-126.62714460911377
9.496598528,1.0009964542639347,-127.15377502972358
9.510204416,1.0010611935458926,-127.68182091761821
9.52380928,1.0010776941092483,-128.21072099142154
9.537415168,1.0010450444859906,-128.73986711095205
9.551020032,1.0009645471083601,-129.2686712657908
9.56462592,1.0008395347185333,-129.79655059817728
9.578230784,1.000675550152235,-130.3230068284326
9.591836672,1.0004798608358834,-130.8475932793262
9.60544256,1.0002612696409734,-131.36997192203427
9.619047424,1.0000295597319695,-131.88988291822275
9.632653312,0.9997953792438853,-132.40727209244736
9.646258176,0.9995692066422097,-132.9221292688809
9.659864064,0.9993616602617656,-133.43463926198854
9.673468928,0.9991820148173092,-133.9450496559656
9.687074816,0.9990388314833705,-134.4537716144192
9.700680704,0.9989388268418983,-134.96128530688466
9.714285568,0.9988868468970603,-135.46814492688904
9.727891456,0.9988853310828075,-135.9749600566048
9.74149632,0.9989347624782469,-136.48236264726555
9.755102208,0.9990330107812726,-136.99093852602383
9.768707072,0.9991758159114912,-137.50130315927845
9.78231296,0.9993570210819581,-138.01396634278743
9.795918848,0.999568412409292,-138.52934268912946
9.809523712,0.9998003945595545,-139.04774962070817
9.8231296,1.0000427246843024,-139.56938850886064
9.836734464,1.0002841109404448,-140.09431471144893
9.850340352,1.0005137025952584,-140.62246835560708
9.863945216,1.0007210453140616,-141.1536370043355
9.877551104,1.0008963968152977,-141.6874884942229
9.891155968,1.0010317677827667,-142.22359004976522
9.904761856,1.0011206560151358,-142.7614388994313
9.918367744,1.0011589161117422,-143.30039155706748
9.931972608,1.0011445026397812,-143.83987531031303
9.945578496,1.0010777758763676,-144.37920324297656
9.95918336,1.000961536138405,-144.91776394762672
9.972789248,1.0008007982272566,-145.45497781573158
9.986394112,1.000602584693624,-145.99034702756478
10.0,1.0003758666051294,-146.52343635595656
10.013605888,1.0001306865023694,-147.0539629971493
10.027210752,0.9998780729480714,-147.58178159630282
10.04081664,0.9996297300687115,-148.10681810011334
10.054421504,0.9993967909020696,-148.62919839636768
10.068027392,0.999190066220945,-149.14918927693464
10.081632256,0.9990191099527468,-149.6671406065951
10.095238144,0.9988918837481817,-150.1835504586781
10.108844032,0.9988145041219944,-150.69897517573668
10.122448896,0.9987907485948978,-151.2140699215691
10.136054784,0.9988219687036765,-151.72948293203126
10.149659648,0.9989069938012748,-152.24590162126424
10.163265536,0.9990422928773766,-152.763955383332
10.1768704,0.9992219303596267,-153.2842449603262
10.190476288,0.9994379478163559,-153.8072557085285
10.204081152,0.9996806030430461,-154.33340294771526
10.21768704,0.9999390812009764,-154.86293537539606
10.231292928,1.0002015957567425,-155.3959826464348
10.244897792,1.0004562481703614,-155.93252732675603
10.25850368,1.000691470388739,-156.47243327763346
10.272108544,1.0008963391732892,-157.0153444436646
10.285714432,1.0010613477557795,-157.560889143345
10.299319296,1.0011789801867175,-158.108526336709
10.312925184,1.0012434716406242,-158.65764612429857
10.326531072,1.0012516617470861,-159.2075405802665
10.340135936,1.0012028787664533,-159.75757700295352
10.353741824,1.0010989592204722,-160.30704431822315
10.367346688,1.0009444664699503,-160.855264619765
10.380952576,1.000745999772369,-161.40169681004053
10.39455744,1.0005123329836745,-161.94583907235128
10.408163328,1.0002538975135826,-162.48727855241862
10.421769216,0.99998235525877,-163.02580618031757
10.43537408,0.9997099658202006,-163.5613177970603
10.448979968,0.9994491037594657,-164.09386729735667
10.462584832,0.9992116826993657,-164.6236484047068
10.47619072,0.9990088067043934,-165.1510316841566
10.489795584,0.99884979242633,-165.67644748040297
10.503401472,0.998742110115103,-166.20051796837387
10.517006336,0.9986911137052558,-166.72389842692237
10.530612224,0.9986993718578482,-167.24725906071572
10.544218112,0.998766927480757,-167.77137336533656
10.557822976,0.9988908651449052,-168.29696506146024
10.571428864,0.9990660206409196,-168.8246584220701
10.585033728,0.999284527507321,-169.35506233395566
10.598639616,0.99953682561446,-169.88866426760873
10.61224448,0.9998115600723495,-170.42581564736506
10.625850368,1.000096403021852,-170.96668301135688
10.639456256,1.000378228688511,-171.5113779360568
10.65306112,1.000644370752247,-172.059767137937
10.666667008,1.0008828120902822,-172.61158448087937
10.680271872,1.0010822745418266,-173.16644104744884
10.69387776,1.0012336668073372,-173.7237876875037
10.707482624,1.0013297033243451,-174.2830051969156
10.721088512,1.0013658766063618,-174.84341821359817
10.734693376,1.001340136118692,-175.40425972296893
10.748299264,1.0012531531886086,-175.96476624798368
10.761905152,1.0011087188649272,-176.52424407154717
10.775510016,1.0009128001149257,-177.08198127736057
10.789115904,1.0006740425988727,-177.63744126196553
10.802720768,1.0004032291433742,-178.19011758215348
10.816326656,1.000112186510772,-178.739679239401
10.82993152,0.9998140708480926,-179.28594639181392
10.843537408,0.9995224922629555,-179.82892527106802
10.857143296,0.9992507229042938,179.6312421602451
10.87074816,0.9990111645021754,179.09427773648267
10.884354048,0.9988150169298821,178.55970927232616
10.897958912,0.9986714392761431,178.0269509758838
10.9115648,0.9985872662313717,177.49532936759354
10.925169664,0.9985669582639104,176.96408399314447
10.938775552,0.9986114071965009,176.43242982691336
10.95238144,0.9987193161824085,175.8995628154773
10.965986304,0.998886090397262,175.36473286236674
10.979592192,0.9991044070921695,174.82726526729496
10.993197056,0.9993645785439322,174.28655119988454
11.006802944,0.9996552711302202,173.7421696230327
11.020407808,0.9999632814072124,173.1938271070899
11.034013696,1.0002747259305234,172.64136086125907
11.04761856,1.0005754507309952,172.0847908105419
11.061224448,1.0008517525182707,171.52434688466118
11.074830336,1.0010910315587744,170.9604248552952
11.0884352,1.0012822231883125,170.39349095985855
11.102041088,1.0014161824896763,169.82422794262544
11.115645952,1.0014867085325119,169.2533163894263
11.12925184,1.0014900218128011,168.68158950489533
11.142856704,1.001425661108501,168.10982450991244
11.156462592,1.0012960473660053,167.53890900259216
11.17006848,1.0011066441715506,166.96954497588612
11.183673344,1.000865672619022,166.40245256783052
11.197279232,1.0005835479719616,165.8382124293162
11.210884096,1.0002729229787783,165.277238535859
11.224489984,0.9999476785557665,164.71982213938603
11.238094848,0.9996223924388234,164.16609160023407
11.251700736,0.9993119680922832,163.6159587119847
11.265306624,0.9990305041807335,163.06914575326957
11.278911488,0.9987910139851321,162.52525322429872
11.292517376,0.9986047014431303,161.98371544458192
11.30612224,0.9984804358551568,161.4438236321357
11.319728128,0.9984243047912014,160.90479288612278
11.333332992,0.9984392648576929,160.3657603959818
11.34693888,0.998525140763509,159.82583731426365
11.360543744,0.9986784724150949,159.28419496617428
11.374149632,0.9988927400555162,158.74001580136434
11.38775552,0.9991586132265815,158.19261385004143
11.401360384,0.9994643541872476,157.64141794979545
