freq,mag,phase
6.0,1.000035009903737,-132.2395371145637
6.004250624,1.0000376280509276,-132.4662968381573
6.00850176,1.0000375516415667,-132.69312545146235
6.012752384,1.0000351836590067,-132.9198817488451
6.017003008,1.000030773057433,-133.14662690252712
6.021254144,1.0000244499492372,-133.37326943863832
6.025504768,1.0000167297021196,-133.59984153108343
6.029755392,1.0000079556564958,-133.8262901281769
6.034006528,0.9999987323106309,-134.0526273310178
6.038257152,0.9999895476157498,-134.27883319958082
6.042507776,0.9999810025283341,-134.50493811493757
6.046758912,0.9999735434798881,-134.73089941111718
6.051009536,0.9999676878669282,-134.95678026983316
6.05526016,0.9999637990544942,-135.18259512476936
6.059511296,0.9999620344519894,-135.40836540506655
6.06376192,0.9999624776787951,-135.63413659291044
6.068012544,0.999965178250165,-135.85993722321737
6.07226368,0.9999700233410628,-136.0857911389327
6.076514304,0.999976659636895,-136.31173710319837
6.080764928,0.9999846785869247,-136.53776357115328
6.085016064,0.999993650928997,-136.76390531076905
6.089266688,1.000003000116819,-136.99021712544123
6.093517312,1.0000121868873824,-137.21666246640262
6.097768448,1.0000206321930005,-137.4432222830028
6.102019072,1.000027915979535,-137.66987278948523
6.106269696,1.00003355696579,-137.89662460136276
6.110520832,1.0000371468645721,-138.12347404962284
6.114771456,1.000038593092831,-138.3503563112748
6.11902208,1.000037682188865,-138.57722880221286
6.123273216,1.00003454728028,-138.8040671303819
6.12752384,1.000029334454975,-139.03089753669158
6.131774464,1.0000223777380355,-139.25759280097375
6.1360256,1.000014051342613,-139.48420430260438
6.140276224,1.0000049438328353,-139.71071670005747
6.144526848,0.9999955448467069,-139.9370515570198
6.148777984,0.9999863359832217,-140.16327296952508
6.153028608,0.9999779666631347,-140.38940738421226
6.157279744,0.9999708857440456,-140.6154090231133
6.161530368,0.9999655622365663,-140.8413213206679
6.165780992,0.9999622647902072,-141.06716428256576
6.170032128,0.9999612107824817,-141.2930163318709
6.174282752,0.9999625769320528,-141.5188394231769
6.178533376,0.9999660703608915,-141.74472248393684
6.182784512,0.9999716159536557,-141.970646297999
6.187035136,0.9999789060475404,-142.19671993837696
6.19128576,0.999987445484754,-142.422844942446
6.195536896,0.9999967878820858,-142.64913714493937
6.19978752,1.0000063302911475,-142.87552900033825
6.204038144,1.0000154976427518,-143.10207510613535
6.20828928,1.0000238191657196,-143.32873221623834
6.212539904,1.0000306540370552,-143.55552726422246
6.216790528,1.0000357261483743,-143.78236732699673
6.221041664,1.0000386430124297,-144.00931215541033
6.225292288,1.000039309293591,-144.23626511429126
6.229542912,1.0000376510087507,-144.46319040707974
6.233794048,1.0000336243878918,-144.69013764885213
6.238044672,1.0000276872237763,-144.91698000201
6.242295296,1.0000201053642102,-145.14370466342763
6.246546432,1.0000113566531914,-145.37035277661403
6.250797056,1.000001834751072,-145.59687024760595
6.25504768,0.9999922455589347,-145.82322361586526
6.259298816,0.999983076911285,-146.0495065870004
6.26354944,0.9999749434262403,-146.27561918477903
6.267800064,0.9999682432184479,-146.501625722131
6.2720512,0.9999635399040824,-146.7275834443442
6.276301824,0.9999609558354556,-146.95349537682839
6.280552448,0.9999606997973722,-147.1793757237594
6.284803584,0.9999628559996436,-147.40525000577253
6.289054208,0.9999672383657162,-147.6311942454807
6.293304832,0.9999736022559005,-147.85722126621894
6.297555968,0.9999814602254764,-148.08334739734596
6.301806592,0.9999904382302675,-148.3096053090857
6.306057216,1.0000001210717924,-148.53595419250422
6.310308352,1.0000097647763566,-148.76248239314566
6.314558976,1.00001886658061,-148.98911905457646
6.3188096,1.0000268897783926,-149.21590859230218
6.323060736,1.000033264577503,-149.44277938527478
6.32731136,1.0000377174348472,-149.6697105186758
6.331561984,1.0000399491804768,-149.89672411042264
6.33581312,1.0000396998970456,-150.1237432322272
6.340063744,1.0000371625214874,-150.35074008014442
6.344314368,1.000032472602886,-150.57771253063794
6.348565504,1.0000257423905712,-150.8045696031358
6.352816128,1.0000175394689617,-151.0313467138449
6.357066752,1.0000082528241983,-151.2580202652057
6.361317888,0.9999985536231526,-151.48452865861577
6.365568512,0.9999888860969947,-151.71090405032086
6.369819136,0.9999798642578628,-151.93714633599419
6.374070272,0.9999720760971882,-152.16328689235846
6.378320896,0.9999659027115857,-152.38932119281208
6.38257152,0.9999617927226069,-152.61528871132697
6.386822656,0.9999599797848292,-152.84122379043015
6.39107328,0.9999606032387219,-153.0671345515703
6.395323904,0.9999635347691195,-153.293105315923
6.39957504,0.9999686663300417,-153.5191059651416
6.403825664,0.9999757291318476,-153.74518595399994
6.408076288,0.9999841609543887,-153.97139208953382
6.412327424,0.9999937054789297,-154.19771342543558
6.416578048,1.0000036378058226,-154.42418707226332
6.420828672,1.0000132900080272,-154.6507972821489
6.425079808,1.0000222282282947,-154.87755608314095
6.429330432,1.0000299037098765,-155.10440124049833
6.433581056,1.000035719685454,-155.331356665345
6.437832192,1.0000394556006083,-155.55840018479543
6.442082816,1.0000409004593598,-155.78545783220207
6.44633344,1.0000399246480347,-156.01253507618046
6.450584576,1.0000364860426685,-156.23956692569598
6.4548352,1.000030960789762,-156.46654216296523
6.459085824,1.0000235378552262,-156.69343911485413
6.46333696,1.000014794347345,-156.92021772288666
6.467587584,1.000005087534473,-157.14686571976566
6.47183872,0.9999950621040805,-157.37335710652206
6.476089344,0.9999854179565314,-157.59974618665254
6.480339968,0.9999766020550578,-157.82600660727599
6.484591104,0.9999691747768195,-158.05213096221755
6.488841728,0.9999636404788247,-158.27817443358805
6.493092352,0.9999602243906568,-158.5041226971522
6.497343488,0.9999592364174293,-158.73009879755242
6.501594112,0.9999606376192895,-158.95605421317677
6.505844736,0.9999644722886851,-159.1820412180643
6.510095872,0.9999704294800635,-159.40810043660682
6.514346496,0.9999781662584039,-159.63424999871418
6.51859712,0.9999872066093185,-159.86051999875696
6.522848256,0.9999970827668064,-160.0869409675597
6.52709888,1.0000071916408126,-160.31347563579922
6.531349504,1.000016823253245,-160.54018494768007
6.53560064,1.0000255114466117,-160.76701025663647
6.539851264,1.000032709729168,-160.99393544238
6.544101888,1.000037976314452,-161.22097948891877
6.548353024,1.0000410097499368,-161.44806353576212
6.552603648,1.0000416193403223,-161.6751403145334
6.556854272,1.0000397878503384,-161.90223988726365
6.561105408,1.0000355203309996,-162.12931186532407
6.565356032,1.000029177921956,-162.356317985429
6.569606656,1.0000210649644707,-162.58319377773464
6.573857792,1.0000117979100929,-162.8099750752759
6.578108416,1.000001753310492,-163.0366035197902
6.58235904,0.9999915758324919,-163.2630966288521
6.586610176,0.9999819930234672,-163.48944415619613
6.5908608,0.9999734715694736,-163.71567356480247
6.595111424,0.9999665185136304,-163.94180531849867
6.59936256,0.9999615471040446,-164.16782939983565
6.603613184,0.9999588926923849,-164.39380158216645
6.607863808,0.9999587134243964,-164.6197530388373
6.612114944,0.9999610387577077,-164.84575689351246
6.616365568,0.9999656877988217,-165.07177668211267
6.620616192,0.9999724845796591,-165.29788049388742
6.624867328,0.9999809051838752,-165.5240949967203
6.629117952,0.9999904587061181,-165.75044154514435
6.633368576,1.0000006491822973,-165.97693035043363
6.637619712,1.0000108452447487,-166.20356134982708
6.641870336,1.0000204043702081,-166.43030856605407
6.64612096,1.0000287194974535,-166.6571954614016
6.650372096,1.0000354879105444,-166.88418779998008
6.65462272,1.0000401246601671,-167.11128922847385
6.658873344,1.0000424014613356,-167.33841314176343
6.66312448,1.0000420426713674,-167.56557427927936
6.667375104,1.0000393070825668,-167.792695508251
6.671625728,1.0000341439800318,-168.0197771347801
6.675876864,1.0000271036426451,-168.24673772817007
6.680127488,1.0000183984059283,-168.47361801676
6.684378112,1.0000085492543092,-168.70037312787957
6.688629248,0.9999982640034548,-168.92697038578842
6.692879872,0.9999879694404716,-169.15343954620906
6.697130496,0.9999785698724106,-169.37977765582943
6.701381632,0.9999703300561295,-169.60593429068894
6.705632256,0.9999639772184722,-169.8320354236132
6.70988288,0.9999597376998124,-170.0580648837394
6.714134016,0.9999577939907887,-170.28403968869742
6.71838464,0.9999585241524078,-170.5099940954425
6.722635264,0.999961783905035,-170.73600029834
6.7268864,0.9999673040056389,-170.96205235287246
6.731137024,0.9999748053834407,-171.1882144731612
6.735387648,0.9999838665617431,-171.414474619049
6.739638784,0.9999938429527192,-171.6408598503652
6.743889408,1.0000043123109827,-171.86740820158997
6.748140032,1.0000145072908164,-172.09410613878086
6.752391168,1.0000239108597004,-172.32093505076014
6.756641792,1.0000319503579926,-172.54789882145835
6.760892416,1.0000379945890154,-172.77494722086817
6.765143552,1.000041902422655,-173.00204748789022
6.769394176,1.0000433568831733,-173.22921831229476
6.773645312,1.0000421868963112,-173.45637820328878
6.777895936,1.0000385048571188,-173.68350446965798
6.78214656,1.0000326194710154,-173.9105940182393
6.786397696,1.000024745578972,-174.1375279234179
6.79064832,1.0000152561175355,-174.36438889244204
6.794898944,1.000005133198696,-174.59108537016795
6.79915008,0.9999945802645273,-174.8176602980496
6.803400704,0.9999842849429225,-175.04404178663904
6.807651328,0.9999750889381318,-175.27036803202185
6.811902464,0.9999672826314027,-175.49650915063725
6.816153088,0.9999615353280806,-175.72256665746934
6.820403712,0.9999580464737747,-175.94856067822425
6.824654848,0.9999570165299007,-176.17451498461227
6.828905472,0.9999586267395001,-176.40047659467342
6.833156096,0.9999627022075607,-176.6265028709542
6.837407232,0.9999691552319753,-176.85257694976625
6.841657856,0.9999772998091275,-177.07874550367885
6.84590848,0.9999870480332931,-177.30506979854303
6.850159616,0.9999973938267132,-177.53150589823076
6.85441024,1.0000080809267962,-177.7581178116206
6.858660864,1.0000182276908596,-177.98485123869295
6.862912,1.000027433442331,-178.21172715238072
6.867162624,1.0000350158337665,-178.43874392580372
6.871413248,1.000040497559288,-178.66583433825193
6.875664384,1.0000434915581184,-178.8929613078361
6.879915008,1.000044053046906,-179.12017736475624
6.884165632,1.0000419923702324,-179.34733829053266
6.888416768,1.000037358853978,-179.57444400250913
6.892667392,1.000030559832669,-179.80147956453752
6.896918016,1.0000220575510632,179.9715777039991
6.901169152,1.0000120665173902,179.744784159762
6.905419776,1.0000015126242738,179.5181141027736
6.9096704,0.999990829917638,179.29164311437222
6.913921536,0.9999806647684807,179.06525532839498
6.91817216,0.9999717379474746,178.83905185315442
6.922422784,0.9999644089109635,178.61293542656523
6.92667392,0.9999593073700229,178.38692013322247
6.930924544,0.9999566150977738,178.16096151454812
6.935175168,0.9999565151990172,177.93503256409429
6.939426304,0.9999590431970337,177.70907212512594
6.943676928,0.9999641062639785,177.48305279110642
6.947927552,0.9999713127109545,177.25695670059272
6.952178688,0.9999802941139936,177.03074538403564
6.956429312,0.9999904373486247,176.80439696185798
6.960679936,1.0000012318220493,176.57791091805558
6.964931072,1.0000119044158846,176.3512538628656
6.969181696,1.000022015475068,176.1244710377713
6.97343232,1.000030844390715,175.8975351202515
6.977683456,1.0000377490091588,175.67049998271736
6.98193408,1.0000424432375705,175.44340988519775
6.986184704,1.000044857716005,175.21623366694422
6.99043584,1.0000444541118354,174.98905639801058
6.994686464,1.0000414850796642,174.76190220109464
6.998937088,1.000035975499424,174.53481994802652
7.003188224,1.0000283207333271,174.30780968157845
7.007438848,1.0000189989928499,174.08092509382328
7.011689472,1.0000086916597284,173.8541997699147
7.015940608,0.9999976787122351,173.627591967961
7.020191232,0.9999869733658636,173.40114837033417
7.024441856,0.999976952217961,173.1748701790654
7.028692992,0.9999683633104414,172.9486979255228
7.032943616,0.9999616450032012,172.7226651292501
7.03719424,0.9999573117213839,172.49669009929806
7.041445376,0.9999555877826689,172.27077277146498
7.045696,0.9999562866067865,172.04483499549596
7.049946624,0.9999598630457937,171.81891139030833
7.05419776,0.9999658595115067,171.59287311964692
7.058448384,0.9999737922471486,171.3667734853335
7.062699008,0.9999834068560636,171.14055345715803
7.066950144,0.9999940861451344,170.91415981194535
7.071200768,1.0000051074327785,170.68764404871487
7.075451392,1.0000158507557912,170.46097587424853
7.079702528,1.0000257378112916,170.234133416763
7.083953152,1.0000341413174958,170.00719080516424
7.088204288,1.0000404270909597,169.7801401747426
7.092454912,1.0000444697523236,169.55302270452796
7.096705536,1.0000458137726356,169.3258655834913
7.100956672,1.0000444103453707,169.09871667331007
7.105207296,1.0000405056179293,168.87155156639147
7.10945792,1.000034107247725,168.64450261844
7.113709056,1.0000257243243447,168.4175516446974
7.11795968,1.00001586598203,168.19074891410892
7.122210304,1.000004916522338,167.96407660049417
7.12646144,0.9999937928254444,167.73757099706663
7.130712064,0.999983054497476,167.51118526084966
7.134962688,0.9999733435876909,167.28501051346964
7.139213824,0.9999651649680706,167.0589223623592
7.143464448,0.999959105092229,166.83293519361814
7.147715072,0.9999555606632666,166.60702014621276
7.151966208,0.9999547168069213,166.38112810949136
7.156216832,0.9999565039030532,166.1552582416691
7.160467456,0.9999610377780171,165.9293251581567
7.164718592,0.9999677627546822,165.70330304363924
7.168969216,0.9999765524511851,165.4771947740836
7.17321984,0.9999867245500497,165.25096294679005
7.177470976,0.9999978989584094,165.0245598705896
7.1817216,1.0000089756211816,164.79802694891654
7.185972224,1.0000197941854119,164.57130978679172
7.19022336,1.0000293763603476,164.34447346029754
7.194473984,1.0000372313148287,164.11748031243567
7.198724608,1.0000430597982608,163.8904285279223
7.202975744,1.0000460488428309,163.66330463407778
7.207226368,1.0000465159044587,163.43615281042855
7.211476992,1.0000441692270756,163.20901255460683
7.215728128,1.0000392052169456,162.9819229276296
7.219978752,1.0000320228990085,162.7549412778597
7.224229376,1.0000229201280486,162.52806113883685
7.228480512,1.0000122963815858,162.30130325246242
7.232731136,1.0000010971008164,162.07472409209865
7.23698176,0.9999898877506107,161.84831306591406
7.241232896,0.9999791043190775,161.62205039885632
7.24548352,0.9999697439585641,161.3959184398016
7.249734144,0.9999621096540863,161.1699120565728
7.25398528,0.9999568846929688,160.94401583676918
7.258235904,0.9999541952044652,160.718162134888
7.262486528,0.9999541583199799,160.49233903011415
7.266737664,0.9999569761760853,160.2664710813792
7.270988288,0.9999624598736223,160.04057802145056
7.275238912,0.9999701267432051,159.81456599212817
7.279490048,0.9999796615337306,159.5884657940596
7.283740672,0.9999905825756749,159.36220599143724
7.287991296,1.0000018414516765,159.13579327311453
7.292242432,1.0000132247831273,158.90921342533247
7.296493056,1.000023811936036,158.6825094473889
7.30074368,1.000032962823937,158.4556438229037
7.304994816,1.0000403027854932,158.2286615090462
7.30924544,1.0000452004362943,158.00161434788296
7.313496064,1.000047414293812,157.77450588603844
7.3177472,1.0000469144784168,157.54738143780028
7.321997824,1.000043586665601,157.32030492905244
7.326248448,1.000037702032936,157.09325912307713
7.330499584,1.0000295460387987,156.8663386881714
7.334750208,1.000019660567328,156.6395321027175
7.339000832,1.000008659462595,156.41290460974867
7.343251968,0.9999970662436837,156.1864044830681
7.347502592,0.9999857120351106,155.96010204813305
7.351753216,0.999975233200516,155.73393275794146
7.356004352,0.9999662336463968,155.507880140449
7.360254976,0.9999594015674957,155.28197550565295
7.3645056,0.9999547967992907,155.05615706622896
7.368756736,0.9999530323542163,154.8303699927335
7.37300736,0.9999541603060361,154.60458971745467
7.377257984,0.9999579472107211,154.3787950542829
7.38150912,0.9999643423790897,154.15292018485917
7.385759744,0.9999727716266731,153.92693158959412
7.39001088,0.9999830459306408,153.70082872687158
7.394261504,0.9999944561135038,153.47457118590512
7.398512128,1.0000060232686059,153.24813465501538
7.402763264,1.000017393250145,153.0215598525818
7.407013888,1.000027741471296,152.79484867877346
7.411264512,1.0000365721184215,152.56796590020085
7.415515648,1.0000430865032857,152.34101295377522
7.419766272,1.0000472378925855,152.11394032538402
7.424016896,1.0000484505142138,151.8868870550313
7.428268032,1.000046876606652,151.6598310430856
7.432518656,1.0000425978003684,151.43274406521437
7.43676928,1.00003562844034,151.20582553295583
7.441020416,1.0000266913527094,150.97898477603871
7.44527104,1.000016169919233,150.75226689424593
7.449521664,1.0000046805539526,150.52574099853575
7.4537728,0.9999929222707742,150.299370022001
7.458023424,0.9999816979484918,150.07315611339092
7.462274048,0.9999713739760924,149.8470975366072
7.466525184,0.9999629660015708,149.62116323443456
7.470775808,0.9999567198847608,149.39535821066036
7.475026432,0.99995306626929,149.1696165122176
7.479277568,0.999952207903086,148.94389599266668
7.483528192,0.9999542533825607,148.7181909761495
7.487778816,0.9999591309906395,148.49242139959824
7.492029952,0.9999664682291187,148.26657601200756
7.496280576,0.999975857695473,148.04063381109515
7.5005312,0.9999867425673196,147.81452343703694
7.504782336,0.9999983907999435,147.5882670670652
7.50903296,1.0000102813154585,147.36184144640396
7.513283584,1.0000215435290811,147.1352543897137
7.51753472,1.000031604153226,146.90852409261498
7.521785344,1.0000399187460756,146.68167767209022
7.526035968,1.000045635895536,146.45470578659152
7.530287104,1.0000488459381078,146.2277082538185
7.534537728,1.0000491274031174,146.00065504780068
7.538788352,1.0000464250452823,145.77364950115924
7.543039488,1.0000411592075706,145.54668634364845
7.547290112,1.0000333518471356,145.31982376450227
7.551540736,1.0000235836334568,145.09308467808495
7.555791872,1.0000124536852597,144.86647267612912
7.560042496,1.0000005769915217,144.64005542288683
7.56429312,0.9999886130715108,144.41381977135535
7.568544256,0.999977511736187,144.18771872869573
7.57279488,0.9999675735367609,143.96177572204343
7.577045504,0.9999596693318247,143.73597517665723
7.58129664,0.9999542638382206,143.51025944056514
7.585547264,0.9999515533026653,143.2846102718733
7.589797888,0.9999516802604127,143.05896862568434
7.594049024,0.9999549543805023,142.83332072006704
7.598299648,0.9999607558996654,142.60759928655565
7.602550272,0.9999691368212886,142.38179983481015
7.606801408,0.9999792035748856,142.15585414537298
7.611052032,0.9999906156028924,141.92976488161446
7.615302656,1.0000026695932913,141.70354411810106
7.619553792,1.0000146447604308,141.47708914588975
7.623804416,1.0000257581697607,141.25053765816756
7.62805504,1.0000353112640088,141.0238170427584
7.632306176,1.0000430143512387,140.79697799690345
7.6365568,1.000048056938111,140.57004707593148
7.640807424,1.0000502396948339,140.3430661711106
7.64505856,1.000049419508205,140.11609360142637
7.649309184,1.000045837488457,139.88914438434264
7.653559808,1.0000394942430237,139.66227604551153
7.657810944,1.0000306967483306,139.43550350507738
7.662061568,1.0000202048008926,139.20886909760983
7.666312192,1.0000084746322628,138.98241944020003
7.670563328,0.9999962310892889,138.75611581642778
7.674813952,0.9999843266568995,138.52998993322873
7.679064576,0.999973294032299,138.30401725659405
7.683315712,0.99996392136916,138.07821409581953
7.687566336,0.9999566008818582,137.8525357359848
7.69181696,0.9999521464344481,137.6269222492885
7.696068096,0.9999504427268154,137.4013481477326
7.70031872,0.9999516501956957,137.17581142719223
