freq,mag,phase
6.0,1.000992204570074,-16.554337934788922
6.013513728,1.0007518100919075,-17.032040284719873
6.027026944,1.0004774338026512,-17.506804719525988
6.040540672,1.000180856534742,-17.978201680133832
6.054053888,0.999875328238472,-18.44604126910709
6.067567616,0.9995750562559655,-18.910391092083984
6.081080832,0.9992935692596453,-19.371245711792803
6.09459456,0.9990438504484778,-19.829030148545318
6.108108288,0.998836974777818,-20.2841653428727
6.121621504,0.9986828496415385,-20.73725255542132
6.135135232,0.998588441841563,-21.18888027268768
6.148648448,0.9985580742832154,-21.640008673104223
6.162162176,0.9985934094682997,-22.091254835705122
6.175675904,0.9986926036228441,-22.54351892115498
6.18918912,0.9988514611049139,-22.997517276379046
6.202702848,0.9990627540982027,-23.45398077524238
6.216216064,0.9993169294693903,-23.913414376172238
6.229729792,0.9996026226011914,-24.376378371963906
6.243243008,0.9999066143509568,-24.8431413925839
6.256756736,1.0002151870835545,-25.313811639314046
6.270270464,1.00051414820675,-25.788403276267175
6.28378368,1.000790458481602,-26.266704585257145
6.297297408,1.00103089999241,-26.74834192535343
6.310810624,1.0012247370406304,-27.232815392279665
6.324324352,1.0013632935283203,-27.71954666284776
6.33783808,1.0014399906237006,-28.207719410524586
6.351351296,1.0014513947851555,-28.69663727912565
6.364865024,1.001396734362896,-29.18551051930937
6.37837824,1.0012786603403407,-29.673484074972603
6.391891968,1.0011022811533397,-30.159863738022352
6.405405184,1.000875359207203,-30.643942177601772
6.418918912,1.0006082988877847,-31.12519543058124
6.43243264,1.0003130151588164,-31.60317688016736
6.445945856,1.0000029225100986,-32.07760911686877
6.459459584,0.9996921346506148,-32.548455399472736
6.4729728,0.9993946722205158,-33.01568196913254
6.486486528,0.9991243705798263,-33.47960288017239
6.499999744,0.9988932452645038,-33.94061625592155
6.513513472,0.9987120955602052,-34.399254230367305
6.5270272,0.9985891721063326,-34.85616416736164
6.540540416,0.9985300210995339,-35.31216641684157
6.554054144,0.9985378434861811,-35.767981036382686
6.56756736,0.9986121149505628,-36.22448340821966
6.581081088,0.9987495936267953,-36.68246111533526
6.594594816,0.9989440951062571,-37.14261898269824
6.608108032,0.999186830725559,-37.60563777935135
6.62162176,0.9994668248768275,-38.07205703763957
6.635134976,0.9997715611558601,-38.542268719094416
6.648648704,1.0000868244764418,-39.01648017843209
6.66216192,1.0003986203277,-39.49467970960499
6.675675648,1.0006927792871505,-39.976812834759684
6.689189376,1.0009557527046462,-40.46254517696938
6.702702592,1.0011758055496816,-40.951417480430095
6.71621632,1.0013426899096893,-41.442847883033814
6.729729536,1.001448756767674,-41.93613428359266
6.743243264,1.0014892414039347,-42.43054257192099
6.756756992,1.0014622713931334,-42.92523116531398
6.770270208,1.0013686729558344,-43.41937532834973
6.783783936,1.0012129341566647,-43.91221100700134
6.797297152,1.0010016210618158,-44.40295861720227
6.81081088,1.0007444613290768,-44.891063237950576
6.824324096,1.0004530221558796,-45.37597697233043
6.837837824,1.00014041767821,-45.85741765012917
6.851351552,0.999820697785621,-46.335112789339505
6.864864768,0.9995085268326894,-46.80917292252065
6.878378496,0.9992181218088904,-47.27966599817206
6.891891712,0.9989625921794916,-47.7470152249299
6.90540544,0.9987536423880764,-48.21164832076594
6.918919168,0.9986010426909797,-48.67423831438169
6.932432384,0.9985115838184392,-49.13554378439543
6.945946112,0.9984896884938499,-49.59629452097967
6.959459328,0.9985364696419317,-50.05739356056581
6.972973056,0.9986497799837701,-50.519628733817676
6.986486272,0.9988245170098669,-50.98384333622827
7.0,0.9990528724537213,-51.45072517526392
7.013513728,0.9993247982944221,-51.92084347515962
7.027026944,0.9996275126799427,-52.394679753384075
7.040540672,0.9999477827826991,-52.8725140891263
7.054053888,1.000270659590005,-53.35450747846081
7.067567616,1.0005819093251953,-53.84058434610329
7.081080832,1.000866951645375,-54.3305135720904
7.09459456,1.0011132801105687,-54.82390443673428
7.108108288,1.0013092747779522,-55.32018108856279
7.121621504,1.0014463252385934,-55.8187102152063
7.135135232,1.001517961256436,-56.31872124720922
7.148648448,1.001520662620366,-56.819412391868354
7.162162176,1.00145462796063,-57.31991490101905
7.175675904,1.0013222027128532,-57.81940124521409
7.18918912,1.0011296093424982,-58.317122454894154
7.202702848,1.0008854069004045,-58.812397677301895
7.216216064,1.000600569728721,-59.30457250767934
7.229729792,1.000287731592561,-59.79336152912763
7.243243008,0.9999611308523157,-60.278396745433646
7.256756736,0.9996357111600918,-60.759646699344266
7.270270464,0.9993261372804008,-61.237161974966284
7.28378368,0.9990463415475009,-61.71126221522884
7.297297408,0.9988093520262517,-62.182366944095484
7.310810624,0.9986258702851006,-62.651082819727705
7.324324352,0.9985043972513711,-63.118059713356345
7.33783808,0.9984506225231089,-63.584185915442866
7.351351296,0.9984671537446395,-64.05022485389084
7.364865024,0.9985532628220798,-64.5170810912674
7.37837824,0.998705209017606,-64.98559499527799
7.391891968,0.9989161952185782,-65.45652545175815
7.405405184,0.9991766942109805,-65.93056712389942
7.418918912,0.9994750348307602,-66.40819792051073
7.43243264,0.9997975117570892,-66.88984944541518
7.445945856,1.0001297485254665,-67.37572043284628
7.459459584,1.0004566268316584,-67.86581901506044
7.4729728,1.0007632562843436,-68.36002602980939
7.486486528,1.0010358392548384,-68.85797971465719
7.500000256,1.0012618244088483,-69.35919440058463
7.513513472,1.0014310033864047,-69.86303754082623
7.5270272,1.0015356764338617,-70.36876769654326
7.540540416,1.0015708751839645,-70.87556824395608
7.554054144,1.001535007957413,-71.38256764736715
7.56756736,1.0014292936342322,-71.8889420110831
7.581081088,1.0012587580675936,-72.39386867470213
7.594594816,1.0010307481413618,-72.89656057137029
7.608108032,1.0007553025884777,-73.39638617961462
7.62162176,1.000445242125877,-73.89284555394615
7.635134976,1.0001141958743551,-74.38557236370167
7.648648704,0.9997771571173171,-74.87442203672367
7.66216192,0.9994494992223258,-75.35938624659472
7.675675648,0.9991459900240994,-75.84068871726522
7.689189376,0.9988806682984427,-76.31868567012644
7.702702592,0.9986652925738632,-76.79389872426012
7.71621632,0.9985101904243395,-77.26702332129351
7.729729536,0.9984223729842799,-77.73885229222448
7.743243264,0.9984058446164783,-78.21018539361145
7.756756992,0.9984616511425277,-78.68199913155108
7.770270208,0.9985873776448467,-79.15511584992869
7.783783936,0.9987773669220724,-79.63033805137621
7.797297152,0.9990232223369178,-80.10842667977597
7.81081088,0.9993137650488777,-80.59002993006601
7.824324096,0.999635933267126,-81.07559745843211
7.837837824,0.9999751264444704,-81.5654057632863
7.851351552,1.0003160724284768,-82.0596219615478
7.864864768,1.0006433191875395,-82.55810436720597
7.878378496,1.0009418682357214,-83.06064031687032
7.891891712,1.0011983019181319,-83.56679507748674
7.90540544,1.001400968167634,-84.07600026736338
7.918919168,1.0015405475871255,-84.58749532603116
7.932432384,1.0016108022992838,-85.10050875767975
7.945946112,1.0016080483600787,-85.61413550255651
7.959459328,1.0015325732948335,-86.12754962861634
7.972973056,1.0013874933506812,-86.63982371456788
7.986486272,1.0011793425422273,-87.15018278840417
8.0,1.000917208714824,-87.657875636214
8.013513728,1.0006129589425572,-88.16234985323617
8.027026944,1.0002802610656216,-88.66312822944035
8.040540672,0.9999339596650624,-89.15996567474436
8.054053888,0.9995897950578151,-89.65280420472375
8.067567616,0.999263362129309,-90.14169618555059
8.081080832,0.998969649233724,-90.62701838108022
8.09459456,0.9987218133612283,-91.1091708169552
8.108108288,0.9985314025071921,-91.58886920362214
8.121621504,0.9984072137286344,-92.06676215091693
8.135135232,0.9983548668079726,-92.54379360402805
8.148648448,0.998377032273584,-93.02083258726589
8.162162176,0.998472876933696,-93.49876859619197
8.175675904,0.998638040837606,-93.97853478578749
8.18918912,0.9988654418180619,-94.46089008357137
8.202702848,0.9991445617432858,-94.94655075102473
8.216216064,0.9994629879667424,-95.43609883737639
8.229729792,0.9998064125034919,-95.92994271747081
8.243243008,1.0001592548318128,-96.42818837456053
8.256756736,1.0005055407359476,-96.93099954733033
8.270270464,1.000829659633703,-97.43809937506178
8.28378368,1.0011168013448692,-97.94914455860201
8.297297408,1.0013540087126946,-98.4636685536348
8.310810624,1.0015305147767533,-98.9809349077184
8.324324352,1.0016381179288865,-99.5001388064355
8.33783808,1.0016719497062108,-100.02047509136115
8.351351296,1.0016301851734275,-100.54098748443151
8.364865024,1.0015145791499847,-101.06078907450299
8.37837824,1.001330275649877,-101.57896650068797
8.391891968,1.0010853146184249,-102.09480067895133
8.405405184,1.0007906147046313,-102.60755610196597
8.418918912,1.0004594399707423,-103.11668748602213
8.43243264,1.000106628100269,-103.62188787695221
8.445945856,0.9997479693524381,-104.12292601889362
8.459459584,0.9993999603716949,-104.61985846537134
8.4729728,0.9990780892569272,-105.11289073969662
8.486486528,0.998797336586861,-105.60240750522091
8.499999744,0.9985702888705283,-106.08902781616375
8.513513472,0.9984073967443405,-106.57342298723302
8.5270272,0.9983162881429113,-107.05644238962554
8.540540416,0.9983012408903962,-107.53902305938674
8.554054144,0.9983632440245995,-108.02209720764759
8.56756736,0.9984994788118275,-108.50656504222827
8.581081088,0.9987039601389684,-108.99330907767076
8.594594816,0.9989675770115004,-109.48317923587533
8.608108544,0.9992785264795656,-109.9767223381189
8.621621248,0.9996227979943691,-110.4745430549065
8.635134976,0.9999848690558074,-110.97687326162013
8.648648704,1.000348504415629,-111.48388512427758
8.662162432,1.0006970309828895,-111.99546735357846
8.67567616,1.0010149176970835,-112.51137130965488
8.689188864,1.0012875873518137,-113.03106965398015
8.702702592,1.0015026669882001,-113.55403550066673
8.71621632,1.0016503077283432,-114.07941223039643
8.729730048,1.0017238391764618,-114.60640206290395
8.743242752,1.001719627582166,-115.13404276111736
8.75675648,1.0016378048472592,-115.66142027362358
8.770270208,1.001481725185743,-116.18757469567865
8.783783936,1.0012584179755906,-116.71167477178143
8.797297664,1.0009776281239844,-117.23292531708216
8.810810368,1.0006517903627297,-117.75070579741792
8.824324096,1.0002957770659837,-118.26457736159675
8.837837824,0.9999253221022617,-118.77419489090569
8.851351552,0.999557205339289,-119.27953128322245
8.86486528,0.9992082319326391,-119.78067167587406
8.878377984,0.9988940663937054,-120.27794768175261
8.891891712,0.9986291357817497,-120.7718995647848
8.90540544,0.9984256316766307,-121.26315059244129
8.918919168,0.9982927771802959,-121.75250792682023
8.932432896,0.9982368459294092,-122.2409463492555
8.9459456,0.9982606740666997,-122.72934546752923
8.959459328,0.9983632792818221,-123.21872669157266
8.972973056,0.998540233853778,-123.71003854012466
8.986486784,0.9987836705267684,-124.20409694582497
8.999999488,0.9990827833391679,-124.70170359034448
9.013513216,0.9994240820006771,-125.2034674830662
9.027026944,0.9997922010527261,-125.7097777326522
9.040540672,1.0001706214487294,-126.22087381293034
9.0540544,1.000542217531595,-126.73678715923332
9.067567104,1.0008901684065439,-127.25735266875918
9.081080832,1.001198849953297,-127.78213178326283
9.09459456,1.0014541444637546,-128.3105985628371
9.108108288,1.0016443940349695,-128.84200896153658
9.121622016,1.001761033879344,-129.3755756905619
9.13513472,1.0017984793143178,-129.91027973003708
9.148648448,1.0017548809829684,-130.44523556408618
9.162162176,1.0016320395192233,-130.9794177980523
9.175675904,1.0014352497167724,-131.51192507057078
9.189189632,1.0011730626122817,-132.04183538297895
9.202702336,1.0008573070418825,-132.56850050957885
9.216216064,1.0005018698416688,-133.09128282370423
9.229729792,1.0001227704569855,-133.60983459987713
9.24324352,0.9997370250470139,-134.12390807486108
9.256757248,0.9993620471028732,-134.63354651743174
9.270269952,0.9990148312003525,-135.13898049707782
9.28378368,0.998711136915707,-135.64061371191974
9.297297408,0.9984648541233944,-136.1390981168388
9.310811136,0.9982874153323,-136.63512293000545
9.32432384,0.9981868492957664,-137.12966782999754
9.337837568,0.9981681099858075,-137.6236698589021
9.351351296,0.9982321828736205,-138.11814282986666
9.364865024,0.9983764165853001,-138.6140867003831
9.378378752,0.9985943485597265,-139.11242940413726
9.391891456,0.9988765773220452,-139.6140905285089
9.405405184,0.9992102483807915,-140.11971506437817
9.418918912,0.9995805655489869,-140.62987027572873
9.43243264,0.9999707765958435,-141.1448959618495
9.445946368,1.0003633327982318,-141.66492400158887
9.459459072,1.0007405097449285,-142.1898957521997
9.4729728,1.001085297021051,-142.71950708466454
9.486486528,1.0013821264583294,-143.2532949601222
9.500000256,1.0016174022096724,-143.79052328673134
9.513513984,1.0017804701203978,-144.33043760330955
9.527026688,1.0018637321608337,-144.8721374790816
9.540540416,1.0018633118083182,-145.414590662913
9.554054144,1.0017789001711566,-145.9567642636183
9.567567872,1.001614216506073,-146.49768411861277
9.581080576,1.0013761603579707,-147.03640107391706
9.594594304,1.0010754685438972,-147.57210881617019
9.608108032,1.0007253138531595,-148.10405385512544
9.62162176,1.0003414253479779,-148.63179830730465
9.635135488,0.9999409014472881,-149.15496049369014
9.648648192,0.9995417680252717,-149.67344408565
9.66216192,0.9991621443051886,-150.18737960653218
9.675675648,0.9988191334905434,-150.69711872454718
9.689189376,0.9985284598488637,-151.20313884058532
9.702703104,0.9983034136440195,-151.7062001055701
9.716215808,0.9981543341803504,-152.20715401199675
9.729729536,0.9980882338783238,-152.7069937289307
9.743243264,0.998108400271506,-153.20670788311793
9.756756992,0.9982141267594878,-153.70741387583377
9.77027072,0.9984008856938454,-154.21009990463273
9.783783424,0.9986604012521871,-154.71571870024903
9.797297152,0.9989813272149741,-155.22511037189486
9.81081088,0.99934906498651,-155.73890717956021
9.824324608,0.9997472425315773,-156.25761807358788
9.837838336,1.000158101053454,-156.78150911374797
9.85135104,1.000562950807388,-157.31059872113258
9.864864768,1.0009436124171445,-157.8447280889565
9.878378496,1.0012829025806305,-158.38346767894376
9.891892224,1.0015654176523554,-158.92625715342066
9.905404928,1.0017783177807165,-159.47230950653946
9.918918656,1.0019118066328707,-160.0207344514247
9.932432384,1.0019597801350153,-160.57051914927754
9.945946112,1.0019195819545865,-161.12060070246852
9.95945984,1.0017929531937368,-161.66995286571054
9.972972544,1.001585197702911,-162.2175025483366
9.986486272,1.0013055106695414,-162.76236212771147
10.0,1.000965979793948,-163.30368348713608
10.013513728,1.0005819255059987,-163.84084942916934
10.027027456,1.0001703209105626,-164.37341302780226
10.04054016,0.9997496037282269,-164.90107573692615
10.054053888,0.9993388823815345,-165.42391744066816
10.067567616,0.9989565264913723,-165.9420884253499
10.081081344,0.9986199729342178,-166.45605057816428
10.094595072,0.9983446115167827,-166.96646547069074
10.108107776,0.99814301942782,-167.47414055959948
10.121621504,0.9980246699838591,-167.98004859698375
10.135135232,0.9979951383366914,-168.48521933117968
10.14864896,0.9980560891993804,-168.99076703628361
10.162161664,0.9982050057456421,-169.49779920844907
10.175675392,0.9984354996027105,-170.0073460172744
10.18918912,0.9987374338361332,-170.5203304715096
10.202702848,0.9990971243248079,-171.03760879739986
10.216216576,0.9994987452487403,-171.55972164532838
10.22972928,0.9999243172107711,-172.08712577260454
10.243243008,1.0003545571287935,-172.6199799122518
10.256756736,1.0007702525788864,-173.1582341410259
10.270270464,1.0011526401950677,-173.70158696149406
10.283784192,1.001484407212604,-174.249535109766
10.297296896,1.0017503808479546,-174.80137976973
10.310810624,1.0019385829727745,-175.35622798139087
10.324324352,1.0020402947096931,-175.91311418205086
10.33783808,1.002050614536094,-176.47094881114543
10.351351808,1.0019687858381843,-177.0286033044802
10.364864512,1.001798130929124,-177.58501093855082
10.37837824,1.001546147155484,-178.1390776166029
10.391891968,1.00122361292037,-178.6899305110149
10.405405696,1.0008448236365568,-179.23676224095422
10.418919424,1.0004267024557447,-179.77898055408977
10.432432128,0.9999878095165085,179.68380331252217
10.445945856,0.9995478286674538,179.15173449952135
10.459459584,0.9991265339538885,178.62471821455665
10.472973312,0.9987431046442915,178.10242076921014
10.486486016,0.998414823308367,177.58428603427916
10.499999744,0.998156877578441,177.06955773969898
10.513513472,0.9979812115240192,176.55732801871324
10.5270272,0.9978958999031812,176.04650489377556
10.540540928,0.9979052943181086,175.53597836343843
10.554053632,0.998009196803323,175.0245758050376
10.56756736,0.9982032455893919,174.51117436801513
10.581081088,0.9984791085118476,173.99469785463683
10.594594816,0.9988244812757989,173.47421264713583
10.608108544,0.9992240183095046,172.9489647968433
10.621621248,0.9996599867212022,172.41841726376367
10.635134976,1.0001126434418228,171.88221313244955
10.648648704,1.000561895391818,171.34027994357078
10.662162432,1.000987450261615,170.79277103335875
10.67567616,1.0013700225193198,170.24011601071476
10.689188864,1.001692550118479,169.68290137819
10.702702592,1.0019400025792746,169.12195736903615
10.71621632,1.0021013186870547,168.55828184510787
10.729730048,1.0021688211996254,167.99295065913836
10.743242752,1.0021392537171443,167.42710653586727
10.75675648,1.0020133258487647,166.86194750379747
10.770270208,1.0017966034231134,166.2985912477965
10.783783936,1.0014983245895688,165.73808322784856
10.797297664,1.0011315085083552,165.1813748581416
10.810810368,1.0007122782423454,164.629175293865
10.824324096,1.0002593411711578,164.08207329604747
10.837837824,0.9997927988558446,163.5403535682394
10.851351552,0.9993338075257453,163.00404498544793
10.86486528,0.9989026908761837,162.47300016199688
10.878377984,0.9985193076082977,161.94672296903357
10.891891712,0.9982011662779848,161.4245871312841
10.90540544,0.9979626818288768,160.90567790661748
10.918919168,0.9978151383651486,160.3889592848442
10.932432896,0.9977653867770521,159.8732761119537
10.9459456,0.9978161805407173,159.35742275896467
10.959459328,0.9979657715403617,158.84016128969367
10.972973056,0.9982074823025234,158.32035048307256
10.986486784,0.9985309393454843,157.7968765370054
11.000000512,0.9989217934123438,157.2688386789426
11.013513216,0.9993626438561336,156.73550476009618
11.027026944,0.9998340114716974,156.1964116659467
11.040540672,1.0003144894981895,155.65126042706817
11.0540544,1.0007826434195644,155.10010243566688
11.067567104,1.0012175298473394,154.5432290873119
11.081080832,1.001599416294908,153.98109912720048
11.09459456,1.0019108210496415,153.41450710203114
11.108108288,1.0021378821237619,152.84437812708182
11.121622016,1.0022698316707805,152.2717981430388
11.13513472,1.0023005261717959,151.6979660072597
11.148648448,1.0022280274580362,151.12408451871002
11.162162176,1.002055226757773,150.5514072571258
11.175675904,1.0017894102242597,149.98112986009951
11.189189632,1.001442105581807,149.41428476279472
11.202702336,1.0010284349184162,148.85182466426215
11.216216064,1.0005666482759514,148.2944193617666
11.229729792,1.0000772923336854,147.74255797107605
11.24324352,0.9995821354512405,147.19649609354667
11.256757248,0.9991034721841952,146.65618239165005
11.270269952,0.9986629600692315,146.12126462286065
11.28378368,0.9982805187843189,145.59119420116102
11.297297408,0.9979737866638932,145.06518305808365
11.310811136,0.9977567196728422,144.5422191928529
11.32432384,0.9976398540028172,144.02113152401583
11.337837568,0.997628587523559,143.50068959255117
11.351351296,0.9977242109708103,142.97953839791487
11.364865024,0.9979226256445766,142.456437653455
11.378378752,0.9982153262160083,141.9301695851972
