freq,mag,phase
6.0,0.9999501119520285,-126.7283190587108
6.002285056,0.9998686122482324,-126.86432621152997
6.004570112,0.9997955383066456,-126.9991821041978
6.006855168,0.99973577058493,-127.13309432313362
6.009140224,0.9996930170534741,-127.26623901749191
6.01142528,0.9996702825549462,-127.39890424645094
6.013710336,0.9996686531704086,-127.53138125415285
6.015995392,0.9996884349005852,-127.66398871673552
6.018280448,0.9997284017685832,-127.7970506789028
6.020565504,0.9997858892785838,-127.93077648655525
6.02285056,0.9998574193846447,-128.06543658600808
6.025135616,0.9999384239093083,-128.20123703389714
6.027420672,1.0000235480945365,-128.33822759326284
6.029705728,1.0001077258993487,-128.47647005798802
6.031990784,1.000185272670529,-128.61585250404354
6.03427584,1.0002514830693563,-128.75629925178794
6.036560896,1.0003021389067632,-128.89756078410352
6.038845952,1.0003339755635885,-129.03947133245202
6.041131008,1.000344868042613,-129.1816628211651
6.043416064,1.0003342006854905,-129.32386234155874
6.04570112,1.0003025737878655,-129.46575100587867
6.047986176,1.0002521420498307,-129.60700853226152
6.050271232,1.0001858868627354,-129.74747553305178
6.052556288,1.000108223639859,-129.88684072606662
6.054841344,1.000023890883283,-130.02504413114733
6.0571264,0.99993831100781,-130.16201185402565
6.059411456,0.9998569278835068,-130.29773252671842
6.061696512,0.9997848977928777,-130.4323673654788
6.063981568,0.9997269073588207,-130.56603631085324
6.066266624,0.9996864330504531,-130.69898963356405
6.06855168,0.9996662362442924,-130.8314726775238
6.070836736,0.9996676037592099,-130.96382738371466
6.073121792,0.9996903988946639,-131.09636018107096
6.075406848,0.9997331893268583,-131.22937244265344
6.077691904,0.9997932765290637,-131.36309606984128
6.07997696,0.9998668400772266,-131.4978231373079
6.082262016,0.9999493267611808,-131.63366356324298
6.084547072,1.000035317079848,-131.770729223234
6.086832128,1.0001193833547275,-131.90903085961023
6.089117184,1.000196396403987,-132.04848884255898
6.09140224,1.0002612437455818,-132.1889927508613
6.093687296,1.0003097948321493,-132.33029525882375
6.095972352,1.0003390483832837,-132.47216416901102
6.098257408,1.0003471190606184,-132.61434529781522
6.100542464,1.0003334525470893,-132.75642442083858
6.10282752,1.0002989707237266,-132.89820346816327
6.105112576,1.000245733187814,-133.0392855891873
6.107397632,1.0001772331022891,-133.17952899239185
6.1096832,1.0000976800639203,-133.31866058813304
6.111968256,1.0000122969488259,-133.45657307281778
6.114253312,0.9999262850116932,-133.5932648356794
6.116538368,0.9998453107907683,-133.72872953600825
6.118823424,0.9997743780601244,-133.86304637376114
6.12110848,0.9997181043341679,-133.99649926256333
6.123393536,0.999680012877603,-134.12922379927303
6.125678592,0.9996625587897472,-134.26151966637283
6.127963648,0.9996668887343828,-134.39373279478625
6.130248704,0.9996926084244525,-134.52617876514668
6.13253376,0.9997383293130158,-134.65909807463356
6.134818816,0.9998009689726115,-134.79282087968943
6.137103872,0.9998765755294411,-134.92754835704125
6.139388928,0.9999604712140352,-135.06339680776819
6.141673984,1.0000471999102738,-135.20051172689216
6.14395904,1.000131272182082,-135.33887496974248
6.146244096,1.0002073955694555,-135.47838688570383
6.148529152,1.0002707576576657,-135.61889747356736
6.150814208,1.0003172247131744,-135.76020352299392
6.153099264,1.0003438404357172,-135.90206700736246
6.15538432,1.0003490444121275,-136.04413189989518
6.157669376,1.0003323392044134,-136.1861238925695
6.159954432,1.000294921442827,-136.32769902790307
6.162239488,1.0002389280376829,-136.46858115082227
6.164524544,1.000168171082469,-136.60856728015446
6.1668096,1.0000869103344228,-136.74740781481935
6.169094656,1.0000004912106102,-136.88505143316377
6.171379712,0.9999142483992174,-137.02143893667926
6.173664768,0.9998336707553207,-137.15656338160574
6.175949824,0.9997639980924,-137.29060154720102
6.17823488,0.9997095989943091,-137.4237635038306
6.180519936,0.9996739144888721,-137.5562667965821
6.182804992,0.9996592908816752,-137.68833752046461
6.185090048,0.9996666047115703,-137.820362043012
6.187375104,0.9996953963311733,-137.95267234660722
6.18966016,0.9997438944116793,-138.08553949884848
6.191945216,0.9998090276674391,-138.21919861568344
6.194230272,0.9998867146701406,-138.35393340580296
6.196515328,0.9999718343740426,-138.48980117103517
6.198800384,1.0000591438489703,-138.62693260076267
6.20108544,1.0001432244150412,-138.76528775513574
6.203370496,1.000218360749591,-138.90483331989944
6.205655552,1.0002800756766075,-139.04534788581344
6.207940608,1.000324326463963,-139.18661801677098
6.210225664,1.00034833983112,-139.32842947390384
6.21251072,1.0003505668222337,-139.47031708411333
6.214795776,1.0003308553367565,-139.61217548684743
6.217080832,1.0002903793359423,-139.75354416172743
6.219365888,1.0002318040588134,-139.89422064796486
6.221650944,1.0001587785100636,-140.03392057237207
6.223936,1.0000758795856055,-140.17243955636062
6.226221056,0.9999884511993417,-140.30977724375325
6.228506112,0.9999020336550752,-140.44579333025845
6.230791168,0.9998220498579936,-140.58063614997138
6.233076224,0.9997537050482728,-140.71431174624655
6.23536128,0.9997012457916497,-140.84721027663994
6.237646336,0.9996680305123793,-140.97940729447478
6.239931392,0.9996562839032345,-141.11127035445557
6.242216448,0.9996665798792318,-141.24309155765835
6.244501504,0.9996984890390193,-141.37525449488587
6.24678656,0.9997498599041202,-141.50801356494597
6.249071616,0.9998174828600314,-141.64160479791917
6.251356672,0.9998970657475966,-141.77629777569163
6.253641728,0.9999835138835126,-141.91214391587891
6.255926784,1.0000713066986446,-142.0492904767774
6.25821184,1.000155097334069,-142.18766518663256
6.260496896,1.0002293115286855,-142.32715903474488
6.262781952,1.000289349649273,-142.46765393193144
6.265067008,1.0003312880784105,-142.6088587156279
6.267352064,1.000352587972819,-142.75055138259307
6.26963712,1.000351779936571,-142.89235402172707
6.271922176,1.0003289708289647,-143.03398603859668
6.274207232,1.00028562445031,-143.1751332284129
6.276492288,1.0002242979848281,-143.31554648149222
6.278777344,1.0001490615887858,-143.45491791518415
6.2810624,1.0000646516979668,-143.59312876765154
6.283347456,0.9999763011697861,-143.73007496145007
6.285632512,0.9998898011552081,-143.86576651390516
6.287917568,0.9998104985502511,-144.00018741705793
6.290202624,0.9997435380178711,-144.13359708557246
6.29248768,0.9996931529542485,-144.26611190966145
6.294772736,0.9996625127082915,-144.3980033021537
6.297057792,0.9996535720955084,-144.5296364805783
6.299342848,0.9996670633458111,-144.6612607562253
6.301627904,0.9997019694524014,-144.79324079987347
6.30391296,0.9997562066935883,-144.92586720310106
6.306198016,0.9998262734517028,-145.05937285528717
6.308483072,0.9999076543671765,-145.1940253209849
6.310768128,0.9999953460454031,-145.32983247254384
6.313053184,1.0000836163577538,-145.46695013218965
6.31533824,1.0001670003222431,-145.60526937225478
6.317623296,1.0002401490682735,-145.7447763265591
6.319908352,1.0002983588939947,-145.88519251555806
6.322193408,1.000337931095422,-146.02631170984048
6.324478976,1.0003563910016038,-146.16785908048075
6.326764032,1.0003526378237113,-146.30948840468812
6.329049088,1.0003266695373025,-146.45090225045772
6.331334144,1.000280332299368,-146.59179314261166
6.3336192,1.000216431060493,-146.73188232942692
6.335904256,1.0001390185534513,-146.87092553286874
6.338189312,1.0000531017328163,-147.00877005881617
6.340474368,0.9999639786748509,-147.14533297435577
6.342759424,0.9998774866466803,-147.2806054982061
6.34504448,0.9997989114319017,-147.41465679893466
6.347329536,0.9997334837331119,-147.5476803022811
6.349614592,0.9996852682997491,-147.67984752391422
6.351899648,0.999657252960896,-147.81144141823768
6.354184704,0.9996513783405491,-147.94277271880563
6.35646976,0.9996678921597628,-148.07416941618058
6.358754816,0.9997059464220214,-148.20597479430148
6.361039872,0.9997629150309182,-148.33845563543832
6.363324928,0.9998353454174376,-148.4718894615757
6.365609984,0.9999185639000093,-148.6063991376211
6.36789504,1.00000734174286,-148.74215781273304
6.370180096,1.0000959442790303,-148.87922711448883
6.372465152,1.0001789258768596,-149.01750610709632
6.374750208,1.0002508581520173,-149.15695376694634
6.377035264,1.0003071255499152,-149.29728608940735
6.37932032,1.0003442381177274,-149.43828929623373
6.381605376,1.0003598739829271,-149.57968139336515
6.383890432,1.0003529327557303,-149.72109779059622
6.386175488,1.000323939904112,-149.8622662558464
6.388460544,1.0002745727077615,-150.0028908000691
6.3907456,1.0002080566088962,-150.14259705060564
6.393030656,1.000128634806792,-150.2812995737107
6.395315712,1.0000412523510802,-150.41874131571376
6.397600768,0.9999514817676787,-150.55487222896474
6.399885824,0.9998650325562481,-150.68972211196188
6.40217088,0.9997874786867481,-150.823395276862
6.404455936,0.9997235991298373,-150.95599260434938
6.406740992,0.9996775844846715,-151.08778845159597
6.409026048,0.9996524001693039,-151.21905989267466
6.411311104,0.9996495342688927,-151.35010685776095
6.41359616,0.9996692262455164,-151.4812794894326
6.415881216,0.9997103549326204,-151.61286251268768
6.418166272,0.9997701387077478,-151.74519328856277
6.420451328,0.9998448475411958,-151.8784500228418
6.422736384,0.9999297912462223,-152.01288319548595
6.42502144,1.0000195796770797,-152.14859959455666
6.427306496,1.0001085209473162,-152.28556035565026
6.429591552,1.0001908490892848,-152.4237816370244
6.431876608,1.0002614543122483,-152.5631368278553
6.434161664,1.000315764988077,-152.70332865579792
6.43644672,1.0003503624559436,-152.84419003812314
6.438731776,1.0003630228313725,-152.9853809243551
6.441016832,1.0003529781225637,-153.1266104173238
6.443301888,1.0003207205170055,-153.26749210696062
6.445586944,1.0002684333608376,-153.40775837674585
6.447872,1.0001993464438812,-153.54713707880168
6.450157056,1.0001178593605102,-153.6853980680629
6.452442112,1.0000291210637258,-153.82243350786908
6.454727168,0.9999387583770376,-153.95814455991146
6.457012224,0.9998525798224939,-154.09254672359705
6.45929728,0.9997759406229539,-154.2257459082035
6.461582336,0.9997138084320062,-154.35791740061472
6.463867392,0.9996702104764679,-154.48932665103877
6.466152448,0.9996477956377732,-154.62024947210915
6.468437504,0.9996480294882782,-154.75098948087208
6.47072256,0.9996709298337734,-154.88187158038377
6.473007616,0.9997150836195243,-155.01324130262824
6.475292672,0.9997776281332317,-155.14539542890412
6.477577728,0.9998547068124165,-155.27850871714747
6.479862784,0.9999412826027188,-155.41285195477073
6.48214784,1.0000320321972243,-155.54841035577954
6.484432896,1.00012110719785,-155.68532144565899
6.486717952,1.000202750307352,-155.82345068976812
6.489003008,1.0002719150278032,-155.9626818274579
6.491288064,1.0003240963597506,-156.1027701446079
6.49357312,1.0003560170156856,-156.24344407821553
6.495858176,1.000365695970045,-156.38442856240033
6.498143232,1.0003524345935748,-156.52535999931882
6.500428288,1.0003170645926325,-156.6659480281441
6.502713344,1.0002618775355259,-156.80583853028898
6.5049984,1.0001902451715856,-156.94481880534323
6.507283456,1.0001068278580973,-157.0826524370282
6.509568512,1.0000168501208502,-157.2192295909665
6.511853568,0.9999259909021032,-157.35449682669122
6.514138624,0.9998401001867713,-157.48839069689373
6.51642368,0.9997646286616765,-157.62117707038743
6.518708736,0.9997043566859182,-157.75292140322352
6.520993792,0.9996631018199553,-157.8839239692492
6.523278848,0.9996435385662885,-158.01442424117732
6.525563904,0.9996469498062492,-158.14482807906577
6.52784896,0.9996730659502665,-158.27546880158658
6.530134016,0.9997202913613742,-158.4065640111536
6.532419072,0.9997856802378355,-158.53852472994998
6.534704128,0.9998649207005211,-158.6714947843195
6.536989184,0.9999531818182492,-158.8056722072638
6.53927424,1.0000447131311712,-158.94115231170457
6.541559808,1.0001337784327808,-159.07793837093737
6.543844864,1.0002147162054122,-159.21594894243427
6.54612992,1.0002823530117408,-159.35504912874083
6.548414976,1.0003322651323612,-159.49493041768258
6.550700032,1.0003615065069975,-159.63544329644984
6.552985088,1.0003680530441863,-159.77615442957978
6.555270144,1.0003515669410614,-159.9168230697943
6.5575552,1.000313082200402,-160.05706553331328
6.559840256,1.000254932449223,-160.19661272835572
6.562125312,1.0001806762860541,-160.3351222359433
6.564410368,1.000095414399109,-160.4725120272179
6.566695424,1.0000041766221395,-160.6086036407486
6.56898048,0.9999130161032452,-160.7433435017172
6.571265536,0.9998275226738048,-160.876781321183
6.573550592,0.9997533454014146,-161.00906053827373
6.575835648,0.9996949046174809,-161.1403205951621
6.578120704,0.9996562116469505,-161.27089951120334
6.58040576,0.9996396970646976,-161.40104769704018
6.582690816,0.999646294861458,-161.53110559072377
6.584975872,0.9996756079983558,-161.66140301640198
6.587260928,0.9997259746129653,-161.79229184714092
6.589545984,0.9997941082805941,-161.92400162032453
6.59183104,0.9998755227883591,-162.05680512856304
6.594116096,0.9999652239357341,-162.19084165497816
6.596401152,1.0000575415006199,-162.3261990683221
6.598686208,1.0001464781627893,-162.4628152393481
6.600971264,1.0002264855802445,-162.60070759037808
6.60325632,1.0002924454283637,-162.7396111119153
6.605541376,1.0003401547570174,-162.87932898568874
6.607826432,1.0003665410076448,-163.01961229770515
6.610111488,1.000369990223421,-163.1600830832459
6.612396544,1.0003501761231146,-163.30042681182186
6.6146816,1.0003084820152046,-163.44026477912598
6.616966656,1.0002473983538047,-163.57937600402101
6.619251712,1.0001707835511808,-163.7174814588465
6.621536768,1.0000835655115583,-163.85438584804982
6.623821824,0.9999913677836891,-163.98994381537756
6.62610688,0.9998998439062744,-164.12418343939447
6.628391936,0.9998148894475157,-164.2571069135574
6.630676992,0.9997420578774288,-164.38887270726346
6.632962048,0.9996857560023764,-164.51967452408277
6.635247104,0.9996497229287543,-164.64977255577355
6.63753216,0.9996362017247445,-164.77954100217238
6.639817216,0.9996460838160536,-164.9092462150337
6.642102272,0.9996787667955086,-165.0392454687978
6.644387328,0.9997321829655736,-165.1698254646984
6.646672384,0.9998029510761475,-165.30131521960345
6.64895744,0.9998865707843964,-165.43392379360438
6.651242496,0.9999776657665237,-165.56777765199064
6.653527552,1.000070563586727,-165.70296705105534
6.655812608,1.0001593446763999,-165.83949167823388
6.658097664,1.0002384302028717,-165.97717812835484
6.66038272,1.0003025519655264,-166.11590585713088
6.662667776,1.0003479019033437,-166.25541206791448
6.664952832,1.0003714086493605,-166.39544006848666
6.667237888,1.00037157709147,-166.53559663918634
6.669522944,1.0003484865610437,-166.6755959358766
6.671808,1.0003034992526094,-166.8150357999875
6.674093056,1.0002395288225627,-166.95373271156612
6.676378112,1.0001605747447795,-167.09134440676075
6.678663168,1.0000716235857057,-167.22774109557085
6.680948224,0.9999783204394228,-167.36277258212138
6.68323328,0.9998866470439106,-167.49646060353786
6.685518336,0.9998024545684725,-167.62882719750127
6.687803392,0.9997309861033795,-167.76008554854874
6.690088448,0.9996768513376595,-167.8903968995559
6.692373504,0.9996434860856549,-168.02004701934314
6.69465856,0.999633157256564,-168.14936908012373
6.696943616,0.9996462621265468,-168.27867138945246
6.699228672,0.9996822351744281,-168.4083408086745
6.701513728,0.9997387125796684,-168.53867133227064
6.703798784,0.9998121800766289,-168.66995300973642
6.70608384,0.9998978713514506,-168.80232617485885
6.708368896,0.9999902846636574,-168.93601380392502
6.710653952,1.0000838349540433,-169.071025599388
6.712939008,1.0001722771306645,-169.20735488310805
6.715224064,1.0002501790198806,-169.34488040017067
6.71750912,1.0003124538920594,-169.4833715823089
6.719794176,1.000355215246254,-169.62264942915743
6.722079232,1.0003756766083949,-169.76240932560563
6.724364288,1.0003726182377373,-169.9022365584114
6.726649344,1.0003462668259384,-170.0418537200625
6.7289344,1.0002979897477042,-170.18091013271027
6.731219456,1.0002311741379233,-170.3191273727154
6.733504512,1.0001497507022987,-170.45620901576834
6.735789568,1.0000592285799665,-170.59206642035062
6.738074624,0.9999650717841446,-170.72657636710127
6.74035968,0.9998732512954648,-170.85970476834743
6.742644736,0.9997898778895477,-170.9915150394908
6.744929792,0.999719909385722,-171.12218489848934
6.747214848,0.9996681022745039,-171.2519981274392
6.749499904,0.9996375796452326,-171.38116454666724
6.75178496,0.9996303775852204,-171.51004520193788
6.754070016,0.9996470082591424,-171.63898249241905
6.756355072,0.9996862685935244,-171.76830385244494
6.75864064,0.9997457812912796,-171.89832206571612
6.760925696,0.9998218702365381,-172.0293367361645
6.763210752,0.999909558009307,-172.16151015007114
6.765495808,1.000003267273649,-172.29499276785404
6.767780864,1.000097198182818,-172.42983787684324
6.77006592,1.0001852295688525,-172.56595737516568
6.772350976,1.0002618355698598,-172.70326331651637
6.774636032,1.0003221941499807,-172.84156297233085
6.776921088,1.0003622470255213,-172.9805757625645
6.779206144,1.0003797746639698,-173.12001164170292
6.7814912,1.0003733641421964,-173.2595159552986
6.783776256,1.0003435141191963,-173.39870885590537
6.786061312,1.000292113356696,-173.5373235343931
6.788346368,1.000222367165312,-173.6750388225977
6.790631424,1.0001387075513746,-173.81161510791264
6.79291648,1.0000465085993764,-173.9468950991612
6.795201536,0.9999515770026872,-174.08079668291302
6.797486592,0.9998598468624154,-174.2133589244181
6.799771648,0.9997772865710876,-174.3446024232565
6.802056704,0.9997090842382177,-174.47472607034285
6.80434176,0.9996596947988704,-174.60399149298124
6.806626816,0.9996320969120679,-174.73267197154416
6.808911872,0.9996281890478657,-174.86110729137357
6.811196928,0.999648169778869,-174.9896484871269
6.813481984,0.9996907872902037,-175.11861336752062
6.81576704,0.9997534198574054,-175.24831009398687
6.818052096,0.9998320348475898,-175.37906612175468
6.820337152,0.9999215996715068,-175.5110198131196
6.822622208,1.0000165714249418,-175.6442643702032
6.824907264,1.0001107769321598,-175.77888802380002
6.82719232,1.0001982351197685,-175.91484141377848
6.829477376,1.0002735280959365,-176.0519528774677
6.831762432,1.0003317650023689,-176.18998800805375
6.834047488,1.0003690887142438,-176.32871751807306
6.836332544,1.0003833645705775,-176.46783171758577
6.8386176,1.0003735585859155,-176.60694598023483
6.840902656,1.0003402408939328,-176.74573792214173
6.843187712,1.0002856230987676,-176.88385801014667
6.845472768,1.0002131369969218,-177.02105787137725
6.847757824,1.0001271895459283,-177.15708439993435
6.85004288,1.0000334911304218,-177.29178744819728
6.852327936,0.9999378359798474,-177.42510471220712
6.854612992,0.999846267511383,-177.55702496077996
6.856898048,0.999764787716309,-177.68767701651268
6.859183104,0.9996983796988353,-177.81722729493828
6.86146816,0.9996513936465835,-177.9459424149985
6.863753216,0.9996267766630788,-178.07411206675113
6.866038272,0.999626283527817,-178.20210816042686
6.868323328,0.9996498043947067,-178.330214353761
6.870608384,0.9996957871379487,-178.45883409434109
6.87289344,0.9997613824278231,-178.58820951680624
6.875178496,0.9998425010935562,-178.7186535636491
6.877463552,0.9999340745438722,-178.85035996115425
6.879748608,1.0000300231487462,-178.98343116584786
6.882033664,1.0001245064849433,-179.1178176280547
6.88431872,1.0002113647645774,-179.25353924187195
6.886603776,1.000285017682581,-179.3904144433188
6.888888832,1.000340997410751,-179.5282019631249
6.891173888,1.0003755155932739,-179.6666218449742
6.893458944,1.0003865259548204,-179.80537542821483
6.895744,1.0003732437635064,-179.94408816061045
6.898029056,1.0003366093489765,179.91757167300986
6.900314112,1.000278698537112,179.77993426588654
6.902599168,1.0002034482004636,179.64324299754753
6.904884224,1.00011534059386,179.50781056115486
