freq,mag,phase
6.0,1.0000867202170087,46.14415294186574
6.002287104,1.0000974717381004,45.98929677353803
6.004574208,1.0001024984618838,45.83425792119335
6.006861312,1.000101431189927,45.67915843214008
6.009147904,1.00009445814913,45.524061854289045
6.011435008,1.0000818862858425,45.36907285109165
6.013722112,1.0000645877918912,45.21422371618694
6.016009216,1.0000435563563013,45.05962697229845
6.01829632,1.0000202302933805,44.90531130209225
6.020583424,0.9999960854181514,44.75129423020855
6.022870016,0.9999725128328304,44.5975700241653
6.02515712,0.9999512443004152,44.444119517682005
6.027444224,0.9999333429785296,44.29091447860263
6.029731328,0.9999201831639096,44.137886535538684
6.032018432,0.9999124792630962,43.98496264754224
6.034305536,0.9999107960521906,43.83205552901225
6.036592128,0.9999151640680202,43.679084762909326
6.038879232,0.9999253330292194,43.525971934900696
6.041166336,0.9999407496203233,43.37259931029612
6.04345344,0.9999603301039663,43.21893481974464
6.045740544,0.9999829648519043,43.06492875107958
6.048027648,1.0000070606771836,42.910510345513984
6.05031424,1.000031227921936,42.75570011561825
6.052601344,1.0000538715158067,42.600505126010134
6.054888448,1.0000735448004816,42.44495598403672
6.057175552,1.000088991889051,42.289099826161454
6.059462656,1.000099396154509,42.133001188795156
6.06174976,1.0001037955985748,41.976730925235536
6.064036352,1.0001021426469499,41.82040333293597
6.066323456,1.0000944514089667,41.66409182915636
6.06861056,1.0000811321018936,41.50788094961972
6.070897664,1.0000632729637307,41.35183867271284
6.073184768,1.0000417134581792,41.19601825085066
6.075471872,1.000017914703993,41.04050987014353
6.077758464,0.9999934327601518,40.88528163385073
6.080045568,0.999969818309173,40.73034374411869
6.082332672,0.9999484975123261,40.57567292291373
6.084619776,0.9999308421184504,40.42125862653644
6.08690688,0.9999180359861698,40.2669884851142
6.089193984,0.9999108405496647,40.11282140399041
6.091481088,0.9999097176369606,39.9586691416618
6.09376768,0.9999148100475224,39.80444199577856
6.096054784,0.9999256835678288,39.6500253395519
6.098341888,0.99994179085628,39.495359343385324
6.100628992,0.9999620172370435,39.34037570243227
6.102916096,0.9999851090257764,39.185043374059696
6.1052032,1.0000096660710192,39.02929805441487
6.107489792,1.000033998089024,38.87314556154878
6.109776896,1.0000566929237613,38.716577824095346
6.112064,1.000076244858785,38.55965571988772
6.114351104,1.0000913894869723,38.402418950995205
6.116638208,1.0001013117833324,38.24497271727804
6.118925312,1.000105254998504,38.08734439189384
6.121211904,1.0001028819496478,37.929658764895294
6.123499008,1.0000945178957235,37.77197967401809
6.125786112,1.0000805923641842,37.6144134203649
6.128073216,1.0000620063676082,37.45701916602341
6.13036032,1.0000398772831078,37.29986816653895
6.132647424,1.0000156037831882,37.142998166503105
6.134934016,0.9999908745730626,36.98643069608696
6.13722112,0.9999671005033299,36.83014463383114
6.139508224,0.9999458622211024,36.674138226539185
6.141795328,0.9999284606454514,36.518354605546875
6.144082432,0.9999159475501652,36.36272324044004
6.146369536,0.9999092087220091,36.20717755509515
6.148656128,0.999908769977097,36.0516163813708
6.150943232,0.9999145170595024,35.89599152826858
6.153230336,0.9999260688043526,35.74015672655241
6.15551744,0.9999428514228086,35.58404171914301
6.157804544,0.9999636798867348,35.4276139397183
6.160091648,0.9999872059548435,35.27079676019678
6.162378752,1.0000120597634365,35.113580976822846
6.164665344,1.0000367173973743,34.955937762194786
6.166952448,1.0000593943937985,34.79788118459612
6.169239552,1.0000787593069211,34.63945593309841
6.171526656,1.0000937603835847,34.48073590518682
6.17381376,1.0001031118501391,34.321769813643535
6.176100864,1.0001064660324588,34.16264296587478
6.178387456,1.000103558436338,34.00344891991932
6.18067456,1.0000945196013693,33.84428572558501
6.182961664,1.0000798574752408,33.68523636282884
6.185248768,1.0000606436865518,33.52635392965606
6.187535872,1.0000379684253997,33.367732007875006
6.189822976,1.0000133323609206,33.20935901086868
6.192109568,0.9999882515583035,33.051325681445626
6.194396672,0.9999643811399622,32.89355524656314
6.196683776,0.9999432047538818,32.73604380803694
6.19897088,0.9999259682101788,32.578760670327476
6.201257984,0.999913878417334,32.421620915554314
6.203545088,0.9999076918274123,32.2645491972445
6.20583168,0.9999078448753289,32.10747864588818
6.208118784,0.9999141626858277,31.950272401275143
6.210405888,0.9999264277771616,31.79288435664255
6.212692992,0.9999438142023348,31.635197809299054
6.214980096,0.9999652230667954,31.47716598462596
6.2172672,0.9999892614144309,31.318771977253
6.219553792,1.0000144437266332,31.159929486351803
6.221840896,1.000039281944318,31.000635600457677
6.224128,1.000062020730458,30.840947314497377
6.226415104,1.000081294298924,30.680898915958714
6.228702208,1.0000958723292377,30.520530880428616
6.230989312,1.0001049081322138,30.359921169906816
6.233275904,1.000107634144603,30.19913611945583
6.235563008,1.00010408881536,30.03830907810632
6.237850112,1.0000943846938646,29.877501178873043
6.240137216,1.000079116840865,29.716830185202554
6.24242432,1.0000592392920884,29.556321351424558
6.244711424,1.0000360197231644,29.39606081697591
6.246998528,1.0000110272087885,29.236084247383747
6.24928512,0.9999856585440625,29.07640428541396
6.251572224,0.9999617397763891,28.917022765386903
6.253859328,0.9999404902324618,28.757893588711664
6.256146432,0.99992353309225,28.598962994892535
6.258433536,0.9999118687343708,28.44019014528183
6.26072064,0.9999061608580875,28.281462082466962
6.263007232,0.9999068781182169,28.122686476273014
6.265294336,0.9999138820018637,27.96380578649331
6.26758144,0.999926833458236,27.80469543046201
6.269868544,0.9999448823047413,27.64530452501505
6.272155648,0.9999668700408629,27.485539169742314
6.274442752,0.9999914025961777,27.325358382381605
6.276729344,1.0000169012639069,27.164758580835734
6.279016448,1.000041863356296,27.00369846634566
6.281303552,1.0000647118958368,26.842262536972623
6.283590656,1.0000838094751006,26.680422760813084
6.28587776,1.0000980559296162,26.518249311180057
6.288164864,1.0001066546590964,26.35584833107618
6.290451456,1.0001088851142723,26.193290328031683
6.29273856,1.0001046975570387,26.03069455760333
6.295025664,1.0000942701400581,25.868123899842335
6.297312768,1.0000783509500402,25.705655597280494
6.299599872,1.000057844220391,25.54337214382688
6.301886976,1.0000342171417733,25.381338990757534
6.304173568,1.000008796739344,25.21960711143783
6.306460672,0.9999831978464317,25.05816005468524
6.308747776,0.9999591426892231,24.896987184465008
6.31103488,0.9999380225271973,24.736078376997654
6.313321984,0.9999213792308494,24.575377330409676
6.315609088,0.9999099570442952,24.41480101421283
6.317896192,0.9999048059506762,24.254253789994962
6.320182784,0.9999060698122499,24.093664399801717
6.322469888,0.9999137797985379,23.932936883217156
6.324756992,0.9999273860993654,23.7719904503963
6.327044096,0.9999460360154399,23.610727726354483
6.3293312,0.9999685820395505,23.449086523327253
6.331618304,0.9999935531148703,23.28701963689239
6.333904896,1.0000194052960993,23.12449391921056
6.336192,1.000044522829376,22.961534601242207
6.338479104,1.00006733450678,22.798146125069113
6.340766208,1.0000862273229552,22.63438835585101
6.343053312,1.000100288605084,22.470284713402513
6.345340416,1.000108385941703,22.305971922449277
6.347627008,1.0001100572376798,22.141484870681136
6.349914112,1.0001052695262116,21.976947455545748
6.352201216,1.00009428545107,21.81243756451519
6.35448832,1.0000777157486844,21.64805804399826
6.356775424,1.00005663107902,21.483860938906684
6.359062528,1.0000325057958812,21.319941066749667
6.36134912,1.0000066320815573,21.15626601921765
6.363636224,0.9999808483906539,20.992903943876588
6.365923328,0.9999566461207,20.829816373052473
6.368210432,0.9999356084529467,20.666978604659004
6.370497536,0.9999190589083737,20.504336182073118
6.37278464,0.999908103992709,20.34180028772803
6.375071232,0.9999034215804642,20.179312240070537
6.377358336,0.9999052731173985,20.01676639799318
6.37964544,0.9999136102896067,19.85405506499561
6.381932544,0.9999278593850208,19.691094434192504
6.384219648,0.9999471401370202,19.52781958802606
6.386506752,0.9999701431852975,19.36413412476846
6.388793344,0.9999955915834686,19.200036364247733
6.391080448,1.0000217852849456,19.035474350470107
6.393367552,1.0000471452596083,18.870445166348034
6.395654656,1.0000698232069067,18.704984317561763
6.39794176,1.0000886520772587,18.53913624087834
6.400228864,1.0001023800506077,18.372963997164334
6.402515968,1.0001100791287296,18.20656657291897
6.40480256,1.0001112569905266,18.040012251225093
6.407089664,1.0001058279616812,17.873388101689258
6.409376768,1.0000942374626132,17.7068123032348
6.411663872,1.0000769991204863,17.540374794614017
6.413950976,1.0000554093932625,17.374106773486904
6.41623808,1.000030668095508,17.20810447265928
6.418524672,1.0000044565960797,17.042372198458263
6.420811776,0.9999785228252686,16.87695168674754
6.42309888,0.99995415200776,16.711799166240343
6.425385984,0.9999332434892736,16.546868546007904
6.427673088,0.9999169977828625,16.382146502638104
6.429960192,0.999906332116268,16.21752746079349
6.432246784,0.9999021121121853,16.052928979491004
6.434533888,0.9999044671387713,15.888254839302688
6.436820992,0.9999134394489197,15.723412406247553
6.439108096,0.9999282703006648,15.558318615451839
6.4413952,0.9999480835013409,15.392861918591283
6.443682304,0.999971763660335,15.227005071425111
6.445968896,0.9999975778694309,15.060721495645584
6.448256,1.0000241411625386,14.893937596987108
6.450543104,1.0000495386064934,14.726701812915582
6.452830208,1.000072340106321,14.559034504570944
6.455117312,1.000091007125802,14.390959221165579
6.457404416,1.0001044193747097,14.222566277753366
6.459691008,1.0001117449998587,14.0539311125056
6.461978112,1.0001124315538006,13.885154291690146
6.464265216,1.0001064210048252,13.716312962263938
6.46655232,1.000094143792729,13.547516769222874
6.468839424,1.000076394787874,13.378836146014077
6.471126528,1.0000541791384732,13.21035219739848
6.473413632,1.0000291313576826,13.042124998382505
6.475700224,1.0000024898678401,12.874196243691543
6.477987328,0.9999762532567689,12.70653990680961
6.480274432,0.9999518952971671,12.53916780880018
6.482561536,0.9999309876399383,12.372023327289435
6.48484864,0.9999148993946844,12.205058792956848
6.487135744,0.9999047343982252,12.038186291118517
6.489422336,0.9999009637077432,11.871323869118854
6.49170944,0.9999038608720309,11.704381101607305
6.493996544,0.9999133307132044,11.53724439554384
6.496283648,0.9999287879509309,11.369844340388445
6.498570752,0.9999492241305791,11.202089992544167
6.500857856,0.9999733543722442,11.033892167546995
6.503144448,0.9999996135842314,10.865252779640779
6.505431552,1.0000264486555193,10.696139524603929
6.507718656,1.0000520721161952,10.526538098805009
6.51000576,1.0000748261662342,10.356510610749078
6.512292864,1.0000933738918305,10.186031301088303
6.514579968,1.0001065636877051,10.015269299179755
6.51686656,1.0001134749843839,9.844261154891266
6.519153664,1.0001135695760122,9.6730926427633
6.521440768,1.0001071145130986,9.50188279667097
6.523727872,1.0000941743729759,9.330710098472776
6.526014976,1.0000758518477575,9.159663218850213
6.52830208,1.000053184147812,8.988814728078173
6.530588672,1.0000275230836515,8.818203885709202
6.532875776,1.0000006395182484,8.647895665574367
6.53516288,0.9999741079380763,8.477862874618486
6.537449984,0.9999496707013179,8.30811946440636
6.539737088,0.9999288774100024,8.138604511661606
6.542024192,0.9999129187312829,7.969229231070296
6.544310784,0.9999029985140667,7.799978944619538
6.546597888,0.9998997689273463,7.630705352374424
6.548884992,0.9999032665645733,7.461319705621389
6.551172096,0.9999132694227468,7.29177061099816
6.5534592,0.9999293650680312,7.121886642324519
6.555746304,0.999950268951876,6.951662007809361
6.558033408,0.9999749241550638,6.780996494765908
6.56032,1.000001590388673,6.60985616289929
6.562607104,1.0000286841679566,6.438220797278821
6.564894208,1.0000544643409779,6.266109603367383
6.567181312,1.0000773107883096,6.093543227346792
6.569468416,1.0000957083718753,5.92056840713731
6.57175552,1.0001086210607195,5.7472704443710025
6.574042112,1.0001151233840702,5.573704000645334
6.576329216,1.000114784811479,5.400012499102117
6.57861632,1.0001077538626781,5.226271121944821
6.580903424,1.0000942292731132,5.052559521568755
6.583190528,1.000075323213118,4.8789799264334635
6.585477632,1.0000520982731458,4.7056162036822515
6.587764224,1.000025971859521,4.532476772918108
6.590051328,0.9999986978439419,4.35964578018082
6.592338432,0.9999719907185393,4.187098262166684
6.594625536,0.9999473834074928,4.014804357341545
6.59691264,0.9999266634599954,3.8427433009884857
6.599199744,0.9999110331117458,3.670848965132106
6.601486336,0.9999013118409376,3.499020017179264
6.60377344,0.9998984253307771,3.3271804267215384
6.606060544,0.9999023976750355,3.155231620057818
6.608347648,0.9999130383376788,2.983078528277341
6.610634752,0.9999296658924973,2.8105865763779954
6.612921856,0.999951126962946,2.637740216950617
6.615208448,0.9999762716273811,2.4644434097105856
6.617495552,1.00000335479467,2.2906571245974767
6.619782656,1.0000307717909074,2.116360476285303
6.62206976,1.0000566509465545,1.9415761722265956
6.624356864,1.0000795979094201,1.766334655020775
6.626643968,1.0000979152231024,1.5906683863259166
6.628931072,1.0001105258550003,1.4146809334594246
6.631217664,1.0001166803331705,1.2384545635433954
6.633504768,1.0001159036393397,1.0620535966188307
6.635791872,1.0001083243744586,0.885622557181292
6.638078976,1.0000943812820071,0.7092321697874067
6.64036608,1.0000749798411097,0.5329877362371133
6.642653184,1.0000512332998226,0.356925466014459
6.644939776,1.0000247851184632,0.1811173282964811
6.64722688,0.9999971437198583,0.005580280082684005
6.649513984,0.9999701697709344,-0.1696375251662118
6.651801088,0.9999455464926307,-0.34459860290268496
6.654088192,0.999924854400037,-0.5193844315564498
6.656375296,0.9999093147159895,-0.6939852862768873
6.658661888,0.999900004175237,-0.8685277012591764
6.660948992,0.999897475358721,-1.043091112525832
6.663236096,0.9999020123290049,-1.2177880620998771
6.6655232,0.9999131260871547,-1.3926785090956582
6.667810304,0.999930210654705,-1.5679248665379024
6.670097408,0.9999522691883225,-1.743561715109986
6.672384,0.999977846186803,-1.9196425349288473
6.674671104,1.0000053354696243,-2.0962474874663775
6.676958208,1.0000330602629095,-2.2733305554008885
6.679245312,1.0000591136616945,-2.4509510920324318
6.681532416,1.0000820197930929,-2.629021310375187
6.68381952,1.000100272436048,-2.8075109660402005
6.686106112,1.0001128061881837,-2.986357963249896
6.688393216,1.0001185397088486,-3.165436893072134
6.69068032,1.0001174083294122,-3.3446519424630834
6.692967424,1.0001093729335206,-3.523951035243186
6.695254528,1.000094805495364,-3.7031806894252646
6.697541632,1.0000748531712422,-3.882265083765295
6.699828224,1.000050648101633,-4.061177409445729
6.702115328,1.0000237583328444,-4.239816028166851
6.704402432,0.9999958141042319,-4.418185251399838
6.706689536,0.9999685858109004,-4.596259728860177
6.70897664,0.9999438192749179,-4.77408189400675
6.711263744,0.9999231125713023,-4.951707847631837
6.713550848,0.9999077478442449,-5.129174089759808
6.71583744,0.9998986183463459,-5.3065667685577305
6.718124544,0.9998964500982543,-5.484003297942048
6.720411648,0.9999014330028302,-5.661587458898052
6.722698752,0.9999130073802298,-5.83942655890792
6.724985856,0.9999306978470293,-6.0175635374584475
6.72727296,0.9999531849471672,-6.196129002263582
6.729559552,0.9999791886639833,-6.375167657325235
6.731846656,1.0000071801711017,-6.554715665029605
6.73413376,1.0000350745137538,-6.734769417018959
6.736420864,1.0000613394620645,-6.915361260245832
6.738707968,1.0000843658956262,-7.096430646622411
6.740995072,1.0001024851613387,-7.277897493638948
6.743281664,1.0001147779578752,-7.459729310723489
6.745568768,1.0001201903518633,-7.641814328216929
6.747855872,1.0001187723071572,-7.824035710141606
6.750142976,1.000110173624662,-8.006295999626944
6.75243008,1.0000951441889478,-8.188561202318354
6.754717184,1.000074786333229,-8.37065567506098
6.757003776,1.0000500215726853,-8.552532812010405
6.75929088,1.0000227054027628,-8.734182781504233
6.761577984,0.9999944009733738,-8.915554643492381
6.763865088,0.9999669636967328,-9.096618592095794
6.766152192,0.9999421163945215,-9.277447588579
6.768439296,0.9999213285426488,-9.458062242085065
6.770725888,0.9999060626011249,-9.63853936617784
6.773012992,0.9998972488640601,-9.818973158382088
6.775300096,0.999895429433855,-9.999442199156924
6.7775872,0.9999007326898129,-10.180080294511448
6.779874304,0.9999128383848522,-10.360947172695317
6.782161408,0.9999309588017129,-10.542160029682092
6.784448512,0.9999539287858703,-10.723806245246365
6.786735104,0.9999803252089872,-10.905927549402715
6.789022208,1.000008654899661,-11.088578924528074
6.791309312,1.0000368999700124,-11.27178429058172
6.793596416,1.0000633423576366,-11.455480293591467
6.79588352,1.0000864068223918,-11.639682354797209
6.798170624,1.0001045266441246,-11.8243084756699
6.800457216,1.0001166021821317,-12.00929376697859
6.80274432,1.000121917408329,-12.194502013565959
6.805031424,1.0001199761056114,-12.379894923132026
6.807318528,1.0001110182696105,-12.56531224976337
6.809605632,1.0000956461397787,-12.75071007292761
6.811892736,1.0000747268779953,-12.935944923478859
6.814179328,1.0000495204213216,-13.12099234732528
6.816466432,1.000021788470608,-13.305786723219452
6.818753536,0.9999930990249982,-13.49029165635617
6.82104064,0.9999654269387186,-13.67453847434471
6.823327744,0.9999404062233503,-13.85850478748776
6.825614848,0.9999196877907581,-14.042298696395571
6.82790144,0.999904416664917,-14.225921151292715
6.830188544,0.9998958135850139,-14.409526307401075
6.832475648,0.9998942820749724,-14.593188364385167
6.834762752,0.9998999189417667,-14.777004657675457
6.837049856,0.9999123825816811,-14.961092754596107
6.83933696,0.9999309108622523,-15.145541136050868
6.841623552,0.9999543925393438,-15.330400378502942
6.843910656,0.9999813770997665,-15.515777089710689
6.84619776,1.000009978837928,-15.701685256468597
6.848484864,1.0000385531023839,-15.88813819423532
6.850771968,1.0000651954860258,-16.075122834330518
6.853059072,1.000088340924835,-16.262609405486252
6.855345664,1.0001065730055494,-16.450515100955585
6.857632768,1.0001184700244241,-16.638784723941345
6.859919872,1.0001234915474646,-16.82730945789778
6.862206976,1.0001213124676505,-17.015990996770007
6.86449408,1.000112004794972,-17.20471670188612
6.866781184,1.000096181478497,-17.39339770386172
6.869068288,1.0000747579420959,-17.581969245141735
6.87135488,1.0000491559546028,-17.77030249636253
6.873641984,1.0000210135583214,-17.958388607558856
6.875929088,0.9999920723001359,-18.146192126829387
6.878216192,0.9999640349129384,-18.333747008481712
6.880503296,0.9999388272216088,-18.521036755215604
6.8827904,0.99991802835309,-18.708113169600523
6.885076992,0.9999028777229894,-18.89507346922418
6.887364096,0.9998943490241216,-19.081987122296123
6.8896512,0.9998930884559556,-19.26898040076633
6.891938304,0.9998990570152533,-19.45615551075107
6.894225408,0.9999119889157464,-19.643574473683522
6.896512512,0.9999309665133068,-19.83139496872175
6.898799104,0.9999549697579916,-20.019643761957195
6.901086208,0.9999822961310694,-20.208399321624842
6.903373312,1.000011281286217,-20.3976954451202
6.905660416,1.0000401121623137,-20.587572412506443
6.90794752,1.0000670754818146,-20.77796037795852
6.910234624,1.0000904102941552,-20.968872000187805
6.912521216,1.0001085451585834,-21.160216494426823
6.91480832,1.0001203710799118,-21.351928331683922
6.917095424,1.000125209862644,-21.543896072862786
6.919382528,1.0001228102154889,-21.73602789331649
6.921669632,1.0001131074150673,-21.928188726389326
6.923956736,1.000097010031953,-22.120339949476467
