freq,mag,phase
6.0,1.0007815539377931,138.00415347106667
6.002286592,1.001047894615189,137.8480032800893
6.004572672,1.0012483119025446,137.68846707609504
6.006859264,1.0013698057890343,137.52671665815367
6.009145344,1.0014048217934195,137.36388324221193
6.011431936,1.001350702810009,137.20124737759545
6.013718016,1.0012111045629652,137.04007457903546
6.016004608,1.0009947266376358,136.88152985189552
6.018290688,1.000715309204783,136.72661499124857
6.02057728,1.000390375621131,136.5761723905362
6.022863872,1.0000404760314385,136.43068339970776
6.025149952,0.9996877190153437,136.29037762463807
6.027436544,0.9993547322450632,136.15510092034077
6.029722624,0.9990624349484395,136.02448073700165
6.032009216,0.9988294825854036,135.89774771971253
6.034295296,0.9986706518103642,135.7739159104015
6.036581888,0.9985961306401683,135.6518628514915
6.03886848,0.9986107773916414,135.53032278085914
6.04115456,0.9987133986023846,135.4079958150519
6.043441152,0.9988980255629419,135.28360298415018
6.045727232,0.9991523250595158,135.1561068128913
6.048013824,0.9994607215601484,135.02456972344442
6.050299904,0.9998032017365244,134.88832556973455
6.052586496,1.000158336027263,134.74709475446818
6.054872576,1.000503429172995,134.60084412365828
6.057159168,1.0008167696278576,134.44987503880998
6.05944576,1.0010783597752075,134.29477726997487
6.06173184,1.0012718188443135,134.13643816454194
6.064018432,1.0013847480146285,133.97596347311503
6.066304512,1.001410030100764,133.81452565696665
6.068591104,1.0013460824417768,133.65341521388768
6.070877184,1.0011968358691399,133.49393292974807
6.073163776,1.000971682349511,133.33716852237444
6.075450368,1.00068486988631,133.1842144417638
6.077736448,1.0003546004486352,133.0357938353446
6.08002304,1.0000014235676382,132.8924186545638
6.08230912,0.9996480783452891,132.75421090868977
6.084595712,0.9993168626517558,132.621045937467
6.086881792,0.9990286487442731,132.4924705395115
6.089168384,0.998802073893029,132.3676813928513
6.091454464,0.9986513765708982,132.24575869411635
6.093741056,0.9985864444814522,132.12543103285782
6.096027648,0.9986109826149832,132.0054792075306
6.098313728,0.9987236614150744,131.88457725933657
6.10060032,0.9989174439669561,131.76152316638385
6.1028864,0.9991801182364026,131.6351944127681
6.105172992,0.9994947794841096,131.5047211429263
6.107459072,0.9998416078020058,131.36948204633268
6.109745664,1.000198556831874,131.229200941858
6.112032256,1.0005429701916353,131.0838776608729
6.114318336,1.0008530292801319,130.93386468223565
6.116604928,1.0011091642681456,130.77978782988905
6.118891008,1.0012951259813643,130.62254473306302
6.1211776,1.0013990816700737,130.46328574392984
6.12346368,1.00141444666499,130.3032308805554
6.125750272,1.0013401743912962,130.14360630029088
6.128036352,1.00118118794147,129.98578038474736
6.130322944,1.0009471410909443,129.83082986747803
6.132609536,1.0006530443901251,129.67977966214156
6.134895616,1.000317251320872,129.53333168176107
6.137182208,0.9999612827096306,129.3919936941095
6.139468288,0.9996073400574621,129.25583760850932
6.14175488,0.9992783553090554,129.12476020680415
6.14404096,0.9989948141645556,128.9982003025497
6.146327552,0.9987750136659757,128.87536039864062
6.148614144,0.9986328270705132,128.75519522482716
6.150900224,0.9985774232157785,128.63657241997151
6.153186816,0.9986122848123382,128.51814945977148
6.155472896,0.9987353900584807,128.39863514661783
6.157759488,0.9989386338677572,128.27681760343538
6.160045568,0.9992095237249112,128.15155850875172
6.16233216,0.9995306349070336,128.02208390422524
6.16461824,0.9998813679659676,127.88776943469772
6.166904832,1.0002398901940073,127.74834389562726
6.169191424,1.0005832625507909,127.60385655308392
6.171477504,1.0008897690384082,127.4547585381481
6.173764096,1.0011398138344518,127.30166154316055
6.176050176,1.0013179266239276,127.14549357873271
6.178336768,1.0014124831679436,126.98740771052557
6.180622848,1.0014176340702512,126.82865327477259
6.18290944,1.001332980535871,126.67053022682107
6.18519552,1.0011637977715988,126.51430403048593
6.187482112,1.0009207559584705,126.36109643157788
6.189768704,1.0006193415553695,126.21189939508734
6.192054784,1.0002782588610484,126.06746140371405
6.194341376,0.9999195638219633,125.92809652169088
6.196627456,0.9995656391958432,125.79402078137365
6.198914048,0.9992391894666023,125.66491487204839
6.201200128,0.9989606723594321,125.54031341324168
6.20348672,0.9987479492979964,125.41936589521075
6.205773312,0.9986148833033632,125.30098181084492
6.208059392,0.9985695249280242,125.18394492052578
6.210345984,0.9986151700953069,125.06698971204499
6.212632064,0.9987485845449484,124.94876677861663
6.214918656,0.9989616747988433,124.82807815457109
6.217204736,0.9992406344132276,124.70385414943391
6.219491328,0.9995679071680931,124.57530845758372
6.221777408,0.9999227308308245,124.44183333567257
6.224064,1.0002825684687418,124.30319160505012
6.226350592,1.0006244081066271,124.15951400213852
6.228636672,1.0009268397853668,124.01121779264157
6.230923264,1.0011706300081575,123.85900642336462
6.233209344,1.0013402333630015,123.70385888048929
6.235495936,1.0014251266854337,123.54692563252799
6.237782016,1.0014196671382023,123.38945076519967
6.240068608,1.0013242729273273,123.23276415056318
6.2423552,1.0011448552202689,123.07812060855404
6.24464128,1.0008928409942375,122.9266361581908
6.246927872,1.0005840192257152,122.77931254156083
6.249213952,1.0002380477814758,122.63673972137636
6.251500544,0.9998766786892413,122.49939286765441
6.253786624,0.999522952162605,122.36729511538753
6.256073216,0.9991993228127868,122.24020897219118
6.258359296,0.9989262578242992,122.11748886017936
6.260645888,0.9987212838055399,121.99836520354435
6.26293248,0.9985975074600912,121.88168134135154
6.26521856,0.998562658322491,121.76616039771723
6.267505152,0.9986190708892163,121.65058888713098
6.269791232,0.9987632813172502,121.53362774804798
6.272077824,0.9989860293045086,121.41401122008088
6.274363904,0.999273397205897,121.29074425242658
6.276650496,0.9996069062359282,121.16298709967965
6.278937088,0.9999652396245142,121.03027087861497
6.281223168,1.0003260808492325,120.89235740220971
6.28350976,1.0006662617087831,120.74942900369047
6.28579584,1.0009642556162566,120.6019073369848
6.288082432,1.0012011962768312,120.45055150204541
6.290368512,1.001362063348368,120.29633363175012
6.292655104,1.0014367009066392,120.140500536956
6.294941184,1.0014203863081859,119.98427334768485
6.297227776,1.0013139310211403,119.82899306771313
6.299514368,1.0011241826225512,119.67589687240589
6.301800448,1.0008631244445467,119.52611277209913
6.30408704,1.0005471523643625,119.38057295797252
6.30637312,1.0001962058076737,119.23992917670319
6.308659712,0.999832673619252,119.1045465806624
6.310945792,0.9994794764922722,118.9743970968269
6.313232384,0.9991591051396923,118.8492255252716
6.315518464,0.9988919292363191,118.7283663912482
6.317805056,0.9986950306396362,118.61098256221385
6.320091648,0.9985809603590995,118.49592909117736
6.322377728,0.9985569107419099,118.38193134577847
6.32466432,0.998624690977126,118.26765779252347
6.3269504,0.9987796585987244,118.15183447721468
6.329236992,0.9990124772878353,118.03319231930239
6.331523072,0.999307874027025,117.91079704418028
6.333809664,0.9996472562972658,117.78380065593272
6.336096256,1.0000093004622546,117.65178347472528
6.338382336,1.0003706677344972,117.51449807666694
6.340668928,1.0007086694467742,117.37220923784105
6.342955008,1.0010017506188456,117.22540813912059
6.3452416,1.0012314621214893,117.0748368486853
6.34752768,1.0013832816926882,116.92156736289836
6.349814272,1.0014472975493551,116.76675881073209
6.352100352,1.0014197128924132,116.61173789572305
6.354386944,1.0013020213240682,116.45783080001566
6.356673536,1.0011018146587638,116.30628483941645
6.358959616,1.0008316519432894,116.15813935030326
6.361246208,1.0005085702768428,116.0143912651835
6.363532288,1.0001529377935803,115.87560202727619
6.36581888,0.9997874015943056,115.74209937365391
6.36810496,0.9994351409980329,115.61389626527594
6.370391552,0.9991184512979657,115.49061449974847
6.372678144,0.9988576923253344,115.37160191309906
6.374964224,0.9986693610266614,115.25589080809672
6.377250816,0.9985653641979959,115.14238228737939
6.379536896,0.9985525340330851,115.02979880322174
6.381823488,0.9986317617201238,114.91675868221434
6.384109568,0.998797895778135,114.80199556174149
6.38639616,0.9990403688826268,114.68430511747452
6.38868224,0.9993440844583071,114.56263762147456
6.390968832,0.9996893449642261,114.43634429948246
6.393255424,1.0000543860234365,114.30492248465347
6.395541504,1.0004161511445953,114.16825644798976
6.397828096,1.0007516664109004,114.02654959507989
6.400114176,1.0010395477327518,113.88038355070655
6.402400768,1.0012614030170297,113.7305648022464
6.404686848,1.0014034680455555,113.57815274924003
6.40697344,1.001456715036475,113.42437523186425
6.409260032,1.0014175615155008,113.27051777928689
6.411546112,1.001288529930201,113.11793282619475
6.413832704,1.0010777864866989,112.96784534909828
6.416118784,1.000798455047077,112.821382871561
6.418405376,1.0004683947053588,112.67936744069695
6.420691456,1.0001082224414921,112.5424265781312
6.422978048,0.9997411094298134,112.41080630966644
6.425264128,0.9993900996196067,112.28445274613132
6.42755072,0.9990775825674193,112.16300000360859
6.429837312,0.9988235993390625,112.04575721939243
6.432123392,0.9986441451941821,111.93170403940807
6.434409984,0.9985507651338964,111.81968063749588
6.436696064,0.998549516998302,111.70841885980734
6.438982656,0.9986404631010765,111.59656662937662
6.441268736,0.9988176982300313,111.4827718021184
6.443555328,0.9990702669477767,111.36589799259208
6.44584192,0.9993819017668345,111.24495944009183
6.448128,0.9997329879741415,111.11927894355152
6.450414592,1.000100897978095,110.98837031641355
6.452700672,1.000462754292152,110.85219200399538
6.454987264,1.0007950774314256,110.71103751262055
6.457273344,1.0010770904781872,110.56546614937635
6.459559936,1.0012909227248397,110.41634530436119
6.461846016,1.001423038235293,110.26475101895599
6.464132608,1.001464918088728,110.11190868977603
6.4664192,1.001413913648231,109.95923895300393
6.46870528,1.0012733584793796,109.80793599411507
6.470991872,1.0010518439488039,109.65933508610115
6.473277952,1.0007634468587834,109.51447811356384
6.475564544,1.0004264893070114,109.37419129398265
6.477850624,1.0000622234667391,109.23901754755298
6.480137216,0.9996937675233576,109.10924887125944
6.482423296,0.9993444460224368,108.9847448638699
6.484709888,0.9990366505056225,108.86508491276463
6.48699648,0.99878980981829,108.7495235299832
6.48928256,0.9986198113781599,108.63703042496594
6.491569152,0.9985374528845357,108.52645761521273
6.493855232,0.9985479456972854,108.41647108493308
6.496141824,0.9986508901315245,108.3056595169266
6.498427904,0.9988395820958235,108.19279228660723
6.500714496,0.9991020508584604,108.07666205179943
6.503001088,0.9994215893809553,107.95636353163258
6.505287168,0.999778033706863,107.83116900736572
6.50757376,1.0001486160102193,107.70073872108004
6.50985984,1.0005098382929383,107.56500527584512
6.512146432,1.0008389096153423,107.42431807388134
6.514432512,1.0011147967806355,107.27927334980444
6.516719104,1.0013200421902737,107.13079711745755
6.519005184,1.0014416450187507,106.97996632637394
6.521291776,1.0014717585593427,106.82809406188849
6.523578368,1.001408737373972,106.67649460591065
6.525864448,1.001256277459725,106.52650394925435
6.52815104,1.0010240882208166,106.37931374007232
6.53043712,1.0007266946706954,106.23603807215119
6.532723712,1.0003830524748691,106.09742570667638
6.535009792,1.0000147810465587,105.96404912537415
6.537296384,0.9996454894682016,105.83608438373365
6.539582976,0.9992983106518153,105.7133712070665
6.541869056,0.9989955703886381,105.59543140340675
6.544155648,0.9987564403884658,105.48153338912535
6.546441728,0.9985962775384752,105.37055682824854
6.54872832,0.9985251546510158,105.2613579961348
6.5510144,0.99854792436385,105.15252016287347
6.553300992,0.9986629870492205,105.0427255526595
6.555587072,0.9988631817445066,104.93068247101195
6.557873664,0.9991355039427388,104.81523532858412
6.560160256,0.9994628652597585,104.695479868135
6.562446336,0.9998246191202566,104.57073434674456
6.564732928,1.0001974105912557,104.44067760140436
6.567019008,1.0005579052560687,104.30533736475165
6.5693056,1.000882974268582,104.16506270896681
6.57159168,1.0011521406870472,104.02048037018746
6.573878272,1.0013483872023774,103.87258499351286
6.576164864,1.0014590702855444,103.72251733693729
6.578450944,1.0014773022455465,103.57152808748936
6.580737536,1.001401825439016,103.42101949648456
6.583023616,1.001237433620251,103.27223112845157
6.585310208,1.000994534117427,103.12647346587546
6.587596288,1.0006882552179857,102.98473059202942
6.58988288,1.000338068840541,102.84780869825109
6.59216896,0.9999662529227166,102.71615248614074
6.594455552,0.999596195843137,102.58995321607377
6.596742144,0.9992516880470573,102.46901306952928
6.599028224,0.9989544505866595,102.35274831221882
6.601314816,0.9987235135498735,102.24044085320195
6.603600896,0.9985736727236303,102.13091768635502
6.605887488,0.9985143343203625,102.02299075395892
6.608173568,0.9985495757624046,101.91525730185842
6.61046016,0.9986769759281737,101.80640337172721
6.612746752,0.9988884919132777,101.69511054240577
6.615032832,0.9991708240810131,101.58027290239667
6.617319424,0.9995059436581312,101.46096170490995
6.619605504,0.9998724358558851,101.3365685189302
6.621892096,1.0002472927338637,101.206842743533
6.624178176,1.0006064698057684,101.0717862079028
6.626464768,1.00092716412768,100.93185521190456
6.628750848,1.0011891175670573,100.78772545123832
6.63103744,1.001375898946948,100.64038691257078
6.633324032,1.0014752414100418,100.49101354568933
6.635610112,1.001481172653857,100.34089118453997
6.637896704,1.0013931681630532,100.19139529891312
6.640182784,1.0012167196922128,100.04385447099753
6.642469376,1.0009629112706215,99.89949118950862
6.644755456,1.0006477533683737,99.75927426148111
6.647042048,1.000291399770564,99.62396163097632
6.649328128,0.9999162165842572,99.49400120092645
6.65161472,0.9995460778223642,99.36953384473073
6.653901312,0.9992046476646339,99.2502966714815
6.656187392,0.9989134469029268,99.135701804728
6.658473984,0.9986910647338565,99.02490109698735
6.660760064,0.9985518882498045,98.9167695582577
6.663046656,0.9985047182672359,98.81002472166664
6.665332736,0.9985527068743365,98.70335224475986
6.667619328,0.9986926436224659,98.59536093797378
6.66990592,0.9989157907759463,98.48475676461139
6.672192,0.9992080312296634,98.37040153055945
6.674478592,0.9995505155706187,98.25150049501774
6.676764672,0.9999217700022983,98.12737760167194
6.679051264,1.0002980656259106,97.9978981904005
6.681337344,1.000655438025341,97.86309718734005
6.683623936,1.0009713922129333,97.72345477895519
6.685910016,1.0012257764082728,97.57969380207177
6.688196608,1.0014025307633938,97.43286326391501
6.6904832,1.0014901855063842,97.28411763306131
6.69276928,1.0014835112772638,97.13485911813642
6.695055872,1.0013826839722804,96.98638251671538
6.697341952,1.0011940657249303,96.84004108809789
6.699628544,1.0009295337087625,96.69701634015178
6.701914624,1.0006057704920686,96.55830355354678
6.704201216,1.0002433379037108,96.42461358701914
6.706487808,0.999865294285893,96.29633564996391
6.708773888,0.9994954240640692,96.17354534566721
6.71106048,0.9991574441026879,96.05592859599268
6.71334656,0.9988728211069137,95.94292592671158
6.715633152,0.9986596446130422,95.83358118259888
6.717919232,0.9985315667441481,95.72679065400686
6.720205824,0.998496945953286,95.62121214088148
6.722491904,0.9985578365478727,95.51549763830648
6.724778496,0.998710498126526,95.40823774154566
6.727065088,0.998945189908771,95.29823134528996
6.729351168,0.9992471290579178,95.18431103142063
6.73163776,0.999596893914602,95.0656746694144
6.73392384,0.9999724238002232,94.94181507307549
6.736210432,1.000349905054924,94.81250007277906
6.738496512,1.0007051071746977,94.67790185163726
6.740783104,1.0010156593169341,94.53848553021082
6.743069696,1.0012619611255607,94.3950704830965
6.745355776,1.001428166203018,94.24868956477921
6.747642368,1.0015038252625372,94.10056725873494
6.749928448,1.0014841464244904,93.95208673865906
6.75221504,1.001370342705196,93.80461562797902
6.75450112,1.0011694455869053,93.65944797570796
6.756787712,1.0008942121998878,93.51775724856113
6.759073792,1.0005620253675052,93.38054009720379
6.761360384,1.0001939023509487,93.24841076780478
6.763646976,0.999813232711209,93.12174958024701
6.765933056,0.9994440230175866,93.0006166612993
6.768219648,0.9991100249302942,92.88463614753996
6.770505728,0.9988323783408415,92.7731523143436
6.77279232,0.9986287680357279,92.66524035124351
6.7750784,0.9985123548848136,92.55966545657778
6.777364992,0.9984904848819632,92.45517447565501
6.779651584,0.9985646267942454,92.35032787806098
6.781937664,0.998730101906492,92.24375912407571
6.784224256,0.9989764283564118,92.13425476143759
6.786510336,0.9992879176026334,92.02068165411359
6.788796928,0.9996448123190114,91.9023035926982
6.791083008,1.0000242929399927,91.77854363479248
6.7933696,1.000402374799311,91.649355218674
6.79565568,1.0007549593642657,91.51487156509356
6.797942272,1.0010596885878822,91.37565273806533
6.800228864,1.0012972731761471,91.232512311775
6.802514944,1.0014526317513088,91.0865575451019
6.804801536,1.0015160153337732,90.93901573720991
6.807087616,1.0014831167060894,90.79134840572155
6.809374208,1.0013559980392726,90.64480799236006
6.811660288,1.001142837997301,90.50081431619581
6.81394688,1.000856890039266,90.36042205393763
6.81623296,1.000516474830308,90.22463486701443
6.818519552,1.000142849048999,90.09405692077792
6.820806144,0.9997600586013147,89.96902363784426
6.823092224,0.9993920844858319,89.84946516707721
6.825378816,0.9990625498054506,89.73506130281518
6.827664896,0.9987923977047943,89.62505781373783
6.829951488,0.998598967624554,89.51850794782287
6.832237568,0.9984945530558426,89.41412215871159
6.83452416,0.9984857774980405,89.31061577772697
6.836810752,0.9985734421532592,89.20656994164355
6.839096832,0.9987518376757802,89.10062478010826
6.841383424,0.999009736627692,88.99153164835734
6.843669504,0.9993307145544684,88.87823342205559
6.845956096,0.9996942718150847,88.75999484400799
6.848242176,1.0000773717929026,88.63631785503078
6.850528768,1.0004556716115343,88.5071699127765
6.852814848,1.0008050991957027,88.37274995395542
6.85510144,1.001103566329388,88.23364581229654
6.857388032,1.0013320540332298,88.09076183924556
6.859674112,1.0014761703769774,87.94518123677472
6.861960704,1.0015265263601882,87.79824417941067
6.864246784,1.0014800606088183,87.65127624367929
6.866533376,1.0013397115248828,87.50571076460112
6.868819456,1.001114162427788,87.36279181585908
6.871106048,1.0008177005600505,87.22373395961657
6.87339264,1.0004691335190896,87.08935567935798
6.87567872,1.0000905990245763,86.96030970373154
6.877965312,0.9997058942931165,86.83682062860949
6.880251392,0.9993396167847504,86.71885630259956
6.882537984,0.9990151774775432,86.60595861908087
6.884824064,0.9987530476417974,86.49738293913933
6.887110656,0.9985701098392912,86.39206975724589
6.889396736,0.9984781263041635,86.2888180092505
6.891683328,0.998482838727714,86.18624661439402
6.89396992,0.9985841613069215,86.08295034618598
6.896256,0.9987756290331842,85.97751279671517
6.898542592,0.9990450231469507,85.86877325110756
6.900828672,0.999375238558052,85.75568345937336
6.903115264,0.9997452731953159,85.63749975600328
6.905401344,1.000131642796938,85.51385089917076
6.907687936,1.000509728210988,85.38466851432668
6.909974528,1.0008554909652196,85.25024082263492
6.912260608,1.0011471389026743,85.11124660800283
6.9145472,1.0013659729124211,84.96853449664573
6.91683328,1.001498248651139,84.82331687091222
6.919119872,1.0015354525839437,84.67691097870353
6.921405952,1.0014751891541032,84.53065970210264
6.923692544,1.0013214077396748,84.3860093553387
6.925978624,1.0010834380852196,84.24420212777888
6.928265216,1.000776677293452,84.10639473320761
