freq,mag,phase
6.0,1.0003415533904592,102.35116772433526
6.002286592,1.0004737534632442,102.17495956742316
6.004572672,1.0005754097016872,101.99710041587376
6.006859264,1.0006405011269057,101.81803354069002
6.009145344,1.0006649677626351,101.63834649064361
6.011431936,1.0006473259896822,101.45863220213546
6.013718016,1.0005884583689535,101.27950180365131
6.016004608,1.0004921994012943,101.10149344849287
6.018290688,1.0003645955717508,100.92513747835405
6.02057728,1.0002135656458933,100.7508362976499
6.022863872,1.0000487808428735,100.57883637451786
6.025149952,0.9998805697009001,100.40929013574046
6.027436544,0.9997195496054844,100.2421501233864
6.029722624,0.9995759994984021,100.07724255932372
6.032009216,0.9994590107114308,99.91425562604704
6.034295296,0.9993758711368141,99.75276372577646
6.036581888,0.9993320621926105,99.59221581253495
6.03886848,0.9993303371052814,99.43200193061489
6.04115456,0.9993706204941758,99.27155959471983
6.043441152,0.999450645988299,99.11025845619044
6.045727232,0.9995652932879506,98.94756831783022
6.048013824,0.9997073398961657,98.78303100232729
6.050299904,0.99986775509577,98.61633015979895
6.052586496,1.0000363819660205,98.44726358614776
6.054872576,1.0002026587666035,98.27577625686968
6.057159168,1.0003561133903218,98.10200438622371
6.05944576,1.0004868919858596,97.92619207193125
6.06173184,1.0005867048912827,97.74869775439504
6.064018432,1.0006494008897566,97.57007606178004
6.066304512,1.000670893105915,97.39085962131935
6.068591104,1.0006497862478863,97.21165293497921
6.070877184,1.0005874603122997,97.03307200562647
6.073163776,1.0004876701523568,96.85567208148072
6.075450368,1.0003568680339026,96.67998146869967
6.077736448,1.0002031491254304,96.50636108115125
6.08002304,1.0000363095542362,96.33510406154288
6.08230912,0.9998668927054133,96.16630182567896
6.084595712,0.9997056223583082,95.99993050366962
6.086881792,0.9995625836751801,95.8357775895462
6.089168384,0.9994469808154263,95.67355044229579
6.091454464,0.999366010538683,95.51276411638023
6.093741056,0.9993249961985405,95.3529034806405
6.096027648,0.9993264980257981,95.19334752823947
6.098313728,0.9993703737429054,95.03346835852352
6.10060032,0.9994540226775506,94.87271163622619
6.1028864,0.99957200767691,94.71050991025987
6.105172992,0.9997170175484899,94.54641014594188
6.107459072,0.9998798092168144,94.38009322423017
6.109745664,1.0000500419092138,94.21139498438764
6.112032256,1.0002172029384284,94.04026338685856
6.114318336,1.0003703569556182,93.8668234459096
6.116604928,1.0005002090875517,93.69134173195059
6.118891008,1.0005981903577599,93.51424749883998
6.1211776,1.0006583256223254,93.33601997613628
6.12346368,1.000676605317961,93.15723733691914
6.125750272,1.0006520393943297,92.97852245671493
6.128036352,1.0005860572342504,92.80048754430831
6.130322944,1.000482835263655,92.62369432577786
6.132609536,1.0003487559122461,92.44863052047693
6.134895616,1.000192354790378,92.27568919527069
6.137182208,1.0000235467664953,92.10512890409605
6.139468288,0.9998530068487522,91.93707270792551
6.14175488,0.9996913397155998,91.77144796919217
6.14404096,0.9995489825906421,91.60804967768755
6.146327552,0.9994348036910596,91.44653223866871
6.148614144,0.9993562149478754,91.28645754381795
6.150900224,0.9993181001745702,91.127235573358
6.153186816,0.9993230193183301,90.96829007670456
6.155472896,0.9993704724668055,90.80898919051891
6.157759488,0.9994577073640019,90.64873833569298
6.160045568,0.9995792328447423,90.48696600500617
6.16233216,0.9997271289285938,90.32328041965029
6.16461824,0.9998923097078141,90.1573455606325
6.166904832,1.0000641531271568,89.98897054313466
6.169191424,1.0002318930222815,89.81815325901637
6.171477504,1.0003849326013472,89.64503264517873
6.173764096,1.0005134620120741,89.46988512304682
6.176050176,1.0006096080341247,89.29314079365855
6.178336768,1.000667062968138,89.11527031784749
6.180622848,1.0006821015341474,88.93691719854704
6.18290944,1.0006539739645326,88.75867716581534
6.18519552,1.0005843046536143,88.5811409732356
6.187482112,1.000477441989822,88.40491715685702
6.189768704,1.0003401816822786,88.23047918329094
6.192054784,1.0001811824351616,88.05821298595978
6.194341376,1.0000103198715586,87.88835108521765
6.196627456,0.9998385347313292,87.72099578596767
6.198914048,0.9996767548954345,87.55609264901383
6.201200128,0.9995350556336733,87.39341154983357
6.20348672,0.9994225296408501,87.23260972627662
6.205773312,0.9993463223750392,87.0732045634055
6.208059392,0.9993112115112489,86.91460949144656
6.210345984,0.9993195781468464,86.75624583069443
6.212632064,0.9993708143798485,86.59747658470597
6.214918656,0.9994617283190219,86.43768464520525
6.217204736,0.9995866573560559,86.27637855035188
6.219491328,0.9997376160768487,86.11304140238703
6.221777408,0.9999051131926368,85.94744191351626
6.224064,1.0000784715269693,85.77937632333446
6.226350592,1.00024693517601,85.60886230090621
6.228636672,1.0003996067027485,85.43601338599176
6.230923264,1.0005269836575454,85.26115684405629
6.233209344,1.0006209955057899,85.08473057219179
6.235495936,1.0006757323128788,84.90721793581217
6.237782016,1.0006874578053315,84.72924375273847
6.240068608,1.0006556232739106,84.55144678637566
6.2423552,1.0005821846563914,84.37442463371323
6.24464128,1.0004718463495295,84.19874059705558
6.246927872,1.0003312313248542,84.02489468087418
6.249213952,1.0001694923468543,83.85326589985125
6.251500544,0.9999967054139922,83.68409492275242
6.253786624,0.9998239128976255,83.51742188685252
6.256073216,0.9996619273470305,83.35322893220655
6.258359296,0.9995210466775948,83.19123806119727
6.260645888,0.999410197406628,83.03111687452798
6.26293248,0.9993365218010795,82.87234165953912
6.26521856,0.9993046091782648,82.71437209854335
6.267505152,0.9993164552852166,82.55656286341896
6.269791232,0.9993714956234688,82.39828723799468
6.272077824,0.9994662249560886,82.23894185143104
6.274363904,0.9995945930214879,82.07800288936613
6.276650496,0.9997485270065682,81.91504918211459
6.278937088,0.9999183606316696,81.74972451474493
6.281223168,1.0000932397413043,81.58194678020116
6.28350976,1.000262176669505,81.4116632789035
6.28579584,1.000414650734315,81.23907240552697
6.288082432,1.000540683475117,81.06450568222544
6.290368512,1.0006325667648717,80.88833620142232
6.292655104,1.000684302638194,80.7111717130411
6.294941184,1.0006926791176411,80.53356782412175
6.297227776,1.0006570779766157,80.35618106764296
6.299514368,1.0005798840154723,80.17962691562144
6.301800448,1.0004657313124614,80.00447587866947
6.30408704,1.0003220010394556,79.83121731214102
6.30637312,1.0001574897690277,79.66021211497716
6.308659712,0.9999827868018899,79.49166357311192
6.310945792,0.9998089727768066,79.32567705228419
6.313232384,0.9996469820032838,79.16215017074289
6.315518464,0.9995069568143446,79.0008349520479
6.317805056,0.9993978867643102,78.84136372670136
6.320091648,0.9993268300824459,78.68320042451984
6.322377728,0.9992980559613349,78.52580639729709
6.32466432,0.999313653022862,78.36853648658655
6.3269504,0.9993724949416213,78.2107278196882
6.329236992,0.9994710293668989,78.0517987011952
6.331523072,0.9996029217706701,77.89120685499385
6.333809664,0.9997598189620199,77.72854949847923
6.336096256,0.9999319328987119,77.56351249720768
6.338382336,1.0001083577581042,77.39595461417458
6.340668928,1.000277908641444,77.22591498609285
6.342955008,1.0004297514071399,77.05355042505803
6.3452416,1.000554389486889,76.87920067912326
6.34752768,1.0006439690242455,76.70330297234848
6.349814272,1.0006927424742915,76.526422092464
6.352100352,1.0006976112449966,76.34917350303719
6.354386944,1.0006582338487435,76.17218288805634
6.356673536,1.0005770513429537,75.99606822348117
6.358959616,1.000459204630019,75.82142017540255
6.361246208,1.0003121480306085,75.64871430857288
6.363532288,1.0001450332240744,75.47830701103902
6.36581888,0.9999684325634536,75.31038359393055
6.36810496,0.9997936162843747,75.14505879624998
6.370391552,0.9996315256002297,74.98217878285892
6.372678144,0.9994925638822024,74.821522324944
6.374964224,0.999385507666298,74.66266932744243
6.377250816,0.999316986604598,74.50510377958874
6.379536896,0.9992916723816639,74.34825377136288
6.381823488,0.9993109712881464,74.1914562211171
6.384109568,0.9993737489352863,74.03408691853711
6.38639616,0.9994761511647391,73.87553101937553
6.38868224,0.9996115931915038,73.71528055314862
6.390968832,0.9997715943757296,73.55288621649935
6.393255424,0.9999459693878257,73.38808395113483
6.395541504,1.0001238039921485,73.22074127289258
6.397828096,1.0002938001999677,73.05087893420642
6.400114176,1.0004451080343317,72.87870519709733
6.402400768,1.0005683510062058,72.70456709543143
6.404686848,1.0006555347602335,72.52890404970879
6.40697344,1.0007011875195204,72.3522864370614
6.409260032,1.000702480214076,72.17535632036727
6.411546112,1.0006592201092275,71.99872806897291
6.413832704,1.0005741156665102,71.8230335842712
6.416118784,1.0004524796233325,71.64887823796023
6.418405376,1.000302053941832,71.47670300524472
6.420691456,1.00013225033503,71.30684842884096
6.422978048,0.9999538315510212,71.13955089419348
6.425264128,0.9997780976690236,70.9748112044131
6.42755072,0.9996161413581661,70.81257925586966
6.429837312,0.99947821375504,70.65253952548774
6.432123392,0.9993730248061476,70.49428481342542
6.434409984,0.9993074452491102,70.33728474441781
6.436696064,0.9992854978591394,70.18092826899202
6.438982656,0.9993086048801415,70.02461543641648
6.441268736,0.9993754170159223,69.86764284878198
6.443555328,0.9994817460320308,69.70943293751758
6.44584192,0.9996207047870227,69.54945704005601
6.448128,0.9997837047102639,69.38729329997233
6.450414592,0.999960388550916,69.2226990762658
6.452700672,1.000139549790589,69.05552238380298
6.454987264,1.0003098777253774,68.88582392978779
6.457273344,1.0004606001261978,68.7138115211695
6.459559936,1.0005822164209561,68.53983008131756
6.461846016,1.000666923689073,68.36436942972068
6.464132608,1.0007094271632113,68.18800806392979
6.4664192,1.0007069618633522,68.01134487255486
6.46870528,1.0006597637958634,67.83507914377408
6.470991872,1.0005705797726494,67.6597997224928
6.473277952,1.00044519864555,67.48607882187503
6.475564544,1.0002914027709298,67.31440705260921
6.477850624,1.000119010820763,67.14510481869578
6.480137216,0.9999387705539318,66.97839221272953
6.482423296,0.9997621598557666,66.81427244604338
6.484709888,0.9996003703751865,66.6526226781842
6.48699648,0.9994635786134553,66.49316512666775
6.48928256,0.9993605306079555,66.33548254975315
6.491569152,0.9992978595571859,66.17900819175811
6.493855232,0.9992794595510491,66.0231681129361
6.496141824,0.9993064508877456,65.86724160971872
6.498427904,0.9993773071689206,65.71064663198953
6.500714496,0.9994876284275882,65.55273951989271
6.503001088,0.9996301678415573,65.39300860435687
6.505287168,0.9997962092580683,65.23106020176995
6.50757376,0.9999751118675029,65.06661336312993
6.50985984,1.000155571024287,64.89957400730732
6.512146432,1.0003262098291756,64.72999642679386
6.514432512,1.0004762321682992,64.55811866291377
6.516719104,1.000596145564867,64.38427029267719
6.519005184,1.0006782515680448,64.20897677115157
6.521291776,1.0007174458939785,64.0328291743694
6.523578368,1.0007112728187455,63.85644695043549
6.525864448,1.0006599417677355,63.68046986157607
6.52815104,1.0005667616010843,63.50556369501722
6.53043712,1.0004376333188514,63.332275177713704
6.532723712,1.0002805063654372,63.16109224441761
6.535009792,1.0001053744318262,62.9923205926818
6.537296384,0.9999234195953114,62.826156424876906
6.539582976,0.9997460494724986,62.66260386032915
6.541869056,0.9995845043608073,62.501530803819776
6.544155648,0.9994490023466578,62.34265522197793
6.546441728,0.9993481290759664,62.18548970224766
6.54872832,0.9992883857883054,62.029510504470785
6.5510144,0.9992735732271518,61.87409230402044
6.553300992,0.9993046657324401,61.71858702724125
6.555587072,0.9993796876060198,61.56231400194567
6.557873664,0.9994939269961254,61.4046791156032
6.560160256,0.9996401261622571,61.24517935571022
6.562446336,0.9998091242052234,61.083388560290956
6.564732928,0.9999902710417061,60.91907299612114
6.567019008,1.0001719718495017,60.75213629552458
6.5693056,1.000342868079575,60.582647699700914
6.57159168,1.0004920677204432,60.4108487504343
6.573878272,1.000610029754328,60.23711502332261
6.576164864,1.0006895234551074,60.061960469699194
6.578450944,1.0007253798498545,59.88598516707899
6.580737536,1.0007152365858603,59.709822072937214
6.583023616,1.000659805545873,59.53415312923458
6.585310208,1.0005624947087093,59.359586887197345
6.587596288,1.000429411349222,59.186716185019826
6.58988288,1.0002690326855963,59.01597371584418
6.59216896,1.0000913379198328,58.84769414991969
6.594455552,0.9999076175882671,58.682063600727545
6.596742144,0.999729489094653,58.51907237960634
6.599028224,0.9995682437532996,58.3585541749561
6.601314816,0.999434171064133,58.200180096203326
6.603600896,0.9993356821746842,58.043541649241384
6.605887488,0.9992790722046723,57.88803100719523
6.608173568,0.9992679377410122,57.733030844633134
6.61046016,0.9993030997891117,57.57788123395905
6.612746752,0.9993823570209855,57.42190077419377
6.615032832,0.9995006245206799,57.26449904229062
6.617319424,0.9996505057378455,57.10515975152644
6.619605504,0.9998225038790445,56.9435003327121
6.621892096,1.0000057187165647,56.779268729620775
6.624178176,1.000188664022383,56.61239846019419
6.626464768,1.0003596486827477,56.442958358066484
6.628750848,1.0005079799616077,56.2712116614264
6.63103744,1.0006241284227417,56.0975673057986
6.633324032,1.0007008187567237,55.92250924812754
6.635610112,1.000733188733958,55.746692270543484
6.637896704,1.0007190519279259,55.570737212444826
6.640182784,1.0006594243868998,55.39532879398668
6.642469376,1.0005579528797959,55.221096998855124
6.644755456,1.0004209601277836,55.04858750477217
6.647042048,1.0002571757744165,54.87829403642445
6.649328128,1.000076895247349,54.71048756777414
6.65161472,0.9998915930672047,54.54534165509041
6.653901312,0.999712815357901,54.38286548878537
6.656187392,0.9995519556096155,54.22285459779429
6.658473984,0.9994192889470418,54.064999908169746
6.660760064,0.9993231955104527,53.90882773786847
6.663046656,0.9992698969564021,53.75374483123659
6.665332736,0.9992625784133127,53.59913011241844
6.667619328,0.9993018307709652,53.44428727045294
6.66990592,0.9993853535404726,53.288587274047224
6.672192,0.9995077254873921,53.131380228595894
6.674478592,0.9996611783933439,52.97216745376085
6.676764672,0.9998361232127846,52.810602441556085
6.679051264,1.0000215290491166,52.64642990849183
6.681337344,1.000205586616431,52.47957897665649
6.683623936,1.000376665182329,52.31015466410667
6.685910016,1.0005239142254165,52.1384231903058
6.688196608,1.0006380290180081,51.96481391720454
6.6904832,1.0007118079929807,51.789843481741784
6.69276928,1.0007405660131392,51.61414633480624
6.695055872,1.000722385341544,51.43836360871186
6.697341952,1.0006584838994086,51.26318482048761
6.699628544,1.000552754457777,51.08924693676481
6.701914624,1.0004119712350688,50.917101893716854
6.704201216,1.0002447959759635,50.74719355537045
6.706487808,1.0000619743498995,50.579831665600885
6.708773888,0.9998749753817985,50.41516699016955
6.71106048,0.9996957210901821,50.25318104608991
6.71334656,0.99953538615167,50.09367539259707
6.715633152,0.9994042644165041,49.93629331355347
6.717919232,0.9993107488447912,49.78054814268437
6.720205824,0.9992606474337642,49.625885580428374
6.722491904,0.9992572670503359,49.471608718985316
6.724778496,0.9993008021229064,49.31702935286179
6.727065088,0.9993886683417181,49.161563767716885
6.729351168,0.9995150910438789,49.004516767077355
6.73163776,0.9996721971739111,48.84540941596176
6.73392384,0.9998502156606237,48.683898855558084
6.736210432,1.0000376864345637,48.519724865551375
6.738496512,1.0002227674588091,48.35284880184176
6.740783104,1.0003938146392586,48.18341203326628
6.743069696,1.000539998534491,48.011678052301036
6.745355776,1.0006520250790492,47.838076622764284
6.747642368,1.000722770739566,47.66316204443099
6.749928448,1.0007479123471386,47.487548222589105
6.75221504,1.0007256188170934,47.31191927359026
6.75450112,1.0006573137605452,47.13693862282949
6.756787712,1.0005473123951885,46.96326984783205
6.759073792,1.0004025458009593,46.791456839069625
6.761360384,1.0002320781177325,46.621902850582
6.763646976,1.0000467312458052,46.45498152038619
6.765933056,0.9998582313905644,46.29076872617141
6.768219648,0.9996783844634428,46.12923952969037
6.770505728,0.9995187449875396,45.97020052741084
6.77279232,0.9993893000371414,45.81325650257143
6.7750784,0.9992982876236498,45.65792986330535
6.777364992,0.9992516587219904,45.50360872253742
6.779651584,0.9992522745904142,45.3496421553005
6.781937664,0.9993002101976272,45.195340387037184
6.784224256,0.9993923428122317,45.04003092528339
6.786510336,0.9995229799750257,44.88310229042889
6.788796928,0.9996837586331734,44.72405523117203
6.791083008,0.9998646651724966,44.56257101714657
6.7933696,1.0000541876193154,44.398369850383
6.79565568,1.000240218668461,44.23145872470705
6.797942272,1.000411215442389,44.061947998139544
6.800228864,1.0005561288319997,43.890176947589346
6.802514944,1.0006659276341194,43.71653721491383
6.804801536,1.0007336853949784,43.54161944016372
6.807087616,1.0007550126461477,43.366080740204026
6.809374208,1.000728418747003,43.190565803191426
6.811660288,1.0006557815638082,43.015773494198825
6.81394688,1.0005414394984167,42.84234474040033
6.81623296,1.0003927452841226,42.670822718852754
6.818519552,1.000218963556533,42.501645478655256
6.820806144,1.000031124699552,42.33510591770656
6.823092224,0.9998410924996386,42.17130669480713
6.825378816,0.9996608481636575,42.01021381173121
6.827664896,0.9995018417163737,41.851576683298944
6.829951488,0.9993741652894358,41.695045373792915
6.832237568,0.9992859532924379,41.54011870570909
6.83452416,0.9992428722329748,41.38613823822581
6.836810752,0.9992475525703478,41.23244401741644
6.839096832,0.9992997967569025,41.07833937727396
6.841383424,0.9993964532838476,40.92316358453116
6.843669504,0.9995311918859228,40.76632760847366
6.845956096,0.9996957108302301,40.607314674596836
6.848242176,0.9998795565098594,40.44576752180089
6.850528768,1.0000709940260275,40.281531838525666
6.852814848,1.0002579914686502,40.11452894736626
6.85510144,1.000428765591494,39.944937326864284
6.857388032,1.0005724554168673,39.77307256193792
6.859674112,1.0006799384484495,39.599382758245035
6.861960704,1.0007444632479396,39.42445366884765
6.864246784,1.0007618367865065,39.248929693473485
6.866533376,1.000730981673805,39.0735028300877
6.868819456,1.0006538533202707,38.89886196238517
6.871106048,1.000535170422733,38.72563833699455
6.87339264,1.0003824981196108,38.5543965145529
6.87567872,1.0002054856891325,38.38554180062388
6.877965312,1.0000152161118534,38.21937063383152
6.880251392,0.9998236553114083,38.05594579549779
6.882537984,0.9996430865479755,37.89526744133093
6.884824064,0.9994849190361074,37.73703275895995
6.887110656,0.9993591475155663,37.580886046198316
6.889396736,0.9992737581858167,37.42629332474717
6.891683328,0.9992342265949491,37.272590117193765
6.89396992,0.9992431291232216,37.11913489336654
6.896256,0.9992998839646037,36.96521961042462
6.898542592,0.9994009441950226,36.81016668252382
6.900828672,0.9995399691078733,36.653357699978464
6.903115264,0.9997081240621077,36.49432437340784
6.905401344,0.9998946713348958,36.33272009786364
6.907687936,1.0000881107614679,36.16837494956799
6.909974528,1.0002759925840017,36.001254177617966
6.912260608,1.000446496279204,35.83152074760749
6.9145472,1.0005887589761417,35.65953652328778
6.91683328,1.000693875019692,35.48576520194294
6.919119872,1.0007550314990168,35.31077554583311
6.921405952,1.0007685619061826,35.13526635539236
6.923692544,1.0007332659518038,34.95990370271359
6.925978624,1.000651561267065,34.78538186543776
6.928265216,1.0005285474282735,34.612355770409806
6.930551808,1.000371944463945,34.441334764390476
6.932837888,1.0001915743416496,34.272789409181236
6.93512448,0.9999988184278958,34.10693558023881
