freq,mag,phase
6.0,1.000095583882738,32.24217648599252
6.005211648,1.0000335470102,32.111188132766785
6.010423296,0.9999693198599586,31.981057555940254
6.015634944,0.9999067832770075,31.851846618180808
6.020847104,0.9998496080473581,31.723457692791936
6.026058752,0.9998012466059618,31.595799273714476
6.0312704,0.9997644764618071,31.468749718803924
6.036482048,0.9997414898137762,31.34208588156539
6.041693696,0.999733733670601,31.215676693447865
6.046905344,0.9997415653757254,31.08922673383111
6.052117504,0.9997646828407395,30.962572586330097
6.057329152,0.9998015844650062,30.83551306243813
6.0625408,0.9998501595991623,30.707804510508875
6.067752448,0.9999075291754429,30.57937242315167
6.072964096,0.9999702557850333,30.450065001240763
6.078175744,1.0000347247147727,30.319925382217193
6.083387392,1.0000969753771016,30.188832301896237
6.088599552,1.0001534465876902,30.056918114502178
6.0938112,1.0002007687309813,29.924272727886265
6.099022848,1.0002361360880492,29.791083252054754
6.104234496,1.0002574774013173,29.657412044609067
6.109446144,1.000263358043142,29.523593581289393
6.114657792,1.0002536762947676,29.389775676489933
6.119869952,1.0002287594710204,29.256187408458096
6.1250816,1.0001902002767362,29.12308682813073
6.130293248,1.0001403515672245,28.99055519549108
6.135504896,1.0000819444632845,28.858758249944504
6.140716544,1.0000185584855863,28.727855257327793
6.145928192,0.9999539247305699,28.59784050544306
6.15113984,0.9998919142855427,28.468696244286186
6.156352,0.9998360603556966,28.340392063968807
6.161563648,0.999789817177998,28.212810865102973
6.166775296,0.9997558616542848,28.085759023987514
6.171986944,0.9997362512418433,27.95908334484789
6.177198592,0.9997321390450276,27.832574756520653
6.18241024,0.999743722635676,27.706019776176223
6.1876224,0.9997704401002832,27.579184449921918
6.192834048,0.9998105771007296,27.451873831640192
6.198045696,0.9998618045365163,27.32392473117757
6.203257344,0.9999211969016578,27.195193078043555
6.208468992,0.9999851272749863,27.065587171883312
6.21368064,1.0000499657587416,26.935086775356567
6.218892288,1.000111618987067,26.803654586559336
6.224104448,1.0001666063566597,26.671441937066252
6.229316096,1.000211757518781,26.538491348957248
6.234527744,1.0002441933206927,26.405023809069817
6.239739392,1.0002621133792138,26.271164331453644
6.24495104,1.0002643875111048,26.137156298209643
6.250162688,1.0002508762654745,26.00321554087769
6.255374848,1.0002224478781523,25.869602830237916
6.260586496,1.0001807451231628,25.73645642887583
6.265798144,1.0001280990903063,25.603945243058824
6.271009792,1.0000678103074339,25.4722482303602
6.27622144,1.0000033181123027,25.341454735218203
6.281433088,0.999938494766394,25.211477829781465
6.286644736,0.999877140562901,25.08242348419269
6.291856896,0.9998229084756102,24.95420538198913
6.297068544,0.9997789982973267,24.82666488859536
6.302280192,0.9997480281428436,24.699610202006937
6.30749184,0.9997318658155776,24.572884412417558
6.312703488,0.9997313950228048,24.446303403515948
6.317915136,0.9997467167041113,24.319622050532544
6.323126784,0.9997769212985157,24.19256987935465
6.328338944,0.9998202993636364,24.065035978415352
6.333550592,0.999874155437828,23.93681269562699
6.33876224,0.9999353653563076,23.807732611791455
6.343973888,1.0000003301418985,23.677833278878097
6.349185536,1.000065238706191,23.54696928490346
6.354397184,1.0001261390643275,23.415220602582664
6.359609344,1.0001794857926916,23.282660314541005
6.364820992,1.0002222142919117,23.149425475551812
6.37003264,1.00025160744007,23.01569250371725
6.375244288,1.0002660266862025,22.881637301772134
6.380455936,1.00026454022802,22.747491204712563
6.385667584,1.0002473724496137,22.613436177923564
6.390879232,1.0002153403927843,22.479776271357508
6.396091392,1.000170482512373,22.34660704550111
6.40130304,1.0001153680283654,22.21414705321338
6.406514688,1.0000532753431246,22.082521615685472
6.411726336,0.9999878680137689,21.951760146505727
6.416937984,0.9999229937015773,21.82193017912012
6.422149632,0.9998625162785241,21.692975713419575
6.427361792,0.9998100591712432,21.56477861947896
6.43257344,0.9997686308165443,21.43725154505839
6.437785088,0.9997407584121539,21.310217050042258
6.442996736,0.9997281416105367,21.18345749324579
6.448208384,0.9997314549236863,21.056741008370896
6.453420032,0.9997505462852043,20.92991715869463
6.45863168,0.9997843269435528,20.80268096587295
6.46384384,0.9998307385215286,20.67485301606489
6.469055488,0.99988708829842,20.54633644940019
6.474267136,0.99994992381525,20.41698219587482
6.479478784,1.0000157210721985,20.28670337962569
6.484690432,1.0000805843960843,20.155519467980596
6.48990208,1.0001405034043767,20.02341022369028
6.49511424,1.0001919652080316,19.890551805337036
6.500325888,1.0002320917358947,19.757032207553443
6.505537536,1.000258292279488,19.623067576093643
6.510749184,1.00026917298586,19.48880595350253
6.515960832,1.0002639080353195,19.354491217911402
6.52117248,1.0002429210380572,19.2203609119541
6.526384128,1.0002074974730286,19.086634966920347
6.531596288,1.0001594679105343,18.953515407141268
6.536807936,1.0001020468708586,18.821073033265385
6.542019584,1.0000383918028688,18.689521905466265
6.547231232,0.9999722201380695,18.558835865151224
6.55244288,0.9999075365363413,18.429060943440447
6.557654528,0.9998481527227839,18.300191257298156
6.562866688,0.9997976127797124,18.172055395611807
6.568078336,0.9997588599482128,18.04461580653076
6.573289984,0.9997342895205257,17.91752716333549
6.578501632,0.9997252510164808,17.79071846153518
6.58371328,0.9997323479799991,17.663892988649867
6.588924928,0.9997551775642483,17.536846854545995
6.594136576,0.9997923931826134,17.409391743287348
6.599348736,0.9998417345560922,17.281314390228168
6.604560384,0.9999003984839788,17.152501797385863
6.609772032,0.9999649919836767,17.022807385508482
6.61498368,1.000031355502259,16.892180494606606
6.620195328,1.000095793371787,16.760619291206265
6.625406976,1.0001545491009016,16.628215460732463
6.630619136,1.000204108295446,16.495024010342718
6.635830784,1.0002413977410423,16.361222095758073
6.641042432,1.0002642572096883,16.22698720957395
6.64625408,1.000271408654511,16.092553390679512
6.651465728,1.0002624111351215,15.958105860962508
6.656677376,1.0002377152685624,15.82390333938281
6.661889024,1.0001987988003338,15.69013263471136
6.667101184,1.0001479684363888,15.556980105934317
6.672312832,1.0000881998121083,15.424611749832078
6.67752448,1.0000230576564464,15.29310416291854
6.682736128,0.9999563296817606,15.16254639939829
6.687947776,0.9998920995483629,15.032858578273638
6.693159424,0.9998340103900544,14.904051158076658
6.698371584,0.9997855998738644,14.775993219977554
6.703583232,0.9997496466538887,14.648519642911282
6.70879488,0.9997284857285998,14.521417195779707
6.714006528,0.9997231120450322,14.39453808881733
6.719218176,0.9997341102263446,14.267581847843813
6.724429824,0.9997607027392484,14.140375220797559
6.729641472,0.99980132666754,14.012684928739207
6.734853632,0.9998535288871065,13.88431824158517
6.74006528,0.9999143695306199,13.755175530054261
6.745276928,0.9999801511855,13.625132182318723
6.750488576,1.0000470475805714,13.49415770429635
6.755700224,1.0001110659690216,13.362266685076763
6.760911872,1.0001683587544534,13.229507297900394
6.766124032,1.0002156471631771,13.096022218154284
6.77133568,1.0002500328365558,12.961946080952588
6.776547328,1.00026955710843,12.82750000640853
6.781758976,1.000272974351241,12.692830446240505
6.786970624,1.0002600797151764,12.558278546598974
6.792182272,1.0002316400062665,12.423976589453849
6.79739392,1.0001893657662022,12.290199010485951
6.80260608,1.0001357385241336,12.15706534592835
6.807817728,1.0000738939358123,12.024730214832617
6.813029376,1.0000074891759918,11.89329977675851
6.818241024,0.9999404196192697,11.762801535639644
6.823452672,0.9998767305435474,11.633223160341414
6.82866432,0.9998200647981882,11.504474627519334
6.833875968,0.9997740154316179,11.37644935152999
6.839088128,0.9997411508800835,11.248969968308481
6.844299776,0.9997234541493332,11.1218585896646
6.849511424,0.9997218761021929,10.994840492716476
6.854723072,0.9997366772113653,10.867748635381643
6.85993472,0.9997669212697877,10.740339891311699
6.865146368,0.999810901122588,10.612382872756573
6.870358528,0.999865926405786,10.483761281344407
6.875570176,0.999928818335247,10.354293364144365
6.880781824,0.9999958145155775,10.223908836504544
6.885993472,1.0000629040291569,10.092568481904499
6.89120512,1.000126187464418,9.960304457091501
6.896416768,1.000181949278292,9.82720904440374
6.901628416,1.0002267286548745,9.693401872081289
6.906840576,1.0002581004521716,9.559051037385942
6.912052224,1.0002740253126714,9.424382474635363
6.917263872,1.0002736377337516,9.289600953470382
6.92247552,1.0002568563266256,9.154858236297837
6.927687168,1.0002248553523891,9.020507005630265
6.932898816,1.0001792708331547,8.88671541032785
6.938110976,1.000122857474906,8.753607896731573
6.943322624,1.000059046216637,8.62134586436472
6.948534272,0.9999915654831482,8.489985412060769
6.95374592,0.9999243919726335,8.35952036637393
6.958957568,0.9998615047500121,8.230042423538345
6.964169216,0.9998066249974817,8.101377388782595
6.969380864,0.9997630100126165,7.97337327550351
6.974593024,0.9997332410401939,7.84588870210252
6.979804672,0.9997191250893516,7.7187009862363505
6.98501632,0.9997215234063614,7.591606167717164
6.990227968,0.9997401881689096,7.464322299468281
6.995439616,0.9997740626229195,7.336722594828046
7.000651264,0.9998213036652246,7.208504859172316
7.005863424,0.9998789708362855,7.079585863726947
7.011075072,0.9999437157741385,6.949767307514103
7.01628672,1.0000117080377093,6.819034174951405
7.021498368,1.0000786847112026,6.687332407290147
7.026710016,1.0001411899713708,6.554734056084863
7.031921664,1.0001951481662184,6.421304608742786
7.037133312,1.0002373180108348,6.287141040841973
7.042345472,1.0002655378734007,6.152538200341268
7.04755712,1.0002777555253388,6.0176149168415645
7.052768768,1.0002735346597815,5.882665402870056
7.057980416,1.00025288905006,5.747858490641929
7.063192064,1.000217130467677,5.613437911413923
7.068403712,1.0001682560485772,5.479616736436155
7.073615872,1.0001093845937066,5.346547696391364
7.07882752,1.000043870108714,5.214323055179027
7.084039168,0.9999754550625025,5.083065310810209
7.089250816,0.9999083723875254,4.952721639454991
7.094462464,0.9998465816274433,4.8232933674035525
7.099674112,0.999793516929699,4.694667255007304
7.10488576,0.9997525181547942,4.566693762209541
7.11009792,0.9997260237703434,4.439159749557705
7.115309568,0.9997156344966706,4.311917852811083
7.120521216,0.9997217996291777,4.18469712555835
7.125732864,0.9997444675081985,4.057270589106253
7.130944512,0.9997820628461872,3.9294062855348186
7.13615616,0.9998323391380969,3.8009306932221407
7.14136832,0.9998925262137252,3.6716566861882223
7.146579968,0.999958940466958,3.541517179457167
7.151791616,1.0000276789005023,3.41039331636179
7.157003264,1.0000946362979937,3.278359910631884
7.162214912,1.0001559542801837,3.145385082240461
7.16742656,1.0002078620022827,3.0115886814601636
7.172638208,1.0002473770930487,2.87719252069028
7.177850368,1.0002722260957717,2.7423086948459736
7.183062016,1.0002806301980336,2.6071681992117175
7.188273664,1.0002724116422863,2.472039031703558
7.193485312,1.000247968901202,2.3371395791166516
7.19869696,1.0002085469412287,2.202670942642477
7.203908608,1.0001567329814438,2.0688410856228545
7.209120768,1.0000953900649507,1.9357783492308596
7.214332416,1.000028272843093,1.8036452154368776
7.219544064,0.9999592120227498,1.6724551082920576
7.224755712,0.9998922692631277,1.5422107694617901
7.22996736,0.999831651506582,1.41283840072527
7.235179008,0.9997807988708941,1.2842557306434386
7.240390656,0.9997427158799234,1.1562915640039528
7.245602816,0.9997196544041255,1.0287601298484403
7.250814464,0.9997129308516062,0.9014363197345318
7.256026112,0.9997232402784189,0.7740912226332358
7.26123776,0.9997496950152833,0.6464491944840608
7.266449408,0.9997908114897323,0.5183379064245113
7.271661056,0.99984417556937,0.38954728828741386
7.276873216,0.9999067012796042,0.259988151588312
7.282084864,0.999974597838602,0.129455066784376
7.287296512,1.0000438696310618,-0.002005320226412638
7.29250816,1.0001105199069962,-0.13447811571420806
7.297719808,1.0001705442569409,-0.2677764161126648
7.302931456,1.000220108713298,-0.40188947880007475
7.308143104,1.000256779761604,-0.5366325801855663
7.313355264,1.0002780787820438,-0.6717496812890887
7.318566912,1.0002827051656973,-0.8071007411545987
7.32377856,1.0002705957473874,-0.9423706786025625
7.328990208,1.000242152312662,-1.0773679437104555
7.334201856,1.000199286532043,-1.211878740689136
7.339413504,1.000144412427819,-1.3456911769847693
7.344625152,1.000080790508303,-1.4786950571875324
7.349837312,1.0000122125864623,-1.610803628607609
7.35504896,0.9999426241638045,-1.7419061931586493
7.360260608,0.9998763664628608,-1.872090762221439
7.365472256,0.9998171010028581,-2.001380180170742
7.370683904,0.999768458208644,-2.129924519562585
7.375895552,0.9997333658799278,-2.257855938322158
7.381107712,0.9997138633331172,-2.38544877382472
7.38631936,0.9997111319564227,-2.5128903643730336
7.391531008,0.9997253965810481,-2.640402549629558
7.396742656,0.9997557325721058,-2.768217798466922
7.401954304,0.9998003103126561,-2.8965839170909167
7.407165952,0.9998566628095249,-3.025662907164551
7.4123776,0.9999214402694836,-3.1556037425693066
7.41758976,0.9999906342104207,-3.2864710240019916
7.422801408,1.0000602754619812,-3.4183009707766927
7.428013056,1.0001263101625513,-3.551157674532785
7.433224704,1.0001847371415846,-3.6848254062835775
7.438436352,1.0002321390287674,-3.8192624190180564
7.443648,1.0002655955046864,-3.954301547359132
7.44886016,1.000283237063738,-4.089683679327402
7.454071808,1.0002840530755606,-4.2252013253615255
7.459283456,1.0002678024307596,-4.3606230925726885
7.464495104,1.0002356185082781,-4.495701925406365
7.469706752,1.0001891710009212,-4.630260213925831
7.4749184,1.0001314668847225,-4.764072151334737
7.480130048,1.0000657308554188,-4.897040481873901
7.485342208,0.9999958356180134,-5.029069652519551
7.490553856,0.999926111455591,-5.16009597337056
7.495765504,0.9998604420288626,-5.29019038451495
7.500977152,0.999802846649394,-5.4194241366161044
7.5061888,0.9997567383818943,-5.5479256358298015
7.511400448,0.9997247244727105,-5.6758975177250734
7.516612608,0.999708990883731,-5.803521883261289
7.521824256,0.9997101909706171,-5.931077053520546
7.527035904,0.9997284005980354,-6.058764498550198
7.532247552,0.9997625167741863,-6.186811183972472
7.5374592,0.9998105977779332,-6.315457434195818
7.542670848,0.9998697838278785,-6.444854867676789
7.547882496,0.9999365966250721,-6.575134978141808
7.553094656,1.0000069582416593,-6.706391360006071
7.558306304,1.0000767634562127,-6.838612971059721
7.563517952,1.0001420698355796,-6.9718113238828225
7.5687296,1.0001986678239771,-7.105848457326204
7.573941248,1.000243472008829,-7.2406449607738415
7.579152896,1.0002737480853345,-7.37593845211113
7.584365056,1.0002876567592611,-7.5115884642136646
7.589576704,1.0002844227983034,-7.6473038385612
7.594788352,1.0002641030051038,-7.7828352131054785
7.6,1.000228095858311,-7.917982473312158
7.605211648,1.0001783956162047,-8.052580105552256
7.610423296,1.0001178782243596,-8.186391846216226
7.615634944,1.00005021802066,-8.319295277729173
7.620847104,0.9999792625257785,-8.451240246340397
7.626058752,0.9999095300556281,-8.582203173559927
7.6312704,0.9998445995183699,-8.712213810642485
7.636482048,0.9997888900627544,-8.841407545710418
7.641693696,0.9997454469719598,-8.969914587101755
7.646905344,0.9997169435134353,-9.097874149567502
7.652117504,0.9997048245365466,-9.22557939153948
7.657329152,0.9997101108793215,-9.353243243027103
7.6625408,0.999732399598015,-9.481117167222727
7.667752448,0.9997703016464002,-9.6094125123424
7.672964096,0.999821785181398,-9.738337534067107
7.678175744,0.9998836952041064,-9.86803931649428
7.683387392,0.9999522309308407,-9.998704491499458
7.688599552,1.0000235984698727,-10.130319776571126
7.6938112,1.0000933994712256,-10.262951297345637
7.699022848,1.0001575528506568,-10.396535865856936
7.704234496,1.0002123171753505,-10.530933296812135
7.709446144,1.0002543538467117,-10.666042623878445
7.714657792,1.000281263712294,-10.80166918016847
7.719869952,1.0002912737653544,-10.937508959623665
7.7250816,1.0002839344198853,-11.073412304563902
7.730293248,1.0002597104805162,-11.20907992608729
7.735504896,1.0002197190514404,-11.344308645493875
7.740716544,1.0001668439925768,-11.47890501630235
7.745928192,1.0001037426092019,-11.612687559887128
7.75113984,1.000034202437422,-11.74555798200465
7.756352,0.999962526574137,-11.877394649060651
7.761563648,0.9998927341757438,-12.008297665595084
7.766775296,0.9998291154525161,-12.13823786350808
7.771986944,0.9997753498599353,-12.267377543527454
7.777198592,0.9997348431784845,-12.395862569293524
7.78241024,0.9997096831677185,-12.52388480029202
7.7876224,0.9997015371065455,-12.651675883585652
7.792834048,0.9997109145308972,-12.779489166140873
7.798045696,0.9997372189798958,-12.907535823345954
7.803257344,0.9997789733215943,-13.036073610874121
7.808468992,0.999833592577121,-13.165304455678582
7.81368064,0.9998980219032552,-13.295383945712354
7.818892288,0.9999683755618499,-13.426410679607022
7.824104448,1.0000405002594999,-13.558403115575118
7.829316096,1.0001099915552523,-13.691437312486064
7.834527744,1.0001729073394992,-13.825410419988735
7.839739392,1.0002255437955194,-13.960167155887437
7.84495104,1.0002646503423753,-14.095621388696422
7.850162688,1.00028794745481,-14.231480809522798
7.855374848,1.0002940598554655,-14.367584963289499
7.860586496,1.0002826356942527,-14.503638725318549
7.865798144,1.0002543222236977,-14.63942851683316
7.871009792,1.0002106985036412,-14.774736337300855
7.87622144,1.0001544514850151,-14.90932402826642
7.881433088,1.000088773748294,-15.04305486015961
7.886644736,1.0000177357517603,-15.175862991437022
7.891856896,0.9999453056861995,-15.307648140260628
7.897068544,0.9998759899993634,-15.438486896032398
7.902280192,0.9998136865237257,-15.568376537926442
7.90749184,0.999762338715902,-15.697473038960975
7.912703488,0.99972470392059,-15.825923435730381
7.917915136,0.9997032197687189,-15.954028248471671
7.923126784,0.9996991020636344,-16.081883783010156
7.928338944,0.9997126457917124,-16.209853924801124
7.933550592,0.9997430354274282,-16.338122652146406
7.93876224,0.9997883897292407,-16.466939170861348
7.943973888,0.9998463043411303,-16.596481214937604
7.949185536,0.9999132018401389,-16.726900239019532
7.954397184,0.9999849024431645,-16.858301508726218
7.959609344,1.000057473966088,-16.99074200877338
7.964820992,1.000126603702796,-17.12415014406228
7.97003264,1.0001880804687042,-17.25851189661452
7.975244288,1.0002383206405245,-17.39364507802052
7.980455936,1.0002742824036355,-17.529382490887684
7.985667584,1.0002938759387232,-17.665521115820717
7.990879232,1.0002959401524163,-17.801852204840998
7.996091392,1.000280378459961,-17.938062964273605
8.00130304,1.0002479722783788,-18.07394894813507
8.006514688,1.0002006933778054,-18.209310906477885
8.011726336,1.0001413957313445,-18.343900465738486
8.016937984,1.0000734598937855,-18.477618746995176
8.022149632,1.000000873030392,-18.610374573387215
8.027361792,0.9999281266091256,-18.742077104361464
8.03257344,0.999859354006115,-18.87280765847944
8.037785088,0.9997986285246461,-19.002654079201474
8.042996736,0.9997496095392783,-19.13172510494159
8.048208384,0.9997152242090184,-19.260180644654433
8.053420032,0.9996975671064747,-19.388306921928173
8.05863168,0.9996975435078624,-19.516332655898015
8.06384384,0.9997152408987636,-19.64447093370196
8.069055488,0.9997495811966819,-19.772975816955398
8.074267136,0.9997986522412932,-19.902043713890176
8.079478784,0.9998595611537472,-20.031942175391904
8.084690432,0.9999286938350203,-20.162741574988228
8.08990208,1.0000018274423148,-20.29451636910866
8.09511424,1.000074679410782,-20.42733201481722
8.100325888,1.0001430903792774,-20.56116632702787
