freq,mag,phase
6.0,1.0011563620470736,21.241026875681552
6.002285056,1.0009344716210977,21.050040759866576
6.004570112,1.0006547820248124,20.86257960616903
6.006855168,1.000334686627009,20.6793135408535
6.009140224,0.9999941918079028,20.500744683936674
6.01142528,0.9996546910789538,20.32698080204818
6.013710336,0.9993377590458528,20.15786642090124
6.015995392,0.9990634028066847,19.992944925464272
6.018280448,0.9988489531943859,19.83146956998185
6.020565504,0.9987079682172582,19.672467976146763
6.02285056,0.9986494525632326,19.51479940310779
6.025135616,0.9986772292742918,19.357239301046647
6.027420672,0.9987893954506867,19.198570593229526
6.029705728,0.9989789619118181,19.037571026235216
6.031990784,0.9992340137453528,18.873236239903232
6.03427584,0.9995384043107538,18.704709209209376
6.036560896,0.9998730234447109,18.53143339061115
6.038845952,1.0002165004706398,18.35311997239294
6.041131008,1.000547459006581,18.169810348046074
6.043416064,1.0008447816224562,17.981815803303412
6.04570112,1.0010899763761572,17.789773498956006
6.047986176,1.0012674535952275,17.594558731559786
6.050271232,1.001366132634383,17.397253595168326
6.052556288,1.0013796669768686,17.198987629504625
6.054841344,1.0013073185330075,17.00102936068068
6.0571264,1.0011533381021187,16.80456600522186
6.059411456,1.0009276943640801,16.610736643655144
6.061696512,1.0006443418804911,16.420454695759954
6.063981568,1.000321218737288,16.23444513703048
6.066266624,0.9999785562279901,16.05314522826725
6.06855168,0.9996379050275082,15.876666007913975
6.070836736,0.9993209228129853,15.704853864643946
6.073121792,0.9990474348684315,15.537193526684147
6.075406848,0.9988349072751358,15.37296032446863
6.077691904,0.9986967953474205,15.211159036807146
6.07997696,0.9986417708836015,15.050632522239281
6.082262016,0.9986734981559462,14.89014901368131
6.084547072,0.9987899612481763,14.728490680516328
6.086832128,0.9989836286932589,14.564445731600623
6.089117184,0.9992425773236085,14.39698579716479
6.09140224,0.9995503119999953,14.225285644452999
6.093687296,0.9998874036517964,14.048780100902947
6.095972352,1.0002326110634203,13.867206973960121
6.098257408,1.0005641691757743,13.680593617204183
6.100542464,1.000861163686632,13.489295354278148
6.10282752,1.0011050544830467,13.293972837757622
6.105112576,1.001280310386239,13.095488168912583
6.107397632,1.001375969079307,12.894902852314138
6.1096832,1.0013859255567243,12.693434388273788
6.111968256,1.0013096642640475,12.49231847485558
6.114253312,1.001151657666267,12.29275600424948
6.116538368,1.0009221930273564,12.095859456479566
6.118823424,1.000635322257668,11.902556365250984
6.12110848,1.0003092636566353,11.713568188428226
6.123393536,0.9999643942037761,11.529308237290788
6.125678592,0.9996225748195866,11.349887903564635
6.127963648,0.9993052068852437,11.175143906287719
6.130248704,0.999032472169451,11.004533443855038
6.13253376,0.9988217282370215,10.837331526719009
6.134818816,0.9986859360513594,10.67250624257751
6.137103872,0.9986340967571974,10.508903282533197
6.139388928,0.9986694227755661,10.345326967739073
6.141673984,0.9987896262165112,10.180470959457162
6.14395904,0.9989871173818534,10.013185559774413
6.146244096,0.9992496258149662,9.8424301040404
6.148529152,0.9995604418985787,9.667356762269256
6.150814208,0.9999000675987855,9.487451039635827
6.153099264,1.0002469515531454,9.302433879780567
6.15538432,1.0005793512577854,9.11234178350819
6.157669376,1.0008762610957889,8.91756674003689
6.159954432,1.0011191396571748,8.718753864087128
6.162239488,1.0012925263012937,8.516795181764053
6.164524544,1.001385536409735,8.31279164136345
6.1668096,1.0013923560282505,8.10790022906903
6.169094656,1.0013125484838006,7.903426987007641
6.171379712,1.001151053080628,7.700522721774497
6.173664768,1.0009179627034033,7.5003317998195635
6.175949824,1.000627959344274,7.303795050231167
6.17823488,1.0002990276781039,7.111581962164162
6.180519936,0.9999522391933748,6.924146577003799
6.182804992,0.9996089139179328,6.741569750260069
6.185090048,0.9992912081364967,6.563646236550977
6.187375104,0.999018965062409,6.389858691583728
6.18966016,0.9988092970108006,6.219459647112959
6.191945216,0.998675559892138,6.051403313476489
6.194230272,0.9986263491235322,5.884545073536544
6.196515328,0.9986646886744064,5.717642404847425
6.198800384,0.9987882855805694,5.549416824603478
6.20108544,0.9989892560397031,5.378704318741719
6.203370496,0.9992550539685392,5.204447109680858
6.205655552,0.9995688724871541,5.025846324185363
6.207940608,0.9999107700676746,4.842350572658963
6.210225664,1.0002594064454697,4.6536958297897035
6.21251072,1.0005928142807865,4.459955698960682
6.214795776,1.00088985211214,4.261538449448439
6.217080832,1.0011319845335764,4.059070095011328
6.219365888,1.0013039743857162,3.8534406277866413
6.221650944,1.0013948948396283,3.6457812811020056
6.223936,1.0013991702519296,3.437292354982951
6.226221056,1.0013163825016056,3.2292039723112
6.228506112,1.0011515468213865,3.022770458171015
6.230791168,1.0009153623705276,2.819087250920921
6.233076224,1.000622275220402,2.6190648145714586
6.23536128,1.0002908319287915,2.4234153555314535
6.237646336,0.9999418933427876,2.2325564566911003
6.239931392,0.9995972141569521,2.0465712083846324
6.242216448,0.9992787890084908,1.8652433212688597
6.244501504,0.9990064424401554,1.6880760931617529
6.24678656,0.9987977681060701,1.5142578494996994
6.249071616,0.9986656228799267,1.3427569292329629
6.251356672,0.9986185195660069,1.1724403383958815
6.253641728,0.9986594945821436,1.0020015397601283
6.255926784,0.9987859224344042,0.8302287219412559
6.25821184,0.998989885569881,0.6558716754994709
6.260496896,0.9992586558532651,0.47795759297707663
6.262781952,0.999575152619392,0.2956378748320059
6.265067008,0.9999193558515972,0.10838508434643943
6.267352064,1.0002697741374469,-0.08405541538967037
6.26963712,1.0006043175370225,-0.2816075801683656
6.271922176,1.0009019882392969,-0.4838856858299529
6.274207232,1.0011437357970268,-0.690209518978131
6.276492288,1.001314699865189,-0.8996783638777237
6.278777344,1.0014041284465103,-1.1111681536887275
6.2810624,1.001406193746162,-1.323484662700123
6.283347456,1.0013209068772206,-1.5353370804285562
6.285632512,1.001153493337701,-1.745563616160933
6.287917568,1.0009143405544778,-1.9529611642188713
6.290202624,1.000618604249393,-2.15668427512743
6.29248768,1.0002846733116648,-2.3560084453116614
6.294772736,0.9999336478047947,-2.550514008368793
6.297057792,0.9995875099040593,-2.740131563871926
6.299342848,0.9992681680930354,-2.925088088424605
6.301627904,0.9989957269691401,-3.105882911379748
6.30391296,0.9987872972736067,-3.283341783286449
6.306198016,0.9986561639491919,-3.4584891744678585
6.308483072,0.9986107056101291,-3.6325047573132614
6.310768128,0.9986537258753997,-3.8066342706211285
6.313053184,0.998782568201117,-3.9821761471062502
6.31533824,0.9989892211578342,-4.160318910148424
6.317623296,0.999260633965455,-4.342084268371875
6.319908352,0.9995796471873896,-4.528295506142156
6.322193408,0.9999260413744405,-4.7194695668782085
6.324478976,1.0002783911198805,-4.915874671050389
6.326764032,1.0006141509209985,-5.117441401323427
6.329049088,1.000912532608577,-5.3237218438384675
6.331334144,1.0011544325662232,-5.534062129646291
6.3336192,1.001325063828444,-5.747574754782752
6.335904256,1.001413388305373,-5.963101102682965
6.338189312,1.001413943506117,-6.17943301656925
6.340474368,1.0013265561907334,-6.395294132083929
6.342759424,1.0011568945817568,-6.609499065568084
6.34504448,1.0009154786710985,-6.8208585605403345
6.347329536,1.0006171734256994,-7.02852013213323
6.349614592,1.0002809444942944,-7.231718493818389
6.351899648,0.9999278597969417,-7.43011761937417
6.354184704,0.9995800798562655,-7.623600877338722
6.35646976,0.9992594915627334,-7.812399946286371
6.358754816,0.9989863518970542,-7.997041956487341
6.361039872,0.9987778002454037,-8.17835132474554
6.363324928,0.9986472246001197,-8.357364207478154
6.365609984,0.9986027306262554,-8.535233956972872
6.36789504,0.9986472337504503,-8.713304742027832
6.370180096,0.9987780490862136,-8.892791408148796
6.372465152,0.9989868309057616,-9.074881682005712
6.374750208,0.9992604229326928,-9.260657355443739
6.377035264,0.9995816431651949,-9.450917717078257
6.37932032,0.9999303481558938,-9.646199849430554
6.381605376,1.0002845535439613,-9.846736233684172
6.383890432,1.0006219064254394,-10.05243458489578
6.386175488,1.000921221072935,-10.262919342869845
6.388460544,1.0011639078111534,-10.477460240031279
6.3907456,1.0013344348519706,-10.69516722536989
6.393030656,1.0014223233790658,-10.914914201341489
6.395315712,1.001421959962513,-11.135463609618022
6.397600768,1.0013332892038251,-11.355531569732246
6.399885824,1.001161867526071,-11.57390238205914
6.40217088,1.0009182009094264,-11.789466077658812
6.404455936,1.0006179559689725,-12.00125739355591
6.406740992,1.0002794906768326,-12.208620323019547
6.409026048,0.9999243271327868,-12.411109653120041
6.411311104,0.9995747237475676,-12.608692472350963
6.41359616,0.9992526396126987,-12.801562822246094
6.415881216,0.998978380699045,-12.990261327489065
6.418166272,0.9987693187450517,-13.175640371722224
6.420451328,0.9986386049150396,-13.358684938293695
6.422736384,0.9985946051782643,-13.540652180199285
6.42502144,0.9986399605933077,-13.722794545644996
6.427306496,0.9987720390492749,-13.906398126992212
6.429591552,0.9989824686393782,-14.092634807426924
6.431876608,0.9992579989603757,-14.282572563918919
6.434161664,0.999581246510169,-14.477035403791756
6.43644672,0.9999320383418412,-14.676564861179264
6.438731776,1.0002881879045713,-14.881381901929327
6.441016832,1.0006272769189521,-15.09139614236945
6.443301888,1.000928218995386,-15.306194140025942
6.445586944,1.0011718903439806,-15.525116164857543
6.447872,1.001343225686558,-15.747209013812963
6.450157056,1.0014313203573402,-15.971351309974688
6.452442112,1.0014304953925668,-16.196300515664678
6.454727168,1.0013410229943083,-16.42077606686564
6.457012224,1.0011683764873047,-16.643536959574032
6.45929728,1.0009232843750993,-16.863475737395884
6.461582336,1.0006210696777018,-17.079653102984356
6.463867392,1.0002807388649246,-17.2913424459535
6.466152448,0.9999235786246523,-17.498176855377718
6.468437504,0.9995719142449779,-17.700060098488425
6.47072256,0.999248068806516,-17.897222107173175
6.473007616,0.9989722704752269,-18.090187912561998
6.475292672,0.9987621124882489,-18.279825146547132
6.477577728,0.9986307027189931,-18.467142951909427
6.479862784,0.9985863439352487,-18.653364359443696
6.48214784,0.9986318793116886,-18.839747173933837
6.484432896,0.998764621680055,-19.02761683939295
6.486717952,0.9989762151360831,-19.218167470208712
6.489003008,0.9992533326682936,-19.412441054103258
6.491288064,0.9995783607619906,-19.611234081756198
6.49357312,0.9999311418458894,-19.81513777898867
6.495858176,1.0002893449219186,-20.02436941850203
6.498143232,1.0006305087508738,-20.238825414470224
6.500428288,1.0009332453737285,-20.45812809749017
6.502713344,1.0011785660790746,-20.681571525649062
6.5049984,1.0013510836617239,-20.90821316863921
6.507283456,1.0014400096734088,-21.136889774840455
6.509568512,1.001439580855067,-21.366417973846787
6.511853568,1.001349992356752,-21.595474288957305
6.514138624,1.0011765848741796,-21.82286348556563
6.51642368,1.0009304582719207,-22.047373312870008
6.518708736,1.000626708094776,-22.268105413265868
6.520993792,1.000284572292268,-22.484340945756703
6.523278848,0.9999253503459258,-22.695719620756275
6.525563904,0.9995715469161672,-22.90211428817683
6.52784896,0.9992455198926217,-23.10376090210842
6.530134016,0.9989678003005568,-23.30121157573412
6.532419072,0.9987558276091472,-23.495304394046553
6.534704128,0.9986229614023908,-23.68704459255784
6.536989184,0.998577686631705,-23.877685830973174
6.53927424,0.9986229289988586,-24.06849511135169
6.541559808,0.9987557877137452,-24.26078101113181
6.543844864,0.9989678937923483,-24.45575977853598
6.54612992,0.9992461474470424,-24.65447427524829
6.548414976,0.9995727753791885,-24.85776208618422
6.550700032,0.9999274393370432,-25.066170891238624
6.552985088,1.0002877995933825,-25.279944938233214
6.555270144,1.0006312801320172,-25.498966737253397
6.5575552,1.0009362086203046,-25.72287775617566
6.559840256,1.0011837736186697,-25.95096873057286
6.562125312,1.0013581990605525,-26.182282833921253
6.564410368,1.0014485718734194,-26.41571181746719
6.566695424,1.0014491886447316,-26.64996081724288
6.56898048,1.0013601442667512,-26.883781957671353
6.571265536,1.0011866969703538,-27.115908653721057
6.573550592,1.0009399510450772,-27.345183627510877
6.575835648,1.000635108570319,-27.57069362317918
6.578120704,1.0002912182054544,-27.791690318006328
6.58040576,0.9999299044080543,-28.007784022463422
6.582690816,0.9995737868214306,-28.21888237639333
6.584975872,0.9992453260608628,-28.425208480942796
6.587260928,0.9989650650827029,-28.627314146423505
6.589545984,0.9987506907744466,-28.826010502216683
6.59183104,0.9986157869229887,-29.02235488088074
6.594116096,0.9985689412938361,-29.217556395292593
6.596401152,0.9986128504022239,-29.41294769143205
6.598686208,0.9987451553686483,-29.60977290159789
6.600971264,0.9989574083754437,-29.809303711535076
6.60325632,0.9992361562781877,-30.012602076134996
6.605541376,0.9995641919720808,-30.220450068276598
6.607826432,0.9999206689632818,-30.43346091182931
6.610111488,1.0002832489237166,-30.651860655495287
6.612396544,1.000629248343765,-30.875553536448635
6.6146816,1.0009370485544051,-31.104209108710304
6.616966656,1.001187199619216,-31.3370531877637
6.619251712,1.001364126395227,-31.573164872120817
6.621536768,1.0014567973846098,-31.811429956228015
6.623821824,1.001459325268781,-32.0505588735486
6.62610688,1.001371481872329,-32.289292233253704
6.628391936,1.0011987241083775,-32.526343551489774
6.630676992,1.0009518097743813,-32.76055931420836
6.632962048,1.0006461415527694,-32.99099947376541
6.635247104,1.0003009298935084,-33.21692584710784
6.63753216,0.9999375643871045,-33.437916288583175
6.639817216,0.9995790042644069,-33.65389950502172
6.642102272,0.9992476145414343,-33.865057770348635
6.644387328,0.9989643902257894,-34.071969731416004
6.646672384,0.9987470826755048,-34.27545128995228
6.64895744,0.9986093527714583,-34.47653754991473
6.651242496,0.9985599913073842,-34.67644132952081
6.653527552,0.9986020185230573,-34.87649124799524
6.655812608,0.9987330856327454,-35.07798803349818
6.658097664,0.9989447327984381,-35.28215510874151
6.66038272,0.9992238359284601,-35.49009693036346
6.662667776,0.9995527512384895,-35.70262411662178
6.664952832,0.9999108430182534,-35.920293304419076
6.667237888,1.0002758146667015,-36.14341199180283
6.669522944,1.000624664663774,-36.371892346440745
6.671808,1.000935569564265,-36.60531253654735
6.674093056,1.0011891515491094,-36.842989327778525
6.676378112,1.0013693631897818,-37.08400595688593
6.678663168,1.001465083898293,-37.32722876641168
6.680948224,1.0014701107097679,-37.571357316040896
6.68323328,1.001384202950343,-37.81510519231113
6.685518336,1.0012128663955424,-38.057214149744404
6.687803392,1.0009664318207727,-38.29648815879105
6.690088448,1.0006603300772654,-38.532006848649615
6.692373504,1.0003138224345436,-38.762999064146555
6.69465856,0.9999485358639031,-38.98907243632955
6.696943616,0.9995872794175661,-39.210075648958664
6.699228672,0.9992527591135242,-39.42623416674039
6.701513728,0.9989659832319212,-39.638091814206554
6.703798784,0.9987449197291811,-39.84646275768158
6.70608384,0.9986036890718921,-40.05240675049741
6.708368896,0.9985510240420273,-40.25711874214022
6.710653952,0.9985904231739097,-40.46194165610139
6.712939008,0.9987194157435776,-40.668161280808015
6.715224064,0.9989297962914764,-40.87704884816632
6.71750912,0.9992085136151384,-41.08969046010088
6.719794176,0.9995381064214671,-41.30689952405011
6.722079232,0.9998978084930519,-41.52934006519102
6.724364288,1.0002651576374613,-41.7571861837144
6.726649344,1.0006170929593516,-41.99045129775294
6.7289344,1.0009315636990994,-42.228714848062616
6.731219456,1.001188951414114,-42.47130801431897
6.733504512,1.0013732057919638,-42.71728804169176
6.735789568,1.0014726534774154,-42.96550603991898
6.738074624,1.0014811513961186,-43.21471668651134
6.74035968,1.0013981186146212,-43.46358484586726
6.742644736,1.0012286521297276,-43.71082459886756
6.744929792,1.0009833037806557,-43.955299212039385
6.747214848,1.000677304606703,-44.19600328021006
6.749499904,1.000329885877062,-44.432193971053884
6.75178496,0.9999625280562332,-44.66343934383515
6.754070016,0.9995985357968779,-44.88958550018156
6.756355072,0.9992604055264882,-45.11084577240611
6.75864064,0.9989695681340405,-45.32775270984136
6.760925696,0.9987444630124799,-45.54112302204971
6.763210752,0.9985987979167616,-45.75199766024681
6.765495808,0.9985422290472251,-45.96158585421017
6.767780864,0.9985780311187752,-46.171218414296504
6.77006592,0.9987042228428089,-46.3822334556409
6.772350976,0.998912803771619,-46.595873318944776
6.774636032,0.9991907945476112,-46.8132303329869
6.776921088,0.9995206527578536,-47.035168956369326
6.779206144,0.9998817201362559,-47.262323179138306
6.7814912,1.000251605663593,-47.49495988572454
6.783776256,1.0006068101151262,-47.73302175783731
6.786061312,1.000925371173499,-47.97615367352188
6.788346368,1.0011872173556648,-48.22366713513522
6.790631424,1.0013760918138679,-48.4746116517303
6.79291648,1.0014801799775106,-48.727902842477356
6.795201536,1.0014928526309193,-48.98221643914032
6.797486592,1.0014133388373758,-49.236253002581165
6.799771648,1.0012465705999767,-49.488734631760934
6.802056704,1.0010028718609862,-49.73846572031052
6.80434176,1.000697481127084,-49.98442956093541
6.806626816,1.000349236689687,-50.22591535985421
6.808911872,0.9999799833784092,-50.4623874217099
6.811196928,0.9996130032534065,-50.69375416064158
6.813481984,0.999271098674168,-50.92020084870302
6.81576704,0.9989757019800899,-51.142229479369135
6.818052096,0.9987453705588895,-51.36064036985907
6.820337152,0.9985948343414333,-51.576479801761955
6.822622208,0.9985332566335385,-51.79098851374147
6.824907264,0.9985647210681684,-52.005470144721535
6.82719232,0.998687344974354,-52.221251157218
6.829477376,0.9988932682524788,-52.43962059039917
6.831762432,0.9991698155672265,-52.66168047925331
6.834047488,0.9994996111851304,-52.88834974764
6.836332544,0.9998619705839237,-53.12019721260923
6.8386176,1.0002341754409116,-53.3575400698758
6.840902656,1.000592960993073,-53.60036598527668
6.843187712,1.0009159053357046,-53.84832710493781
6.845472768,1.0011829467734912,-54.10072072813796
6.847757824,1.001377199898971,-54.356644648700936
6.85004288,1.001486718390932,-54.61495586184007
6.852327936,1.0015044934231814,-54.87439734991316
6.854612992,1.001429381256199,-55.13361729648551
6.856898048,1.001266066158772,-55.39132182747431
6.859183104,1.0010247112125783,-55.64632169090096
6.86146816,1.0007202713443544,-55.897598742545405
6.863753216,1.0003715760271659,-56.14438462642286
6.866038272,1.0000006945171163,-56.38617733590548
6.868323328,0.9996305738220568,-56.62280455533013
6.870608384,0.9992845092173462,-56.85444450572616
6.87289344,0.9989840701053924,-57.08161476378138
6.875178496,0.9987481979344554,-57.305089454930304
6.877463552,0.9985915787316599,-57.5259298059943
6.879748608,0.998524480282421,-57.745326231357616
6.882033664,0.998550730262825,-57.96461750925446
6.88431872,0.9986689250011472,-58.185157147260334
6.886603776,0.9988716091782085,-58.40821262699606
6.888888832,0.9991461206893307,-58.63490960895921
6.891173888,0.9994753942831872,-58.86617096206163
6.893458944,0.9998387589656528,-59.10264028617875
6.895744,1.0002133154153456,-59.34464598997551
6.898029056,1.0005759727558152,-59.59215131139787
6.900314112,1.0009038014118625,-59.844843960045594
6.902599168,1.0011765117335802,-60.10204383811911
6.904884224,1.0013769388618639,-60.362870933012395
6.90716928,1.00149258047692,-60.62615916236257
6.909454336,1.0015163443320487,-60.890661268602
6.911739392,1.0014464437647388,-61.15503280939338
6.914024448,1.0012874826287548,-61.41794044251642
6.916309504,1.0010491756728994,-61.6781887048463
