freq,mag,phase
6.0,1.0002686605550801,174.29013174718085
6.003365376,1.0003515305916761,174.05881213714065
6.006731264,1.0004121863045934,173.8265015999206
6.01009664,1.0004482088484608,173.59357635819902
6.013462528,1.0004571806441291,173.3602970069459
6.016827904,1.0004386266878937,173.12716045456943
6.02019328,1.0003936966779252,172.89451279706
6.023559168,1.000325040053641,172.66268430156364
6.026924544,1.000236965360568,172.43202902827133
6.030290432,1.0001347041265163,172.2027285514928
6.033655808,1.0000244304318986,171.974981458461
6.037021696,0.9999131665511157,171.74884964182272
6.040387072,0.9998073915812027,171.5243262532516
6.043752448,0.9997137149698576,171.30122746923269
6.047118336,0.9996378411422452,171.07939442010064
6.050483712,0.9995842532518213,170.85852229690914
6.0538496,0.9995565541109955,170.63824652704122
6.057214976,0.9995560732815115,170.41819049807054
6.060580352,0.9995831430970449,170.19798261662814
6.06394624,0.9996359291392279,169.97728071674626
6.067311616,0.9997112693960335,169.75567347312614
6.070677504,0.9998046454900781,169.53288336002453
6.07404288,0.999910242022425,169.30869665042732
6.077408256,1.0000217338679023,169.0830281757788
6.080774144,1.0001321867060435,168.85581292676824
6.08413952,1.0002350326866376,168.627088829484
6.087505408,1.0003237519115913,168.39704160191738
6.090870784,1.0003932355976857,168.16590045767705
6.094236672,1.0004390862613604,167.933959280912
6.097602048,1.0004585917628266,167.70161964467025
6.100967424,1.0004502914497013,167.46921125594656
6.104333312,1.0004150052522685,167.23714135577396
6.107698688,1.000354733866683,167.005799271226
6.111064576,1.0002731295791094,166.77547474865457
6.114429952,1.000175278928591,166.54647934217076
6.117795328,1.0000668339972945,166.31899022866344
6.121161216,0.9999548654021362,166.09310618450036
6.124526592,0.9998458920373275,165.8688563513161
6.12789248,0.9997465843034846,165.64610276688768
6.131257856,0.9996630260072747,165.4246749946383
6.134623232,0.9996004864371494,165.20434101114063
6.13798912,0.9995625288134735,164.9847506403171
6.141354496,0.999551594307515,164.76556608826863
6.144720384,0.9995684518595834,164.5463687784935
6.14808576,0.999612004023604,164.32675337147242
6.151451648,0.9996794973532981,164.10641983267433
6.154817024,0.9997668897990547,163.8849933537007
6.1581824,0.9998689627289535,163.6622610950404
6.161548288,0.999979340876336,163.4380365986751
6.164913664,1.000091303106988,163.2122510185494
6.168279552,1.0001981801658941,162.98496379469276
6.171644928,1.0002933220730295,162.75626802097722
6.175010304,1.0003708462174647,162.52637925001596
6.178376192,1.000426232495469,162.29558884877855
6.181741568,1.0004559171389278,162.0641993744309
6.185107456,1.0004581260749896,161.8326421228358
6.188472832,1.0004328543476864,161.60126936859788
6.191838208,1.000381472118559,161.37047093096007
6.195204096,1.0003071164646862,161.1406080761476
6.198569472,1.0002144196467935,160.91196852078022
6.20193536,1.0001089158331815,160.68479734588547
6.205300736,0.9999972852501343,160.4592102383813
6.208666624,0.9998858236788927,160.23522391280406
6.212032,0.9997818779585804,160.01282471624606
6.215397376,0.9996913809474274,159.79184098970737
6.218763264,0.9996202494042764,159.57205753380256
6.22212864,0.9995723454244665,159.3531693318356
6.225494528,0.9995511270078761,159.13479454899164
6.228859904,0.9995575795039934,158.91656697135295
6.23222528,0.9995913020298476,158.6981045627628
6.235591168,0.9996504137976809,158.4790131039444
6.238956544,0.9997312056333636,158.25894458054333
6.242322432,0.999828808627521,158.0376533019955
6.245687808,0.9999371462901385,157.81492411804996
6.249053184,1.0000496499521199,157.59065829879125
6.252419072,1.000159558280152,157.36484390995597
6.255784448,1.0002602278140045,157.13756181134383
6.259150336,1.000345213737004,156.90900512558613
6.262515712,1.0004096754458396,156.6794165505492
6.2658816,1.0004494277220757,156.44910980391495
6.269246976,1.0004621243209173,156.21846552435733
6.272612352,1.0004470098752922,155.98788670472143
6.27597824,1.0004050121567376,155.7577546207479
6.279343616,1.0003386487729935,155.5284189244199
6.282709504,1.0002519480749588,155.30022726982625
6.28607488,1.0001502156015794,155.07340225448945
6.289440256,1.000039594905283,154.84812603592835
6.292806144,0.9999269889110998,154.62446495622618
6.29617152,0.9998190853712147,154.40245221718885
6.299537408,0.9997225258743868,154.18189642603986
6.302902784,0.9996432146269161,153.96266594511675
6.30626816,0.99958600847023,153.74443599005247
6.309634048,0.9995544798659772,153.52687536727655
6.312999424,0.9995504538626536,153.30960681139575
6.316365312,0.9995742462738428,153.09224033708333
6.319730688,0.9996243458771242,152.87438521926464
6.323096576,0.9996976726094557,152.65568644547864
6.326461952,0.9997898487900734,152.43585842645126
6.329827328,0.9998954379181335,152.2146257757211
6.333193216,1.0000076087436682,151.99190339262023
6.336558592,1.0001196536579406,151.76761857749523
6.33992448,1.0002248741703854,151.54180861616723
6.343289856,1.0003166792792004,151.31465604291824
6.346655232,1.0003895552004929,151.0863473821235
6.35002112,1.0004390933663987,150.8572043297269
6.353386496,1.0004621918326009,150.62761082441753
6.356752384,1.0004574028987412,150.39787360662135
6.36011776,1.0004252408147336,150.16847749076226
6.363483136,1.000367271476771,149.93975597216271
6.366849024,1.0002873035945825,149.71203146010177
6.3702144,1.0001902477664968,149.48564860790196
6.373580288,1.000081924008195,149.26071301641824
6.376945664,0.9999687468681149,149.03742892916821
6.380311552,0.9998578276686403,148.81577714859577
6.383676928,0.9997559649123439,148.59568971856004
6.387042304,0.9996693417188636,148.37696193131512
6.390408192,0.9996032446186132,148.15940475191272
6.393773568,0.9995616324139808,147.9426188547873
6.397139456,0.9995470863456645,147.7262918966727
6.400504832,0.999560512704618,147.51000495960696
6.403870208,0.9996013332230095,147.293362375988
6.407236096,0.9996667092776886,147.07602676234384
6.410601472,0.9997527961618841,146.85761733583303
6.41396736,0.9998543832916608,146.63792779246697
6.417332736,0.9999652121791949,146.41678727006848
6.420698112,1.0000786261314978,146.19405158103908
6.424064,1.0001874443981815,145.96977116511982
6.427429376,1.000285306203397,145.74405942995807
6.430795264,1.0003661165527684,145.51710165556716
6.43416064,1.0004249052454457,145.28923187535085
6.437526528,1.000458336232187,145.06071513310496
6.440891904,1.000464079826401,144.8319445317079
6.44425728,1.0004417465160802,144.6033399730988
6.447623168,1.0003929618235343,144.3752910322338
6.450988544,1.0003205611430634,144.1481424968343
6.454354432,1.0002287638955523,143.92220666632488
6.457719808,1.0001234851752725,143.6977013030491
6.461085184,1.0000109542624733,143.47478068974812
6.464451072,0.9998980474847171,143.25352357364204
6.467816448,0.9997917683038391,143.03388452303082
6.471182336,0.9996983844727921,142.81568883525762
6.474547712,0.9996238476643498,142.59873837532953
6.477913088,0.9995726434980241,142.38271255754665
6.481278976,0.9995477026340213,142.16728207640043
6.484644352,0.999550846403165,141.95203599186266
6.48801024,0.9995817951997988,141.73660424374492
6.491375616,0.99963860641172,141.52056251046457
6.494741504,0.9997177931511048,141.30361453730367
6.49810688,0.9998145816658627,141.08545498974718
6.501472256,0.9999230613917457,140.8658497065285
6.504838144,1.0000367764053113,140.64472063258142
6.50820352,1.0001484638162967,140.42199334867766
6.511569408,1.000251464027633,140.19779232543596
6.514934784,1.0003395930435146,139.97229142995002
6.51830016,1.0004073200050172,139.7456746962282
6.521666048,1.0004506622851461,139.5183605721265
6.525031424,1.0004667534944438,139.29060820967317
6.528397312,1.0004547955686551,139.06290240436633
6.531762688,1.0004154053037537,138.8355736370117
6.535128064,1.0003510566760712,138.60903790202266
6.538493952,1.0002656255013815,138.3836311298528
6.541859328,1.0001642526738412,138.15957027298023
6.545225216,1.0000532202720436,137.93705191928206
6.548590592,0.9999392747764219,137.71619011280677
6.55195648,0.9998293342988603,137.496981299934
6.555321856,0.9997300912639588,137.279281185483
6.558687232,0.999647761084017,137.0629330502841
6.56205312,0.9995871570821999,136.84761416047516
6.565418496,0.9995521973166459,136.63306545317343
6.568784384,0.9995448070506736,136.41884317674828
6.57214976,0.9995656575575727,136.20455761799485
6.575515136,0.9996133798804311,135.98983873633773
6.578881024,0.9996850947605576,135.77428286680137
6.5822464,0.9997764145911842,135.55764196457977
6.585612288,0.9998815802144194,135.33959719863736
6.588977664,0.999994466115327,135.12007849932638
6.59234304,1.0001082121908795,134.89894272954035
6.595708928,1.00021559565837,134.6762940284444
6.599074304,1.0003102959040122,134.4522255548051
6.602440192,1.00038630838598,134.22699137379527
6.605805568,1.0004391413953269,134.00090415107314
6.609171456,1.000465650632197,133.7742691130224
6.612536832,1.0004640257898312,133.54751361804165
6.615902208,1.0004344458883252,133.32097747100534
6.619268096,1.0003787738355596,133.09512965925646
6.622633472,1.0003002544300736,132.87025342376919
6.62599936,1.0002037568743805,132.64667061729602
6.629364736,1.0000951340935023,132.42457761495226
6.632730112,0.9999811006363172,132.2041426021215
6.636096,0.9998684288403246,131.9853371183542
6.639461376,0.9997641083488457,131.76814186990674
6.642827264,0.9996745714881959,131.55235784599546
6.64619264,0.9996052440706699,131.33775861199052
6.649558016,0.9995603091864397,131.12401071158365
6.652923904,0.999542600720783,130.91075164847408
6.65628928,0.9995531020002197,130.69759110629937
6.659655168,0.9995914071417409,130.48411834102984
6.663020544,0.9996547697816096,130.2699786275795
6.666386432,0.999739780749067,130.05478461892906
6.669751808,0.9998410380617219,129.83829544173506
6.673117184,0.9999523217374644,129.62039189959435
6.676483072,1.0000669745560706,129.40087883209867
6.679848448,1.000177820120837,129.17980672727768
6.683214336,1.0002782135743182,128.95724711450197
6.686579712,1.000362017603709,128.7334338026023
6.689945088,1.0004241016285709,128.508611460652
6.693310976,1.0004607078093222,128.28312433156424
6.696676352,1.0004694803324263,128.05736721793463
6.70004224,1.0004500227510846,127.83171836152974
6.703407616,1.0004034711046315,127.6065824226358
6.706772992,1.0003326165404334,127.38231788021604
6.71013888,1.000241720532643,127.15925205211552
6.713504256,1.0001365732242882,126.93761247127405
6.716870144,1.0000231198173892,126.71758025627862
6.72023552,0.99990883399389,126.49921148856845
6.723601408,0.9998003099811766,126.28247828866492
6.726966784,0.9997043121790099,126.067237782663
6.73033216,0.9996266673318123,125.85327538715298
6.733698048,0.9995721638028534,125.64031721513565
6.737063424,0.9995441776611818,125.42797366295547
6.740429312,0.9995443833398262,125.21588912932145
6.743794688,0.9995727471192161,125.0036274457612
6.747160064,0.9996275158685096,124.79080475248969
6.750525952,0.9997055255782202,124.57706656369871
6.753891328,0.9998018089421834,124.3621509484982
6.757257216,0.9999105613519358,124.1457941745512
6.760622592,1.0000251544248313,123.92790211417756
6.763987968,1.0001386906707135,123.7084108500373
6.767353856,1.0002440188887365,123.48739988099584
6.770719232,1.000334913653295,123.2650495542926
6.77408512,1.0004057067236423,123.04156885077197
6.777450496,1.0004520943596549,122.81728759435998
6.780816384,1.0004713116036006,122.59260141557475
6.78418176,1.0004621394595405,122.36785525917843
6.787547136,1.0004250291502514,122.14350266668977
6.790913024,1.0003624249772367,121.91986975147931
6.7942784,1.0002779505356478,121.69734439737957
6.797644288,1.0001768415226315,121.47619768764223
6.801009664,1.0000653209457995,121.25656891101777
6.80437504,0.9999501577485784,121.03861888532838
6.807740928,0.9998381481782986,120.82234120970037
6.811106304,0.9997364736089588,120.6076114355478
6.814472192,0.9996511850538411,120.3942514659002
6.817837568,0.9995876115864761,120.18201916191268
6.821202944,0.9995495254848434,119.9705292938394
6.824568832,0.9995392850939492,119.75943367063815
6.827934208,0.9995575096876009,119.5483395167369
6.831300096,0.9996031149914577,119.33681681257438
6.834665472,0.9996733483094777,119.12451119991847
6.83803136,0.9997639138365431,118.91110822475946
6.841396736,0.9998691838253941,118.69632660032595
6.844762112,0.9999829638469897,118.48003441359421
6.848128,1.0000979747421834,118.26214064353775
6.851493376,1.000207594366173,118.04270274525663
6.854859264,1.0003047718301736,117.82180017818159
6.85822464,1.0003838065016708,117.59970757985026
6.861590016,1.0004397215998855,117.37668589454746
6.864955904,1.0004691252307978,117.15308652948005
6.86832128,1.0004702682365896,116.92932568033004
6.871687168,1.0004431500735838,116.70578706584959
6.875052544,1.0003892088663353,116.4828560881547
6.87841792,1.000311828729882,116.26091106365897
6.881783808,1.0002157868107882,116.04022138503449
6.885149184,1.0001068562446427,115.82104650935999
6.888515072,0.9999917205801787,115.60349185205065
6.891880448,0.9998774059420343,115.38764183932754
6.895246336,0.9997708845708495,115.17341443800129
6.898611712,0.9996786340191463,114.96062124889183
6.901977088,0.9996063049607457,114.7490517715962
6.905342976,0.9995584101097321,114.53838312503811
6.908708352,0.9995378453716077,114.32822963836428
6.91207424,0.9995458407216972,114.1182159359119
6.915439616,0.9995818426243812,113.90793515883428
6.918804992,0.9996438171904157,113.69699388657875
6.92217088,0.9997279682007123,113.4850510648614
6.925536256,0.9998290182931667,113.27181251291428
6.928902144,0.9999408795814498,113.05711278910634
6.93226752,1.0000567677854488,112.84081219963807
6.935632896,1.0001694941205335,112.6229348604413
6.938998784,1.0002722978310654,112.40355844024175
6.94236416,1.000358768015206,112.18287854970534
6.945730048,1.0004238169882218,111.96113404582918
6.949095424,1.0004633077880125,111.7387048090213
6.952461312,1.0004748836606987,111.51593338180736
6.955826688,1.0004577509922976,111.2932439285023
6.959192064,1.0004130694900408,111.07105441980008
6.962557952,1.0003434347040225,110.84970081774502
6.965923328,1.0002532189664726,110.62952508034675
6.969289216,1.0001478107961808,110.41078957754274
6.972654592,1.0000336420261353,110.1936582188367
6.976019968,0.9999177893272647,109.9781992559543
6.979385856,0.9998071556628604,109.76440156280701
6.982751232,0.9997086847196321,109.55214329751037
6.98611712,0.999628293192265,109.34118684609697
6.989482496,0.9995709437361506,109.13125646497453
6.992847872,0.9995401431722695,108.92200397981244
6.99621376,0.9995377500945903,108.7130240619811
6.999579136,0.999563965994462,108.50391251374715
7.002945024,0.9996170802072776,108.29427482068348
7.0063104,0.9996940663154446,108.08376329698277
7.009676288,0.9997900170519186,107.87204460717014
7.013041664,0.999899119191809,107.65888384148676
7.01640704,1.0000149023855225,107.44418312227312
7.019772928,1.0001300416667098,107.22788331783076
7.023138304,1.0002376270234423,107.01000476167022
7.026504192,1.0003310335221027,106.79075806990726
7.029869568,1.0004046729172682,106.57031843902921
7.033234944,1.0004538459070034,106.34907489547105
7.036600832,1.0004757258854837,106.12736145741302
7.039966208,1.0004690224943213,105.90557514220629
7.043332096,1.00043380742975,105.6841341670561
7.046697472,1.000372508820878,105.46340532192234
7.05006336,1.0002888233015175,105.24374697929352
7.053428736,1.0001878337998484,105.02545582165264
7.056794112,1.0000755923574751,104.80871323325624
7.06016,0.999959089391497,104.5936385121408
7.063525376,0.999845359302624,104.38023624511972
7.066891264,0.9997413948458538,104.16845171930021
7.07025664,0.9996533851369042,103.95807538789677
7.073622016,0.999587054798064,103.74882398879545
7.076987904,0.9995462252534066,103.54040057507919
7.08035328,0.9995334368596476,103.33237526465072
7.083719168,0.9995494993265843,103.124379078608
7.087084544,0.9995934976362827,102.91598618386598
7.09044992,0.9996625937198563,102.70682791279971
7.093815808,0.9997527202868949,102.49656948441286
7.097181184,0.9998582336002534,102.28496446020223
7.100547072,0.9999728849542915,102.07182675840751
7.103912448,1.0000895370738332,101.85705748163181
7.107278336,1.0002010946073179,101.6407074164844
7.110643712,1.0003007341989418,101.42288392869261
7.114009088,1.0003822618100475,101.20382515460506
7.117374976,1.000440889463647,100.98380277513753
7.120740352,1.0004729459088604,100.76315003577933
7.12410624,1.0004764403943838,100.54229412509932
7.127471616,1.0004512532217082,100.32163786675201
7.130836992,1.000398864377724,100.10155007328389
7.13420288,1.0003223273586948,99.88243455073469
7.137568256,1.000226377177281,99.66458881015794
7.140934144,1.0001170262681889,99.44822053329547
7.14429952,1.000000694693995,99.23351440195646
7.147664896,0.9998846623883914,99.02050913544731
7.151030784,0.9997760495172289,98.80914921101355
7.15439616,0.999681318402568,98.59926666217315
7.157762048,0.9996065297921282,98.3906422649161
7.161127424,0.9995558495255541,98.18295533604073
7.164493312,0.9995327774504442,97.9758281646419
7.167858688,0.9995385028302296,97.76885988716927
7.171224064,0.9995728686060831,97.5616478832178
7.174589952,0.999633617062515,97.35379805572941
7.177955328,0.9997171567500152,97.1449447108588
7.181321216,0.9998183422209613,96.93481903280215
7.184686592,0.999930935400196,96.72319460697703
7.188051968,1.0000481935994152,96.5099771765041
7.191417856,1.00016276082148,96.29513861966261
7.194783232,1.0002678330920245,96.07877454482497
7.19814912,1.0003568685827262,95.86106669526073
7.201514496,1.0004244471538273,95.64227809294182
7.204879872,1.0004665183663484,95.42274072174524
7.20824576,1.0004804191436707,95.20284614392851
7.211611136,1.0004652969559584,94.98298539050958
7.214977024,1.000422091976322,94.76358031546368
7.2183424,1.0003534206207259,94.5450091686823
7.221708288,1.0002634793976242,94.32761461856457
7.225073664,1.0001577375761306,94.11164055164609
7.22843904,1.0000426093957007,93.89728063358444
7.231804928,0.9999252148516423,93.68460962881403
7.235170304,0.999812752602685,93.47363060214317
7.238536192,0.9997118549019869,93.2642021912893
7.241901568,0.9996289958785345,93.05610558489686
7.245266944,0.9995690665833096,92.84909305961672
7.248632832,0.9995356630228891,92.6427880634992
7.251998208,0.9995311296044944,92.43676849929938
7.255364096,0.9995555135829177,92.23067384123982
7.258729472,0.9996074624250588,92.02404476932968
7.262094848,0.9996837181308277,91.81653641083179
7.265460736,0.9997797104304624,91.60786054895355
7.268826112,0.9998893965042569,91.39772856877148
7.272192,1.0000062761998436,91.18601740674055
7.275557376,1.0001231381928728,90.97269519395863
7.278923264,1.0002327902211978,90.75775705068311
7.28228864,1.00032862085449,90.54143745412054
7.285654016,1.0004047245224537,90.32387683623293
7.289019904,1.0004563596461873,90.10548160642199
7.29238528,1.0004805859389727,89.88656881852604
7.295751168,1.0004757987364847,89.66753624525558
7.299116544,1.000442185060164,89.44882230657524
7.30248192,1.0003818525227766,89.23080833271445
7.305847808,1.000298598074787,89.01386196099944
7.309213184,1.0001973469108183,88.79825921354309
7.312579072,1.00008434503493,88.58422780836884
7.315944448,0.9999663767352535,88.37187864002067
7.319309824,0.9998508613446511,88.16121055006037
7.322675712,0.99974470828179,87.95218926963148
7.326041088,0.9996544362851524,87.7445899360455
7.329406976,0.9995855532374501,87.53818826344418
7.332772352,0.9995423365112736,87.33258889474655
7.33613824,0.9995273874153757,87.12745315355053
7.339503616,0.9995416176903587,86.92236541807691
7.342868992,0.9995842680605306,86.71689666990666
7.34623488,0.9996526388818062,86.5106919464162
7.349600256,0.999742599674399,86.30336720073134
7.352966144,0.9998486592132488,86.094708138705
7.35633152,0.9999642422763336,85.88445344001319
7.359696896,1.0000824259640233,85.67260767691904
7.363062784,1.000195868377525,85.45912816600126
