freq,mag,phase
6.0,1.0006240573266765,138.65503972010444
6.002285568,1.00092939596818,138.49271383785924
6.004571648,1.0011755218548637,138.32642849608408
6.006857216,1.0013477955858294,138.15715076269476
6.009142784,1.0014353673459,137.9860361799971
6.011428352,1.0014325674012161,137.81435118518036
6.013714432,1.0013395875923317,137.6433728924768
6.016,1.0011624341161276,137.47439304121494
6.018285568,1.0009120016474642,137.30854513497147
6.020571648,1.0006041888428165,137.14678001651973
6.022857216,1.0002583405465366,136.98977892385184
6.025142784,0.9998964117236132,136.8379812599146
6.027428352,0.999541037135301,136.69139291313147
6.029714432,0.9992148660625043,136.54983508365984
6.032,0.998938718296651,136.41267951264052
6.034285568,0.9987299079779566,136.2790753381308
6.036571648,0.9986017162647943,136.14801935804186
6.038857216,0.9985622627087315,136.01817563698143
6.041142784,0.998614471239467,135.88830580167007
6.043428352,0.9987545297521978,135.7570768031542
6.045714432,0.9989738475286111,135.62326190130423
6.048,0.9992585044820268,135.48581339032256
6.050285568,0.9995904958487479,135.3439262780331
6.052571648,0.9999487046472814,135.19707323330812
6.054857216,1.0003104500123305,135.04499617382277
6.057142784,1.0006530258726558,134.887867773812
6.059428352,1.0009546650792593,134.72611851777046
6.061714432,1.0011962828560297,134.56042964809947
6.064,1.00136285641299,134.39185838597538
6.066285568,1.0014435569162294,134.22154223190432
6.068571648,1.0014334917434402,134.050695188591
6.070857216,1.0013332594794866,133.88073157836087
6.073142784,1.0011489393725161,133.71284508976265
6.075428352,1.000892301296077,133.54815698202248
6.077714432,1.0005796395297337,133.38766397754688
6.08,1.0002304300061964,133.23199794745028
6.082285568,0.9998666614030652,133.0815153445202
6.084571648,0.9995115760725148,132.93633607966007
6.086857216,0.999187565441738,132.79610831934693
6.089142784,0.9989151178193755,132.66026217909814
6.091428352,0.9987115982200787,132.5279436686581
6.093714432,0.998589946833586,132.3980132955278
6.096,0.9985577847559135,132.26926342051465
6.098285568,0.9986174213224359,132.1403187152469
6.100571648,0.9987648819666518,132.00994801190387
6.102857216,0.9989907843735231,131.87686790118784
6.105142784,0.9992811156340888,131.7400813613656
6.107428352,0.999617224447855,131.59875367260992
6.109714432,0.9999779050209203,131.45240725786735
6.112,1.0003404010230497,131.30086431741626
6.114285568,1.0006816974493002,131.14423955795166
6.116571648,1.0009802562111245,130.98301568797118
6.118857216,1.0012172235285783,130.8179155236723
6.121142784,1.0013777058944073,130.65000357947056
6.123428352,1.0014514824459824,130.48043889557573
6.125714432,1.0014338883526983,130.31048879954736
6.128,1.001326073778821,130.14148046691216
6.130285568,1.0011347140625877,129.97465562359284
6.132571648,1.0008719308709304,129.81119020590336
6.134857216,1.0005542030638939,129.65192443510642
6.137142784,1.0002015262066712,129.49756938672337
6.139428352,0.9998364776507463,129.34844138841626
6.141714432,0.9994816528098625,129.20462654462446
6.144,0.9991598758772081,129.06572981932828
6.146285568,0.9988914403849128,128.9311816410885
6.148571648,0.9986934340986118,128.80007021848905
6.150857216,0.998578385064895,128.67127821194953
6.153142784,0.9985536212920647,128.54354131240135
6.155428352,0.9986209699326309,128.41554334830573
6.157714432,0.9987759437141303,128.28594238502285
6.16,0.9990086469840619,128.15358816533853
6.162285568,0.9993045914776121,128.01738139704716
6.164571648,0.9996449585516172,127.87661843232557
6.166857216,1.0000080302326269,127.73076943046851
6.169142784,1.0003708496067578,127.57968489794058
6.171428352,1.0007107247693485,127.42353196884605
6.173714432,1.001006165565903,127.26279589612264
6.176,1.0012381234053531,127.09829498193962
6.178285568,1.0013924095977131,126.93100969337146
6.180571648,1.0014588288963977,126.76218963043053
6.182857216,1.0014336288447023,126.59307176387536
6.185142784,1.0013180957599508,126.42503100173826
6.187428352,1.0011194621117976,126.25926703756068
6.189714432,1.0008504476995455,126.09694977140711
6.192,1.0005278127538373,125.93896908281195
6.194285568,1.0001718329375227,125.7858954094275
6.196571648,0.9998052331942013,125.63812962861819
6.198857216,0.9994511741166975,125.49561434209389
6.201142784,0.9991317154426246,125.35805402257817
6.203428352,0.9988676494395711,125.22477079744628
6.205714432,0.9986753896547624,125.09487661426131
6.208,0.9985672979156033,124.9671746742303
6.210285568,0.9985503121897361,124.84043475781151
6.212571648,0.9986254157088644,124.71332854818337
6.214857216,0.9987878596698014,124.58451023991147
6.217142784,0.9990275426285248,124.4527900317541
6.219428352,0.9993289795644877,124.31717291227534
6.221714432,0.9996733445366187,124.17688995963795
6.224,1.0000387426850996,124.03150693140212
6.226285568,1.0004020573041388,123.88083878190984
6.228571648,1.0007403035116909,123.72512311138861
6.230857216,1.001031969737079,123.56487754806906
6.233142784,1.001258924814582,123.40091057452929
6.235428352,1.0014066598000213,123.234246127439
6.237714432,1.0014658020185774,123.06616545422996
6.24,1.0014326886628953,122.89785508981187
6.242285568,1.0013092966176427,122.73077694398839
6.244571648,1.001103416947704,122.56606247109931
6.246857216,1.0008279878045452,122.40488932086106
6.249142784,1.0005005168259782,122.2481075066213
6.251428352,1.000141406629387,122.09633827524196
6.253714432,0.9997734527733807,121.94989097677157
6.256,0.9994200488966944,121.80871327814783
6.258285568,0.9991034182770875,121.67243913180378
6.260571648,0.998843825050137,121.54042439247578
6.262857216,0.998657590154286,121.41167141601532
6.265142784,0.9985565204069883,121.2850561235532
6.267428352,0.9985474526007223,121.15929389070587
6.269714432,0.9986305634782059,121.03301245828003
6.272,0.9988007527227676,120.90493309853893
6.274285568,0.9990473038086709,120.77384354496972
6.276571648,0.9993545059956009,120.63877627297545
6.278857216,0.9997028719437834,120.49893875490596
6.281142784,1.0000704450413973,120.3539621968593
6.283428352,1.0004339055828892,120.20369640142798
6.285714432,1.0007702386266597,120.04836324485022
6.288,1.0010582637475562,119.8885726192043
6.290285568,1.0012797538684486,119.72510777701271
6.292571648,1.001420719247014,119.55906215021339
6.294857216,1.0014722121759425,119.39164185404013
6.297142784,1.0014310280214975,119.2241763640559
6.299428352,1.0012995800587092,119.05802399376171
6.301714432,1.00108632756687,118.8943616017616
6.304,1.0008046584645183,118.73431666884692
6.306285568,1.0004721779342978,118.57875177792002
6.308571648,1.0001100861739338,118.42825811457276
6.310857216,0.9997410065337884,118.28311970811181
6.313142784,0.9993885976189046,118.14323411733564
6.315428352,0.9990748451161762,118.0082468142562
6.317714432,0.9988199541554476,117.87742181251312
6.32,0.998640000359991,117.74984562590721
6.322285568,0.9985464603563614,117.62425196183953
6.324571648,0.9985452399494006,117.49942393691195
6.326857216,0.9986366132993422,117.37394834875178
6.329142784,0.9988146262178935,117.24656092779166
6.331428352,0.9990680677831336,117.11603727610215
6.333714432,0.9993809308773368,116.98144512513468
6.336,0.9997332090788342,116.84204739042373
6.338285568,1.0001028166994588,116.69741439610398
6.340571648,1.0004662217571854,116.54752315735391
6.342857216,1.000800604537406,116.39256855450087
6.345142784,1.001084620034208,116.23318839418312
6.347428352,1.001300359007688,116.07021699983774
6.349714432,1.0014343465761566,115.90472630463289
6.352,1.0014779513665593,115.73797665386442
6.354285568,1.0014285155099265,115.57133436654388
6.356571648,1.0012890566179922,115.40605493540832
6.358857216,1.001068376130851,115.24342638156251
6.361142784,1.0007803714170875,115.08449771252747
6.363428352,1.0004430649383795,114.9301655290603
6.365714432,1.0000779332321375,114.78090826185836
6.368,0.9997079412633283,114.63706922087128
6.370285568,0.9993566198288765,114.49849650948427
6.372571648,0.9990459973878734,114.3647629607362
6.374857216,0.9987960033688128,114.23513915543818
6.377142784,0.9986226224831518,114.1086322619619
6.379428352,0.9985367269181761,113.98406275373856
6.381714432,0.9985436783497127,113.86012478596895
6.384,0.9986434061267545,113.73540839011376
6.386285568,0.9988294072511505,113.60865611343553
6.388571648,0.9990897854878448,113.4786942543235
6.390857216,0.9994082365268837,113.34456167423373
6.393142784,0.9997644820638144,113.20550818452266
6.395428352,1.0001359689580467,113.06120660161113
6.397714432,1.00049916011913,112.91162893472223
6.4,1.0008310673640268,112.75702397000337
6.402285568,1.001110954404909,112.59800871777892
6.404571648,1.0013208918057388,112.43550730980121
6.406857216,1.0014476243812676,112.2705668628088
6.409142784,1.0014831486948903,112.10447602359257
6.411428352,1.0014252782996225,111.93858643771384
6.413714432,1.0012775260017386,111.77423114297748
6.416,1.001049308982542,111.61257379761655
6.418285568,1.0007549294135252,111.45478501012536
6.420571648,1.00041293371906,111.30160330093453
6.422857216,1.0000448637661428,111.15362776620701
6.425142784,0.9996740656964855,111.01102082084586
6.427428352,0.9993240538214135,110.87370654151232
6.429714432,0.9990169903927768,110.74119856765515
6.432,0.9987723412329379,110.61273966375269
6.434285568,0.998605633437033,110.48733576407243
6.436571648,0.9985275580109285,110.3637366553539
6.438857216,0.998543016272936,110.24061486058675
6.441142784,0.9986511240274564,110.11666154418018
6.443428352,0.9988451119718295,109.99047875810457
6.445714432,0.9991125424247974,109.86099991033974
6.448,0.9994365645391609,109.72727058746382
6.450285568,0.9997965437818128,109.58857922680845
6.452571648,1.0001697710783721,109.44456298538707
6.454857216,1.0005325951588389,109.29525643221658
6.457142784,1.0008619434261372,109.14094853351821
6.459428352,1.0011372850235212,108.98229852396777
6.461714432,1.0013409701179794,108.82020917614588
6.464,1.0014602105731722,108.65579262784665
6.466285568,1.0014875912440266,108.49035466473563
6.468571648,1.001421095310961,108.32520814659952
6.470857216,1.0012651150144714,108.1617135410782
6.473142784,1.001029235623849,108.00108376182834
6.475428352,1.0007284367570672,107.84436122718907
6.477714432,1.000381814030304,107.69235169259224
6.48,1.0000111277252999,107.54560062950843
6.482285568,0.9996396101607214,107.40424302126064
6.484571648,0.9992912852978949,107.268170252493
6.486857216,0.9989877369620694,107.13687061181058
6.489142784,0.9987485589046312,107.00956609564507
6.491428352,0.9985888902397515,106.88517172598
6.493714432,0.9985189433572295,106.7625015910633
6.496,0.9985430344808301,106.64019753249106
6.498285568,0.9986597080298717,106.51690150392322
6.500571648,0.9988617970052397,106.39132526404019
6.502857216,0.9991362089668667,106.2623046197063
6.505142784,0.9994657681552314,106.12889331401922
6.507428352,0.9998293900337405,105.99048803056057
6.509714432,1.0002042081601359,105.84674095673958
6.512,1.0005664327061468,105.69767884436396
6.514285568,1.0008931089972117,105.54363385820699
6.516571648,1.0011636657746241,105.38527181184845
6.518857216,1.0013609865536817,105.2235641524311
6.521142784,1.001472538436058,105.05965504223857
6.523428352,1.001491343603555,104.89483401519566
6.525714432,1.0014161347251629,104.73042394189012
6.528,1.0012516983499107,104.56778352822839
6.530285568,1.0010082130147118,104.40812596894214
6.532571648,1.0007011752742483,104.25246947181218
6.534857216,1.0003499012097894,104.10163666464264
6.537142784,0.9999765198454503,103.9560820745256
6.539428352,0.9996047099216542,103.81596285249478
6.541714432,0.9992580155480131,103.6810861275728
6.544,0.9989584239225044,103.5509743307728
6.546285568,0.9987250127789323,103.424760678231
6.548571648,0.9985725773433254,103.30138686245554
6.550857216,0.9985108242193732,103.17960626577788
6.553142784,0.9985437284238325,103.05807288292985
6.555428352,0.9986691996791434,102.93541982356946
6.557714432,0.9988793771415956,102.81034506583744
6.56,0.9991608973451608,102.68170949458138
6.562285568,0.9994958954113725,102.54862391116069
6.564571648,0.9998631072388265,102.41045653131522
6.566857216,1.0002393865337267,102.26691925545896
6.569142784,1.0006008142122995,102.11805357508457
6.571428352,1.000924475691099,101.96423443666183
6.573714432,1.0011900324108858,101.80617218037499
6.576,1.0013805151595636,101.64483770162533
6.578285568,1.001484318833504,101.48137985955678
6.580571648,1.0014944286350007,101.31715068915581
6.582857216,1.0014103853388996,101.15345103538264
6.585142784,1.0012373088601547,100.99165765006966
6.587428352,1.000986242937016,100.83295504811757
6.589714432,1.0006728923920258,100.67836386018779
6.592,1.000317094875118,100.5286404787076
6.594285568,0.9999412689176259,100.38428260767256
6.596571648,0.9995693047388681,100.24534844766882
6.598857216,0.9992245360521582,100.1116866417682
6.601142784,0.9989291136319981,99.98269631850995
6.603428352,0.9987017421890042,99.85754851098518
6.605714432,0.9985567720494369,99.73515089530886
6.608,0.9985035991616692,99.61423540294629
6.610285568,0.9985454733569232,99.49341524236584
6.612571648,0.9986797916675011,99.3713616805634
6.614857216,0.9988982658366783,99.2467358988594
6.617142784,0.9991868050252818,99.11846455219387
6.619428352,0.9995271521115364,98.98564400307426
6.621714432,0.9998976908827442,98.84768701672024
6.624,1.0002751939695291,98.70429469170365
6.626285568,1.00063549352917,98.55556987652632
6.628571648,1.0009558607983455,98.40196769649326
6.630857216,1.0012161919804183,98.2441560257208
6.633142784,1.001399935911507,98.08314807516368
6.635428352,1.0014954117398904,97.92014384555934
6.637714432,1.0014966983491906,97.75647732809033
6.64,1.0014035629571116,97.59347978117277
6.642285568,1.001221921035195,97.43250290960347
6.644571648,1.0009630820495705,97.27474832388563
6.646857216,1.0006435174340689,97.12119971437019
6.649142784,1.000283364150983,96.97257065278195
6.651428352,0.9999053195291291,96.82937392973614
6.653714432,0.9995333104510347,96.69162613468775
6.656,0.9991908656701998,96.55911672243016
6.658285568,0.998899778180117,96.43125162549676
6.660571648,0.9986786692309807,96.30714058842209
6.662857216,0.9985414528900217,96.18567695167346
6.665142784,0.9984969827694785,96.06555394312464
6.667428352,0.9985479545294021,95.94543372093676
6.669714432,0.9986912947260232,95.823925791969
6.672,0.9989178565668282,95.69974675099947
6.674285568,0.9992134512228209,95.57176732114047
6.676571648,0.9995590612810846,95.43914881451012
6.678857216,0.9999329862724339,95.30132502268953
6.681142784,1.0003114637088995,95.15808132468622
6.683428352,1.0006705093029937,95.0094711153174
6.685714432,1.0009875433251714,94.85602349559062
6.688,1.001242246736805,94.69842092346983
6.690285568,1.0014188008119314,94.53772626301276
6.692571648,1.001506014348336,94.37515718306538
6.694857216,1.0014981863829941,94.21200932605626
6.697142784,1.0013958631447608,94.04971472796812
6.699428352,1.001205548205758,93.88953222313253
6.701714432,1.0009391168163,93.73267835314113
6.704,1.0006132729037789,93.58014395719628
6.706285568,1.0002489662721168,93.43264784536576
6.708571648,0.9998687084764363,93.29056687979265
6.710857216,0.9994968306370917,93.1539916315219
6.713142784,0.9991570055014711,93.0226218795355
6.715428352,0.9988706937234735,92.89580900545734
6.717714432,0.9986559688999335,92.77271452922426
6.72,0.998526790903269,92.65211298481351
6.722285568,0.998491175162453,92.53279781663552
6.724571648,0.9985514446683792,92.41328575612337
6.726857216,0.9987038310595522,92.29228476739192
6.729142784,0.9989388182236164,92.16844663910071
6.731428352,0.9992412791626628,92.04074528075657
6.733714432,0.9995921127554785,91.90829805948107
6.736,0.9999691193366341,91.77057955324202
6.738285568,1.0003484179211322,91.62740024996168
6.740571648,1.0007059901382829,91.47890878754329
6.742857216,1.0010191348738195,91.32554536071072
6.745142784,1.00126821281296,91.16812658607117
6.747428352,1.0014373415091307,91.00772071052559
6.749714432,1.0015158435296347,90.84554136771247
6.752,1.0014989074984033,90.6829128590478
6.754285568,1.0013873164497595,90.52127472547453
6.756571648,1.00118810221047,90.36188759808661
6.758857216,1.0009140047936718,90.20592355216623
6.761142784,1.0005821923840097,90.05440315517336
6.763428352,1.0002134827438398,89.90797172875631
6.765714432,0.9998314194081955,89.76701258386939
6.768,0.9994599655295252,89.63154170880495
6.770285568,0.9991229170434612,89.50128438826215
6.772571648,0.9988414814761934,89.37553922456014
6.774857216,0.9986335903119453,89.25338604798232
6.777142784,0.998512562741514,89.13367056155427
6.779428352,0.9984859892802608,89.01506006969358
6.781714432,0.9985557207256643,88.89615109525761
6.784,0.9987173678153659,88.77556062633943
6.786285568,0.9989606009100871,88.65206656197708
6.788571648,0.9992700347027991,88.52457919757589
6.790857216,0.9996259914163673,88.39225654908606
6.793142784,1.0000058425022862,88.25459906757106
6.795428352,1.0003858488646928,88.11145681574045
6.797714432,1.0007416023197322,87.9629685848991
6.8,1.0010508365126989,87.80971661491121
6.802285568,1.0012938052441638,87.65246011048177
6.804571648,1.001455193215155,87.49229853248973
6.806857216,1.0015249637707142,87.33047033702633
6.809142784,1.0014985473270586,87.16836503556914
6.811428352,1.0013775630556097,87.00734589587812
6.813714432,1.0011695792437492,86.84870300720941
6.816,1.0008877901831568,86.69364901234162
6.818285568,1.000549973927979,86.54309581260074
6.820571648,1.0001773036031445,86.39772834291082
6.822857216,0.9997934390782379,86.25786339081591
6.825142784,0.9994227034616179,86.12350018190615
6.827428352,0.9990886086987455,85.9943108112482
6.829714432,0.9988123807711827,85.86957779023957
6.832,0.9986116046387151,85.74836649199926
6.834285568,0.9984989783700609,85.62944868156023
6.836571648,0.9984817803672388,85.51150308150973
6.838857216,0.9985611294371978,85.39313664823928
6.841142784,0.9987318753024841,85.27296650798426
6.843428352,0.9989833836844682,85.14973568995019
6.845714432,0.9992997430209161,85.02240160338029
6.848,0.9996606825893086,84.8901391980083
6.850285568,1.000043409554255,84.75251604660619
6.852571648,1.000423675204872,84.60934249110078
6.854857216,1.0007774660537596,84.46087907950974
6.857142784,1.0010823536231153,84.30765350814045
6.859428352,1.0013191051456065,84.15052555280928
6.861714432,1.0014725983342463,83.99059832712871
6.864,1.0015333172941105,83.82912196046158
6.866285568,1.0014973503771898,83.66747644823812
6.868571648,1.0013668104263356,83.50706845234858
6.870857216,1.0011500841067575,83.34918343373508
6.873142784,1.0008606234879713,83.19498446196549
6.875428352,1.0005168267055107,83.04539475783052
6.877714432,1.0001403093167418,82.90104393334991
6.88,0.9997549873102458,82.76225720470279
6.882285568,0.9993851577271504,82.62897980275937
6.884571648,0.9990544203968422,82.50083498549395
6.886857216,0.9987836789386617,82.37707670578203
6.889142784,0.9985900130117589,82.25673353005561
6.891428352,0.9984860668086735,82.13857319927646
6.893714432,0.9984784267418892,82.02128728017234
6.896,0.9985674073862075,81.9034081653435
6.898285568,0.9987475170738976,81.78358757436972
6.900571648,0.9990074589290244,81.66058740762803
6.902857216,0.9993304908192002,81.5333430603948
6.905142784,0.9996962820480649,81.40113942608771
6.907428352,1.000081602405273,81.26346373855749
6.909714432,1.0004620915477869,81.12024807783021
6.912,1.0008136303637043,80.97175188161124
6.914285568,1.0011140024189198,80.81852190131082
6.916571648,1.0013440595939798,80.66148599642335
6.918857216,1.0014895594134456,80.50174593778364
6.921142784,1.0015410556193378,80.34059997022766
6.923428352,1.001495304638268,80.17942357956171
6.925714432,1.0013552227901106,80.01958384660398
6.928,1.0011295009355443,79.8624348416689
6.930285568,1.000832551329583,79.70907643089262
6.932571648,1.0004828924402103,79.56043140476709
6.934857216,1.0001026783255162,79.41709322188203
6.937142784,0.9997159970553701,79.27935403262035
6.939428352,0.9993473278506972,79.14710650797473
