freq,mag,phase
6.0,1.00005892429098,-147.04208072800574
6.015873024,1.0000606491335353,-147.94131598165407
6.031746048,1.0000603451678438,-148.84034774636643
6.047619072,1.000057638269484,-149.73910040682367
6.063492096,1.0000526946605088,-150.6375549759652
6.07936512,1.0000457527230344,-151.53569645693648
6.095238144,1.0000370739970796,-152.43347516889483
6.111111168,1.0000268267303818,-153.3309058297564
6.126984192,1.0000156857452291,-154.2279207224571
6.142857216,1.0000038647157121,-155.12457058138344
6.15873024,0.9999920740824612,-156.02078122994214
6.174603264,0.9999805538933323,-156.91660674401092
6.190476288,0.999969708328507,-157.81201326353718
6.206349312,0.9999602272062695,-158.70700288757587
6.222222336,0.9999522435617922,-159.6016223759086
6.23809536,0.9999462547689446,-160.49587790906259
6.253968384,0.9999423482590656,-161.3897917416981
6.269841408,0.9999408263702619,-162.28335225385686
6.285714432,0.999941617138724,-163.17661599443178
6.301587456,0.9999447442576653,-164.0695964036681
6.31746048,0.9999501893799075,-164.9623330125739
6.333333504,0.9999574850492154,-165.8548385376932
6.349206528,0.9999665863599856,-166.74713337406067
6.365079552,0.9999771279916582,-167.63920103023128
6.380952576,0.9999885808868338,-168.53106864729986
6.3968256,1.0000005729701897,-169.42276438402362
6.412698624,1.0000125757571914,-170.31427988872812
6.428571648,1.0000241821138893,-171.20560591073055
6.444444672,1.0000349184458854,-172.0967336628721
6.460317696,1.0000444018910728,-172.98763765842082
6.47619072,1.0000519905036616,-173.87832132293258
6.492063744,1.0000578758491543,-174.76872023829458
6.507936256,1.0000614292265857,-175.6588380511396
6.52380928,1.0000625717160474,-176.54867153161186
6.539682304,1.0000613409205574,-177.43813756871353
6.555555328,1.0000577653742224,-178.32722356535476
6.571428352,1.0000520316173678,-179.21593808792704
6.587301376,1.0000442117540638,179.89579206471555
6.6031744,1.0000346199281438,179.00795913678752
6.619047424,1.0000239029815825,178.120613165271
6.634920448,1.0000121629081147,177.23375102056875
6.650793472,1.0000000278698349,176.34738420279535
6.666666496,0.999987898535527,175.4615100555854
6.68253952,0.9999762906210932,174.57613360614263
6.698412544,0.9999656083850303,173.69125642900198
6.714285568,0.9999563842487207,172.8068520858284
6.730158592,0.9999488526374021,171.92290868314268
6.746031616,0.999943448395636,171.03941534096205
6.76190464,0.9999402635661802,170.1563624671926
6.777777664,0.9999395102019795,169.27367359628565
6.793650688,0.9999411470908762,168.39138618741376
6.809523712,0.9999451613924889,167.50942755960125
6.825396736,0.999951453356714,166.6277968074586
6.84126976,0.9999596284480156,165.74645074241087
6.857142784,0.9999694854027695,164.86540752328847
6.873015808,0.999980669802366,163.98461428323677
6.888888832,0.9999925930409245,163.10407380154842
6.904761856,1.0000049776168876,162.22378840870567
6.92063488,1.0000171793387647,161.34373750032586
6.936507904,1.0000287677082953,160.46395058587018
6.952380928,1.0000392859391698,159.5844170900301
6.968253952,1.0000483042829356,158.70516152988114
6.984126976,1.0000555510102296,157.8262275330522
7.0,1.0000606279985507,156.947599973473
7.015873024,1.000063441123633,156.06932751135972
7.031746048,1.0000637071890606,155.19141155717074
7.047619072,1.0000616128483233,154.31393952215356
7.063492096,1.000057125736019,153.43686239134897
7.07936512,1.000050290363671,152.56027065300194
7.095238144,1.0000416446117597,151.68416483538718
7.111111168,1.0000314057660802,150.808574774856
7.126984192,1.0000198607381945,149.93349548444723
7.142857216,1.0000076079597127,149.05896197375233
7.15873024,0.9999951238958583,148.18496273318314
7.174603264,0.9999828852107209,147.3115226618648
7.190476288,0.9999713179100207,146.43860456045257
7.206349312,0.9999608534178576,145.5662321734262
7.222222336,0.9999519925960644,144.6943662356496
7.23809536,0.9999450625403794,143.82298847369267
7.253968384,0.9999402989229005,142.95207553596623
7.269841408,0.9999378899090209,142.08163484409508
7.285714432,0.9999380425241602,141.2116040945326
7.301587456,0.9999406306368342,140.34196782342306
7.31746048,0.9999457009542301,139.4726757724198
7.333333504,0.999952873005322,138.60374762638432
7.349206528,0.9999619964786174,137.73510700538904
7.365079552,0.9999726697814403,136.8667746240565
7.380952576,0.9999844017522392,135.99871214181675
7.3968256,0.9999968195646393,135.13092572300044
7.412698624,1.0000095791955357,134.2634109099311
7.428571648,1.000021875509609,133.3961471738563
7.444444672,1.0000333091935116,132.5291488094958
7.460317696,1.0000436060156048,131.66244654149787
7.47619072,1.0000521906167605,130.7960404325146
7.492063744,1.0000588387561178,129.92994061425668
7.507936256,1.0000631160293025,129.06418987046092
7.52380928,1.0000649965116712,128.19878948640095
7.539682304,1.0000643597394456,127.333811408019
7.555555328,1.0000612146086958,126.46924430014172
7.571428352,1.000055617443258,125.60511982283172
7.587301376,1.0000479095241366,124.74150116049879
7.6031744,1.0000383874427776,123.87835559974917
7.619047424,1.000027272270903,123.01576001782755
7.634920448,1.00001508126428,122.15368428715905
7.650793472,1.0000024263545606,121.29214463316909
7.666666496,0.9999896169095513,120.43114407251187
7.68253952,0.9999772028374928,119.57068950438887
7.698412544,0.999965680345541,118.71079800063555
7.714285568,0.9999555109150201,117.85140492354908
7.730158592,0.9999472099311094,116.99251970112644
7.746031616,0.9999409339515279,116.13410358533139
7.76190464,0.9999369816653417,115.27614514916255
7.777777664,0.9999355962185136,114.41862380202606
7.793650688,0.9999367377954592,113.56149508194865
7.809523712,0.9999403917643539,112.70472725700857
7.825396736,0.9999464633094967,111.84827948944434
7.84126976,0.9999546303044787,110.99216349419383
7.857142784,0.9999647524303783,110.13630877235555
7.873015808,0.9999761825061776,109.28073321072222
7.888888832,0.9999885848597773,108.4254095356746
7.904761856,1.0000015356744858,107.57031982034779
7.92063488,1.000014484533884,106.71545017560277
7.936507904,1.0000268288962766,105.86084392477467
7.952380928,1.0000383002599282,105.00647582480798
7.968253952,1.0000481374829981,104.15235316916991
7.984126976,1.0000561806619788,103.29850703614869
8.0,1.0000620210298907,102.44497288692979
8.015873024,1.0000654982121622,101.5917601745373
8.031746048,1.0000663426251124,100.73886386843961
8.047619072,1.0000646467418768,99.88637306821389
8.063492096,1.0000603549718092,99.03426772815267
8.07936512,1.0000536469516215,98.18261040664335
8.095238144,1.0000448924337724,97.33138752682275
8.111111168,1.0000343198299975,96.48065627381382
8.126984192,1.0000225309869633,95.63040843919914
8.142857216,1.000009644544975,94.78066453990033
8.15873024,0.9999964649358639,93.93142980787388
8.174603264,0.9999833750585632,93.08270452147202
8.190476288,0.9999709369085484,92.23447560783704
8.206349312,0.9999595664097526,91.38675134026413
8.222222336,0.9999499128615201,90.53948877616499
8.23809536,0.9999421430440641,89.69268154394904
8.253968384,0.9999366950157906,88.84628939333246
8.269841408,0.9999336860609038,88.0003045899124
8.285714432,0.9999334234263106,87.15466534264291
8.301587456,0.9999356161609285,86.30938222556128
8.31746048,0.9999405041528096,85.46438777337288
8.333333504,0.99994771805862,84.61967385453744
8.349206528,0.9999570573475561,83.77518714264454
8.365079552,0.9999680712572216,82.93091123246568
8.380952576,0.9999803709627261,82.08684119499195
8.3968256,0.9999934700784072,81.2429700371839
8.412698624,1.0000068686206671,80.39926053815712
8.428571648,1.0000199798584801,79.55571741785369
8.444444672,1.0000324348316758,78.71237098917736
8.460317696,1.0000434890982843,77.86919962004744
8.47619072,1.0000530020771412,77.02623583532217
8.492063744,1.0000603003864967,76.18347381012721
8.507936256,1.0000653869998255,75.34096406291629
8.52380928,1.000067793723798,74.49871862367009
8.539682304,1.000067474446753,73.65677499728613
8.555555328,1.0000646058051146,72.81515931854665
8.571428352,1.0000590777285496,71.97388034575233
8.587301376,1.0000512728448607,71.13298106796589
8.603174912,1.000041391668387,70.292489791233
8.619047936,1.0000297445451267,69.45240712425277
8.63492096,1.0000170166194995,68.61276670792552
8.650793984,1.0000035262268714,67.77357246551539
8.666667008,0.9999898948881357,66.93479957286824
8.682540032,0.9999766082186136,66.09648268166929
8.698413056,0.9999641733779575,65.25858041093542
8.71428608,0.99995311247314,64.42111469720473
8.730159104,0.9999439968881128,63.58403482187913
8.746032128,0.9999369736474297,62.747318158753856
8.761905152,0.9999324501544729,61.910941905610386
8.777778176,0.9999305332647327,61.07488589058034
8.7936512,0.9999313452823558,60.239078776602284
8.809524224,0.9999349207740388,59.403535268643544
8.825397248,0.9999411075604863,58.56817781537668
8.841270272,0.9999495972843926,57.73301657207426
8.857143296,0.9999599185947653,56.89799552240598
8.87301632,0.9999720582691849,56.0630990593428
8.888889344,0.999985252643696,55.228299485889345
8.904762368,0.999999048596495,54.393605176563675
8.920635392,1.0000128885267063,53.55898685120591
8.936508416,1.0000262189805835,52.724457152890864
8.95238144,1.000038539259928,51.890018822355664
8.968254464,1.0000493556682333,51.05567990475738
8.984127488,1.0000582044101258,50.22147305714725
8.999999488,1.000064742344857,49.38738978658236
9.015872512,1.0000687843592693,48.55348516590527
9.031745536,1.0000700777859965,47.71975558629746
9.04761856,1.0000685820367388,46.88627598925496
9.063491584,1.000064269650094,46.053024546845876
9.079364608,1.0000574709648582,45.22004953353496
9.095237632,1.0000482973610147,44.3873738844667
9.111110656,1.000037242930967,43.555043573218825
9.12698368,1.0000246261502022,42.723041076909126
9.142856704,1.0000109658058527,41.891375208143245
9.158729728,0.999996813545229,41.06008866786255
9.174602752,0.999982743965969,40.22914932821238
9.190475776,0.9999692992032381,39.398563683892014
9.2063488,0.9999569899125166,38.56830893484046
9.222221824,0.999946456615307,37.738392244245844
9.238094848,0.999937823673932,36.90873651929741
9.253967872,0.9999317395098559,36.079367641581044
9.269840896,0.9999282450886536,35.25022281944088
9.28571392,0.9999276171468212,34.42130587181303
9.301586944,0.9999297768811872,33.59251467658423
9.317459968,0.9999347559959392,32.7638712587802
9.333332992,0.9999422603095924,31.935302595295187
9.349206016,0.9999521145188596,31.10681564979793
9.36507904,0.999963803574079,30.278347502738907
9.380952064,0.9999769836491338,29.44991114740719
9.396825088,0.999991018497808,28.621457736410232
9.412698112,1.0000055105245482,27.79298337070757
9.428571136,1.0000197193261973,26.964501182582193
9.44444416,1.000033211887054,26.135994401758772
9.460317184,1.000045319612315,25.30746738953591
9.476190208,1.0000557869609867,24.47897204177394
9.492063232,1.000063807973553,23.650483026077897
9.507936256,1.0000694384525302,22.822030708309484
9.52380928,1.0000723156079327,21.993679226156612
9.539682304,1.0000722772705466,21.165424114962022
9.555555328,1.0000693113719477,20.337300034353248
9.571428352,1.0000636307681485,19.50932996464865
9.587301376,1.0000553141241089,18.68156954601476
9.6031744,1.0000447436080218,17.854013459522612
9.619047424,1.0000323772166948,17.026691500706935
9.634920448,1.0000187098518105,16.19962082316569
9.650793472,1.0000040862536894,15.37280232908748
9.666666496,0.9999893211519922,14.546257099757026
9.68253952,0.9999748727639587,13.719984213666589
9.698412544,0.9999614036149841,12.893939259278419
9.714285568,0.9999493036877579,12.068121209000964
9.730158592,0.99993924025836,11.242534753642548
9.746031616,0.9999315141404042,10.417106166494607
9.76190464,0.9999263692750819,9.591834848877845
9.777777664,0.999924107138366,8.766690043201189
9.793650688,0.999924906895716,7.941595619103663
9.809523712,0.9999285944678737,7.116572743085936
9.825396736,0.9999351459706072,6.291533287571456
9.84126976,0.9999442419198384,5.466469477392508
9.857142784,0.999955423740938,4.641338631593458
9.873015808,0.9999684993433172,3.8161172873364753
9.888888832,0.9999828020398133,2.9908026634008205
9.904761856,0.9999977805526562,2.165350171077301
9.92063488,1.0000128511309685,1.3397708148667582
9.936507904,1.0000274329684753,0.514049693559191
9.952380928,1.0000409135412582,-0.3117873717024251
9.968253952,1.0000527977740727,-1.137739803814973
9.984126976,1.000062601810849,-1.963802853070228
10.0,1.0000698793838032,-2.789935853104549
10.015873024,1.000074351710903,-3.6161135002390754
10.031746048,1.0000759066189222,-4.442310959364976
10.047619072,1.0000743633699,-5.268505824728647
10.063492096,1.0000697990264238,-6.094658943928872
10.07936512,1.000062491893308,-6.9207251262690495
10.095238144,1.0000526150062274,-7.746703631513347
10.111111168,1.0000405932237086,-8.572546491803873
10.126984192,1.000026895247666,-9.398252322146833
10.142857216,1.0000119890784835,-10.22381369915511
10.15873024,0.9999965251820829,-11.049201517931396
10.174603264,0.9999811778921374,-11.87442773292392
10.190476288,0.9999664568060938,-12.699499250720226
10.206349312,0.9999529651685355,-13.52442287641276
10.222222336,0.9999412487307492,-14.349239744288017
10.23809536,0.9999317875284935,-15.173936099889733
10.253968384,0.9999249511299437,-15.998596936669415
10.269841408,0.9999210523029038,-16.82321579508996
10.285714432,0.999920267140276,-17.647847781342705
10.301587456,0.9999226274880426,-18.472541474942112
10.31746048,0.9999279920284871,-19.29729480096609
10.333333504,0.9999361006746047,-20.12219340456389
10.349206528,0.999946841289842,-20.94723391194932
10.365079552,0.9999596155729836,-21.772488075803643
10.380952576,0.9999740695180931,-22.597943412327638
10.3968256,0.9999895247055965,-23.423621749053808
10.412698624,1.000005350734496,-24.249547624905535
10.428571648,1.0000210245530303,-25.075739024882328
10.444444672,1.0000358795489597,-25.90214723512329
10.460317696,1.000049294223747,-26.728802520660235
10.47619072,1.0000607416704705,-27.55569772294937
10.492063744,1.0000697325265138,-28.38277265533288
10.507936768,1.0000759929596885,-29.210037106912
10.523809792,1.000079184881892,-30.0374379167851
10.539682816,1.0000792116747115,-30.864949480990028
10.55555584,1.0000760790165304,-31.692530544143054
10.571428864,1.0000698433966784,-32.520165333638865
10.587301888,1.000060782235757,-33.347806901265855
10.603174912,1.0000492156813952,-34.17544346458814
10.619047936,1.0000355463535162,-35.003044078582526
10.63492096,1.000020474622383,-35.83059469012898
10.650793984,1.0000044978869864,-36.658067995173276
10.666667008,0.9999881337048034,-37.48548690973295
10.682540032,0.9999722075520926,-38.31283590607019
10.698413056,0.9999573494344765,-39.140125058185504
10.71428608,0.9999440501526827,-39.96737633497151
10.730159104,0.9999327493981146,-40.79463414352352
10.746032128,0.9999241970060602,-41.62188924785482
10.761905152,0.9999185194640279,-42.44921556823785
10.777778176,0.9999160025312119,-43.27660953320631
10.7936512,0.9999168205893694,-44.10416091499214
10.809524224,0.9999209060242823,-44.93185998151329
10.825397248,0.9999279926446746,-45.759779720817136
10.841270272,0.9999379961709361,-46.587950499708896
10.857143296,0.9999504758225354,-47.41638963198454
10.87301632,0.9999648481126311,-48.24516503639712
10.888889344,0.9999806964972985,-49.07425437991093
10.904762368,0.9999972602982372,-49.90370403965292
10.920635392,1.000013955797891,-50.733491999670115
10.936508416,1.0000300730932523,-51.563652608068445
10.95238144,1.0000450399621978,-52.39415623337147
10.968254464,1.0000582707817256,-53.22501668875152
10.984127488,1.0000691163646453,-54.05617719083234
11.000000512,1.0000771205529058,-54.88762484018046
11.015872512,1.000082212756363,-55.719353727722336
11.031745536,1.000083999579064,-56.55129524263195
11.04761856,1.0000823338878178,-57.38343236976054
11.063491584,1.000077297576844,-58.215715215976516
11.079364608,1.0000692822695851,-59.04814783967122
11.095237632,1.000058305031568,-59.88064333615573
11.111110656,1.0000450606832005,-60.71322734252455
11.12698368,1.0000297653885686,-61.545835363663066
11.142856704,1.0000132193715667,-62.37847339168804
11.158729728,0.9999961297865329,-63.211120400982985
11.174602752,0.9999790634036979,-64.04379287757146
11.190475776,0.9999626088210269,-64.87649930424281
11.2063488,0.9999476040250848,-65.70923494483226
11.222221824,0.999934557950237,-66.54202078237985
11.238094848,0.9999240495037643,-67.37490798404136
11.253967872,0.9999165231839005,-68.20791132919118
11.269840896,0.9999120487379752,-69.04106774438245
11.28571392,0.9999112112029142,-69.87443228270928
11.301586944,0.9999136935632131,-70.7080326502984
11.317459968,0.9999195721689788,-71.54192547567641
11.333332992,0.9999287233147516,-72.37612768309381
11.349206016,0.9999405794289248,-73.21070149160649
11.36507904,0.9999547844311538,-74.04566125438343
11.380952064,0.9999708205211533,-74.88103864705243
11.396825088,0.9999879773997582,-75.71685350152879
11.412698112,1.0000056699834463,-76.55312274218993
11.428571136,1.0000232096151618,-77.38987013773259
11.44444416,1.0000397282345987,-78.22703242978578
11.460317184,1.0000547059137306,-79.0646663623374
11.476190208,1.0000674798870466,-79.90270543973968
11.492063232,1.0000776414039383,-80.74114751734554
11.507936256,1.0000847205024974,-81.5799500573612
11.52380928,1.0000883994216871,-82.4190969857664
11.539682304,1.0000883741302782,-83.25853528541428
11.555555328,1.0000850132932455,-84.0982146862816
11.571428352,1.000078097432178,-84.9381275518046
11.587301376,1.0000680055283675,-85.77822179222791
11.6031744,1.000055114354392,-86.61846147012476
11.619047424,1.0000399955834463,-87.45883072166073
11.634920448,1.0000231629893486,-88.29929592286398
11.650793472,1.0000052199550196,-89.13984298956154
11.666666496,0.9999870642339145,-89.98047781746253
11.68253952,0.9999691331720635,-90.82119908149387
11.698412544,0.9999524133194381,-91.66200613794615
11.714285568,0.9999374569400161,-92.50293509041491
11.730158592,0.9999248452459119,-93.3439980152373
11.746031616,0.9999151009958853,-94.18523125777583
11.76190464,0.9999086772278517,-95.026667266521
11.777777664,0.9999057442028273,-95.86835193342199
11.793650688,0.999906483658965,-96.71033406299162
11.809523712,0.9999108661287605,-97.55264536030309
11.825396736,0.9999187765035638,-98.39533511264248
11.84126976,0.999929873569271,-99.23843446397102
11.857142784,0.9999437373182117,-100.08199300296013
11.873015808,0.999959802041939,-100.92603446089676
11.888888832,0.9999774686059884,-101.77058096247411
11.904761856,0.9999960395307276,-102.61565310244819
11.92063488,1.0000147873749905,-103.46127290639525
11.936507904,1.0000329784643092,-104.30740018819718
11.952380928,1.0000499148672137,-105.15406338073159
11.968253952,1.0000647117600523,-106.00123552096125
11.984126976,1.000077141109565,-106.84887895913039
12.0,1.000086349911096,-107.69697368032018
12.015873024,1.0000922247933461,-108.54550212458636
12.031746048,1.000094341837914,-109.39439837189724
12.047619072,1.0000927297620428,-110.24362839710842
12.063492096,1.000087361442059,-111.09316345367714
12.07936512,1.0000784023725418,-111.942941469531
12.095238144,1.0000662904348911,-112.79294465440877
12.111111168,1.000051369695539,-113.64313419922665
12.126984192,1.0000343994967649,-114.49346851609985
12.142857216,1.000015921764718,-115.34394487115318
12.15873024,0.9999966250183638,-116.19455139217656
12.174603264,0.999977292877801,-117.04526183394522
12.190476288,0.999958831691812,-117.89611296353287
12.206349312,0.9999417356309827,-118.74709673391511
12.222222336,0.9999268698061504,-119.59824673161292
12.23809536,0.9999148634357826,-120.44958551033672
12.253968384,0.9999060331519198,-121.30114586251092
12.269841408,0.9999007740715963,-122.15298078825866
12.285714432,0.9998994345320685,-123.00509960823845
12.301587456,0.999901985809587,-123.85759808840929
12.31746048,0.9999083493325054,-124.71049775514506
12.333333504,0.9999183631746184,-125.56382771711553
12.349206528,0.9999315391941526,-126.41763994407914
