freq,mag,phase
6.0,0.9999683818148153,174.0559304793921
6.002287616,0.9999519946653638,173.91552273430958
6.004575232,0.9999382717446631,173.77535445836986
6.006862848,0.9999286791998393,173.63536548573373
6.009150464,0.9999235742301111,173.49548615420588
6.011438592,0.9999235369874399,173.35566130617408
6.013726208,0.9999283516234977,173.21584824722936
6.016013824,0.9999379132257695,173.07589866276606
6.01830144,0.9999514731209205,172.93580698737665
6.020589056,0.9999682308862854,172.79553673145563
6.022876672,0.9999870767790524,172.65500429215913
6.025164288,1.0000069917439895,172.51419706220898
6.027451904,1.0000264554837006,172.37313718359212
6.029740032,1.0000443655111408,172.23176995205185
6.032027648,1.0000596216876048,172.09021667076226
6.034315264,1.000071247863512,171.94849053282843
6.03660288,1.0000784569077041,171.80662385834245
6.038890496,1.0000808830504846,171.66469350953537
6.041178112,1.000078122879115,171.5227854197857
6.043465728,1.00007064994929,171.3809671333445
6.045753344,1.000058830792057,171.23929698911107
6.04804096,1.0000433785325906,171.09785748447308
6.050329088,1.0000251625819,170.95664836994126
6.052616704,1.0000055686976517,170.81572225097338
6.05490432,0.9999857261762716,170.67513452800944
6.057191936,0.9999668137197169,170.53481716996447
6.059479552,0.9999501794545851,170.39479267187357
6.061767168,0.9999367168024282,170.2549724297021
6.064054784,0.999927448790645,170.11535008776852
6.0663424,0.9999228804105784,169.97583310036822
6.068630016,0.9999233476286069,169.8363689449728
6.070918144,0.9999287289755531,169.6968804697478
6.07320576,0.9999387990058443,169.5572892214491
6.075493376,0.9999527872235907,169.41750196129044
6.077780992,0.9999698996565646,169.277547122538
6.080068608,0.999989070023244,169.13733325177483
6.082356224,1.0000091088564687,168.9968450327956
6.08464384,1.0000286309504463,168.85607119617677
6.086931456,1.0000464756628664,168.71505794391328
6.089219584,1.0000614963320613,168.5738101245292
6.0915072,1.0000727284651303,168.4323828715291
6.093794816,1.0000795260889745,168.29082419081064
6.096082432,1.0000813367449708,168.14923701820942
6.098370048,1.0000781839248574,168.0076788302907
6.100657664,1.0000701737130964,167.86619865286428
6.10294528,1.0000578604386106,167.72490194586226
6.105232896,1.0000418612141273,167.5838098466551
6.107520512,1.0000234066434779,167.44295785369619
6.10980864,1.0000035278554795,167.3024313128277
6.112096256,0.9999835937480515,167.1622121849409
6.114383872,0.9999648199684935,167.02229166032114
6.116671488,0.9999483425625109,166.88259127675593
6.118959104,0.9999352386280478,166.74316995512336
6.12124672,0.9999262669994979,166.60389606081065
6.123534336,0.9999221577392847,166.4647527263257
6.125821952,0.9999231485659063,166.32562343945483
6.128109568,0.9999290397724254,166.18646979168716
6.130397696,0.9999395682551003,166.04719860143388
6.132685312,0.9999540812355004,165.9077670519459
6.134972928,0.9999715216132469,165.76812774275604
6.137260544,0.999991032218917,165.6282310925192
6.13954816,1.0000111161478276,165.48806152083088
6.141835776,1.0000307669963862,165.34760373071344
6.144123392,1.000048408113004,165.20691265247427
6.146411008,1.0000631753281781,165.06598000691196
6.148699136,1.0000740607127443,164.92486727559378
6.150986752,1.0000804064109579,164.7836374372632
6.153274368,1.0000817587073236,164.64241136126327
6.155561984,1.000078091750528,164.50117858024294
6.1578496,1.000069467459569,164.36006297541834
6.160137216,1.0000566588044102,164.21910274101177
6.162424832,1.000040293094465,164.07837686077454
6.164712448,1.0000216079599573,163.9379145661997
6.167000064,1.0000014905394339,163.79776494311108
6.169288192,0.9999814439490567,163.6578919894288
6.171575808,0.9999625735960683,163.51832672005997
6.173863424,0.9999463658164773,163.3790147134677
6.17615104,0.9999336902069831,163.2399504309428
6.178438656,0.9999252282763605,163.101047000461
6.180726272,0.9999215283662635,162.96226891456126
6.183013888,0.9999230414207896,162.82350764257376
6.185301504,0.9999294601362892,162.68467144211976
6.18758912,0.999940447179198,162.54576782599256
6.189877248,0.9999554278547553,162.4066547217758
6.192164864,0.9999734094053985,162.26732506681
6.19445248,0.9999930838014173,162.1277384805405
6.196740096,1.0000132675649929,161.9878883601748
6.199027712,1.000032852725951,161.84775445360995
6.201315328,1.0000504822817258,161.70735965138385
6.203602944,1.0000648990286052,161.56676224321205
6.20589056,1.0000755169363835,161.42595725693164
6.208178688,1.0000812670762835,161.28508502612547
6.210466304,1.0000821335953658,161.14418906996454
6.21275392,1.0000778693722883,161.0032976499723
6.215041536,1.0000687226100875,160.86252293556052
6.217329152,1.000055504091652,160.72191293152866
6.219616768,1.0000387023446302,160.5815568424584
6.221904384,1.000019580148348,160.441467820734
6.224192,0.9999993393830032,160.3016893724872
6.226479616,0.9999793197889102,160.16221242045577
6.228767744,0.9999606690800757,160.02299917694046
6.23105536,0.9999445838956923,159.8840952278054
6.233342976,0.999932035147198,159.7454129848571
6.235630592,0.9999240398058002,159.60686059947258
6.237918208,0.9999209332633731,159.46840476779505
6.240205824,0.9999229629973998,159.32999757225733
6.24249344,0.9999299596058588,159.19153996092962
6.244781056,0.9999414887434912,159.05295586889883
6.247068672,0.9999568871704393,158.91417646282147
6.2493568,0.9999751010137409,158.77517305062952
6.251644416,0.9999950463981089,158.6359027341029
6.253932032,1.0000153745920186,158.4963709221537
6.256219648,1.0000349330241542,158.35653530422923
6.258507264,1.0000522892524142,158.21646770218985
6.26079488,1.0000666547683459,158.0761548575773
6.263082496,1.0000767104796597,157.93574018090146
6.265370112,1.0000821578725416,157.79514733442252
6.26765824,1.0000823997836412,157.6545767583479
6.269945856,1.0000775721397803,157.5140508723051
6.272233472,1.0000679396811574,157.37363604309178
6.274521088,1.000054157243467,157.2333880809182
6.276808704,1.0000370771632172,157.09340526389826
6.27909632,1.0000176245844932,156.95369576979874
6.281383936,0.9999972592335145,156.81425731448277
6.283671552,0.9999771097547553,156.67515835394653
6.285959168,0.9999585889490873,156.53634317258332
6.288247296,0.9999427184261328,156.3978008575375
6.290534912,0.9999306088644788,156.25946729803243
6.292822528,0.9999229471104173,156.1213183962597
6.295110144,0.9999203288203294,155.9832420024519
6.29739776,0.9999227308594105,155.8451660562499
6.299685376,0.9999304666275157,155.7070437366139
6.301972992,0.9999424416234883,155.56878404049485
6.304260608,0.9999584116438643,155.43033037812322
6.306548224,0.9999769313278692,155.29165425515322
6.308836352,0.9999970897185992,155.15269337789977
6.311123968,1.0000175139384828,155.01348347448183
6.313411584,1.0000372260133878,154.87397031264123
6.3156992,1.0000543286789032,154.73421182999698
6.317986816,1.0000682110038566,154.59423588758352
6.320274432,1.0000779873461274,154.45410234003245
6.322562048,1.0000829378399247,154.31388106719393
6.324849664,1.0000826766736883,154.17363975127503
6.327137792,1.0000773407510046,154.03345316918555
6.329425408,1.0000671688083305,153.89335946943598
6.331713024,1.000052897541529,153.75351590210644
6.33400064,1.0000353048975255,153.6138647930939
6.336288256,1.0000155938433695,153.47453063980603
6.338575872,0.9999950701819534,153.33550271312848
6.340863488,0.9999748942267328,153.19678015189703
6.343151104,0.999956455121221,153.05834450731075
6.34543872,0.9999408391106136,152.9201748948713
6.347726848,0.9999291057760252,152.78220213626997
6.350014464,0.9999219018964866,152.64440465846397
6.35230208,0.99991988367202,152.50669403765494
6.354589696,0.999922961712402,152.3689844590199
6.356877312,0.9999309695796952,152.23118536922922
6.359164928,0.9999437002053996,152.09327785957294
6.361452544,0.999959928706954,151.95514208665324
6.36374016,0.9999788603907078,151.81677279718136
6.366027776,0.9999992900116068,151.67813606738807
6.368315904,1.0000198717587616,151.5392199465124
6.37060352,1.0000392334872754,151.40003612158688
6.372891136,1.0000563298721756,151.26058246406126
6.375178752,1.0000699613859683,151.12094301171408
6.377466368,1.0000792318176346,150.98113310814074
6.379753984,1.0000836454539643,150.84123130790312
6.3820416,1.0000827550985374,150.70133745069813
6.384329216,1.0000769751850467,150.56146190340428
6.386617344,1.0000662452880689,150.42176676843638
6.38890496,1.000051533125629,150.2822599160822
6.391192576,1.0000334330283915,150.14301432198198
6.393480192,1.0000135607389273,150.00402118050525
6.395767808,0.999992745432826,149.86537077714502
6.398055424,0.9999726275729887,149.72702531902547
6.40034304,0.9999543103487777,149.5889672673847
6.402630656,0.9999389908446105,149.45117087612604
6.404918272,0.9999275596363744,149.31356077682938
6.4072064,0.9999209531264172,149.17611890479327
6.409494016,0.9999193441512433,149.03876152606418
6.411781632,0.9999230428511684,148.90139330662146
6.414069248,0.9999317096213007,148.76393589255983
6.416356864,0.9999448071192573,148.62636337769405
6.41864448,0.9999615928661765,148.48855807246701
6.420932096,0.9999808508810523,148.35051283937858
6.423219712,1.0000014079413173,148.21217714092575
6.425507328,1.000022070284166,148.07359933947146
6.427795456,1.0000414108246714,147.93470620546665
6.430083072,1.0000582648670684,147.79557398454827
6.432370688,1.0000716175530808,147.6562316134462
6.434658304,1.000080494636684,147.51674149688662
6.43694592,1.000084417161128,147.37719620100503
6.439233536,1.0000830053532481,147.23762728529968
6.441521152,1.0000765656870243,147.0981242747762
6.443808768,1.000065221829742,146.9587665565317
6.446096896,1.0000499740713065,146.81961798663897
6.448384512,1.0000316751597818,146.68070515484737
6.450672128,1.0000114430660763,146.5421308495469
6.452959744,0.9999906376067296,146.40381566687046
6.45524736,0.9999703485124151,146.26585902547902
6.457534976,0.999952238019209,146.1281697281664
6.459822592,0.9999370811788638,145.99075856523962
6.462110208,0.9999260806748786,145.8535213865914
6.464397824,0.9999199441789118,145.71644628829344
6.466685952,0.9999188780193832,145.579406760966
6.468973568,0.9999232212567807,145.44241766566216
6.471261184,0.9999324963154088,145.30529143726838
6.4735488,0.9999460652669804,145.16801152488523
6.475836416,0.999963205313098,145.0305741795849
6.478124032,0.9999827850742677,144.8928126538921
6.480411648,1.000003724884697,144.75482398608003
6.482699264,1.000024442386693,144.6165256341082
6.48498688,1.0000437231218042,144.477940962759
6.487275008,1.0000602718534475,144.33911050321393
6.489562624,1.0000731518409907,144.20009756777688
6.49185024,1.0000816555830556,144.06092850587416
6.494137856,1.0000850654212325,143.9217050815977
6.496425472,1.0000831325203414,143.78245593283597
6.498713088,1.0000760356717375,143.64330836785498
6.501000704,1.0000642450757407,143.50431386833725
6.50328832,1.000048388801272,143.365522781438
6.505576448,1.0000296702112577,143.22698097815461
6.507864064,1.0000092250512704,143.08874525364266
6.51015168,0.9999882890305714,142.95083071913695
6.512439296,0.9999680707378156,142.81326068687355
6.514726912,0.999950078184571,142.67593496451084
6.517014528,0.9999353243360798,142.53888231134385
6.519302144,0.9999247967343949,142.4020104358466
6.52158976,0.9999190988240642,142.26529624167614
6.523877376,0.9999186392746988,142.1286259020715
6.526165504,0.9999234523753618,141.99192021333764
6.52845312,0.9999333047262984,141.85514814596917
6.530740736,0.9999473673499896,141.7182339674904
6.533028352,0.9999650253719172,141.5810539787707
6.535315968,0.9999849175008012,141.44365437373943
6.537603584,1.0000058810680585,141.30594565937204
6.5398912,1.0000266971240288,141.16795716047238
6.542178816,1.0000459122506522,141.02968491149036
6.544466432,1.0000622903695517,140.89117382878086
6.54675456,1.0000748563139528,140.75247628466767
6.549042176,1.0000828068485503,140.61362609221044
6.551329792,1.0000855293834015,140.47472344654176
6.553617408,1.000083071157307,140.33581606694923
6.555905024,1.0000754482486622,140.196990609406
6.55819264,1.0000630742580647,140.0583268022873
6.560480256,1.0000468457808802,139.91989731637472
6.562767872,1.000027734337913,139.78174825968713
6.565056,1.0000070168163144,139.64387880279992
6.567343616,0.9999858948211793,139.50635699992515
6.569631232,0.9999657409077239,139.36910304471192
6.571918848,0.9999478832433332,139.23215679177693
6.574206464,0.9999334750508295,139.0954917293857
6.57649408,0.9999233836764775,138.95898145848315
6.578781696,0.9999181278379667,138.82261765080307
6.581069312,0.999918310703888,138.68627821400517
6.583356928,0.9999236558773464,138.54994621426
6.585645056,0.9999341405932844,138.41348032757782
6.587932672,0.9999487969859675,138.27686818958344
6.590220288,0.9999667631122872,138.14002886183874
6.592507904,0.9999869558126534,138.0029009915235
6.59479552,1.00000822245682,137.86552441198185
6.597083136,1.0000290068773912,137.72781610269283
6.599370752,1.0000480762895512,137.5898702555053
6.601658368,1.000064256792502,137.45165449860488
6.603945984,1.0000765053902307,137.3132539254881
6.606234112,1.0000838424945873,137.17474319832084
6.608521728,1.0000861604902604,137.03612696897892
6.610809344,1.0000830188593384,136.89756507390587
6.61309696,1.000074781515278,136.75911659099353
6.615384576,1.0000619035388503,136.6207899126412
6.617672192,1.0000451478950463,136.48271883967095
6.619959808,1.0000257482257369,136.34490409817383
6.622247424,1.0000046704975691,136.2074223070907
6.624535552,0.9999835058130316,136.0702388479962
6.626823168,0.9999634474801091,135.93338315889756
6.629110784,0.9999458372749107,135.79682242460365
6.6313984,0.9999317628455672,135.66049092790755
6.633686016,0.9999220282255024,135.52432611686922
6.635973632,0.9999173687879072,135.3883093814957
6.638261248,0.999918053381751,135.252342934704
6.640548864,0.9999240715738852,135.11631226870222
6.64283648,0.9999350943900265,134.98018497969286
6.645124608,0.9999502942370371,134.84389459879156
6.647412224,0.9999686035705758,134.70735481809243
6.64969984,0.9999892558640164,134.57054407902197
6.651987456,1.0000105169196538,134.43345192538544
6.654275072,1.000031413014099,134.29606747768332
6.656562688,1.0000504213791976,134.15839092374023
6.658850304,1.0000662105184985,134.02048699339213
6.66113792,1.0000779122497119,133.88238879658135
6.663426048,1.0000849713437518,133.7441776535555
6.665713664,1.0000866604430363,133.6059101897515
6.66800128,1.0000829530730966,133.46765578761742
6.670288896,1.0000741208518444,133.32953747585847
6.672576512,1.0000606007051625,133.1915700611499
6.674864128,1.0000434521668045,133.05385196650437
6.677151744,1.0000235205405812,132.91639481313516
6.67943936,1.0000024051697447,132.77927763058963
6.681726976,0.9999811384871229,132.6424702758035
6.684015104,0.9999610801444648,132.50596332305778
6.68630272,0.9999437481999457,132.36976301559562
6.688590336,0.9999299351558426,132.23378496486418
6.690877952,0.9999207017145152,132.09799189792045
6.693165568,0.9999166630605769,131.96233365369002
6.695453184,0.9999180311437439,131.82666234900995
6.6977408,0.9999245898357079,131.6909859603216
6.700028416,0.9999361501096286,131.55516486271117
6.702316032,0.9999517573441319,131.41916297650815
6.70460416,0.9999707263503268,131.28293500488925
6.706891776,0.9999915442476326,131.14642721529398
6.709179392,1.0000130182019997,131.00964196833982
6.711467008,1.0000337964868955,130.87253915059003
6.713754624,1.0000526860526568,130.7351560352535
6.71604224,1.000068203161964,130.59755218651256
6.718329856,1.0000795663349211,130.45976050720637
6.720617472,1.0000859720345665,130.32185456414976
6.7229056,1.0000870768072092,130.1839024794756
6.725193216,1.0000828158376707,130.04597604382113
6.727480832,1.0000732733030524,129.9081793490972
6.729768448,1.0000593252411432,129.77056016559465
6.732056064,1.000041716131849,129.63319034671105
6.73434368,1.000021440596019,129.4961120810789
6.736631296,1.0000000639889988,129.35932771081664
6.738918912,0.9999786932124269,129.22288390968689
6.741206528,0.9999587803258082,129.08674994489027
6.743494656,0.9999414955298552,128.9509135674003
6.745782272,0.9999281836864329,128.81527193361123
6.748069888,0.9999195186028013,128.6798376235667
6.750357504,0.9999158693766306,128.54449766798297
6.75264512,0.999917945805087,128.40919005362755
6.754932736,0.9999250474817056,128.27382166864334
6.757220352,0.9999371757151483,128.13831592094985
6.759507968,0.999953405260975,128.00263828033945
6.761795584,0.9999727070927831,127.86670668927275
6.764083712,0.9999938178566398,127.73049271510536
6.766371328,1.0000154899407672,127.59396244525873
6.768658944,1.0000362540971726,127.45714288749062
6.77094656,1.0000548286111277,127.32006902405094
6.773234176,1.000070030757755,127.1827491326707
6.775521792,1.000081002305062,127.04526657982778
6.777809408,1.0000868824250135,126.90766531334293
6.780097024,1.000087445521446,126.77002095958537
6.782385152,1.000082476410724,126.63241653156834
6.784672768,1.0000723753096137,126.49495496602465
6.786960384,1.0000578563125477,126.35767880952542
6.789248,1.0000397894410271,126.22064956032614
6.791535616,1.0000192661742162,126.08390684976266
6.793823232,0.9999975727693927,125.94749520656089
6.796110848,0.9999762517482063,125.81138159415825
6.798398464,0.9999564674645852,125.67563789590581
6.80068608,0.999939448513368,125.54011946941414
6.802974208,0.9999265170010737,125.40484711441913
6.805261824,0.9999182511687222,125.26974686289874
6.80754944,0.9999152903140432,125.13474309522476
6.809837056,0.9999178516906803,124.99974879094073
6.812124672,0.9999257312637824,124.86470693356863
6.814412288,0.9999383532124412,124.72950490046587
6.816699904,0.9999551537216943,124.59412545361161
6.81898752,0.9999747808887046,124.4584910318328
6.821275136,0.9999961802866886,124.32254116344863
6.823563264,1.0000179597370817,124.18631916842318
6.82585088,1.0000386945365451,124.04978614822006
6.828138496,1.0000570891994094,123.91300468224641
6.830426112,1.0000719845270925,123.77595705236985
6.832713728,1.00008245363881,123.63875560431764
6.835001344,1.0000878503974202,123.50147622212683
6.83728896,1.0000877708245874,123.36412347416189
6.839576576,1.0000822171909878,123.22686195528797
6.841864704,1.0000714732702733,123.08970206035268
6.84415232,1.0000564258334155,122.95275803752284
6.846439936,1.0000378005530157,122.81605641619754
6.848727552,1.000016940429809,122.67969865544158
6.851015168,0.9999950671038547,122.54361253127068
6.853302784,0.9999736631806792,122.40785092747949
6.8555904,0.9999540168870048,122.27243791010017
6.857878016,0.9999374073777789,122.13726937336412
6.860165632,0.9999247012928911,122.00237006100538
6.86245376,0.9999171155956047,121.8676037711771
6.864741376,0.9999147717829264,121.73290669976485
6.867028992,0.9999179815074237,121.59824487011892
6.869316608,0.9999264566166491,121.46350160140167
6.871604224,0.9999396471380216,121.32860585482055
6.87389184,0.9999568432575086,121.19351621124137
6.876179456,0.9999769835786482,121.05816337678837
6.878467072,0.9999986398716635,120.92249445668911
6.880754688,1.0000204495346805,120.78654129947228
6.883042816,1.0000411302750398,120.65029637265803
6.885330432,1.0000593470394448,120.51377308013949
6.887618048,1.0000738972942067,120.37703101504755
6.889905664,1.000083928985735,120.2401170560441
6.89219328,1.0000886449206015,120.10311103934858
6.894480896,1.000087891733397,119.96608246525516
6.896768512,1.0000816969570994,119.8291200003013
6.899056128,1.0000704800651512,119.69229117102041
6.901344256,1.0000547372637059,119.55567265306564
6.903631872,1.00003581979317,119.41931140335369
6.905919488,1.000014617630757,119.28327165404555
6.908207104,0.999992627721585,119.14755538973976
6.91049472,0.9999712078055117,119.01215811767457
6.912782336,0.9999516678329384,118.87706397441652
6.915069952,0.9999352395054473,118.74225645928934
6.917357568,0.9999231573692995,118.60767694610318
6.919645184,0.9999159916887055,118.47323208363525
6.921933312,0.9999142055441307,118.33887336232613
6.924220928,0.9999181037175018,118.20451306717992
