freq,mag,phase
6.0,0.9993067844213711,6.857752580673101
6.009280512,0.9994767791449957,6.591267301657403
6.018561536,0.9996745334125425,6.3222572359508655
6.027842048,0.9998895103200794,6.050503199214103
6.037123072,1.000110423656412,5.7758460680729975
6.046403584,1.000325683724014,5.498323357121277
6.055684608,1.0005241218392902,5.2180003043279335
6.06496512,1.0006951598558622,4.935211548460117
6.074246144,1.0008299253662825,4.6503789913572655
6.083526656,1.000921373498981,4.364003575280485
6.09280768,1.0009645689003248,4.07668635059343
6.102088192,1.0009573317346476,3.7891637634852917
6.111368704,1.0008998985242068,3.501997048883791
6.120649728,1.0007953856891425,3.2158494125094204
6.12993024,1.000649033623417,2.931294290637486
6.139211264,1.000468622710252,2.6489121056053055
6.148491776,1.0002634874468586,2.3690004252512282
6.1577728,1.0000443463372628,2.091860188094953
6.167053312,0.9998226106628955,1.8176199752784883
6.176334336,0.9996101403013937,1.5461885596015406
6.185614848,0.9994179595863149,1.2773912229545699
6.19489536,0.999255985624484,1.010937784397387
6.204176384,0.9991329981642717,0.7463416371620006
6.213456896,0.9990554843381451,0.48303899182493765
6.22273792,0.9990274909074909,0.2203985035517776
6.232018432,0.999050471674607,-0.042255187711866836
6.241299456,0.9991233533149848,-0.30551958469423235
6.250579968,0.9992423584315631,-0.5701021618150852
6.259860992,0.9994010443104195,-0.836560062477516
6.269141504,0.9995914588288217,-1.1053689668648738
6.278422528,0.9998033628313846,-1.3768511211089975
6.28770304,1.0000257468029685,-1.6512345592397468
6.296983552,1.0002469930699955,-1.9285911756005405
6.306264576,1.0004555572222422,-2.2087979976907985
6.315545088,1.0006403359503828,-2.4916639913670435
6.324826112,1.0007916771413643,-2.776752953725029
6.334106624,1.000901629850888,-3.0635772396214715
6.343387648,1.0009644961379989,-3.3516368879035983
6.35266816,1.0009769602468397,-3.6402190706705264
6.361949184,1.0009382848386155,-3.9286387473321542
6.371229696,1.0008503772502122,-4.216277598440207
6.380510208,1.000717992712027,-4.502488469556099
6.389791232,1.0005477033531356,-4.786751607956489
6.399071744,1.0003486293607886,-5.068641900185304
6.408352768,1.000131184434414,-5.347762349161215
6.41763328,0.9999065873735437,-5.624040354443318
6.426914304,0.9996866987994982,-5.897391930464803
6.436194816,0.9994830834822033,-6.168019495279129
6.44547584,0.9993064009705249,-6.436163937447345
6.454756352,0.9991658812656176,-6.702193688388858
6.464037376,0.9990691115634734,-6.966679784685104
6.473317888,0.999021062373943,-7.230301619319087
6.4825984,0.999024490071133,-7.493614023060654
6.491879424,0.999078852959292,-7.757349210444197
6.501159936,0.9991818634963474,-8.022141404183726
6.51044096,0.9993278581406062,-8.288613561073042
6.519721472,0.9995091614748014,-8.557305221655463
6.529002496,0.999716402411072,-8.828536554734452
6.538283008,0.9999387253494562,-9.102669481480683
6.547564032,1.0001642985910892,-9.379818932646836
6.556844544,1.0003815439599926,-9.659917208993884
6.566125056,1.00057896045379,-9.942761962605067
6.57540608,1.0007462763146766,-10.228075075360353
6.584686592,1.0008745088203777,-10.515363039851975
6.593967616,1.0009572064830043,-10.80406299967662
6.603248128,1.0009897902777176,-11.093587632306283
6.612529152,1.000970475115837,-11.383242569238059
6.621809664,1.0009005377783413,-11.672293042353111
6.631090688,1.000783140866826,-11.960205786686227
6.6403712,1.0006247840807028,-12.246345276559754
6.649652224,1.0004334982304934,-12.530206082977408
6.658932736,1.000219308460109,-12.811419368780234
6.668213248,0.9999933720378388,-13.089778316986424
6.677494272,0.9997677363578915,-13.365190272849734
6.686774784,0.9995538569044825,-13.637719231731833
6.696055808,0.9993632672948887,-13.907626992861179
6.70533632,0.9992058923300284,-14.175237009338991
6.714617344,0.9990899602287907,-14.441103523013929
6.723897856,0.9990217517024932,-14.705763866713708
6.73317888,0.9990048724168795,-14.969904230367703
6.742459392,0.999040175325468,-15.234165035455485
6.751739904,0.9991257735666589,-15.499278697959857
6.761020928,0.9992573517311119,-15.765876832242439
6.77030144,0.99942807718993,-16.03445870398343
6.779582464,0.9996289512113591,-16.30555883470925
6.788862976,0.999849318921409,-16.57946185434879
6.798144,1.0000779317088473,-16.856390288576144
6.807424512,1.000302599272593,-17.1363185745123
6.816705536,1.00051149076457,-17.41917515050316
6.825986048,1.000693943054206,-17.704621169202607
6.835267072,1.0008400944295581,-17.992260198540887
6.844547584,1.000942381249803,-18.281619062855277
6.853828096,1.0009953896062211,-18.572018795093747
6.86310912,1.0009964205092388,-18.86279811731125
6.872389632,1.0009452031253978,-19.1533130010413
6.881670656,1.000844450116065,-19.442878125187516
6.890951168,1.0006993595392457,-19.730857122893774
6.900232192,1.0005176042147614,-20.01668295348422
6.909512704,1.0003084755346785,-20.30001135112681
6.918793728,1.0000827814459072,-20.580551600807635
6.92807424,0.9998528107376559,-20.858055008293043
6.937354752,0.9996300992825498,-21.13263233714055
6.946635776,0.999426731752412,-21.40441776288065
6.955916288,0.9992530661687167,-21.67373829743161
6.965197312,0.9991185755749288,-21.941069472168003
6.974477824,0.9990301362748537,-22.20694164020164
6.983758848,0.9989924100021266,-22.472029272994128
6.99303936,0.9990074820353662,-22.736963740946347
7.002320384,0.9990749243626278,-23.0024961440625
7.011600896,0.9991907720965345,-23.26927943000734
7.02088192,0.9993490618086334,-23.537900747478858
7.030162432,0.9995416442044437,-23.808871443102227
7.039442944,0.9997586138839115,-24.082588499465068
7.048723968,0.9999882914677086,-24.35931595132338
7.05800448,1.0002189753694,-24.639085910363054
7.067285504,1.0004381215921885,-24.921885956096794
7.076566016,1.0006346055886817,-25.207425693704245
7.08584704,1.0007980403958343,-25.495369797442414
7.095127552,1.0009198543134679,-25.78529524770845
7.104408576,1.0009935677009822,-26.07650123196281
7.113689088,1.0010153475110222,-26.368392133917236
7.1229696,1.000983951005084,-26.660279443461246
7.132250624,1.0009011263985874,-26.95141241510093
7.141531136,1.000770922834294,-27.24124983494932
7.15081216,1.0006001944008442,-27.529124663851732
7.160092672,1.0003978723147686,-27.814597761931946
7.169373696,1.000174426686268,-28.097277203669034
7.178654208,0.9999417671443321,-28.376975342414205
7.187935232,0.999711712607851,-28.65367238040339
7.197215744,0.999496527956316,-28.927473074540533
7.206496768,0.9993076133229484,-29.19863468510398
7.21577728,0.9991548520499208,-29.467558444345556
7.225057792,0.9990461374068751,-29.73477983317727
7.234338816,0.9989873152478745,-30.000967180769166
7.243619328,0.9989815541517583,-30.26672160127143
7.252900352,0.9990294551287324,-30.532782151411283
7.262180864,0.9991280788950201,-30.799863219439924
7.271461888,0.9992725142094918,-31.068570691254536
7.2807424,0.9994554265566927,-31.33949087779848
7.290023424,0.9996669549736481,-31.61300874010114
7.299303936,0.9998959743868256,-31.88954542040948
7.308584448,1.0001308499412234,-32.169146414879584
7.317865472,1.0003589593097706,-32.451842657811234
7.327145984,1.000568510437442,-32.737455249224816
7.336427008,1.0007485438751897,-33.02568486126991
7.34570752,1.0008894239612929,-33.31607796051166
7.354988544,1.0009838879205688,-33.60806015788339
7.364269056,1.001026905806563,-33.90096861535953
7.37355008,1.0010164338715528,-34.19418240050695
7.382830592,1.0009524921767348,-34.48693099418536
7.392111616,1.0008387211256562,-34.77855018245474
7.401392128,1.0006807738643517,-35.06843027405568
7.41067264,1.0004871266091495,-35.35602288058697
7.419953664,1.000267652014566,-35.640942790411536
7.429234176,1.0000340037866957,-35.92293223061212
7.4385152,0.9997981645202945,-36.201850115606696
7.447795712,0.9995727754756286,-36.477762307067984
7.457076736,0.999369381308746,-36.750879541999936
7.466357248,0.9991989562649778,-37.02154362945952
7.475638272,0.9990701974061593,-37.290253956038576
7.484918784,0.9989901119680508,-37.55766495572191
7.494199296,0.9989629486976878,-37.824348784524474
7.50348032,0.9989900209271754,-38.091087659133976
7.512760832,0.9990703226816432,-38.35857444631739
7.522041856,0.9991992550851785,-38.627463586924556
7.531322368,0.9993704195009713,-38.898384444519806
7.540603392,0.9995747046519637,-39.17180971910994
7.549883904,0.9998013819558689,-39.44815082503222
7.559164928,1.0000388344876108,-39.72755589205561
7.56844544,1.0002744146143505,-40.010153905523026
7.577726464,1.0004957941221433,-40.29575786833842
7.587006976,1.000691410040409,-40.58418237565824
7.596287488,1.0008510608221965,-40.87500094354867
7.605568512,1.0009662809276212,-41.167669569270494
7.614849024,1.0010309873208993,-41.461575004710966
7.624130048,1.001041887626225,-41.756008268514655
7.63341056,1.0009982276859817,-42.05029476171664
7.642691584,1.0009021361033332,-42.343694253327584
7.651972096,1.0007588477285336,-42.63557297161056
7.66125312,1.0005755240441008,-42.92534296851476
7.670533632,1.0003620484939457,-43.21251597460525
7.679814144,1.0001291280819353,-43.49681004745578
7.689095168,0.9998893499213538,-43.77805807159504
7.69837568,0.9996547994202903,-44.05617420346398
7.707656704,0.9994382358860249,-44.331368407448736
7.716937216,0.9992508836832206,-44.603937420410624
7.72621824,0.9991023843571352,-44.87427691075279
7.735498752,0.9990010121215405,-45.14302891058964
7.744779776,0.9989518011201846,-45.410813867256174
7.754060288,0.998957571320227,-45.67835024412468
7.763341312,0.999017933237642,-45.94637606947507
7.772621824,0.9991298905729346,-46.21554832514933
7.781902336,0.9992875976441294,-46.48653849350684
7.79118336,0.9994827603196601,-46.75990266604516
7.800463872,0.9997051281390921,-47.036067047004806
7.809744896,0.9999433987998586,-47.315311887785704
7.819025408,1.0001846769036498,-47.597752982907096
7.828306432,1.0004164528832757,-47.88337248668995
7.837586944,1.0006268042507547,-48.17194079488623
7.846867968,1.0008045134113641,-48.463100153596294
7.85614848,1.00094017087876,-48.75638616233799
7.865428992,1.0010269085025636,-49.05117848845325
7.874710016,1.0010599144298917,-49.34680279605602
7.883990528,1.0010375940404774,-49.64253144925722
7.893271552,1.000960793546565,-49.937698153951374
7.902552064,1.000833443935485,-50.23155003988149
7.911833088,1.0006625944778786,-50.52348461879884
7.9211136,1.000456699374305,-50.81297041275075
7.930394624,1.0002267170540193,-51.09965967999836
7.939675136,0.9999844629594269,-51.383235749329536
7.94895616,0.9997425286918165,-51.66371669295325
7.958236672,0.9995141308225769,-51.941094355508774
7.967517184,0.9993107487112557,-52.21565300040131
7.976798208,0.9991432090755368,-52.48781638167234
7.98607872,0.9990203541039816,-52.758101306005685
7.995359744,0.9989487938153907,-53.0270910655987
8.004640256,0.9989323189870719,-53.29556572580145
8.01392128,0.9989716299572576,-53.5641934231497
8.023201792,0.9990650404375833,-53.83374780454134
8.032482816,0.9992074030000703,-54.104954803181926
8.041763328,0.9993916155886153,-54.378269719820835
8.05104384,0.9996079290097943,-54.654346544078
8.060324864,0.9998449567938705,-54.93337756096211
8.069605376,1.0000902371275935,-55.21570457549604
8.0788864,1.0003311336088936,-55.501244614822326
8.088166912,1.0005548803077453,-55.78990881725699
8.097447936,1.0007498637788281,-56.08137710039925
8.106728448,1.0009057644097459,-56.37516798126745
8.116009472,1.0010144203026123,-56.67079078176197
8.125289984,1.0010702346290639,-56.967517783419375
8.134571008,1.0010699591678134,-57.26470485668443
8.14385152,1.0010136402763266,-57.56153359821314
8.153132032,1.0009044114019998,-57.85733167960018
8.162413056,1.0007474855539344,-58.15142104631964
8.171693568,1.0005512479012901,-58.44324090192067
8.180974592,1.0003259757907303,-58.73232431920356
8.190255104,1.0000833031938619,-59.018410878716246
8.199536128,0.9998358843158124,-59.30127941392994
8.20881664,0.9995966633578881,-59.58095532856505
8.218097664,0.9993784500184337,-59.85766145234898
8.227378176,0.999192351138295,-60.131750577183695
8.236658688,0.9990484301574248,-60.40367485275572
8.245939712,0.9989541852559898,-60.67408416756366
8.255220224,0.9989146154915056,-60.943620024117386
8.264501248,0.9989319576569655,-61.213045220483956
8.27378176,0.9990052417410572,-61.48309186984532
8.283062784,0.9991307913793028,-61.75453364985387
8.292343296,0.9993020355918505,-62.027927519206116
8.30162432,0.9995099990660575,-62.303914962093465
8.310904832,0.9997439260402773,-62.58281937767255
8.320185856,0.9999913571748924,-62.86497773028774
8.329466368,1.000239644978816,-63.15040629660857
8.33874688,1.000475613793253,-63.43909951422395
8.348027904,1.0006869634024733,-63.73077438326095
8.357308416,1.0008624705614975,-64.02507264828228
8.36658944,1.0009931132320586,-64.32142872068904
8.375869952,1.001071957633399,-64.61917947017572
8.385150976,1.0010947498637819,-64.91768352518297
8.394431488,1.0010602671438298,-65.21616813205434
8.403712512,1.0009703846486588,-65.51386425841547
8.412993024,1.000829433542415,-65.81012506144147
8.422273536,1.0006449640487862,-66.10427168515389
8.43155456,1.0004263113257768,-66.39584304406311
8.440835072,1.0001852887283424,-66.68439402139649
8.450116096,0.9999340396655066,-66.96976588729807
8.459396608,0.9996859030623271,-67.25187992543935
8.468677632,0.999453921725292,-67.53085893108256
8.477958144,0.9992502237787692,-67.80701909075214
8.487239168,0.9990854778606608,-68.08076889204293
8.49651968,0.9989684256767071,-68.35268453740919
8.505800704,0.9989053919367832,-68.6234726731283
8.515081216,0.9988995489175181,-68.89380592049979
8.524361728,0.9989513726226893,-69.16449635146174
8.533642752,0.999058255068711,-69.43625557612707
8.542923264,0.9992146254593478,-69.70983152896208
8.552204288,0.9994123220581141,-69.98576697427835
8.5614848,0.999640948556481,-70.26455572193952
8.570765824,0.9998887062660714,-70.54651831077906
8.580046336,1.0001425761277203,-70.83184579111027
8.58932736,1.000389213635133,-71.12053774909965
8.598607872,1.0006157579428103,-71.41240096465131
8.607888384,1.0008103828904864,-71.70705790418224
8.617168896,1.0009627680121225,-72.00404573920403
8.626450432,1.0010649107528498,-72.30277259254724
8.635730944,1.001111479707723,-72.60258583519065
8.645011456,1.0010999301685015,-72.90262400214023
8.654291968,1.0010310082031164,-73.2021699120955
8.663573504,1.000907865257834,-73.50055246718534
8.672854016,1.0007369742525924,-73.79702767370587
8.682134528,1.0005273753717376,-74.09105594242004
8.69141504,1.0002898399194486,-74.38221058011685
8.700695552,1.0000367601272548,-74.67015857301796
8.709977088,0.9997813433958822,-74.95480101433493
8.7192576,0.9995370767841645,-75.23617097141245
8.728538112,0.9993165933697054,-75.51454834632847
8.737818624,0.9991315901510227,-75.79026769964855
8.74710016,0.9989919594545732,-76.0638692510578
8.756380672,0.998904834063072,-76.33601414133538
8.765661184,0.9988749392174439,-76.60742998565306
8.774941696,0.9989040890013954,-76.87887881900974
8.784223232,0.9989906228333495,-77.15112167609955
8.793503744,0.9991302604715979,-77.42489195996966
8.802784256,0.9993154047590089,-77.70085527153739
8.812064768,0.9995368161375029,-77.97956662273972
8.82134528,0.9997826504668099,-78.26139051728892
8.830626816,1.0000402527333776,-78.54657744096208
8.839907328,1.0002960024481058,-78.83519046980732
8.84918784,1.0005364086146913,-79.12713602980772
8.858468352,1.0007491817822052,-79.42211067807557
8.867749888,1.0009229748914963,-79.7197075009457
8.8770304,1.0010486639747072,-80.0192959011893
8.886310912,1.0011196850194177,-80.32023378562813
8.895591424,1.0011321868758136,-80.62178539731174
8.904871936,1.0010854901130442,-80.92315158833235
8.914153472,1.0009819184865063,-81.22362715084597
8.923433984,1.0008268039125858,-81.52242545551461
8.932714496,1.0006282609077148,-81.81896571992327
8.941995008,1.0003964682191457,-82.1127338070026
8.951276544,1.0001436364059912,-82.40330874839496
8.960557056,0.9998827072993478,-82.69058680334284
8.969837568,0.9996277052842398,-82.974517470884
8.97911808,0.9993917127753696,-83.25525327415362
8.988398592,0.9991872119352732,-83.53308501533112
8.997680128,0.9990250825513652,-83.8085289282794
9.00696064,0.9989137340734391,-84.08223163185822
9.016241152,0.9988589749858482,-84.35487167473836
9.025521664,0.9988641500206344,-84.62719629242144
9.0348032,0.9989286819820627,-84.90005683026656
9.044083712,0.9990495914777997,-85.17414303369358
9.053364224,0.9992202546635314,-85.45023113350051
9.062644736,0.999432115751633,-85.72886815760477
9.071925248,0.9996739458929979,-86.0105632659758
9.081206784,0.999933052218912,-86.2955559011976
9.090487296,1.000196091531027,-86.58407281950805
9.099767808,1.0004490816052298,-86.87606080457489
9.10904832,1.0006789402928393,-87.17126349257694
9.118329856,1.0008734932052126,-87.46931725362843
9.127610368,1.0010227107598546,-87.7696916148672
9.13689088,1.0011186026030154,-88.0717232741558
9.146171392,1.001156064885589,-88.3746907922465
9.155452928,1.0011330813670412,-88.67782201166705
9.16473344,1.0010508028781724,-88.98033108987856
9.174013952,1.0009134156699342,-89.28143954233181
9.183294464,1.0007281329597735,-89.58048445479167
9.192574976,1.0005044193514914,-89.87688310790583
9.201856512,1.000253919524794,-90.1702246785003
9.211137024,0.9999896436112461,-90.46023485213068
9.220417536,0.999725498553627,-90.74677781162023
9.229698048,0.9994753817299572,-91.02998598401165
9.238979584,0.9992521721279738,-91.31012295133885
9.248260096,0.9990679144665964,-91.58760090292584
9.257540608,0.9989321553029407,-91.86298717293123
9.26682112,0.9988521154799284,-92.13699096635287
9.276101632,0.9988320386223402,-92.41039415471363
9.285383168,0.9988731310568647,-92.68394543907195
9.29466368,0.9989733338304556,-92.95845720232654
9.303944192,0.9991273854975101,-93.23472333166983
9.313224704,0.9993273724094855,-93.51337234993275
9.32250624,0.9995628313290431,-93.794914062054
9.331786752,0.999821470125693,-94.07978462401071
9.341067264,1.0000898511654635,-94.36816689460092
9.350347776,1.0003537386181027,-94.66014665727111
9.359628288,1.0005995025631123,-94.95548609265425
9.368909824,1.000814108689788,-95.25393447672751
9.378190336,1.0009865138185121,-95.55496356500228
9.387470848,1.001107611904492,-95.8580105705331
9.39675136,1.0011708867727818,-96.16232510478204
9.406032896,1.0011730079983967,-96.46713125006659
9.415313408,1.001113746908096,-96.77158949088525
9.42459392,1.0009961893338053,-97.07498678868018
9.433874432,1.000826275301298,-97.37652748204125
9.443154944,1.0006129466323057,-97.67560980078757
9.45243648,1.0003670451796476,-97.97172563551497
9.461716992,1.0001015895366454,-98.26454728009061
9.470997504,0.9998303087115863,-98.55386071277012
9.480278016,0.999567516752489,-98.83969807003541
9.489559552,0.9993268205344803,-99.12224578545951
9.498840064,0.9991209842987557,-99.40190101632864
9.508120576,0.9989609055055053,-99.67920367657126
9.517401088,0.9988548851511476,-99.9547396966598
9.526682624,0.9988086979584493,-100.22931525788455
9.535963136,0.9988248544543264,-100.5037411948095
9.545243648,0.9989025666174757,-100.77884456031876
9.55452416,0.9990378084071199,-101.05536341596692
9.563804672,0.9992236530079273,-101.33407496103148
9.573086208,0.9994504350209985,-101.6155334927502
9.58236672,0.999706261152931,-101.90023841078064
9.591647232,0.9999778639958388,-102.18846533129809
9.600927744,1.0002508278257474,-102.48032071828665
9.61020928,1.0005110854796817,-102.77577118542366
9.619489792,1.0007449101857033,-103.0745072035316
9.628770304,1.0009401127114457,-103.37613045698714
9.638050816,1.0010864916523898,-103.68005272546544
9.647331328,1.0011762851937465,-103.9856047079073
9.656612864,1.001204653589509,-104.29198474055325
9.665893376,1.0011699894675625,-104.59839094215941
9.675173888,1.0010741413464008,-104.90401122325996
9.6844544,1.0009220165042314,-105.20805167321895
9.693735936,1.0007212781578732,-105.50981949127369
9.703016448,1.0004826206588529,-105.80877601675732
9.71229696,1.0002181577843754,-106.10448012316868
