freq,mag,phase
6.0,0.9999278909448786,149.4366959657703
6.006655488,0.9999385948233511,148.99752738251922
6.013310976,0.9999532962388982,148.55822140449015
6.019966976,0.9999708232179868,148.1187095262945
6.026622464,0.9999902657629707,147.67898999977496
6.033277952,1.0000105159531234,147.23900748414084
6.03993344,1.0000305175235604,146.79875860093142
6.046588928,1.0000490813286498,146.35827401189073
6.053244416,1.0000653280188045,145.91759083031755
6.059900416,1.0000782962980637,145.4767132151361
6.066555904,1.000087277758337,145.03569977293213
6.073211392,1.000091993291591,144.5946351026639
6.07986688,1.0000916894619676,144.15354356820393
6.086522368,1.0000868086922012,143.71250347618002
6.093177856,1.0000775427602215,143.27158094501266
6.099833856,1.0000642833589362,142.83081861054552
6.106489344,1.0000478625145,142.39029775233843
6.113144832,1.0000290739275999,141.95000622534246
6.11980032,1.0000089964562866,141.5100117237274
6.126455808,0.999988609468748,141.07030656695332
6.133111296,0.9999693367102717,140.6308969522931
6.139767296,0.9999518241853934,140.1917326446699
6.146422784,0.9999373610456564,139.75281258650688
6.153078272,0.9999265497587846,139.31409985175083
6.15973376,0.9999199695593414,138.87548861619035
6.166389248,0.9999180976070617,138.43696662519423
6.173044736,0.9999209772792829,137.9984585149206
6.179700736,0.999928464157434,137.55992345953905
6.186356224,0.9999400969444262,137.12125585497807
6.193011712,0.999955299231211,136.68242930871514
6.1996672,0.9999732503643372,136.24340703184347
6.206322688,0.9999930132117743,135.8041194566472
6.212978176,1.0000133215575395,135.36463309167183
6.219634176,1.0000332536679297,134.92486483805956
6.226289664,1.0000517371846462,134.4848795359188
6.232945152,1.000067606825832,134.04463853676899
6.23960064,1.0000800678526556,133.60426096925613
6.246256128,1.0000886510615212,133.16376369992057
6.252911616,1.0000925670655294,132.72317892709296
6.259567616,1.000091734389239,132.28262399536717
6.266223104,1.0000862341558094,131.84210796205204
6.272878592,1.000076249882923,131.4017299576276
6.27953408,1.0000624612099318,130.96151664220264
6.286189568,1.0000455728735413,130.52152518570952
6.292845056,1.0000264987966168,130.0818201091095
6.299501056,1.0000062396342198,129.64239068166052
6.306156544,0.9999859056154845,129.20326264492402
6.312812032,0.9999666061712326,128.76441044803326
6.31946752,0.9999494118633507,128.3258345788325
6.326123008,0.9999353582384932,127.8874739940533
6.332778496,0.9999250153197661,127.44929990624497
6.339434496,0.9999191081827898,127.01126135533346
6.346089984,0.9999178866053546,126.57330447029453
6.352745472,0.9999213590223043,126.13534902823037
6.35940096,0.9999294992409256,125.69732638352065
6.366056448,0.999941752046224,125.25919906239324
6.372711936,0.9999573827319375,124.82088240143734
6.379367936,0.999975834637863,124.38238032510836
6.386023424,0.9999957481203434,123.9436277187923
6.392678912,1.000016271475675,123.50462910058614
6.3993344,1.000036152917097,123.0653776819863
6.405989888,1.0000543662441512,122.62588451707205
6.412645376,1.0000700046339954,122.1862025333937
6.419301376,1.00008201816116,121.74634673476427
6.425956864,1.0000899730204285,121.30637625033884
6.432612352,1.0000931638064923,120.86635344373337
6.43926784,1.000091859285675,120.42633699730514
6.445923328,1.0000856045201725,119.98639297911132
6.452578816,1.0000751461264838,119.54658753181
6.459234816,1.0000607523790508,119.10695714191958
6.465890304,1.0000433905444095,118.66756480187586
6.472545792,1.0000239571655982,118.22846462269744
6.47920128,1.0000034977160486,117.78962965880471
6.485856768,0.9999832002033661,117.35108673356095
6.492512256,0.9999640852280145,116.9128404600603
6.499168256,0.9999472081960914,116.47487137922151
6.505823744,0.999933505919673,116.0371160924166
6.512479232,0.9999235398018941,115.59953545953637
6.51913472,0.999918334033253,115.16208132475982
6.525790208,0.9999176917830555,114.72469134058134
6.532445696,0.9999218962907036,114.28730999958121
6.539101696,0.9999306003538724,113.84983924301365
6.545757184,0.9999434814436342,113.41226294255623
6.552412672,0.9999595623188066,112.97450996653235
6.55906816,0.9999784003526734,112.53655845438638
6.565723648,0.9999985193271856,112.09835653258062
6.572379136,1.0000191312897388,111.65988052938721
6.579035136,1.0000390146813045,111.22117195257283
6.585690624,1.0000570350249955,110.7822292630747
6.592346112,1.0000723638065887,110.34307688463399
6.5990016,1.0000839762635005,109.90377954193424
6.605657088,1.0000912813593479,109.46437419894644
6.612312576,1.0000939783673548,109.02491758867518
6.618968576,1.0000918447388885,108.58547448511467
6.625624064,1.0000850508418946,108.14611908501146
6.632279552,1.0000738495553383,107.70690383393733
6.63893504,1.0000590828262224,107.26788129475874
6.645590528,1.0000412170851152,106.82911148827036
6.652246016,1.0000215110882387,106.39061109075183
6.658902016,1.0000009071541698,105.95241291672521
6.665557504,0.9999805542444836,105.51449650315239
6.672212992,0.9999615365486689,105.07686760546302
6.67886848,0.9999449692284145,104.63950164391716
6.685523968,0.999931717152142,104.20237281755004
6.692179456,0.9999223927892418,103.76540963856327
6.698835456,0.9999176894449052,103.32856748596876
6.705490944,0.9999177606996322,102.89175431141508
6.712146432,0.9999226016777929,102.45496755502957
6.71880192,0.9999319501124231,102.01806986326329
6.725457408,0.9999453616429279,101.58107372525981
6.732112896,0.9999620733622088,101.14388292583429
6.738768896,0.9999811662263727,100.70648467273634
6.745424384,1.0000015504071722,100.2688281442418
6.752079872,1.0000222750972279,99.83091833228823
6.75873536,1.000042094909469,99.39276293951347
6.765390848,1.0000598866357262,98.95437054355624
6.772046336,1.000074760424282,98.51579392653134
6.778702336,1.0000858456626718,98.07703205531395
6.785357824,1.0000926300934911,97.63821129770646
6.792013312,1.000094630039606,97.19933927690097
6.7986688,1.0000919224310174,96.76049495193966
6.805324288,1.0000844095085601,96.32172254884674
6.811980288,1.0000726630757795,95.88312122135187
6.818635776,1.0000572694313636,95.44472685715354
6.825291264,1.0000390100398557,95.00656333289992
6.831946752,1.0000189839106741,94.568681841621
6.83860224,0.9999982421365243,94.13112280851244
6.845257728,0.9999778268988118,93.69383741641413
6.851913728,0.9999590527378067,93.25685023298261
6.858569216,0.9999427277040925,92.82010411284135
6.865224704,0.9999299006093725,92.38359055927927
6.871880192,0.9999211729079521,91.94724939793771
6.87853568,0.9999170466084909,91.51099989291498
6.885191168,0.9999177234258838,91.07481257373159
6.891847168,0.9999232263741935,90.6385876571766
6.898502656,0.9999332764106281,90.2022941591553
6.905158144,0.9999472535736735,89.76587418120776
6.911813632,0.9999645141355329,89.3292357126103
6.91846912,0.9999838911816871,88.89238551234772
6.925124608,1.000004531063192,88.4552841159984
6.931780608,1.0000252722188556,88.01793728944189
6.938436096,1.000045070756154,87.58034304462987
6.945091584,1.0000625156128835,87.14250551317006
6.951747072,1.0000770375495396,86.70447405697472
6.95840256,1.000087740943195,86.26629454834712
6.965058048,1.0000938941843547,85.828047534136
6.971714048,1.0000952870125006,85.38974781847162
6.978369536,1.0000918150951932,84.95148796666655
6.985025024,1.0000836103428055,84.51332976786622
6.991680512,1.000071323180836,84.07532568467163
6.998336,1.0000554144332103,83.63754810929589
7.004991488,1.0000367438034585,83.20000195239474
7.011647488,1.0000164020268414,82.76274880299228
7.018302976,0.9999955347495032,82.32578747612295
7.024958464,0.9999751052181228,81.88914244065104
7.031613952,0.9999564718943676,81.45277485391648
7.03826944,0.9999405309855721,81.01666907747784
7.044924928,0.9999280782632209,80.58076425042115
7.051580928,0.9999199037011092,80.14503270016036
7.058236416,0.9999163963210879,79.70938748958683
7.064891904,0.9999177952517806,79.27380114915486
7.071547392,0.9999239709088343,78.83814573885864
7.07820288,0.9999346486550674,78.40243707793582
7.084858368,0.9999492947318114,77.96656085252094
7.091514368,0.9999668865701994,77.53049631233928
7.098169856,0.9999866734578918,77.09418577729988
7.104825344,1.0000075725658806,76.65764251778272
7.111480832,1.0000283547797215,76.22083810130921
7.11813632,1.0000479714975496,75.78377337186954
7.124791808,1.0000652245709631,75.34649270790868
7.131447808,1.0000793619495894,74.90901641894811
7.138103296,1.000089516952842,74.47138397422891
7.144758784,1.0000950551073327,74.03368097417793
7.151414272,1.0000958299699017,73.59594751967589
7.15806976,1.0000916671625073,73.15825907100752
7.164725248,1.000082837735024,72.72069235432957
7.171381248,1.0000698411053524,72.2832865829805
7.178036736,1.000053379110508,71.84610773815031
7.184692224,1.0000343325733505,71.40917506095101
7.191347712,1.0000137034081804,70.97253919268029
7.1980032,0.9999926676249868,70.53619881502651
7.204658688,0.9999723520393858,70.1001519978283
7.211314688,0.9999538705662648,69.66440047894906
7.217970176,0.9999382945778461,69.22889606288176
7.224625664,0.9999263076968665,68.79358705715106
7.231281152,0.9999186309158286,68.35844904510616
7.23793664,0.9999158469109086,67.92338912362092
7.244592128,0.9999178996110691,67.48836572250315
7.251248128,0.9999247725972102,67.05328203760568
7.257903616,0.9999361117903616,66.61810980415743
7.264559104,0.9999512301526648,66.18278896568006
7.271214592,0.9999693919949192,65.74725996034147
7.27787008,0.9999895589692116,65.3114869783295
7.284525568,1.0000106277756382,64.87545842366639
7.291181568,1.0000314520748745,64.43918212273708
7.297837056,1.0000509255167525,64.00262712536717
7.304492544,1.000067999663331,63.565878049486315
7.311148032,1.0000816660522576,63.128924430543165
7.31780352,1.0000912866029943,62.69183213135735
7.324459008,1.0000962864605158,62.25467662231348
7.331115008,1.0000963170436443,61.81749607570628
7.337770496,1.0000915038695162,61.380361138974834
7.344425984,1.000082010737644,60.94334133327202
7.351081472,1.0000684105304603,60.506509326983455
7.35773696,1.000051404548811,60.06990116021304
7.364392448,1.0000319386380063,59.63354141062572
7.371048448,1.0000110103409314,59.197516406698384
7.377703936,0.9999898723797243,58.76174716941528
7.384359424,0.9999695824094291,58.32628923543076
7.391014912,0.9999513067789029,57.89111645741876
7.3976704,0.9999359670619521,57.45618332607195
7.404325888,0.9999245264832067,57.021463069500655
7.410981888,0.9999174922364567,56.58687206934054
7.417637376,0.9999152460085606,56.15237879070829
7.424292864,0.9999180611588415,55.71790212590597
7.430948352,0.9999256227193315,55.2833655741539
7.43760384,0.9999376293222856,54.84871196444437
7.444259328,0.9999533644552734,54.41390739008263
7.450915328,0.9999719788643381,53.97889356481012
7.457570816,0.9999924501743765,53.54361486538305
7.464226304,1.0000137352523786,53.10808007715439
7.470881792,1.000034630383779,52.672285073611775
7.47753728,1.0000540101914803,52.23624000146136
7.484192768,1.0000707606049595,51.7999625363144
7.490848768,1.0000840526767953,51.36351256843867
7.497504256,1.0000931571090341,50.926906365568065
7.504159744,1.0000974169588615,50.49026026047449
7.510815232,1.0000968455029802,50.053591091584146
7.51747072,1.0000912463135083,49.616986856426934
7.524126208,1.0000810580528363,49.18051052382795
7.530782208,1.0000667931338847,48.7442133249959
7.537437696,1.0000493128460988,48.30814858449486
7.544093184,1.0000293799712658,47.8723447829126
7.550748672,1.0000082133930746,47.43684757138901
7.55740416,0.9999869769994523,47.00166137370301
7.564059648,0.999966723502504,46.56674942542084
7.570715648,0.9999486672528237,46.132132290740444
7.577371136,0.9999336936317454,45.69773876328612
7.584026624,0.9999227269728709,45.263547576276174
7.590682112,0.9999163231027595,44.829502851711005
7.5973376,0.999914731831403,44.395530223224554
7.6039936,0.9999182435935131,43.96154615425514
7.610649088,0.9999265430825248,43.52750292840871
7.617304576,0.9999391702363869,43.0933519628794
7.623960064,0.9999555043784925,42.65900717636367
7.630615552,0.9999745706833852,42.22445281479634
7.63727104,0.9999955038574819,41.78965234801983
7.64392704,1.0000169403097239,41.35457547202462
7.650582528,1.000037803378018,40.91920749113614
7.657238016,1.0000571151966053,40.48361693958204
7.663893504,1.0000735712440703,40.047808509918426
7.670548992,1.0000864087196148,39.61181174835748
7.67720448,1.0000948569240404,39.17567184113564
7.68386048,1.000098592894927,38.73949384004105
7.690515968,1.0000971957312998,38.3032968207307
7.697171456,1.0000909715677508,37.86718716173708
7.703826944,1.0000800444692464,37.43119532860572
7.710482432,1.000065198093931,36.99538677731718
7.71713792,1.0000470928991774,36.55982765925821
7.72379392,1.0000267775399243,36.12453784446183
7.730449408,1.0000053203656956,35.68954189041471
7.737104896,0.9999839873802839,35.25486597094128
7.743760384,0.9999637951133741,34.82048955902439
7.750415872,0.999945878935475,34.386373084951764
7.75707136,0.9999313598561685,33.95248853302828
7.76372736,0.9999208760965335,33.518791836878655
7.770382848,0.9999150544579317,33.085237253600496
7.777038336,0.9999142481783617,32.65172209177877
7.783693824,0.9999184692968031,32.21821102714431
7.790349312,0.9999274594133322,31.784622731435533
7.7970048,0.99994078919424,31.35089485266289
7.8036608,0.9999577024524752,30.91699647573255
7.810316288,0.9999772369172328,30.482867110699804
7.816971776,0.9999984928208552,30.048475038801502
7.823627264,1.0000202146082646,29.613804857293946
7.830282752,1.0000410520371599,29.17886361333186
7.83693824,1.0000601346441396,28.743685407722076
7.84359424,1.0000763220789017,28.308261899235855
7.850249728,1.0000887110579626,27.87267401453173
7.856905216,1.0000965938250792,27.436961077525975
7.863560704,1.0000995889968187,27.00120066033669
7.870216192,1.0000975623649275,26.565442121778958
7.87687168,1.000090493878385,26.129743786482734
7.88352768,1.000078889129995,25.694207191439368
7.890183168,1.0000633934248084,25.25887086972568
7.896838656,1.0000447760822637,24.823744235748602
7.903494144,1.0000240443057469,24.388927296682056
7.910149632,1.0000023175820985,23.954409190717726
7.91680512,0.9999808121889848,23.520193636010134
7.92346112,0.9999607081472707,23.086265037010552
7.930116608,0.999943123946286,22.652609688297133
7.936772096,0.9999289795830477,22.21918746447431
7.943427584,0.9999190035231297,21.78594819013684
7.950083072,0.9999138534157451,21.35281032480322
7.95673856,0.9999137514660985,20.91973687981848
7.96339456,0.9999187714873431,20.48663651123277
7.970050048,0.9999284695702689,20.05345892628103
7.976705536,0.9999424051943362,19.62011905926877
7.983361024,0.9999599904136616,19.18660357874563
7.990016512,0.9999800613104317,18.752831846965474
7.996672,1.0000016329753307,18.318810274065566
8.003328,1.0000233817749442,17.884506567099063
8.009983488,1.000044369073767,17.449908016757632
8.016638976,1.0000631933968998,17.015076214054943
8.023294464,1.000079053102287,16.58001302794701
8.029949952,1.000090900599189,16.144793940044824
8.03660544,1.000098244762049,15.709450902600011
8.04326144,1.0001006149069334,15.274049686003687
8.049916928,1.000097704013454,14.83865916101828
8.056572416,1.0000899431056849,14.403370535830998
8.063227904,1.0000776241695126,13.968213641027416
8.069883392,1.0000614907381848,13.533272923489498
8.07653888,1.0000422223181704,13.098570369640857
8.08319488,1.0000211074031247,12.664164050459462
8.089850368,0.9999992224930058,12.230067631998832
8.096505856,0.9999775911523622,11.796251896259598
8.103161344,0.9999576090421989,11.362740225449079
8.109816832,0.9999402933366061,10.92948687476122
8.11647232,0.9999265404534253,10.496478997976244
8.12312832,0.9999171798710753,10.063623728039547
8.129783808,0.9999126961587803,9.630881162725364
8.136439296,0.9999133308558743,9.198183584988346
8.143094784,0.9999190965706838,8.7654332334855
8.149750272,0.9999294778145529,8.332589025074222
8.15640576,0.9999442581480283,7.899599859861501
8.16306176,0.999962374536965,7.4664009825677
8.169717248,0.9999829686769576,7.032949920142197
8.176372736,1.0000048233827437,6.599222781591139
8.183028224,1.000026834372651,6.165216032109243
8.189683712,1.0000477186929158,5.730925144926886
8.1963392,1.0000664187879416,5.296408938382905
8.2029952,1.0000818217112082,4.8616297022559465
8.209650688,1.0000932314707225,4.42671161655466
8.216306176,1.0000998060387214,3.9916661567959784
8.222961664,1.0001014478749053,3.5565938177382965
8.229617152,1.000097876557213,3.121526640559441
8.23627264,1.0000892639010248,2.6865651805488007
8.24292864,1.000076224913804,2.2517589597104646
8.249584128,1.0000593387519157,1.8171504972871984
8.256239616,1.0000397097663978,1.3828213581343705
8.262895104,1.0000181295759367,0.9487637666207128
8.269550592,0.99999587422374,0.5150207450072124
8.27620608,0.9999742508949025,0.08156982111710397
8.28286208,0.9999543942352598,-0.35159048914254004
8.289517568,0.9999373197630455,-0.7844697848348561
8.296173056,0.9999240718715615,-1.2171473571924372
8.302828544,0.9999152920082224,-1.6496509526996417
8.309484032,0.9999115053554122,-2.082086016562579
8.31613952,0.9999128781018691,-2.514485517850477
8.32279552,0.9999194492906761,-2.9469222913598245
8.329451008,0.9999306413301022,-3.379472256754322
8.336106496,0.9999460711277794,-3.8121922708321136
8.342761984,0.9999648299784439,-4.245127468600833
8.349417472,0.9999858433998561,-4.678318635444945
8.35607296,1.0000080246537169,-5.111788075352326
8.36272896,1.000030212702393,-5.545545945877369
8.369384448,1.000051099634163,-5.979588246257681
8.376039936,1.0000695868508327,-6.413900373895472
8.382695424,1.0000846354381332,-6.8484176656266085
8.389350912,1.000095412743736,-7.283106140447201
8.3960064,1.0001013801653043,-7.717889111836842
8.4026624,1.000102243669983,-8.15271051994524
8.409317888,1.0000979214327732,-8.587494163925001
8.415973376,1.000088535230238,-9.022188540535492
8.422628864,1.0000746399344222,-9.456714982883408
8.429284352,1.0000571473102915,-9.891027064385002
8.435940352,1.0000369075622773,-10.325066637700244
8.44259584,1.000014874635182,-10.758815942637934
8.449251328,0.9999925288778334,-11.192271104009917
8.455906816,0.9999708054667509,-11.625411014724136
8.462562304,0.999951056554257,-12.058246854858428
8.469217792,0.9999344164429688,-12.490856622672199
8.475873792,0.9999215770001717,-12.923241977929855
8.48252928,0.9999134087673255,-13.355476334349984
8.489184768,0.9999103817480032,-13.787629757491324
8.495840256,0.9999125454472054,-14.21976573076423
8.502495744,0.9999197996376831,-14.651961813637993
8.509151232,0.9999319871517313,-15.08428836719823
8.515807232,0.9999480683865039,-15.516792534009067
8.52246272,0.9999674488255011,-15.949520825501915
8.529118208,0.9999889259993004,-16.38251899771963
8.535773696,1.0000114444393713,-16.815811391018542
8.542429184,1.0000336332672086,-17.24938715323156
8.549084672,1.0000544671133984,-17.683256542989625
8.555740672,1.0000727292940699,-18.117386823782013
8.56239616,1.0000873411812958,-18.551710214015934
8.569051648,1.000097568496279,-18.98620390081118
8.575707136,1.0001029384578903,-19.420799173137112
8.582362624,1.0001029628565261,-19.855422240907846
8.589018112,1.0000977925601342,-20.290007588269976
8.595674112,1.000087597334812,-20.724479055235992
8.602329088,1.0000730053425593,-21.158787456018054
8.608985088,1.00005477008218,-21.59285872871927
8.615641088,1.0000340132962429,-22.026657623403707
8.622296064,1.0000116263660168,-22.460162852127542
8.628952064,0.9999890551015562,-22.89336735541573
8.63560704,0.999967291249729,-23.326253901072917
8.64226304,0.9999477278209316,-23.75886576804562
8.648918016,0.99993137137151,-24.19123358057142
8.655574016,0.9999191088218344,-24.623385872437915
8.662230016,0.9999116245820546,-25.055411884893214
8.668884992,0.9999093018743233,-25.48735797935401
8.675540992,0.9999122856469762,-25.919309357499266
8.682195968,0.999920419759796,-26.351318785398618
8.688851968,0.9999333238573728,-26.783479060424263
8.695507968,0.9999501319536247,-27.215816779874586
