freq,mag,phase
6.0,0.9999553606971738,-12.394325959437074
6.0246912,0.9999393566773135,-13.194509917168464
6.049382912,0.9999248286096768,-13.99462412986421
6.074074112,0.9999125295956085,-14.794717820711075
6.098765312,0.9999027353860844,-15.594737418375098
6.123457024,0.9998960513797113,-16.394806608556088
6.148148224,0.9998921874872105,-17.194923226013668
6.172839424,0.9998917567918162,-17.99510815901901
6.197530624,0.9998944645964076,-18.795399657016443
6.222222336,0.9999002842370979,-19.595838884235526
6.246913536,0.9999090767150972,-20.39645883966134
6.271604736,0.9999208154743239,-21.19727232186759
6.296296448,0.9999346776947484,-21.998301193407535
6.320987648,0.9999506455558619,-22.79960239798385
6.345678848,0.9999679420416229,-23.60116515160644
6.37037056,0.9999863017197574,-24.402985813894198
6.39506176,1.0000047910832899,-25.205097783277207
6.41975296,1.0000232867656262,-26.00753215574038
6.444444672,1.0000409403036457,-26.810171331711228
6.469135872,1.000057035545131,-27.613167947226525
6.493827072,1.0000715369734667,-28.41636442525147
6.518518272,1.0000837011563568,-29.21981009387827
6.543209984,1.0000931253773109,-30.023467074071522
6.567901184,1.0000996036534147,-30.827325559166383
6.592592384,1.0001028937602534,-31.63130000228598
6.617284096,1.000102962372394,-32.43542528879524
6.641975296,1.0000997881882627,-33.239588866301226
6.666666496,1.000093265074807,-34.043848996177644
6.691358208,1.0000838703612909,-34.848096042622636
6.716049408,1.0000715897626837,-35.65236755722372
6.740740608,1.0000570522364371,-36.456567570800104
6.76543232,1.0000407210930737,-37.26075394792106
6.79012352,1.000022945225192,-38.064823996064554
6.81481472,1.0000042498409791,-38.86884351049821
6.83950592,0.9999852038366791,-39.67276018183496
6.864197632,0.9999667146432744,-40.47660661471022
6.888888832,0.9999488726747704,-41.28034405841118
6.913580032,0.9999325140260612,-42.0840059754573
6.938271744,0.9999182072116451,-42.887636997628775
6.962962944,0.9999062544361442,-43.69122395687729
6.987654144,0.9998970682770818,-44.49481077720775
7.012345856,0.9998909795499437,-45.29839176362879
7.037037056,0.9998881401987844,-46.10205215459254
7.061728256,0.9998885779201103,-46.90579729960656
7.086419968,0.9998924350595477,-47.70965397341825
7.111111168,0.9998994298333755,-48.51365493857476
7.135802368,0.9999095746334816,-49.317866662333635
7.16049408,0.9999224476761702,-50.1223023887177
7.18518528,0.9999374895003131,-50.92693643626683
7.20987648,0.9999546449607958,-51.73187518887707
7.23456768,0.9999730971236774,-52.53706854247736
7.259259392,0.9999922119849167,-53.342557529750714
7.283950592,1.0000115629896467,-54.14835189853324
7.308641792,1.0000304709779275,-54.95444583305953
7.333333504,1.000048416055777,-55.760806896862874
7.358024704,1.0000647613360882,-56.56745214630775
7.382715904,1.0000790738547753,-57.37433642481862
7.407407616,1.0000909910735292,-58.18148624144877
7.432098816,1.000099993638529,-58.98881718073344
7.456790016,1.0001057263924018,-59.79634745135224
7.481481728,1.0001080932746964,-60.603984354401334
7.506172928,1.0001071025517638,-61.411767748696654
7.530864128,1.0001026952443115,-62.219619959783444
7.555555328,1.0000950885533268,-63.02749448319815
7.58024704,1.000084214073828,-63.835374901323185
7.60493824,1.0000707929795112,-64.6432700559975
7.62962944,1.00005505090036,-65.45108812493362
7.654321152,1.000037430908741,-66.25881824350716
7.679012352,1.0000184886170813,-67.06651328494358
7.703703552,0.9999988257708112,-67.87408316767709
7.728395264,0.9999790861524666,-68.68155156550182
7.753086464,0.9999598263400641,-69.4889311774785
7.777777664,0.9999418804635724,-70.29622457615228
7.802469376,0.9999254033198783,-71.10344424896074
7.827160576,0.9999111542835184,-71.91059056890316
7.851851776,0.9998995009851004,-72.71772664553419
7.876542976,0.9998908100085546,-73.52482307571677
7.901234688,0.9998854032522024,-74.33199686830048
7.925925888,0.9998834978036378,-75.13920390881516
7.950617088,0.9998850941373784,-75.94647326813428
7.9753088,0.9998901825637934,-76.75392440318099
8.0,0.9998985147041012,-77.56152243098033
8.0246912,0.9999099514616226,-78.36931935575008
8.049382912,0.9999241772900457,-79.17735269866336
8.074074112,0.9999406139942532,-79.98562913204047
8.098765312,0.9999589356575075,-80.79418610422887
8.123457024,0.9999785037645769,-81.60299680956564
8.148148224,0.9999986186507769,-82.41213943987312
8.172839424,1.0000188999623827,-83.22158879602715
8.197530624,1.000038385782188,-84.0313097082945
8.222222336,1.000056821089957,-84.84134491191753
8.246913536,1.0000734394569861,-85.6516295245557
8.271604736,1.000087642560918,-86.46218086445211
8.296296448,1.0000992456678288,-87.27299390515435
8.320987648,1.000107726503866,-88.08394832955861
8.345678848,1.000112693148243,-88.89512085169827
8.37037056,1.0001142222826354,-89.70637566018424
8.39506176,1.0001121216999715,-90.51776015050162
8.41975296,1.000106392070311,-91.3292032828875
8.444444672,1.0000973547676069,-92.14066174240264
8.469135872,1.000085191153856,-92.95209930773757
8.493827072,1.0000703478173498,-93.76351988585176
8.518518272,1.0000532033954859,-94.5748633612789
8.543209984,1.0000342228186843,-95.38611073114986
8.567901184,1.0000140785126366,-96.1972887282097
8.592592896,0.9999933904753583,-97.00832101486738
8.617283584,0.9999728416066457,-97.8192295124466
8.641975296,0.9999529546635129,-98.63007172363106
8.666667008,0.9999342991564139,-99.44078879979612
8.691357696,0.9999176025197204,-100.2514202097933
8.716049408,0.9999033881556962,-101.06199653805398
8.74074112,0.9998919844734379,-101.87254537595446
8.765431808,0.9998838730683426,-102.68305698839592
8.79012352,0.9998792246923629,-103.49363262449741
8.814815232,0.999878325015295,-104.30424619235255
8.83950592,0.9998809389384062,-105.11496990622906
8.864197632,0.9998873916662402,-105.92580786003393
8.888889344,0.9998971125785021,-106.73684771649489
8.913580032,0.9999101218248626,-107.5480843007313
8.938271744,0.9999257286678757,-108.35953800984355
8.962963456,0.9999436868298359,-109.17126599917648
8.987654144,0.9999633980086415,-109.98327794376674
9.012345856,0.9999842047653352,-110.79558106845623
9.037036544,1.0000054959295448,-111.60819625873224
9.061728256,1.0000266320348754,-112.42109163572282
9.086419968,1.0000469818287416,-113.23431768333494
9.111110656,1.0000658969905798,-114.0478233174985
9.135802368,1.0000827259296334,-114.86159536082418
9.16049408,1.0000969640855395,-115.67561572785173
9.185184768,1.0001082193297914,-116.48987298517865
9.20987648,1.000116112942667,-117.30430539003717
9.234568192,1.0001203013162507,-118.11886788786994
9.25925888,1.0001208115746467,-118.93359982676024
9.283950592,1.000117538774498,-119.74835602376432
9.308642304,1.0001105387491822,-120.56318039626257
9.333332992,1.0000999875305931,-121.37799050833749
9.358024704,1.0000862747370607,-122.19275378142714
9.382716416,1.000069816963519,-123.0074895396638
9.407407104,1.0000511164963497,-123.8221087079619
9.432098816,1.0000306237845114,-124.63662948988986
9.456790528,1.0000090350625763,-125.4510197242575
9.481481216,0.9999871669351396,-126.26528329783743
9.506172928,0.9999654982455409,-127.07940431836377
9.53086464,0.9999447542409,-127.89342094719518
9.555555328,0.9999255536337587,-128.70729044836543
9.58024704,0.9999085535122236,-129.52107299856428
9.604938752,0.9998943594305576,-130.3347583052541
9.62962944,0.9998831572310218,-131.14843428855988
9.654321152,0.9998756130423003,-131.96208789815088
9.67901184,0.9998718079233626,-132.7757462784411
9.703703552,0.9998718770910408,-133.58948473490207
9.728395264,0.9998758361975228,-134.40332010374763
9.753085952,0.9998836409449267,-135.21729106288245
9.777777664,0.9998949552760944,-136.03143931354384
9.802469376,0.9999095220650239,-136.8457883924262
9.827160064,0.999926922434896,-137.66038751430648
9.851851776,0.9999465457950192,-138.47525438361984
9.876543488,0.9999678777716304,-139.29043277927852
9.901234176,0.9999902364597676,-140.10588456355265
9.925925888,1.0000129016213535,-140.9216420478125
9.9506176,1.0000351504989498,-141.73770135275575
9.975308288,1.000056366386382,-142.55408950358108
10.0,1.0000759353739592,-143.37074308885042
10.024691712,1.0000931256341339,-144.18767227199916
10.0493824,1.0001074804069165,-145.00482315454457
10.074074112,1.0001184697832377,-145.8222025105187
10.098765824,1.0001257834360977,-146.63974713740188
10.123456512,1.000129222013263,-147.4574073010791
10.148148224,1.0001285830312403,-148.27517763287057
10.172839936,1.0001239594772517,-149.09301380760667
10.197530624,1.0001153782976404,-149.91084856081054
10.222222336,1.0001031709941375,-150.7286418391886
10.246914048,1.0000877091495817,-151.54641088782446
10.271604736,1.0000694004467383,-152.36405420190016
10.296296448,1.0000488436055242,-153.1815821086856
10.32098816,1.0000266102215596,-153.99897080141173
10.345678848,1.0000033814380413,-154.81620497599602
10.37037056,0.999980029309901,-155.63330159546064
10.395061248,0.9999569850274104,-156.45020094046396
10.41975296,0.999935198104174,-157.26696034167173
10.444444672,0.9999153038712905,-158.08357099523332
10.46913536,0.9998979026066608,-158.90008627624775
10.493827072,0.9998834626154008,-159.71648153824606
10.518518784,0.999872639700943,-160.5328334346179
10.543209472,0.9998656042077037,-161.3491557585584
10.567901184,0.9998625699377629,-162.1655167917587
10.592592896,0.9998638196819175,-162.98191869147206
10.617283584,0.9998691392127345,-163.798417334434
10.641975296,0.9998785359280707,-164.6150530822397
10.666667008,0.9998916629954215,-165.43189109501563
10.691357696,0.9999081111430128,-166.2489042864382
10.716049408,0.9999274850087355,-167.0662005358425
10.74074112,0.9999490942082689,-167.88375899826153
10.765431808,0.9999723248958474,-168.7016100708962
10.79012352,0.9999964390897799,-169.51976620605402
10.814815232,1.0000207122822993,-170.3382292346557
10.83950592,1.0000444047874064,-171.15699537754074
10.864197632,1.0000668378571909,-171.97606976551492
10.888889344,1.0000870993915703,-172.79541317846156
10.913580032,1.0001048317206742,-173.61503260531057
10.938271744,1.000119272407787,-174.43487110061434
10.962963456,1.0001300362034748,-175.2549159240074
10.987654144,1.000136884109536,-176.07508489026296
11.012345856,1.0001392354999354,-176.89539612123946
11.037036544,1.0001374432059245,-177.71577360783525
11.061728256,1.0001313128630906,-178.53615447284815
11.086419968,1.000121007151287,-179.35652748805205
11.111110656,1.0001068063745198,179.82316629227023
11.135802368,1.000089252672007,179.0029526014266
11.16049408,1.0000687507229895,178.18286810499404
11.185184768,1.000045992880942,177.362935149617
11.20987648,1.000021537410753,176.54318427241648
11.234568192,0.9999963583106968,175.72363797354987
11.25925888,0.9999710802635248,174.90427287771
11.283950592,0.9999465497772628,174.0850999840104
11.308642304,0.9999234008227073,173.26612312713857
11.333332992,0.9999026314161679,172.44730155160883
11.358024704,0.9998845415581327,171.6286352380682
11.382716416,0.9998698667248948,170.8100855708296
11.407407104,0.9998591621857842,169.99161597265513
11.432098816,0.9998526841076563,169.1731537467166
11.456790528,0.9998506810305389,168.35470680522843
11.481481216,0.9998530741450214,167.53619891024908
11.506172928,0.9998601343845064,166.7176121456962
11.53086464,0.9998714037685801,165.89885309762573
11.555555328,0.9998866127667474,165.0799444955699
11.58024704,0.9999053765667131,164.26079343929098
11.604938752,0.9999270560643935,163.44138935138287
11.62962944,0.9999510950953198,162.62172205228424
11.654321152,0.9999766050240879,161.8017338724224
11.67901184,1.0000029168054412,160.98145631338917
11.703703552,1.0000292004232092,160.16084190648496
11.728395264,1.0000546228412046,159.33993836424582
11.753085952,1.0000784310730917,158.51870954912437
11.777777664,1.00009980359734,157.6972330708216
11.802469376,1.0001181789919393,156.875488674502
11.827160064,1.0001328869702608,156.05353205551242
11.851851776,1.000143472321115,155.23140957764159
11.876543488,1.000149532267459,154.40911672065087
11.901234176,1.000150973838645,153.58677556748086
11.925925888,1.0001476254522992,152.76438543882142
11.9506176,1.0001396470465007,151.94199134482432
11.975308288,1.000127159117534,151.11967547300938
12.0,1.0001106312642205,150.29745145552076
12.024691712,1.0000904646721465,149.4753620222915
12.0493824,1.0000672424846833,148.65343877163917
12.074074112,1.000041771780583,147.8317262247982
12.098765824,1.0000147431599007,147.0102300303906
12.123456512,0.9999869933537299,146.18899053912662
12.148148224,0.999959396980685,145.3679687495439
12.172839936,0.9999327565395884,144.54719313270618
12.197530624,0.9999079932129011,143.72662247903065
12.222222336,0.9998857972368712,142.90628166077823
12.246914048,0.9998668839175373,142.0861024499563
12.271604736,0.9998519316366412,141.26605121875795
12.296296448,0.9998412784472507,140.44609855538408
12.32098816,0.9998354157568243,139.62621067622726
12.345678848,0.9998344394435944,138.80630857163248
12.37037056,0.9998385409080139,137.98637148766178
12.395061248,0.9998475338793394,137.16634134525083
12.41975296,0.9998611271356556,136.34615713209402
12.444444672,0.9998789348230321,135.5257978534403
12.46913536,0.999900559501214,134.70520236242376
12.493827072,0.9999252384332337,133.88433892001845
12.518518784,0.9999522387860065,133.06318508570635
12.543209472,0.9999807601304974,132.2417275616327
12.567901184,1.000009937198241,131.41994742797485
12.592592896,1.0000387869620546,130.5978317319385
12.617283584,1.0000665576043895,129.77541366097
12.641975296,1.0000922789275692,128.95268611705396
12.666667008,1.0001151721266104,128.12967153191286
12.691357696,1.0001344818063997,127.30644114896063
12.716049408,1.0001495937253153,126.48299709475754
12.74074112,1.0001600955095857,125.65937083460813
12.765431808,1.0001655617932488,124.83563938840659
12.79012352,1.0001657864368492,124.0118523454858
12.814815232,1.0001606949860624,123.18806607228521
12.83950592,1.0001504646336883,122.36431141587718
12.864197632,1.000135394355051,121.54066469848684
12.888889344,1.0001158652610307,120.71715637128266
12.913580032,1.0000925200178306,119.89383847922271
12.938271744,1.0000659758140449,119.07075897482356
12.962963456,1.0000370009702602,118.24792939479745
12.987654144,1.0000066384980708,117.42536375607062
13.012345856,0.9999756449163465,116.60309198783246
13.037036544,0.9999450260756457,115.7811302265338
13.061728256,0.9999158985952662,114.95942209810755
13.086419968,0.9998889681210352,114.13800288740687
13.111110656,0.9998651190409346,113.31681489218376
13.135802368,0.9998450504789755,112.4958380322099
13.16049408,0.9998296431669844,111.67502814804423
13.185184768,0.9998192350466312,110.85432876596808
13.20987648,0.999814199427752,110.03369709534047
13.234568192,0.9998146885775198,109.21308536331527
13.25925888,0.9998208483114198,108.39243229951234
13.283950592,0.9998324644478184,107.57167515047459
13.308642304,0.9998490596688758,106.75076609487559
13.333332992,0.9998705132238781,105.92966238325937
13.358024704,0.9998958855570427,105.10831572295716
13.382716416,0.9999245717208088,104.28667768231473
13.407407104,0.9999556221733974,103.46472959588318
13.432098816,0.999988249547034,102.64244867241672
13.456790528,1.0000212757037754,101.81982316648937
13.481481216,1.0000537026112086,100.99686247885498
13.506172928,1.000084710974393,100.17356810884885
13.53086464,1.00011296686282,99.34994278536296
13.555555328,1.0001380029104994,98.52605676819674
13.58024704,1.0001587234235154,97.70191414824203
13.604938752,1.0001746346786267,96.87756808211972
13.62962944,1.0001851139623892,96.0530869940203
13.654321152,1.0001896638718688,95.22850131838861
13.67901184,1.0001882523303025,94.40388939671104
13.703703552,1.000180933748268,93.57930770437495
13.728395264,1.0001677765178623,92.75481477885029
13.753085952,1.0001491477840803,91.93045295075792
13.777777664,1.0001256402560785,91.10632605868747
13.802469376,1.0000977416586327,90.28241909736523
13.827160064,1.0000665455426534,89.45881476833407
13.851851776,1.0000329250816753,88.63552611429397
13.876543488,0.9999977426544608,87.81258464906008
13.901234176,0.9999622884066076,86.98999468091745
13.925925888,0.9999274603590372,86.16775174150845
13.9506176,0.9998944666849766,85.34586168699501
13.975308288,0.9998642966807288,84.5242936840378
14.0,0.9998379716628558,83.70299890289446
