freq,mag,phase
6.0,0.9999604230845,128.13549413610107
6.002287616,0.9998637858583965,127.96752692754414
6.004575232,0.9997750959884523,127.80086302233288
6.006862848,0.999700918880225,127.63548233408316
6.009150464,0.9996457324189371,127.47100478184879
6.011438592,0.9996130629057658,127.30720115669271
6.013726208,0.9996050412752283,127.14370138802578
6.016013824,0.999622133417626,126.98015199076119
6.01830144,0.9996634106819845,126.81619017563094
6.020589056,0.9997260609540669,126.65148501674578
6.022876672,0.9998062109088136,126.48577723510796
6.025164288,0.9998987221638359,126.3188522279502
6.027451904,0.9999977450440887,126.15051955084803
6.029740032,1.0000973286123647,125.98075963417207
6.032027648,1.0001909127156068,125.80964584157289
6.034315264,1.000272569047161,125.63727502728565
6.03660288,1.0003371729207435,125.46382357569641
6.038890496,1.0003807839583048,125.28962790042075
6.041178112,1.000400502418419,125.1149933430991
6.043465728,1.0003950708346976,124.94027965655455
6.045753344,1.000364917688139,124.7658295603174
6.04804096,1.0003118183910784,124.59198389654027
6.050329088,1.0002392122230834,124.41909120068236
6.052616704,1.000151795675903,124.24735981298707
6.05490432,1.0000547805848332,124.07697573774273
6.057191936,0.9999546739528508,123.90804036664487
6.059479552,0.9998574493078243,123.74057251692705
6.061767168,0.9997693298050825,123.57448710918277
6.064054784,0.9996961066266847,123.4095647299557
6.0663424,0.999642100321647,123.24555681184124
6.068630016,0.9996109555002601,123.0822161369146
6.070918144,0.9996046270985991,122.91917515243212
6.07320576,0.999623288860075,122.75602222434105
6.075493376,0.9996661865443595,122.59245185681704
6.077780992,0.9997300681337684,122.42815018863682
6.080068608,0.999811393176447,122.26281413101411
6.082356224,0.9999047525037329,122.09619978306806
6.08464384,1.0000043809996602,121.92820309968349
6.086931456,1.000103842171372,121.75880109593967
6.089219584,1.0001969875032595,121.58799255730493
6.0915072,1.0002777858038843,121.41593995753202
6.093794816,1.0003413662601481,121.24288773060944
6.096082432,1.00038360356223,121.06905320376002
6.098370048,1.0004016513522376,120.89482402407627
6.100657664,1.0003946808908866,120.7205142045591
6.10294528,1.0003629726112377,120.54650437059745
6.105232896,1.0003083969132285,120.37314301658978
6.107520512,1.0002345223813103,120.20071703064329
6.10980864,1.000146116854909,120.0294703020873
6.112096256,1.0000485471948601,119.85963278258957
6.114383872,0.9999481353466592,119.6912011357777
6.116671488,0.9998511477435016,119.52426069542913
6.118959104,0.9997637376928065,119.35866122161116
6.12124672,0.9996913920879482,119.19423388529493
6.123534336,0.9996387280066179,119.03072693138394
6.125821952,0.9996089028304531,118.8678476087691
6.128109568,0.9996041942455145,118.70523529709219
6.130397696,0.9996246977688706,118.54252917962201
6.132685312,0.9996688923215682,118.37937619913238
6.134972928,0.9997342522440584,118.21543030655127
6.137260544,0.9998167231631698,118.05043343566864
6.13954816,0.999910865037476,117.88415898364653
6.141835776,1.0000107484237823,117.71651648960983
6.144123392,1.000110313009364,117.54743919206064
6.146411008,1.0002029686278389,117.37696659830769
6.148699136,1.0002830815233354,117.20528567074061
6.150986752,1.0003454139827943,117.03253785991049
6.153274368,1.0003862408534692,116.859110715915
6.155561984,1.0004026701241873,116.68527284345981
6.1578496,1.0003940164274887,116.51136716272849
6.160137216,1.0003606733155568,116.33783099261095
6.162424832,1.0003046165255032,116.16491029163318
6.164712448,1.0002295570521667,115.99299250985473
6.167000064,1.000140251571925,115.82225645384244
6.169288192,1.0000420623722122,115.6529216432261
6.171575808,0.9999413850176071,115.48505527656224
6.173863424,0.9998447539141073,115.31861152896842
6.17615104,0.9997579121675383,115.15352338790086
6.178438656,0.9996865095039795,114.98959295562192
6.180726272,0.9996352204709539,114.82658138982639
6.183013888,0.9996070811432932,114.66417315405894
6.185301504,0.9996038387901094,114.5019998324092
6.18758912,0.9996259724814396,114.3397064227823
6.189877248,0.9996717699182195,114.17694969516347
6.192164864,0.9997386925177032,114.01338771743815
6.19445248,0.9998221447396559,113.8487477422739
6.196740096,0.9999171041420281,113.68281852353365
6.199027712,1.0000173697970718,113.51548128432664
6.201315328,1.000116863428339,113.34674651843562
6.203602944,1.0002090372780599,113.1766097815285
6.20589056,1.0002882818485088,113.00525814658864
6.208178688,1.0003494644326256,112.83289184499655
6.210466304,1.000388829087643,112.65983990275052
6.21275392,1.0004037920779811,112.48638616236099
6.215041536,1.0003934198043036,112.31292546299053
6.217329152,1.0003583716382294,112.13980733529613
6.219616768,1.0003009147140698,111.96739265716191
6.221904384,1.0002245564846097,111.79594767996673
6.224192,1.0001342087909715,111.62574851125734
6.226479616,1.0000355539666204,111.45688743085448
6.228767744,0.9999348064890761,111.28955108039841
6.23105536,0.9998383287834434,111.1236260934645
6.233342976,0.99975218347165,110.95905985114597
6.235630592,0.9996818678166376,110.79562992206303
6.237918208,0.9996318403219725,110.63311706240206
6.240205824,0.9996051988349686,110.47116716027652
6.24249344,0.9996037978698707,110.30942131193771
6.244781056,0.9996275744994365,110.1475581726235
6.247068672,0.9996750381962416,109.98517118245397
6.2493568,0.9997431234068204,109.82199247473302
6.251644416,0.9998277027595381,109.65771533623665
6.253932032,0.9999233781065983,109.4921318472101
6.256219648,1.0000240680506898,109.32512848779416
6.258507264,1.0001234245668094,109.1567164344303
6.26079488,1.000215183182932,108.98689545274821
6.263082496,1.0002935615206556,108.81590043477031
6.265370112,1.0003535472873233,108.64393006361577
6.26765824,1.0003914633187478,108.471221409706
6.269945856,1.000404753593417,108.2981681981497
6.272233472,1.0003925990125309,108.12514068332304
6.274521088,1.0003560364997828,107.9524851728852
6.276808704,1.0002969164548743,107.78053963701187
6.27909632,1.000219408875294,107.60957851889003
6.281383936,1.0001282482095393,107.43987887520686
6.283671552,1.0000289191396,107.27157095018694
6.285959168,0.9999281118447773,107.10472785696041
6.288247296,0.9998318456943505,106.93933880272306
6.290534912,0.9997464635951553,106.77526841683797
6.292822528,0.9996772530702753,106.61236834205879
6.295110144,0.9996285239648108,106.45032186977427
6.29739776,0.9996036133122235,106.28884302340775
6.299685376,0.9996037398566048,106.12753638269436
6.301972992,0.9996292109305305,105.96606973746434
6.304260608,0.9996782225970223,105.8041091812098
6.306548224,0.9997478798650823,105.64127271642681
6.308836352,0.9998335092788531,105.47733013975406
6.311123968,0.9999299553264522,105.31207966250084
6.313411584,1.0000308526188375,105.14541700587343
6.3156992,1.0001301718287676,104.9773402346707
6.317986816,1.000221397048461,104.80788425119482
6.320274432,1.000298805062908,104.63721390406751
6.322562048,1.0003575814629382,104.46556238037473
6.324849664,1.0003939376656728,104.29326255156165
6.327137792,1.0004055572737542,104.12061785200869
6.329425408,1.0003917342919735,103.9479905874027
6.331713024,1.0003534670218088,103.7757860749633
6.33400064,1.0002930127226937,103.60429341285459
6.336288256,1.000214087490273,103.43383000710041
6.338575872,1.0001219923928515,103.2646560209108
6.340863488,1.000022201631869,103.09685011358941
6.343151104,0.999921272321156,102.93053991819494
6.34543872,0.9998254251316687,102.76565499644445
6.347726848,0.9997406827862788,102.60210552658067
6.350014464,0.9996725765424813,102.43970448623978
6.35230208,0.9996254091272131,102.27814344039676
6.354589696,0.9996019177057925,102.11710521258475
6.356877312,0.9996038557446163,101.95625472896046
6.359164928,0.9996310468604495,101.79519468035761
6.361452544,0.9996816342281979,101.63361387371232
6.36374016,0.9997525697951795,101.47113793247871
6.366027776,0.9998393089497648,101.30754977206803
6.368315904,0.9999365863627134,101.14263638104698
6.37060352,1.0000378735943496,100.97631507673924
6.372891136,1.0001369237573026,100.80854117494488
6.375178752,1.0002276796749956,100.63939410255358
6.377466368,1.0003040617925096,100.46905934583918
6.379753984,1.0003615550876153,100.29776467973664
6.3820416,1.000396359057809,100.1258429379967
6.384329216,1.0004063384532274,99.95359803658968
6.386617344,1.0003908562609545,99.78140953985756
6.38890496,1.0003507438534218,99.60962855220892
6.391192576,1.0002887687545325,99.43863355324942
6.393480192,1.0002087496639576,99.26865096761212
6.395767808,1.0001156776019573,99.09997924566169
6.398055424,1.0000153473253979,98.9327078560185
6.40034304,0.9999143336122602,98.76689044717732
6.402630656,0.9998188313617292,98.60255899414416
6.404918272,0.9997349469349637,98.4394844024128
6.4072064,0.9996680169020814,98.27759415637132
6.409494016,0.9996221708935124,98.11649697487151
6.411781632,0.9996003790431377,97.95593822687464
6.414069248,0.9996040776850654,97.79548014502913
6.416356864,0.999632926732277,97.634840662981
6.41864448,0.999685208520819,97.47363635557792
6.420932096,0.9997575463640821,97.3115128122614
6.423219712,0.9998453702038824,97.14824921325969
6.425507328,0.9999432133415267,96.98368657850598
6.427795456,1.0000448694195758,96.81766557690804
6.430083072,1.0001438264467848,96.65020942881026
6.432370688,1.0002338779570323,96.48140147873796
6.434658304,1.000309430817959,96.3113978855569
6.43694592,1.0003655315584221,96.14045266824778
6.439233536,1.000398757969271,95.96889598305009
6.441521152,1.0004069769059565,95.79704454330977
6.443808768,1.000389827040641,95.62527300610768
6.446096896,1.0003480136901546,95.45396108105116
6.448384512,1.000284554146308,95.28341382390666
6.450672128,1.0002032025235867,95.11391514342343
6.452959744,1.0001091689163972,94.9457249391903
6.45524736,1.0000084215953025,94.77896590383033
6.457534976,0.9999073359341693,94.61368880693469
6.459822592,0.9998122016101517,94.44984802236544
6.462110208,0.9997291833228193,94.287298174794
6.464397824,0.9996634330511328,94.12587604103477
6.466685952,0.9996191290009409,93.96528009747938
6.468973568,0.9995989890851955,93.80513630679366
6.471261184,0.9996043770653459,93.64513058717172
6.4735488,0.9996350551737082,93.48490120014581
6.475836416,0.9996888878244614,93.32402808121411
6.478124032,0.9997626727215951,93.16225887412028
6.480411648,0.999851527592792,92.99933872659093
6.482699264,0.9999500331930465,92.83508708983517
6.48498688,1.0000519032665751,92.6693804941409
6.487275008,1.0001506192124336,92.5022201544627
6.489562624,1.0002400560949778,92.3337341307425
6.49185024,1.0003145481770794,92.16405623145033
6.494137856,1.0003693331826375,91.99347277193456
6.496425472,1.0004010354164212,91.82229297791183
6.498713088,1.0004075251215787,91.65082195001207
6.501000704,1.0003884459926045,91.47947319873236
6.50328832,1.0003450438071408,91.30856185058359
6.505576448,1.0002799617675333,91.1385009235722
6.507864064,1.0001974211096358,90.96948805839922
6.51015168,1.0001025755822883,90.80180514752858
6.512439296,1.0000013182991334,90.63554187376985
6.514726912,0.9999002400433263,90.47078868709552
6.517014528,0.999805599386854,90.30745249369248
6.519302144,0.9997233159810371,90.14540683698658
6.52158976,0.9996588001978912,89.98445566721126
6.523877376,0.9996159582867944,89.82430476820537
6.526165504,0.9995975670906768,89.66462505556022
6.52845312,0.9996048094648894,89.50502450856048
6.530740736,0.9996372074391469,89.34515960289428
6.533028352,0.9996926868368482,89.18466718418438
6.535315968,0.9997677967576181,89.02324480548795
6.537603584,0.9998578089448487,88.86066580852557
6.5398912,0.9999569738663331,88.69668821820868
6.542178816,1.0000590203183015,88.53127966515031
6.544466432,1.0001576015286897,88.36445354484813
6.54675456,1.0002462883920482,88.19625913306493
6.549042176,1.000319726154837,88.02692419930052
6.551329792,1.000373192674226,87.85663812629394
6.553617408,1.0004031793001165,87.68584066559622
6.555905024,1.0004079391530747,87.51472692458401
6.55819264,1.000387032995002,87.34381362816637
6.560480256,1.0003419807142868,87.17336415056265
6.562767872,1.000275365537793,87.00372435852792
6.565056,1.0001915723831507,86.83521766089044
6.567343616,1.0000958705719556,86.66799854906155
6.569631232,0.9999942333523555,86.50226396842493
6.571918848,0.9998931437697542,86.33799137721454
6.574206464,0.9997989157814632,86.17515912244608
6.57649408,0.9997175637010117,86.0136080690604
6.578781696,0.9996542304633477,85.85314211070528
6.581069312,0.9996129621185829,85.69343282009994
6.583356928,0.9995963351676143,85.53418379153744
6.585645056,0.9996053959134656,85.37499729095438
6.587932672,0.999639505383799,85.2154960868315
6.590220288,0.9996967114157513,85.05538961381265
6.592507904,0.9997732227309002,84.89429802087898
6.59479552,0.9998641926263565,84.73198458257063
6.597083136,0.9999640156250211,84.56833554107801
6.599370752,1.000066317114465,84.40320763659071
6.601658368,1.0001646131182127,84.23666925741587
6.603945984,1.0002526496838469,84.0687832203693
6.606234112,1.0003249584586094,83.89975920953596
6.608521728,1.0003769491091015,83.72982336711131
6.610809344,1.0004052078941335,83.55933866716214
6.61309696,1.000408234046837,83.388631522196
6.615384576,1.000385560743725,83.2181030724221
6.617672192,1.0003387710537353,83.04808223153655
6.619959808,1.0002706187750827,82.87890884782766
6.622247424,1.000185657734537,82.71084044731774
6.624535552,1.000089013580971,82.54412747294741
6.626823168,0.9999869669308374,82.37889416159861
6.629110784,0.9998859698179424,82.21511160806209
6.6313984,0.9997922427311986,82.05277916360373
6.633686016,0.999711792031309,81.89172077668742
6.635973632,0.9996498249142082,81.7316899172194
6.638261248,0.999610084973468,81.57244597369277
6.640548864,0.999595213120845,81.41361541511235
6.64283648,0.9996060929788086,81.25483438725749
6.645124608,0.9996420157861237,81.09570824565428
6.647412224,0.9997008090657772,80.93591870540152
6.64969984,0.9997787116153806,80.77513258800332
6.651987456,0.9998706922657847,80.61314288645232
6.654275072,0.999971203071809,80.44978602336128
6.656562688,1.0000736300712119,80.28493952133732
6.658850304,1.0001716713579283,80.11868129646005
6.66113792,1.0002589422716315,79.95108771558628
6.663426048,1.0003301775841713,79.78235167163686
6.665713664,1.0003805506500612,79.61275926026669
6.66800128,1.0004072864620146,79.44263383399651
6.670288896,1.0004083867896338,79.27227979103859
6.672576512,1.0003838134265954,79.10215625221136
6.674864128,1.0003352365183609,78.93254950531491
6.677151744,1.0002656816218751,78.76381193969785
6.67943936,1.0001794915128661,78.59621412692587
6.681726976,1.0000820731107896,78.4299889001648
6.684015104,0.9999796232817346,78.26520935781184
6.68630272,0.9998786385728111,78.10193393450022
6.688590336,0.9997854531982532,77.94008644659743
6.690877952,0.9997060599178211,77.77949598822235
6.693165568,0.999645305022332,77.61995345568164
6.695453184,0.9996072661632087,77.46113127800517
6.6977408,0.9995940858611443,77.30268467618552
6.700028416,0.9996068837272407,77.14428307150202
6.702316032,0.9996446478076316,76.98551930057371
6.70460416,0.9997050448754081,76.82605895977939
6.706891776,0.9997844011589915,76.66559546506905
6.709179392,0.9998774736848358,76.50390211769867
6.711467008,0.9999784584233523,76.34080552887573
6.713754624,1.000081021201451,76.17624634338621
6.71604224,1.0001786626480478,76.01024467543094
6.718329856,1.000265274583769,75.8429363367101
6.720617472,1.000335206785704,75.67449605483637
6.7229056,1.0003842457014562,75.50521857362212
6.725193216,1.0004092362756598,75.33542026987725
6.727480832,1.0004084629602303,75.16543628594022
6.729768448,1.0003820881350054,74.9956852155199
6.732056064,1.0003316789582877,74.82649226108259
6.73434368,1.0002606603950213,74.65819462024221
6.736631296,1.000173148087411,74.49106437762394
6.738918912,1.0000750374018845,74.32529262885862
6.741206528,0.9999722162100033,74.16100587832038
6.743494656,0.9998713448208187,73.99820030600391
6.745782272,0.9997787864517098,73.83682529617117
6.748069888,0.9997002594020215,73.67670763164924
6.750357504,0.999640990093693,73.51759926161533
6.75264512,0.9996045152028451,73.35919524450951
6.754932736,0.9995931763170448,73.20117106189065
6.757220352,0.9996078536140378,73.04310375522807
6.759507968,0.9996474321454795,72.88470229328908
6.761795584,0.9997094755025809,72.7255610118533
6.764083712,0.9997901827348613,72.56538829163435
6.766371328,0.9998842033847503,72.40397747695542
6.768658944,0.9999859027968089,72.24113231617865
6.77094656,1.0000884903750318,72.07683178376179
6.773234176,1.000185760281051,71.91108093180108
6.775521792,1.0002715358500833,71.7440500979585
6.777809408,1.0003403705699088,71.57589286204433
6.780097024,1.0003879293436295,71.40691779731421
6.782385152,1.0004109528984773,71.23743986656005
6.784672768,1.000408352020911,71.0678191940317
6.786960384,1.0003800979995807,70.89843582647273
6.789248,1.0003280975474356,70.72963966836595
6.791535616,1.0002554372418735,70.56178385506175
6.793823232,1.000166782920085,70.3951107402448
6.796110848,1.0000678980204627,70.22980437469413
6.798398464,0.9999647426511713,70.06597594822699
6.80068608,0.9998639776046266,69.90363764922496
6.802974208,0.9997719694331163,69.74272339684632
6.805261824,0.9996945607096847,69.58304852865184
6.80754944,0.999636711331755,69.42436843703139
6.809837056,0.9996018497717064,69.26638169418135
6.812124672,0.9995924301138155,69.10873341630304
6.814412288,0.9996089580914663,68.95105683434309
6.816699904,0.9996504011897142,68.79295888942599
6.81898752,0.9997141411464848,68.63411141283909
6.821275136,0.9997961439880487,68.47421368127239
6.823563264,0.9998912115366897,68.31307433589294
6.82585088,0.9999933113135553,68.15047687622186
6.828138496,1.0000961092145553,67.98643236155496
6.830426112,1.0001930392954623,67.82094406970101
6.832713728,1.0002779778461528,67.65415594191452
6.835001344,1.0003454658165793,67.48628135171627
6.83728896,1.0003913251761352,67.31758736493082
6.839576576,1.000412669777664,67.14841867596034
6.841864704,1.000408229144409,66.97913482400537
6.84415232,1.0003781288102254,66.81012310347138
6.846439936,1.0003242655892859,66.64174053754951
6.848727552,1.000250064135622,66.47428872431438
6.851015168,1.0001602937391778,66.30803256709308
6.853302784,1.0000606002908332,66.14318741693448
6.8555904,0.9999571709594391,65.97981362583627
6.857878016,0.999856583988258,65.81794114211036
6.860165632,0.9997652907041666,65.6574623482524
6.86245376,0.9996889422432357,65.49823722481506
6.864741376,0.9996324561543352,65.33998703536372
6.867028992,0.9995993490582763,65.18238050232773
6.869316608,0.9995918413841455,65.02508605368074
6.871604224,0.9996102889526641,64.86775178999376
6.87389184,0.9996535562447045,64.70999138333835
6.876179456,0.9997188919278939,64.5514228496714
6.878467072,0.999802247965738,64.39180298062813
6.880754688,0.9998983206322507,64.23089176374995
6.883042816,1.0000009808791634,64.06854117437182
6.885330432,1.0001037621930327,63.904720100372856
6.887618048,1.0002002137571135,63.73946950376409
6.889905664,1.0002842696213843,63.57293431103108
6.89219328,1.0003504750892578,63.40531171281833
6.894480896,1.0003948098264226,63.23688537933773
6.896768512,1.0004143717503335,63.068021978098905
6.899056128,1.0004079027185977,62.899080876024314
6.901344256,1.0003758668131977,62.73042944028697
6.903631872,1.00032023103525,62.562409305657916
6.905919488,1.0002446073847295,62.395374534771214
6.908207104,1.0001536766002845,62.22955033915419
6.91049472,1.0000531386894818,62.06513771061529
6.912782336,0.9999494406574538,61.90219920285126
6.915069952,0.9998491776092989,61.74077753187901
6.917357568,0.9997585340305872,61.580761570620176
6.919645184,0.9996832746428437,61.42194080500994
6.921933312,0.9996283317572395,61.26410027327954
6.924220928,0.9995969803088716,61.10688643816709
6.926508544,0.999591305164425,60.94997212568858
6.92879616,0.9996117021487942,60.792938090394706
6.931083776,0.9996568462250515,60.63544446538186
6.933371392,0.999723853158382,60.47716267500995
