freq,mag,phase
6.0,0.9999472790727608,-120.02768118949051
6.04166656,0.9999345415222606,-122.21445774664325
6.08333312,0.9999221491531559,-124.40085048030711
6.125000192,0.9999104327463298,-126.58684449555365
6.166666752,0.9998995854010655,-128.77234809042994
6.208333312,0.9998897124441952,-130.95725145148404
6.249999872,0.9998809105720965,-133.14162014253117
6.291666432,0.9998732662530166,-135.32533836511885
6.333333504,0.9998668988971574,-137.50834379043675
6.375000064,0.9998618348266177,-139.6906463991656
6.416666624,0.9998581054964729,-141.87213499363673
6.458333184,0.9998558272073482,-144.05276196315012
6.499999744,0.999854997336682,-146.23254067113157
6.541666816,0.9998555728990629,-148.4113965197328
6.583333376,0.9998576328819813,-150.58925641794912
6.624999936,0.9998610849995007,-152.76612719292493
6.666666496,0.9998659281517441,-154.94190670571723
6.708333568,0.9998720560643107,-157.11662008130506
6.750000128,0.9998796563631457,-159.29017655960132
6.791666688,0.9998884166164752,-161.46255102546988
6.833333248,0.9998982386121342,-163.63372403028004
6.874999808,0.9999091065090507,-165.80361081730942
6.91666688,0.9999210565044652,-167.97221966845908
6.95833344,0.9999337946546831,-170.1394547118201
7.0,0.9999472036506265,-172.305344366139
7.04166656,0.9999612143636545,-174.46981961171988
7.08333312,0.999975732199793,-176.63282159451938
7.125000192,0.9999904147526928,-178.7943545422025
7.166666752,1.0000054396461113,179.04565770481452
7.208333312,1.0000203140166237,176.8872249817044
7.249999872,1.000035122339184,174.73039991045079
7.291666432,1.0000496955685572,172.57519475693996
7.333333504,1.0000637140687272,170.42165858950483
7.375000064,1.000077270261443,168.26984429459836
7.416666624,1.000090153342937,166.1197678156272
7.458333184,1.0001020838994563,163.9714513349727
7.500000256,1.0001131394353469,161.82494880355245
7.541666816,1.000123036229859,159.68027288033238
7.583333376,1.000131866433549,157.5374841607799
7.624999936,1.0001393402521874,155.39657842960594
7.666666496,1.0001454808438812,153.2576391795481
7.708333568,1.000150300360761,151.12062312459062
7.750000128,1.0001535234288772,148.9856247171003
7.791666688,1.0001552855983982,146.85263315071867
7.833333248,1.0001555118828849,144.72169785768722
7.874999808,1.0001541589633425,142.59281968587283
7.91666688,1.0001512864043978,140.46603802481977
7.95833344,1.0001469729236017,138.341382609213
8.0,1.000141134169356,136.21883763915272
8.04166656,1.0001338122997379,134.0984897199707
8.08333312,1.0001252114841979,131.9802847463515
8.125000192,1.0001152523082593,129.8642924641854
8.166666752,1.0001042129377355,127.75047527888141
8.208333312,1.0000920516095901,125.63890784101973
8.249999872,1.0000789178858327,123.52956003320149
8.291666432,1.0000648247402186,121.42244400529918
8.333333504,1.000050180904972,119.31755012294425
8.375000064,1.000034906404917,117.21495671254566
8.416666624,1.0000192915706436,115.11458712616302
8.458333184,1.0000033893599936,113.01647063698186
8.499999744,0.9999874886823295,110.92059344196102
8.541666816,0.99997146346552,108.82698247562699
8.583333376,0.9999558079898034,106.73560277557733
8.625000448,0.9999405073938663,104.64645359739553
8.666667008,0.9999258230984044,102.55952365215933
8.708333568,0.9999118090875816,100.47482156811961
8.750000128,0.9998985287263473,98.39231544109516
8.791666688,0.9998864135819571,96.31198701829815
8.833333248,0.9998753787386181,94.23382520853283
8.874999808,0.9998655173631894,92.15779566787269
8.916666368,0.9998570075357761,90.08389932310865
8.958332928,0.9998498757056582,88.01210987696204
8.999999488,0.9998443299352588,85.94238113968592
9.041667072,0.9998403591938038,83.87471385580365
9.083333632,0.9998380325566099,81.80905635728953
9.125000192,0.9998374191353825,79.74540926538754
9.166666752,0.9998383940182618,77.68371113811052
9.208333312,0.9998410613452897,75.62397069302001
9.249999872,0.9998454910994871,73.5661126796346
9.291666432,0.9998513785236585,71.51014062501977
9.333332992,0.9998589191637594,69.45599484214488
9.374999552,0.9998680233234918,67.40366159177624
9.416667136,0.9998783873931166,65.35310652650791
9.458333696,0.9998902066268673,63.30427889341264
9.500000256,0.9999032058651411,61.257155585448785
9.541666816,0.9999172648531658,59.21170513924478
9.583333376,0.9999322500392078,57.167891124238096
9.624999936,0.9999479561164053,55.12566963523533
9.666666496,0.9999643797310745,53.08502969171189
9.708333056,0.9999812756393556,51.04591382338395
9.749999616,0.9999984541889412,49.00830305379965
9.791666176,1.0000157562205265,46.97215930792209
9.83333376,1.0000329896377296,44.93745536969447
9.87500032,1.0000499535369243,42.90416049257813
9.91666688,1.0000665554258683,40.872229131444236
9.95833344,1.0000824798840375,38.84162688729503
10.0,1.0000977194142953,36.81236232982812
10.04166656,1.0001120015698939,34.784360649903704
10.08333312,1.0001252609015268,32.757603065496525
10.12499968,1.0001372157257762,30.73208001566592
10.16666624,1.0001478714904226,28.707761762638228
10.208333824,1.0001571152967679,26.68456632652385
10.250000384,1.0001646460562756,24.662560992909427
10.291666944,1.0001706811977018,22.64161617664247
10.333333504,1.0001747468312363,20.621779085644015
10.375000064,1.0001771552331176,18.60297860252611
10.416666624,1.000177756311995,16.585194789374277
10.458333184,1.0001765350207263,14.568417049029657
10.499999744,1.000173389379867,12.552614116401108
10.541666304,1.0001685622020147,10.537736722067786
10.583332864,1.0001618046784235,8.523751394072987
10.625000448,1.0001533936310654,6.510657289002707
10.666667008,1.000143328729281,4.498419328320101
10.708333568,1.0001316488545544,2.4870031620337776
10.750000128,1.0001187267473197,0.476355640730593
10.791666688,1.0001043534084901,-1.5335450537587145
10.833333248,1.0000887977003474,-3.542704538579265
10.874999808,1.0000722389732444,-5.551189341921217
10.916666368,1.000054839774224,-7.559047612225486
10.958332928,1.0000368038425838,-9.566283018195275
11.000000512,1.0000182880442754,-11.572932728887261
11.041667072,0.9999994511592019,-13.579080485482185
11.083333632,0.9999805219958223,-15.584711038767791
11.125000192,0.9999617035052637,-17.58990286178602
11.166666752,0.9999431417796331,-19.594681885306038
11.208333312,0.9999250676481733,-21.599100612211338
11.249999872,0.9999077667575388,-23.603202813983003
11.291666432,0.9998912018372359,-25.60704169561441
11.333332992,0.9998758018226575,-27.61063096329396
11.374999552,0.9998616008317618,-29.61406409656007
11.416667136,0.9998487233260795,-31.61737449618501
11.458333696,0.9998374453113209,-33.62061584520444
11.500000256,0.9998277197325518,-35.623821095285884
11.541666816,0.9998197478570104,-37.62706173534408
11.583333376,0.9998136861531863,-39.63039315547633
11.624999936,0.9998095120021425,-41.6338527833043
11.666666496,0.9998073372767946,-43.63748191516133
11.708333056,0.9998072166378956,-45.641387225493375
11.749999616,0.9998090673724732,-47.64555326223739
11.791666176,0.9998129843379674,-49.650091366858156
11.83333376,0.9998188637832139,-51.6550303143797
11.87500032,0.9998266160738045,-53.660413064700265
11.91666688,0.9998363639092855,-55.66630453023982
11.95833344,0.9998479413389678,-57.67275456990693
12.0,0.9998610700326378,-59.67981035727816
12.04166656,0.9998757895269962,-61.6875251511209
12.08333312,0.9998919293819348,-63.69594523333837
12.12499968,0.9999093625000893,-65.7051320310497
12.16666624,0.9999278701230625,-67.71511097178158
12.208333824,0.9999472642375675,-69.72594100406063
12.250000384,0.9999674178179819,-71.73765646832196
12.291666944,0.9999879755281007,-73.75031609523663
12.333333504,1.0000087274569012,-75.76394641029248
12.375000064,1.0000297983307935,-77.77857071439347
12.416666624,1.0000505391022194,-79.79425867524883
12.458333184,1.0000710242647384,-81.81104415935054
12.499999744,1.0000908620849935,-83.82893641213745
12.541666304,1.0001098665115582,-85.84798443140683
12.583332864,1.0001279584699356,-87.86821610468414
12.625000448,1.0001447869539648,-89.88964803642
12.666667008,1.0001603037387838,-91.91233138927362
12.708333568,1.0001743021856044,-93.9362870610245
12.750000128,1.0001864770995197,-95.96153073510212
12.791666688,1.0001970112712824,-97.98807815407108
12.833333248,1.0002055088832027,-100.01597073424155
12.874999808,1.0002118615761522,-102.04521432604047
12.916666368,1.0002161474799434,-104.07582265908924
12.958332928,1.0002181668935977,-106.10784190543929
12.999999488,1.0002180550551267,-108.14126687251388
13.041667072,1.0002155694622639,-110.17612008418877
13.083333632,1.0002109621488917,-112.21242895880762
13.125000192,1.0002039658853425,-114.25017272256511
13.166666752,1.0001948892828536,-116.28940747498021
13.208333312,1.0001837082801053,-118.33012261944798
13.249999872,1.0001705765288822,-120.37234015112747
13.291666432,1.0001556102450213,-122.41606967031566
13.333332992,1.0001388101165287,-124.46133993582383
13.374999552,1.000120439856937,-126.50814232542207
13.416667136,1.0001004988616162,-128.55649570694248
13.458333696,1.0000795447480355,-130.6064538011003
13.500000256,1.000057521931716,-132.6579725090044
13.541666816,1.0000346128835609,-134.71108807277398
13.583333376,1.0000112594894932,-136.76583358128448
13.624999936,0.9999874702074909,-138.82220454888798
13.666666496,0.9999634922196102,-140.88022868664322
13.708333056,0.9999396818910228,-142.93990801339066
13.749999616,0.999916316163116,-145.00128197621473
13.791666176,0.99989354707523,-147.06435009661377
13.83333376,0.9998715502679393,-149.12913612026261
13.87500032,0.9998507094581401,-151.19565710289476
13.91666688,0.9998310183840717,-153.26392118412224
13.95833344,0.99981297405079,-155.33397562740072
14.0,0.9997966789976169,-157.4058225750109
