freq,mag,phase
6.0,0.9992054830559183,7.6381908619782735
6.011428352,0.9993539102460808,7.302650915996389
6.022857216,0.9995345056483648,6.964887140202776
6.034285568,0.9997381496573945,6.624606044560001
6.045714432,0.9999552405755876,6.281524673769575
6.057142784,1.0001745754434312,5.9355816283543925
6.068571648,1.0003856859535345,5.586687503058761
6.08,1.0005780502788353,5.235198737921352
6.091428352,1.000742178025536,4.88132371713927
6.102857216,1.0008699666629426,4.52545924176412
6.114285568,1.0009552793777738,4.168121556618819
6.125714432,1.0009935389456976,3.80986750527209
6.137142784,1.0009830182664547,3.451358076391046
6.148571648,1.0009241517243037,3.093204273948618
6.16,1.000819650027516,2.735934579553864
6.171428352,1.0006746642471265,2.380162089450644
6.182857216,1.000496424091477,2.026362612828239
6.194285568,1.00029324503867,1.6748814355167403
6.205714432,1.000075516545587,1.3259804676605171
6.217142784,0.9998535822927995,0.979762732914677
6.228571648,0.999638745530727,0.6362845038840759
6.24,0.9994412526411707,0.29534704387620325
6.251428352,0.9992710832492174,-0.04338485312330825
6.262857216,0.999136633616836,-0.3802308043355691
6.274285568,0.9990443949736327,-0.7156932260759488
6.285714432,0.9989993884599605,-1.050407673866107
6.297142784,0.9990035526323757,-1.384977187132155
6.308571648,0.999056845991539,-1.7199489020469594
6.32,0.999156690237594,-2.0560198523047504
6.331428352,0.9992983755239252,-2.393752846349209
6.342857216,0.9994747459604691,-2.733641057706347
6.354285568,0.9996772174463215,-3.0760246694018414
6.365714432,0.9998959856763395,-3.4211969951315884
6.377142784,1.0001201195685345,-3.7693538908487025
6.388571648,1.0003385979755235,-4.120417169232929
6.4,1.0005408157240052,-4.474296814215552
6.411428352,1.000716763801207,-4.830655660365846
6.422857216,1.000857538579694,-5.189167288786765
6.434285568,1.0009563770809824,-5.549383584588192
6.445714432,1.001008256701025,-5.910583147153782
6.457142784,1.0010107006435225,-6.2722998395349405
6.468571648,1.0009634309286863,-6.633813774232726
6.48,1.0008686542726757,-6.994626396157205
6.491428352,1.0007310809995036,-7.353983140950378
6.502857216,1.0005571741214137,-7.711499112055685
6.514285568,1.0003557661244926,-8.066737839858595
6.525714432,1.0001364090183962,-8.419393294114474
6.537142784,0.9999101128421911,-8.769332973699196
6.548571648,0.9996877643631165,-9.11649174537235
6.56,0.9994805867196441,-9.461016466962967
6.571428352,0.9992985900299419,-9.803115035313683
6.582857216,0.9991508767722658,-10.14324266468222
6.594285568,0.9990448000118992,-10.48184032503229
6.605714432,0.998985648846275,-10.81948217891419
6.617142784,0.9989764559381196,-11.156785379137197
6.628571648,0.999017635198009,-11.49442529132738
6.64,0.9991073908071576,-11.832943181240339
6.651428352,0.9992411890896155,-12.173032753529009
6.662857216,0.9994126880386398,-12.515180324329537
6.674285568,0.9996132138613528,-12.859855034333577
6.685714432,0.9998332748210444,-13.207271595192687
6.697142784,1.0000618166276576,-13.55768443242416
6.708571648,1.000287629482648,-13.911129242865115
6.72,1.0004995735536053,-14.267460321900215
6.731428352,1.000687282040868,-14.626473861222589
6.742857216,1.0008415593647988,-14.987815384986993
6.754285568,1.0009545495851637,-15.350954346391552
6.765714432,1.0010208462404273,-15.715378323901819
6.777142784,1.001037003857918,-16.080465861852353
6.788571648,1.0010023060606432,-16.445523535126494
6.8,1.000918239262487,-16.809995481538856
6.811428352,1.0007887732715646,-17.17317306393703
6.822857216,1.0006205374474424,-17.534587774590328
6.834285568,1.0004211923224249,-17.893793066566843
6.845714432,1.0002010909766559,-18.250462493388465
6.857142784,0.9999706438176917,-18.604352484019124
6.868571648,0.9997411375787372,-18.95538845801801
6.88,0.9995241380539263,-19.30371560366521
6.891428352,0.9993301254553791,-19.649531544080336
6.902857216,0.9991688918917597,-19.99316640136428
6.914285568,0.9990482317393684,-20.335077212861986
6.925714432,0.9989743140176414,-20.67589794836446
6.937142784,0.9989508305421928,-21.01617750650971
6.948571648,0.9989790011456462,-21.356597562557685
6.96,0.9990575934287809,-21.697812233426372
6.971428352,0.999182654226395,-22.040434159623246
6.982857216,0.999348237455534,-22.38507140883498
6.994285568,0.9995461111000952,-22.73207869187145
7.005714432,0.999766755436265,-23.081905518235555
7.017142784,0.9999992112219063,-23.434779817997608
7.028571648,1.0002319950459968,-23.790718638498202
7.04,1.0004539285535308,-24.149675690255698
7.051428352,1.0006536169366207,-24.51148069048944
7.062857216,1.0008216156640706,-24.87573558699363
7.074285568,1.0009494706936857,-25.241975107534625
7.085714432,1.0010309733293425,-25.60973327054631
7.097142784,1.0010618279435493,-25.97834504615816
7.108571648,1.0010405752904743,-26.34713189561278
7.12,1.0009681713791185,-26.7154631380548
7.131428352,1.000848017576757,-27.08269137774176
7.142857216,1.0006860539425364,-27.44822520275511
7.154285568,1.0004900158795795,-27.811615161289282
7.165714432,1.0002695757976185,-28.17247690241743
7.177142784,1.0000353841666123,-28.530575189594018
7.188571648,0.9997991053478064,-28.885824016337356
7.2,0.9995723374517499,-29.238179699257696
7.211428352,0.9993661101215181,-29.587906180232245
7.222857216,0.9991908434225756,-29.935295563933582
7.234285568,0.9990550338245698,-30.28085063444144
7.245714432,0.998965668363874,-30.625035886808682
7.257142784,0.998926973741467,-30.968508012782685
7.268571648,0.9989411249609333,-31.31196738980333
7.28,0.9990073374233582,-31.65600971213493
7.291428352,0.999122742168397,-32.001383951405394
7.302857216,0.9992813958252375,-32.348585680435214
7.314285568,0.9994757318302684,-32.69820643296495
7.325714432,0.9996963530734148,-33.05057539283775
7.337142784,0.9999320713048137,-33.40598968451749
7.348571648,1.0001715728229204,-33.764591893173474
7.36,1.0004031375207116,-34.12627540478233
7.371428352,1.0006151650120905,-34.4909826094501
7.382857216,1.0007974132708237,-34.85831541328841
7.394285568,1.0009409250631536,-35.22783321922292
7.405714432,1.0010381904546777,-35.59907193021432
7.417142784,1.0010847338609699,-35.971330982740085
7.428571648,1.0010780981726242,-36.34399649063665
7.44,1.0010183855582335,-36.71639229181641
7.451428352,1.0009087376014498,-37.087842016351665
7.462857216,1.0007540728443212,-37.45773113157801
7.474285568,1.0005620548209793,-37.82558282685301
7.485714432,1.000342188761516,-38.19091468847219
7.497142784,1.0001050541718,-38.553475605755374
7.508571648,0.9998622335228794,-38.91310435258733
7.52,0.9996258851771622,-39.26978600057944
7.531428352,0.9994073607559834,-39.62369438886531
7.542857216,0.9992175602078863,-39.97514195230887
7.554285568,0.9990660990134868,-40.324477248420926
7.565714432,0.9989600921509649,-40.672288173827496
7.577142784,0.9989052727055229,-41.019216606630756
7.588571648,0.9989041785902646,-41.36590808764744
7.6,0.9989572351373184,-41.71303538100919
7.611428352,0.9990614810894833,-42.06128128427574
7.622857216,0.9992121451851367,-42.41128076535849
7.634285568,0.9994019119084245,-42.76361532272556
7.645714432,0.9996214812010195,-43.1186785524191
7.657142784,0.9998601298397243,-43.4767995636157
7.668571648,1.0001058808419565,-43.83814478361043
7.68,1.0003471339128547,-44.20274883525473
7.691428352,1.000571501566401,-44.57044644213807
7.702857216,1.000768429186938,-44.940992919588304
7.714285568,1.0009278234431656,-45.3139288321524
7.725714432,1.0010419879569965,-45.6887806199577
7.737142784,1.0011052532979967,-46.06487536819684
7.748571648,1.0011143549369168,-46.44160865562464
7.76,1.0010688333079285,-46.81826258903907
7.771428352,1.000970450770944,-47.194112081381896
7.782857216,1.0008246022428264,-47.56860956698393
7.794285568,1.0006377269982343,-47.94110532429318
7.805714432,1.0004192412727178,-48.311138281378156
7.817142784,1.0001798184048645,-48.678415367548645
7.828571648,0.9999309236955406,-49.04272691487158
7.84,0.999684919468052,-49.404015503044405
7.851428352,0.9994539754036653,-49.76234889749623
7.862857216,0.9992494746387661,-50.118062606251584
7.874285568,0.9990814841691382,-50.47150819068437
7.885714432,0.9989582636291826,-50.82322649971837
7.897142784,0.9988861059042851,-51.17378980141819
7.908571648,0.9988686451705431,-51.52393891561756
7.92,0.9989069654428527,-51.87435390774795
7.931428352,0.9989990536708526,-52.2257133952876
7.942857216,0.9991404863354678,-52.57866540342936
7.954285568,0.9993244957394288,-52.933882205444995
7.965714432,0.9995422445280547,-53.291747419295746
7.977142784,0.9997828334712114,-53.65271070706524
7.988571648,1.0000344561083885,-54.01697107516208
8.0,1.0002849222157801,-54.384561177164
8.011428352,1.0005220448158512,-54.755410095749646
8.022857216,1.0007337688869162,-55.12926839556048
8.034285568,1.0009100828977744,-55.505763041131516
8.045714432,1.0010419524225422,-55.884355534212816
8.057142784,1.0011229340886143,-56.26445085809002
8.068571648,1.001149069316091,-56.645397928852574
8.08,1.0011187363874336,-57.02651281799503
8.091428352,1.0010334347750791,-57.407014096102586
8.102857216,1.0008974200958758,-57.78628734953682
8.114285568,1.0007169200450337,-58.16366318642117
8.125714432,1.0005008851363197,-58.538680311316796
8.137142784,1.000259852424253,-58.91092903659613
8.148571648,1.0000055108065984,-59.280167315454015
8.16,0.9997503614405038,-59.646308034928275
8.171428352,0.9995068677347524,-60.0093749359655
8.182857216,0.9992872765713557,-60.369666181406906
8.194285568,0.9991020064674891,-60.72745369141154
8.205714432,0.9989606513360559,-61.08331965168112
8.217142784,0.9988700992126546,-61.437823773255346
8.228571648,0.9988349081304885,-61.79164038108202
8.24,0.9988570872883124,-62.14549790808622
8.251428352,0.9989353871984896,-62.50016118194002
8.262857216,0.9990662812791403,-62.85628473433369
8.274285568,0.9992433423506293,-63.21451152507472
8.285714432,0.9994579948053083,-63.575383338306025
8.297142784,0.9996997079054543,-63.939300544337264
8.308571648,0.9999567216718335,-64.30658812142674
8.32,1.0002163644970996,-64.6772872641453
8.331428352,1.0004659017375486,-65.0513976759348
8.342857216,1.0006931452752528,-65.4286997962652
8.354285568,1.0008867087706517,-65.80882989395515
8.365714432,1.0010372380014618,-66.19134398585574
8.377142784,1.0011373329442266,-66.57557961316512
8.388571648,1.001181744890729,-66.96091212242938
8.4,1.0011682137987183,-67.3466106641155
8.411428352,1.0010975284377097,-67.7319490557272
8.422857216,1.0009728411635759,-68.11620543993527
8.434285568,1.0008001200757635,-68.49871297171624
8.445714432,1.0005877313657092,-68.87895906663277
8.457142784,1.0003459468666294,-69.25643821368372
8.468571648,1.0000867619373741,-69.63091363904627
8.48,0.999822693140295,-70.0021896861115
8.491428352,0.999566730083978,-70.37027640467683
8.502857216,0.9993314459851868,-70.7353997634101
8.514285568,0.9991285090495764,-71.09787357497981
8.525714432,0.9989679794085358,-71.45811232236824
8.537142784,0.9988577548763994,-71.8167740258982
8.548571648,0.9988035471172385,-72.17452438094074
8.56,0.9988079452153638,-72.53210971732794
8.571428352,0.9988710175685437,-72.89024709581805
8.582857216,0.9989896404126417,-73.24967091486494
8.594285568,0.9991584483461831,-73.6111009196665
8.605714432,0.9993687194420183,-73.97509643212827
8.617143296,0.9996105358659693,-74.34209713203988
8.628571136,0.9998720719372474,-74.71250943464084
8.64,1.0001403769597565,-75.08641883912856
8.651428864,1.000402549509601,-75.4638777527713
8.662856704,1.0006453688606967,-75.84474699260477
8.674285568,1.0008572111900123,-76.22863784057273
8.685714432,1.0010273912946894,-76.61517799489039
8.697143296,1.0011476999503215,-77.0037044855354
8.708571136,1.0012118528782414,-77.39357223641629
8.72,1.0012169280848398,-77.78407682203
8.731428864,1.0011621456682338,-78.17443663663164
8.742856704,1.001050496224056,-78.56388131403774
8.754285568,1.0008869269738727,-78.95178575607493
8.765714432,1.000679539909291,-79.33747627392027
8.777143296,1.0004383453020984,-79.72049575165455
8.788571136,1.000175078615396,-80.10046589635263
8.8,0.9999025650256778,-80.47715447176752
8.811428864,0.9996342288614526,-80.85055213925078
8.822856704,0.9993830929716804,-81.22080052826176
8.834285568,0.9991616114259015,-81.58820003292776
8.845714432,0.9989807968396213,-81.9531388599438
8.857143296,0.9988496632499188,-82.3162267675003
8.868571136,0.9987748581332083,-82.67814281141459
8.88,0.9987599785078647,-83.03964065539147
8.891428864,0.998805933455227,-83.40145458686872
8.902856704,0.9989107237454846,-83.76441513487163
8.914285568,0.9990692715206103,-84.12917918712998
8.925714432,0.9992738932914915,-84.49639766695321
8.937143296,0.9995146563471949,-84.86664549878654
8.948571136,0.9997798768029598,-85.24026161688475
8.96,1.0000564374344765,-85.6175074282219
8.971428864,1.000330971274091,-85.99844420162103
8.982856704,1.0005898579595447,-86.38293743736348
8.994285568,1.0008202672642692,-86.77068798544154
9.005714432,1.0010112134341582,-87.16133813637943
9.017143296,1.0011531139648528,-87.55428010960168
9.028571136,1.0012387704068717,-87.94883257994464
9.04,1.0012638336081485,-88.34427076197244
9.051428864,1.0012271841685016,-88.73982950566933
9.062856704,1.0011303041534039,-89.13471063894269
9.074285568,1.0009777123650792,-89.52822592875938
9.085714432,1.0007770375007738,-89.91961170782227
9.097143296,1.0005375867137856,-90.3084258725571
9.108571136,1.0002711851499355,-90.6941919015512
9.12,0.9999907486232655,-91.07662147867217
9.131428864,0.999710053964371,-91.45563268124539
9.142856704,0.9994428381882997,-91.83132342342161
9.154285568,0.999202446128639,-92.20390677813849
9.165714432,0.9990003970798068,-92.57384989423754
9.177143296,0.9988469602383718,-92.94162473885369
9.188571136,0.998749751933036,-93.30797382211358
9.2,0.9987136685661887,-93.67361298863241
9.211428864,0.9987407312089224,-94.0393157666854
9.222856704,0.9988296034543089,-94.40593511094778
9.234285568,0.9989762324685335,-94.7742013072079
9.245714432,0.999173507435856,-95.14481808362017
9.257143296,0.9994118367956308,-95.51839128122958
9.268571136,0.9996796010228086,-95.89534843604788
9.28,0.9999637349175247,-96.27598665944483
9.291428864,1.0002503407870964,-96.66043157956993
9.302856704,1.0005254077245256,-97.04863144127488
9.314285568,1.000775410111042,-97.44035289750245
9.325714432,1.0009880854292872,-97.83522754614798
9.337143296,1.001152882484157,-98.23265361122141
9.348571136,1.0012616131581125,-98.63202766164002
9.36,1.0013089239486326,-99.03258749258472
9.371428864,1.0012922067212593,-99.43353629543024
9.382856704,1.0012121696534733,-99.8340338665157
9.394285568,1.001072615967413,-100.23335830206597
9.405714432,1.0008800926903842,-100.63075082711892
9.417143296,1.000643934313244,-101.02558801730146
9.428571136,1.000375637720538,-101.41741465468652
9.44,1.0000881382740385,-101.80589452263386
9.451428864,0.999795501068616,-102.19081790147044
9.462856704,0.9995120626799648,-102.57226591888997
9.474285568,0.9992517832612758,-102.95035955519545
9.485714432,0.9990274736588106,-103.32555636091806
9.497143296,0.9988501959598945,-103.69833631152338
9.508571136,0.9987289251439233,-104.06936384217855
9.52,0.9986696238704302,-104.43937210171953
9.531428864,0.9986755571539885,-104.80920149811584
9.542856704,0.9987464477533585,-105.1796521086764
9.554285568,0.9988790379775861,-105.55158460467341
9.565714432,0.9990670465370982,-105.92571007656579
9.577143296,0.9993013449232387,-106.30270725516223
9.588571136,0.9995703086194504,-106.68307199692154
9.6,0.9998612819754386,-107.06718264524493
9.611428864,1.0001597574185792,-107.45523397321043
9.622856704,1.0004510788811445,-107.84721906171374
9.634285568,1.0007212005175494,-108.24295342963964
9.645714432,1.000956695188886,-108.64209566292135
9.657143296,1.001146022471982,-109.04413403634523
9.668571136,1.0012797731430974,-109.44842091313105
9.68,1.0013511883390824,-109.85421542367308
9.691428864,1.0013567251121098,-110.26069691532481
9.702856704,1.0012959123638283,-110.66705064468955
9.714285568,1.0011715410731894,-111.07240340142867
9.725714432,1.000989466187026,-111.47600656248062
9.737143296,1.0007583664019288,-111.8772015915292
9.748571136,1.0004894507174678,-112.2754000901536
9.76,1.000195767670878,-112.6701980609952
9.771428864,0.9998917051335087,-113.06136722912323
9.782856704,0.9995919284913904,-113.44886912784756
9.794285568,0.9993112959143375,-113.8328455102174
9.805714432,0.9990635405774103,-114.21360312617418
9.817143296,0.9988609729669057,-114.59165707961293
9.828571136,0.9987136129194135,-114.96760399676829
9.84,0.9986290245540507,-115.34226862625975
9.851428864,0.9986113672112075,-115.71639863013242
9.862856704,0.9986618373316717,-116.09091427832169
9.874285568,0.9987780574076003,-116.46663228170873
9.885714432,0.9989544967941324,-116.84439459534119
9.897143296,0.9991826956124282,-117.2249029236424
9.908571136,0.9994516524462002,-117.60876078755471
9.92,0.9997482280202846,-117.99639722746313
9.931428864,1.0000579621635295,-118.3880685721349
9.942856704,1.0003657450784684,-118.78386486833897
9.954285568,1.000656524798562,-119.1836764450269
9.965714432,1.0009159926904647,-119.58716635921449
9.977143296,1.0011313430414626,-119.99387356453984
9.988571136,1.0012920002002,-120.40318870395609
10.0,1.0013900407560985,-120.81433354642228
10.011428864,1.0014203083664617,-121.22650860954639
10.022856704,1.0013812386975693,-121.63885478964035
10.034285568,1.0012745140864279,-122.05048803493156
10.045714432,1.0011051064568066,-122.46055414412403
10.057143296,1.0008812041898614,-122.86833833580593
10.068571136,1.0006133546625426,-123.27319991198569
10.08,1.0003146849328621,-123.67465517875722
10.091428864,0.9999996905686698,-124.072406929141
10.102856704,0.9996836911873475,-124.46631045820507
10.114285568,0.9993820839539215,-124.8564522433213
10.125714432,0.9991098326995336,-125.24312700810603
10.137143296,0.9988803045135218,-125.62675365292509
10.148571136,0.9987049375597915,-126.00793398929967
10.16,0.9985924319333785,-126.38744889534281
10.171428864,0.9985486433682801,-126.76612754791518
10.182856704,0.9985758371523122,-127.1448563771491
10.194285568,0.9986729633791805,-127.52453625400241
10.205714432,0.9988354167896653,-127.90604777958632
10.217143296,0.9990554304544816,-128.29016573401657
10.228571136,0.9993223721498783,-128.67755784203024
10.24,0.999623388182802,-129.06875364246804
10.251428864,0.9999436811768747,-129.4640884645315
10.262856704,1.0002677521625383,-129.86373227647852
10.274285568,1.0005797053802432,-130.2676141999047
10.285714432,1.000864200112822,-130.67548252599258
10.297143296,1.001107376239837,-131.0869109937399
10.308571136,1.0012971769013057,-131.5013147871806
10.32,1.001424174392472,-131.9179353665858
10.331428864,1.0014819901275689,-132.3359448013938
10.342856704,1.0014675666444441,-132.754453874804
10.354285568,1.001381344643583,-133.17255763224938
10.365714432,1.0012273263669447,-133.58934635531463
10.377143296,1.0010128297132799,-134.004010195337
10.388571136,1.0007480463435428,-134.41586493750597
10.4,1.0004457958852697,-134.8242972706672
10.411428864,1.0001206261122608,-135.22895020750047
10.422856704,0.9997884537645063,-135.62959473347132
10.434285568,0.9994654825126502,-136.0262907513315
10.445714432,0.9991675406724847,-136.41918560693082
10.457143296,0.9989092249632573,-136.80869140406318
10.468571136,0.9987035047978867,-137.19541205592787
10.48,0.9985605570673827,-137.5800752805946
10.491428864,0.9984876405072468,-137.9635049355364
10.502856704,0.9984884988023551,-138.34664819588573
10.514285568,0.9985634036554364,-138.73044405373824
10.525714432,0.9987089810762004,-139.11579407986684
10.537143296,0.9989182132261336,-139.50358373898067
10.548571136,0.9991811155077402,-139.89457933732882
10.56,0.9994849124535174,-140.2893479739937
10.571428864,0.9998148731113252,-140.68834821916886
10.582856704,1.000154971557262,-141.09182361514073
10.594285568,1.0004885428467276,-141.49977709580497
10.605714432,1.0007993941490902,-141.91203044068246
10.617143296,1.0010721718757924,-142.32821587686797
10.628571136,1.001293411529916,-142.7477537475803
