freq,mag,phase
6.0,1.000319155801144,163.21152037982907
6.002287104,1.0002823365307918,163.05431040801724
6.004574208,1.0002277762926612,162.89781274412726
6.006861312,1.0001588697405595,162.742201789842
6.009147904,1.0000801313220975,162.5876946153369
6.011435008,0.9999965058500572,162.43440337729163
6.013722112,0.9999134936907403,162.28231768677736
6.016009216,0.9998359065968918,162.13146443696647
6.01829632,0.9997692962842183,161.98164305820617
6.020583424,0.9997172510971855,161.8327318651574
6.022870016,0.999683415808849,161.68448593598598
6.02515712,0.9996701710544368,161.536595967313
6.027444224,0.9996779640046545,161.38878230270885
6.029731328,0.9997065071290804,161.24070696590172
6.032018432,0.9997540849417521,161.09210192666842
6.034305536,0.9998175037145386,160.9427529100669
6.036592128,0.9998928832674684,160.79240762943996
6.038879232,0.99997544497368,160.64092466260337
6.041166336,1.0000598975733577,160.4882266785569
6.04345344,1.0001409452647092,160.33438862075704
6.045740544,1.0002134670482594,160.17946236524085
6.048027648,1.0002727101780846,160.02357700943614
6.05031424,1.0003151143468556,159.86698589307096
6.052601344,1.0003380170941245,159.70995090034657
6.054888448,1.0003394067783784,159.55274163875038
6.057175552,1.000320005090223,159.39570644333656
6.059462656,1.0002803993709044,159.23908861573943
6.06174976,1.0002234198098252,159.08320946325424
6.064036352,1.0001523921254987,158.9283093705087
6.066323456,1.0000719414218835,158.77453633157992
6.06861056,0.999987207428821,158.62195264468505
6.070897664,0.9999034736981949,158.47062000864577
6.073184768,0.9998261752623239,158.32048762144842
6.075471872,0.9997600387730431,158.17145464774714
6.077758464,0.9997093316193444,158.0232719703693
6.080045568,0.9996774775666535,157.87573672522453
6.082332672,0.9996662750121502,157.7285111450344
6.084619776,0.999676529251711,157.5813333307668
6.08690688,0.9997075128546972,157.43388387888206
6.089193984,0.9997575950806891,157.28587735444341
6.091481088,0.9998232430120312,157.1370469546614
6.09376768,0.9999004292027209,156.98718857819554
6.096054784,0.9999843285633568,156.83619046293217
6.098341888,1.0000697640670784,156.68400497455525
6.100628992,1.0001508824978091,156.53060332748996
6.102916096,1.0002229999201224,156.37613314032285
6.1052032,1.000281272523245,156.22073936298025
6.107489792,1.0003220588331436,156.0646491954524
6.109776896,1.000342719470786,155.908129140158
6.112064,1.0003420677562036,155.75147711849115
6.114351104,1.0003200433456698,155.59500603311352
6.116638208,1.0002779966743798,155.43905790977323
6.118925312,1.0002185877665883,155.2838372141907
6.121211904,1.0001455049872339,155.1296293635828
6.123499008,1.000063362797299,154.97653740339845
6.125786112,0.999977553549765,154.82472276932066
6.128073216,0.9998933599307914,154.67413652062962
6.13036032,0.9998161719936424,154.5247847793385
6.132647424,0.9997507642934886,154.37648191634875
6.134934016,0.9997015316729555,154.22903929141714
6.13722112,0.9996714781168734,154.08220448137908
6.139508224,0.9996624711832418,153.93566318371495
6.141795328,0.9996751717281381,153.78912552466718
6.144082432,0.9997088261141185,153.64228706253417
6.146369536,0.9997613501714241,153.4948568150456
6.148656128,0.9998292066557896,153.34655476830847
6.150943232,0.9999083688426793,153.19721337047048
6.153230336,0.9999937163772268,153.04671425002897
6.15551744,1.0000797720900636,152.89497856187367
6.157804544,1.000161068524563,152.7420814261158
6.160091648,1.0002326450478016,152.58804456744716
6.162378752,1.0002897781448625,152.4331479122093
6.164665344,1.0003290036110863,152.27753998672222
6.166952448,1.0003475024602229,152.121549637471
6.169239552,1.0003444291124788,151.96545184537885
6.171526656,1.000319737305785,151.8096033584571
6.17381376,1.0002751501377563,151.65426644478575
6.176100864,1.0002132015189646,151.4997138544779
6.178387456,1.0001382527373976,151.3462010701665
6.18067456,1.0000545544090946,151.1938441623316
6.182961664,0.9999676189033719,151.0427772415152
6.185248768,0.9998830069316212,150.89297599419206
6.187535872,0.99980599793861,150.74437894871687
6.189822976,0.9997415103816549,150.5968196343984
6.192109568,0.9996937231473046,150.45010152240215
6.194396672,0.9996656458123233,150.30399302031216
6.196683776,0.999658951540969,150.158134220941
6.19897088,0.9996742711231436,150.0122419581534
6.201257984,0.9997105737833626,149.86601202827165
6.203545088,0.9997654700569366,149.71914974801385
6.20583168,0.9998355335361319,149.57137789067139
6.208118784,0.9999166800951677,149.4225599493672
6.210405888,1.000003338482008,149.27254922782996
6.212692992,1.0000900603383311,149.12128651184153
6.214980096,1.0001715503157362,148.9688416281405
6.2172672,1.0002424303961965,148.81527461749232
6.219553792,1.000298453961836,148.66084979296738
6.221840896,1.000335818274689,148.50574987610082
6.224128,1.000352273504085,148.35028733165643
6.226415104,1.0003465454786604,148.1947616897465
6.228702208,1.0003193687506435,148.03950123524885
6.230989312,1.0002720790995927,147.88480623961684
6.233275904,1.0002079361230276,147.73093247894326
6.235563008,1.0001306949330508,147.57813342112877
6.237850112,1.0000454755038475,147.42653840116134
6.240137216,0.9999574852815905,147.27620696061354
6.24242432,0.9998724394507501,147.12715597901513
6.244711424,0.999795771499612,146.9793301866328
6.246998528,0.9997322255109661,146.83253291851773
6.24928512,0.9996859701393009,146.6865676116813
6.251572224,0.9996598969441068,146.5411370859682
6.253859328,0.9996557449580066,146.3959695688481
6.256146432,0.9996735839698518,146.2507325849186
6.258433536,0.999712468881253,146.1050935121157
6.26072064,0.9997699983433948,145.95882958277198
6.263007232,0.9998424564279178,145.8116061569133
6.265294336,0.9999253107244628,145.66326314237216
6.26758144,1.000013111501071,145.51372897885494
6.269868544,1.0001006199766502,145.36293663788527
6.272155648,1.0001819595566543,145.21093549275392
6.274442752,1.0002523121171205,145.0578805562656
6.276729344,1.0003070029064027,144.90390976719917
6.279016448,1.0003424673801595,144.7493085113379
6.281303552,1.000356626459267,144.59438897320095
6.283590656,1.0003484294440164,144.43943935181724
6.28587776,1.0003184384690416,144.2847780252215
6.288164864,1.0002685665276172,144.13074011885791
6.290451456,1.0002019686574568,143.97754759611718
6.29273856,1.0001226277393576,143.82547786902305
6.295025664,1.0000358354501142,143.6746012317503
6.297312768,0.9999469002798959,143.52503501256905
6.299599872,0.999861625101643,143.37676854915986
6.301886976,0.9997853365837743,143.2297058945916
6.304173568,0.999722952142575,143.08366742066244
6.306460672,0.9996781858640993,142.9384227694559
6.308747776,0.9996543550883646,142.79372028043485
6.31103488,0.9996525568821433,142.64923253347627
6.313321984,0.9996731946601392,142.5046384028479
6.315609088,0.999714810435748,142.35961418987486
6.317896192,0.9997748134725541,142.2138732992616
6.320182784,0.9998494725216551,142.06716542864442
6.322469888,0.99993403399422,141.91935512148873
6.324756992,1.000023322019228,141.7702926514138
6.327044096,1.0001113733022053,141.6199668145515
6.3293312,1.000192659189444,141.46843044764356
6.331618304,1.000262181990543,141.31581452487302
6.333904896,1.0003154651344535,141.162333286254
6.336192,1.000349066684238,141.0082522546
6.338479104,1.0003607201520925,140.85385660249293
6.340766208,1.0003499749351437,140.6994823929375
6.343053312,1.0003172822875417,140.54543576790067
6.345340416,1.0002647371901285,140.3920285600342
6.347627008,1.000195618933309,140.23953112859866
6.349914112,1.0001144323572104,140.08816587364637
6.352201216,1.0000261008694988,139.93804192437648
6.35448832,0.9999362879578085,139.78924121106326
6.356775424,0.999850745409409,139.64174204793008
6.359062528,0.9997748527180014,139.49543580578876
6.36134912,0.9997136297385381,139.3501532191299
6.363636224,0.9996705977732494,139.20568829230115
6.365923328,0.9996489053874897,139.0616763938201
6.368210432,0.9996496786086886,138.91788148209494
6.370497536,0.9996729999797429,138.77389552644172
6.37278464,0.999717333787902,138.6294619712026
6.375071232,0.9997800110220719,138.48428643933096
6.377358336,0.9998569404900116,138.33811677756017
6.37964544,0.9999432266940582,138.19077869316916
6.381932544,1.0000336847245819,138.0422024849696
6.384219648,1.000122222300943,137.89232289614733
6.386506752,1.0002034151765717,137.7412480638987
6.388793344,1.0002720330243524,137.58908458425782
6.391080448,1.0003237727590124,137.43607355410248
6.393367552,1.000355361311089,137.28248220651926
6.395654656,1.0003647046990773,137.1286502976521
6.39794176,1.000351248029218,136.97484782444442
6.400228864,1.0003157215081806,136.821397551636
6.402515968,1.0002604194496199,136.66866835914016
6.40480256,1.0001888779709804,136.51685722205633
6.407089664,1.000105578661706,136.366193491668
6.409376768,1.0000158166482815,136.21682866861687
6.411663872,0.9999252424408593,136.0687963978172
6.413950976,0.9998395670441458,135.92206606143586
6.41623808,0.9997643192837306,135.77652359894208
6.418524672,0.9997041549255127,135.63200796195878
6.420811776,0.999663068656981,135.48824993075536
6.42309888,0.9996435826813465,135.34494919779783
6.425385984,0.999647051076051,135.20181916773967
6.427673088,0.9996731488513899,135.05847023964776
6.429960192,0.9997203105285807,134.91462127655788
6.432246784,0.9997855879113603,134.76999001143818
6.434533888,0.9998646882800754,134.62433314193888
6.436820992,0.9999528463822778,134.47747718098583
6.439108096,1.0000443015789258,134.32932735451843
6.4413952,1.0001332808800298,134.17991104431886
6.443682304,1.0002142951639172,134.0292789562668
6.445968896,1.0002820176230254,133.87759688304047
6.448256,1.000332213418145,133.72506969192085
6.450543104,1.000361673855827,133.5719734522752
6.452830208,1.000368360468905,133.4186709871924
6.455117312,1.0003521576647338,133.26542580825335
6.457404416,1.000313770819117,133.11259961628213
6.459691008,1.0002558135227495,132.96049585789822
6.461978112,1.0001818256266335,132.8094001375325
6.464265216,1.00009643139398,132.65948465114292
6.46655232,1.0000052565750088,132.51084252553443
6.468839424,0.9999139394586791,132.36358736902204
6.471126528,0.9998282433989806,132.2176165727961
6.473413632,0.999753646124042,132.0728420849331
6.475700224,0.9996948511867847,131.9290773704985
6.477987328,0.9996557205331787,131.7860413367665
6.480274432,0.9996385426204806,131.6434326130629
6.482561536,0.9996447577683498,131.5009648611748
6.48484864,0.9996736531775988,131.35824527946286
6.487135744,0.9997236272631322,131.21497877195213
6.489422336,0.9997915331555816,131.0708631464732
6.49170944,0.9998729395420505,130.92571982934243
6.493996544,0.9999628519139617,130.77933863007686
6.496283648,1.0000552691515883,130.6316569558986
6.498570752,1.0001447052464845,130.48267392287812
6.500857856,1.0002253777421541,130.3324759706985
6.503144448,1.0002919188903558,130.18122795457498
6.505431552,1.0003404027880836,130.0291810224811
6.507718656,1.0003676127831769,129.87658763189305
6.51000576,1.0003718621973081,129.72379617569283
6.512292864,1.0003527891598525,129.57113241085614
6.514579968,1.0003115099248316,129.41893778256718
6.51686656,1.000250729319734,129.26748152757918
6.519153664,1.0001743626469042,129.11706396782475
6.521440768,1.0000870496960386,128.96786402493902
6.523727872,0.9999944460619076,128.81998020748964
6.526014976,0.9999023394770523,128.67350330591384
6.52830208,0.9998166515752404,128.52830250341933
6.530588672,0.9997429160707717,128.38428656525898
6.532875776,0.9996854865719116,128.24126925883576
6.53516288,0.9996484547689494,128.09894546995073
6.537449984,0.9996338185892738,127.95704336017558
6.539737088,0.999642836089568,127.81520613174555
6.542024192,0.9996746152345425,127.67309793598672
6.544310784,0.9997274255668065,127.5303659997369
6.546597888,0.9997979298994262,127.38680717576514
6.548884992,0.999881555957149,127.24214321901664
6.551172096,0.9999731480079554,127.09623219242289
6.5534592,1.0000666129626388,126.94897506565562
6.555746304,1.0001563868526488,126.8004222473527
6.558033408,1.0002365257347754,126.65066642431238
6.56032,1.0003019334550227,126.49985767534551
6.562607104,1.0003486728050552,126.3482581602736
6.564894208,1.0003735455818723,126.19618330335457
6.567181312,1.0003750342012143,126.04390349572475
6.569468416,1.0003530325817522,125.89182136428784
6.57175552,1.0003088492664296,125.74023601143118
6.574042112,1.000245371796679,125.58944338939784
6.576329216,1.000166528247594,125.43971765833295
6.57861632,1.000077271405405,125.29123338924117
6.580903424,0.9999834183114387,125.1440987613108
6.583190528,0.9998906357082634,124.99834325569738
6.585477632,0.999805126371143,124.85393656159246
6.587764224,0.9997321040533628,124.71067956353825
6.590051328,0.9996763890790483,124.56837643128887
6.592338432,0.9996412698741347,124.42677544347288
6.594625536,0.9996292736115688,124.28555890882978
6.59691264,0.9996411549545864,124.14434122670205
6.599199744,0.999675892552337,124.00282498879557
6.601486336,0.9997315905335455,123.86069443789063
6.60377344,0.9998047886775393,123.71762912255059
6.606060544,0.9998905757709157,123.57341743330765
6.608347648,0.9999836906480831,123.42795388462902
6.610634752,1.0000782807589947,123.2811325835853
6.612921856,1.0001682051745158,123.13301073050059
6.615208448,1.0002477888853276,122.98366485620247
6.617495552,1.0003120182290726,122.83330964018167
6.619782656,1.0003567685857633,122.68215085782072
6.62206976,1.0003792063399957,122.53056172484001
6.624356864,1.000377907887057,122.37881135911871
6.626643968,1.0003529356495595,122.22728197100462
6.628931072,1.0003058528634894,122.07631954731137
6.631217664,1.0002394494182205,121.92617679153771
6.633504768,1.0001582038187549,121.77713905756704
6.635791872,1.000067131636573,121.6293735461116
6.638078976,0.9999720063139661,121.48298694198117
6.64036608,0.9998786739311856,121.3379863197086
6.642653184,0.99979331485377,121.19433467576614
6.644939776,0.9997213468693978,121.05184571407996
6.64722688,0.9996670881920494,120.91026753513216
6.649513984,0.9996343701540089,120.76935282214728
6.651801088,0.9996250701210894,120.62879707297567
6.654088192,0.9996397912750707,120.48821472231735
6.656375296,0.9996778060557622,120.34725955014268
6.658661888,0.9997363306881238,120.20567539763704
6.660948992,0.9998120757759699,120.06308873584561
6.663236096,0.9999001527352347,119.91936251032119
6.6655232,0.9999947891781712,119.77432775848055
6.667810304,1.000090211180232,119.6279194096465
6.670097408,1.0001802559182986,119.48020167543105
6.672384,1.0002591870079818,119.33129343331674
6.674671104,1.000322021269364,119.18132630245228
6.676958208,1.0003647839936562,119.03064777075073
6.679245312,1.0003848333532572,118.87952157418594
6.681532416,1.000380627856763,118.72829432539692
6.68381952,1.0003526110971503,118.57734877900123
6.686106112,1.000302436555084,118.4269525824805
6.688393216,1.0002332108805396,118.27746969418574
6.69068032,1.0001495635080013,118.12913228062796
6.692967424,1.0000566741890677,117.98206463740607
6.695254528,0.9999601902922934,117.83641809956785
6.697541632,0.9998665144022939,117.69217545222837
6.699828224,0.9997813852087543,117.54927193086219
6.702115328,0.999710399606708,117.40751017981344
6.704402432,0.9996581142266728,117.26665084521258
6.706689536,0.9996276349380349,117.12645481956476
6.70897664,0.9996210672717353,116.98655980494821
6.711263744,0.9996387250079111,116.84658377570261
6.713550848,0.999679777952139,116.70621231061409
6.71583744,0.9997414114263125,116.56512603299456
6.718124544,0.9998197459148608,116.42303604272534
6.720411648,0.9999098792732649,116.27974273852878
6.722698752,1.0000061626733374,116.13512292030673
6.724985856,1.000102372318794,115.98912009152134
6.72727296,1.0001923768832848,115.84179328126542
6.729559552,1.000270645514524,115.69326246386441
6.731846656,1.0003319877052892,115.54372699080216
6.73413376,1.0003726359102043,115.39347929751457
6.736420864,1.0003899401088965,115.24284756836028
6.738707968,1.0003827514023642,115.0921239168032
6.740995072,1.0003517250835992,114.94172340337076
6.743281664,1.000298421221076,114.7919471976926
6.745568768,1.0002265206411203,114.64311548212751
6.747855872,1.0001404161817227,114.49545005639494
6.750142976,1.0000455780231339,114.34910158670996
6.75243008,0.9999479493445632,114.20417944195367
6.754717184,0.9998539601720314,114.06067704607953
6.757003776,0.9997693364042182,113.91850863126406
6.75929088,0.9996995249259951,113.77746846362625
6.761577984,0.9996490642251975,113.63736631305771
6.763865088,0.9996209724047547,113.49783519421969
6.766152192,0.9996173666338958,113.35855405765962
6.768439296,0.9996381770556144,113.21918936794737
6.770725888,0.9996822812335667,113.07937156970257
6.773012992,0.9997469538617617,112.93877658364181
6.775300096,0.9998278254045553,112.79716438553268
6.7775872,0.9999201589507606,112.65428948772337
6.779874304,1.00001779391702,112.51007548402262
6.782161408,1.0001147310964345,112.36445378786527
6.784448512,1.0002046944614904,112.21750111223726
6.786735104,1.0002821425061355,112.06935038906201
6.789022208,1.0003418578516317,111.9202353369561
6.791309312,1.0003802964860018,111.77042064312768
6.793596416,1.0003948802483162,111.62024114484412
6.79588352,1.0003847839604167,111.47003315039542
6.798170624,1.000350421398818,111.32016381946346
6.800457216,1.0002940873292683,111.1709958404615
6.80274432,1.0002193412003917,111.0227873151241
6.805031424,1.0001308917890732,110.87579627808589
6.807318528,1.0000341612713208,110.73019609569832
6.809605632,0.9999355904564381,110.58599316745457
6.811892736,0.9998412114606893,110.4432228379278
6.814179328,0.9997571295216608,110.30177843457842
6.816466432,0.9996885339865206,110.16147995369356
6.818753536,0.9996400548110872,110.02205712265868
6.82104064,0.999614639428665,109.88318898849252
6.823327744,0.9996138148030264,109.74454295697545
6.825614848,0.9996379365673769,109.60575249625089
6.82790144,0.9996851517675794,109.46645204641878
6.830188544,0.9997527743087975,109.32637640886622
6.832475648,0.9998363605034934,109.18515937712402
6.834762752,0.9999307285280231,109.04272832871456
6.837049856,1.0000298276241477,108.89889153971633
6.83933696,1.000127367778546,108.75363053065202
6.841623552,1.0002171936649396,108.60705213056849
6.843910656,1.0002935569216607,108.45928910000089
6.84619776,1.0003517107002298,108.31055010043042
6.848484864,1.000387812666948,108.16116139500004
6.850771968,1.0003995757179764,108.01142208180086
6.853059072,1.000386206920964,107.86171595700579
6.855345664,1.0003487451641455,107.7124309424557
6.857632768,1.0002893589136173,107.56383362979017
6.859919872,1.000211690872687,107.41626488106989
6.862206976,1.000120822753087,107.26993036556158
6.86449408,1.0000224922068863,107.12500528317419
6.866781184,0.9999228547507745,106.981530172288
6.869068288,0.9998283043057843,106.83951285381035
6.87135488,0.9997448527904624,106.69879663777584
6.873641984,0.9996776938322707,106.5592087260392
6.875929088,0.9996312402913837,106.42045749288862
6.878216192,0.9996084559091175,106.28223960373103
6.880503296,0.9996106999558076,106.14420785790982
6.8827904,0.999637940802493,106.0059614403547
6.885076992,0.9996884934030114,105.86720221573293
6.887364096,0.9997591744096608,105.72754267813221
6.8896512,0.9998453894570288,105.58678580399076
6.891938304,0.9999418188637741,105.44472822595071
6.894225408,1.0000421464315747,105.30125777640467
6.896512512,1.0001403882963702,105.15636355973831
6.898799104,1.000229825826805,105.01012381393508
6.901086208,1.0003050969010263,104.86270846948058
6.903373312,1.0003614266707987,104.71436482947576
6.905660416,1.0003951438957102,104.56537297956794
6.90794752,1.000403971361704,104.41609951699643
6.910234624,1.0003874780406015,104.26688346966353
6.912521216,1.000346650140612,104.11813469272289
6.91480832,1.0002839883437777,103.97010651577096
6.917095424,1.000203562883293,103.82315860086489
6.919382528,1.000110397047263,103.67750288160356
6.921669632,1.0000103236052746,103.53327866314103
6.923956736,0.9999097747587529,103.39051321747202
