freq,mag,phase
6.0,0.9999170553985879,39.88604726822861
6.007699456,0.9998979490700947,39.70629939794853
6.015399424,0.9998846096008449,39.526805492034285
6.02309888,0.9998776080746531,39.34738349760198
6.030798848,0.9998771616227148,39.16807282267501
6.038498304,0.9998834086144575,38.9886746156788
6.046198272,0.9998959343349457,38.809171054244345
6.053897728,0.9999142733762024,38.62944160485476
6.061597696,0.9999370808932077,38.44941535848324
6.069297152,0.9999633279461039,38.26908082924969
6.07699712,0.9999915484481641,38.088332720316984
6.084696576,1.0000201602188683,37.907226719308206
6.092396544,1.0000475209232524,37.72572448215244
6.100096,1.00007213774158,37.543892226743516
6.107795968,1.0000925988803484,37.36171782480701
6.115495424,1.0001076931162425,37.179265205659895
6.123195392,1.0001168293218907,36.99666832522513
6.130894848,1.0001192559043661,36.81401081478058
6.138594816,1.0001148375422708,36.631327403996515
6.146294272,1.0001039154793911,36.44877653929992
6.15399424,1.0000870159187747,36.26641870292524
6.161693696,1.0000650185428601,36.08427408441307
6.169393664,1.0000392290998616,35.90243840770824
6.17709312,1.000010987772344,35.72101868583271
6.184793088,0.9999820264778435,35.53995063882817
6.192492544,0.9999537727424997,35.35929309057042
6.200192512,0.999927895173204,35.178936877656994
6.207891968,0.9999058377839999,34.99897998845745
6.215591936,0.9998886811647196,34.81924803689273
6.223291392,0.9998776289358348,34.63968861140189
6.23099136,0.9998732546113679,34.460262981113786
6.238690816,0.999875692923573,34.28083457213103
6.246390784,0.999884871236604,34.10135037854497
6.25409024,0.9999003909710672,33.92165511888866
6.261790208,0.9999213279584745,33.7417296738349
6.269489664,0.999946502331487,33.56144529117228
6.277189632,0.9999745305436163,33.38085701322417
6.284889088,1.0000037800232422,33.199835933330284
6.292589056,1.0000329140010433,33.018400857517584
6.300288512,1.000059998907652,32.836624026960465
6.30798848,1.0000836966043967,32.65447267503742
6.315687936,1.0001025344684984,32.47202748658209
6.323387904,1.0001156344541666,32.28936604912691
6.33108736,1.000122093993066,32.10654537027882
6.338787328,1.0001216211551542,31.923692045307625
6.346486784,1.0001142767801097,31.740902860697226
6.354186752,1.0001003463589488,31.558225891258175
6.361886208,1.0000806826111839,31.37575721490775
6.369586176,1.0000563030228835,31.193630989633846
6.377285632,1.0000285094269128,31.011819901523673
6.3849856,0.99999896442837,30.830365010561525
6.392685056,0.9999692548323588,30.649362475820496
6.400385024,0.9999410668615135,30.468719332099358
6.40808448,0.9999158721921283,30.2884426863347
6.415784448,0.9998951730661092,30.1084962293352
6.423483904,0.9998800972152505,29.928745047269278
6.431183872,0.9998715879190188,29.749205650747804
6.438883328,0.9998699368831397,29.56971210294
6.446583296,0.9998754437669557,29.39015841189015
6.454282752,0.9998876882559479,29.210509586071918
6.46198272,0.9999060560736655,29.030639102422445
6.469682176,0.9999296199589478,28.850504861706938
6.477382144,0.9999568846396256,28.669953741526346
6.4850816,0.9999863988802568,28.489076038724654
6.492781568,1.000016685360908,28.30777304116777
6.500481024,1.0000459956442889,28.12602944759034
6.508180992,1.0000724717814162,27.943940332326363
6.515880448,1.0000950091728344,27.76149305121085
6.523580416,1.0001119897194735,27.57877239989589
6.531279872,1.0001226893901027,27.395888684961264
6.53897984,1.000126338088213,27.212844763319573
6.546679296,1.0001228840418641,27.029828888035787
6.554379264,1.0001124601479354,26.8468810665514
6.56207872,1.0000955793057615,26.66413910623816
6.569778688,1.000073152540405,26.481629758805507
6.577478144,1.0000464120936918,26.299449275265452
6.585178112,1.000016946211346,26.11766140382501
6.592877568,0.9999862637086826,25.936253143216362
6.600577536,0.999956166432679,25.755278531033653
6.608276992,0.9999282159530759,25.574710220343068
6.61597696,0.9999041531850701,25.394447355335704
6.623676416,0.9998851104234503,25.214497972728484
6.631376384,0.9998723348477845,25.034764151575324
6.63907584,0.9998664166851733,24.855146185749394
6.646775808,0.9998678013856104,24.6755567108538
6.654475264,0.9998763915189472,24.495912110524543
6.662175232,0.999891741953367,24.316098837683143
6.669874688,0.9999129854510974,24.13601265054947
6.677574656,0.9999389329609967,23.955596717705653
6.685274112,0.9999681576684,23.774836994932283
6.69297408,0.9999990905534685,23.59361396834394
6.700673536,1.000030037027615,23.411993112698962
6.708373504,1.0000591389147582,23.22997541654193
6.71607296,1.0000848833481573,23.047537224378193
6.723772928,1.0001058133338288,22.864810027058688
6.731472384,1.0001206558056062,22.681811767532107
6.739172352,1.0001288156988142,22.498644877575714
6.746871808,1.0001295219979969,22.315425985948455
6.754571776,1.0001229167049956,22.132258463571265
6.762271232,1.0001093714997842,21.94921784552958
6.7699712,1.000089440079743,21.766362517811668
6.777670656,1.0000644075021232,21.583868448300315
6.785370624,1.0000355037478905,21.401676347213247
6.79307008,1.0000044250659805,21.219917417458895
6.800770048,0.9999729282233513,21.038528221608125
6.808469504,0.9999426646651541,20.857591758779716
6.816169472,0.9999153347592804,20.677028350233808
6.823868928,0.9998925860492677,20.496797532175048
6.831568896,0.9998755740859256,20.316890701631888
6.839268352,0.9998653054118171,20.137117737435723
6.84696832,0.9998622978003514,19.957425658420092
6.854667776,0.9998668534027804,19.777735696044417
6.862367744,0.99987862898142,19.597933886744716
6.8700672,0.9998970651875412,19.417918150852326
6.877767168,0.9999209992156609,19.237607581580598
6.885466624,0.9999493780936103,19.056956564603087
6.893166592,0.999980370591652,18.87587101020161
6.900866048,1.0000124175186742,18.69432995406917
6.908566016,1.0000436743224084,18.512390675992638
6.916265472,1.0000723710370316,18.330037274855204
6.92396544,1.000097000236682,18.14730875857692
6.931664896,1.0001161238109604,17.96429000569179
6.939364864,1.000128629345691,17.78103694982313
6.94706432,1.0001338621172353,17.59764448890034
6.954764288,1.0001315282023502,17.414219825042682
6.962463744,1.0001216516608664,17.230887085003882
6.970163712,1.0001048509241106,17.047746976122305
6.977863168,1.0000820686881158,16.864825062418987
6.985563136,1.0000544633233466,16.68229710253778
6.993262592,1.0000236366238457,16.500096473204277
7.00096256,0.9999912107066283,16.318353361859543
7.008662016,0.9999590955014512,16.1370161565317
7.016361984,0.999929024290686,15.95613364284768
7.02406144,0.9999026781264275,15.775609270672486
7.031761408,0.9998815218400684,15.595425982998632
7.039460864,0.9998667133567036,15.415464639247206
7.047160832,0.9998591805254876,15.23565696153122
7.054860288,0.9998593208177544,15.05592430179883
7.062560256,0.9998670789390114,14.87607354030746
7.070259712,0.999882169039567,14.696134563516221
7.07795968,0.9999035655083411,14.515865687005862
7.085659136,0.9999302862736804,14.335311957473737
7.093359104,0.9999608931587483,14.154360369906103
7.10105856,0.9999933940525506,13.972947375423917
7.108758528,1.0000262826397128,13.791132327532818
7.116457984,1.0000575331176986,13.608839055556032
7.124157952,1.000085624525453,13.426165783848122
7.131857408,1.000108761404486,13.243118266598824
7.139557376,1.0001257394312417,13.059786802946476
7.147256832,1.0001356011094946,12.876251137054208
7.1549568,1.0001378045818219,12.692669559039453
7.162656256,1.0001321607802405,12.509063836016765
7.170356224,1.000119098391388,12.325570998445848
7.17805568,1.0000990950826865,12.142333520965508
7.185755648,1.000073440552492,11.959360089046013
7.193455104,1.0000435068764306,11.776784054325773
7.201155072,1.00001085161183,11.594630075785432
7.208854528,0.9999773364320985,11.412925624850473
7.216554496,0.9999449465893995,11.231649334550283
7.224253952,0.9999153709773572,11.050782060620588
7.23195392,0.9998902189801432,10.870298996472648
7.239653376,0.9998710546723935,10.690105807114056
7.247353344,0.9998587963462173,10.510146776742044
7.2550528,0.9998542113661187,10.330258331831574
7.262752768,0.9998575987111681,10.150406684818256
7.270452224,0.9998686948982922,9.97045130330288
7.278152192,0.9998869942285535,9.79026111444869
7.285851648,0.9999115338698991,9.60978562153559
7.293551616,0.9999407698482096,9.428956771322946
7.301251072,0.9999733152004935,9.247712725534042
7.30895104,1.000007189596615,9.065989273597346
7.316650496,1.0000405248580377,8.883778640867675
7.324350464,1.0000716641146865,8.701172602585139
7.33204992,1.0000986315338718,8.51812439884849
7.339749888,1.0001200261092549,8.334782950052015
7.347449344,1.0001346884192375,8.151141199126572
7.355149312,1.0001417313923215,7.967376082787141
7.362848768,1.0001406206534478,7.783576338797101
7.370548736,1.0001316895392949,7.599798535517621
7.378248192,1.0001150963215963,7.416213466226225
7.38594816,1.0000919639648953,7.232875470563319
7.393647616,1.000063596034304,7.049873636426405
7.401347584,1.0000313590159922,6.867309074230018
7.40904704,0.9999971721301677,6.685154564468585
7.416747008,0.999962914259531,6.503481722668552
7.424446464,0.9999304769457779,6.322254283285078
7.432146432,0.999901725520243,6.141419121638156
7.439845888,0.9998781062230057,5.960951093902596
7.447545856,0.9998612091967274,5.780768665386101
7.455245312,0.9998517257402827,5.600745556758199
7.46294528,0.9998502251027959,5.420809988655489
7.470644736,0.9998570650113813,5.240823194817897
7.478344704,0.9998716713264482,5.060681995245853
7.48604416,0.9998932579579947,4.880285670757298
7.493744128,0.9999206160573183,4.699556033327433
7.501443584,0.9999523791026071,4.5184169621909875
7.509143552,0.9999866395071711,4.336821174081123
7.516843008,1.000021656140528,4.154748447548732
7.524542976,1.0000552690949083,3.9722221744517734
7.532242432,1.0000858280451062,3.789244215626899
7.5399424,1.0001115019853526,3.6058684454956937
7.547641856,1.0001307527158076,3.422210658687729
7.555341824,1.0001426823622481,3.238274511449399
7.56304128,1.0001466460570285,3.054271847819304
7.570741248,1.000142143373355,2.870224772604395
7.578440704,1.0001296263721278,2.686304773135084
7.586140672,1.000109754385721,2.502615552820475
7.593840128,1.0000835507511796,2.3192191974628873
7.601540096,1.0000525168953298,2.1362020831137656
7.609239552,1.0000182422847852,1.9536322917657383
7.61693952,0.9999827965700537,1.7715029525832067
7.624638976,0.9999480431409679,1.5898724847160088
7.632338944,0.9999159003531546,1.4086810245646444
7.6400384,0.9998881883237666,1.2278906453972178
7.647738368,0.9998666113769743,1.0474487610723848
7.655437824,0.9998520334272117,0.8672371377074037
7.663137792,0.9998456451727257,0.6871499189583028
7.670837248,0.999847589020824,0.507089167153824
7.678537216,0.9998579098701824,0.32695533236552793
7.686236672,0.9998760181809248,0.14662582819338252
7.69393664,0.9999008152143114,-0.03401021015412507
7.701636096,0.9999310459522619,-0.2150289798951684
7.709336064,0.9999650532592005,-0.39648994494280293
7.71703552,1.0000008867383905,-0.5784038174417766
7.724735488,1.0000366678312291,-0.7608236944713612
7.732434944,1.0000702734006028,-0.9437407331499088
7.740134912,1.0000998544922874,-1.127083303916863
7.747834368,1.0001238457563504,-1.3107849526765956
7.755534336,1.0001408422158549,-1.4947728469341974
7.763233792,1.0001497845162928,-1.6789840147810133
7.77093376,1.0001504112729072,-1.863211935433131
7.778633216,1.0001423527685633,-2.0474386731879215
7.786333184,1.000126339524104,-2.2315170202275167
7.79403264,1.0001029602773466,-2.4153144338645283
7.801732608,1.0000737844910526,-2.5987689887106553
7.809432064,1.0000402194746598,-2.7817840076564795
7.817132032,1.0000041578654304,-2.964360687016264
7.824831488,0.999967654333252,-3.1464187720816463
7.832531456,0.9999327194121508,-3.3280270872994007
7.840230912,0.9999012407503697,-3.5091796773140462
7.84793088,0.9998750340372137,-3.689965507313963
7.855630336,0.999855543642792,-3.8703939286477795
7.863330304,0.9998439093461141,-4.050660035338135
7.87102976,0.999840800051531,-4.230791378383617
7.878729728,0.9998462642296995,-4.410971097747263
7.886429184,0.9998602567744419,-4.591286528636447
7.894129152,0.9998817796105501,-4.7718553871257905
7.901828608,0.9999097366850752,-4.952753432260052
7.909528576,0.9999427796131231,-5.134076170345779
7.917228032,0.9999788838588992,-5.315859058096167
7.924928,1.0000159273706657,-5.498147337111521
7.932627456,1.000052172387841,-5.680961658604712
7.940327424,1.0000853194656067,-5.86424191633966
7.94802688,1.000113707863985,-6.047925780401965
7.955726848,1.000135696778118,-6.231970009668271
7.963426304,1.000149970166499,-6.416289224308674
7.971126272,1.0001558171821796,-6.60078159570184
7.978825728,1.0001528452216302,-6.78525024923454
7.986525696,1.0001411919891088,-6.969627457969797
7.994225152,1.0001214828201996,-7.153828430713242
8.00192512,1.0000949548678597,-7.337701265628873
8.009624576,1.0000627453870543,-7.521195222514198
8.017324544,1.000026738737549,-7.7042489287817535
8.025024,0.9999891909474096,-7.886784892744541
8.032723968,0.9999519675826345,-8.068840792544854
8.040423424,0.9999171104579141,-8.250376463510111
8.048123392,0.9998866025944656,-8.431493945391443
8.055822848,0.999862236830527,-8.612236086987712
8.063522816,0.9998452774162019,-8.792713143317014
8.071222272,0.999836700978928,-8.973008748356804
8.07892224,0.9998370657171585,-9.153243595511654
8.086621696,0.9998462662327914,-9.333592065693807
8.094321664,0.9998638467262098,-9.514095540513662
8.10202112,0.9998890007342655,-9.694898004138906
8.109721088,0.9999202159216964,-9.876080298976724
8.117420544,0.9999555626257131,-10.057740056489074
8.125120512,0.9999935726306165,-10.239865910587634
8.132819968,1.0000317615715946,-10.42256591376713
8.140519936,1.0000681079967668,-10.605731572867521
8.148219392,1.0001005499536122,-10.789415148448521
8.15591936,1.000127342731573,-10.973455749090885
8.163618816,1.000146960076037,-11.157873674774352
8.171318784,1.0001582754594307,-11.342490818034424
8.17901824,1.0001606394746312,-11.527224091900777
8.186718208,1.0001540069247679,-11.71192771237999
8.194417664,1.000138514044971,-11.896464683962789
8.202117632,1.0001152248419756,-12.080775182047025
8.209817088,1.000085320294908,-12.26473665967461
8.217517056,1.0000503540015997,-12.448234583846668
8.225216512,1.000012452160105,-12.631275037180954
8.23291648,0.9999734928368837,-12.813784324594685
8.240615936,0.9999358123408832,-12.995774820312118
8.248315904,0.9999014176830717,-13.17731073260916
8.25601536,0.9998721787459691,-13.358418241066751
8.263715328,0.9998500028275058,-13.539129628721346
8.271414784,0.9998358265566679,-13.719649452159835
8.279114752,0.9998306323591624,-13.899996848242541
8.286814208,0.9998346796912383,-14.080375012146895
8.294514176,0.9998478416988325,-14.260861942414225
8.302213632,0.9998691728114326,-14.441582450749522
8.3099136,0.9998977291074437,-14.622656232714792
8.317613056,0.999931873144695,-14.804167754636536
8.325313024,0.999969736672549,-14.986175564522028
8.33301248,1.0000091529932216,-15.16867365310377
8.340712448,1.0000480514479317,-15.351755248112967
8.348411904,1.0000842049080563,-15.535363758496068
8.356111872,1.0001155556965886,-15.719418289397792
8.363811328,1.0001404535866065,-15.903850322204834
8.371511296,1.0001574618218858,-16.088588820768155
8.379210752,1.0001655228299222,-16.273507441821014
8.38691072,1.0001641508819767,-16.45850075669881
8.394610176,1.000153664807476,-16.64339606080745
8.402310144,1.0001343844757866,-16.8281106771666
8.4100096,1.0001073225142052,-17.012484914713102
8.417709568,1.0000742087487244,-17.19650936689075
8.425409024,1.0000367017262493,-17.380034993795125
8.433108992,0.9999968199420151,-17.5630619577562
8.440808448,0.9999568928290139,-17.745543754737024
8.448508416,0.9999192002446803,-17.9275028657066
8.456207872,0.9998856006468763,-18.10898424914877
8.46390784,0.9998581885596917,-18.290038011011855
8.471607296,0.9998384296815847,-18.470775400068987
8.479307264,0.9998274016115778,-18.65133261372074
8.48700672,0.9998258108704688,-18.83179877866458
8.494706688,0.9998338339725198,-19.012296849282833
8.502406144,0.9998507375689806,-19.192971955770414
8.510106112,0.9998759332235478,-19.373967474505474
8.517805568,0.9999079217411818,-19.55531589771319
8.525505536,0.9999449553344112,-19.737141342432608
8.533204992,0.9999849227452043,-19.91953735447892
8.54090496,1.0000256634545281,-20.10247867625621
8.548604416,1.0000649680006826,-20.285964435856517
8.556304384,1.0001005443912914,-20.46995344681215
8.56400384,1.0001304576936496,-20.654403824932505
8.571703808,1.0001530369785459,-20.839210743848035
8.579403264,1.000167028177725,-21.024279254608366
8.587103232,1.0001715103237119,-21.209511152004666
8.594802688,1.000166435623346,-21.394724659165938
8.602502144,1.0001518320279343,-21.579801481227353
8.610202624,1.0001286736914168,-21.764661689650932
8.61790208,1.0000979783557442,-21.949132973747822
8.625601536,1.0000618679030795,-22.133185161486015
8.633300992,1.0000219279880946,-22.3167306236036
8.641001472,0.9999804083627152,-22.499721580288398
8.648700928,0.9999398673332484,-22.6821434804343
8.656400384,0.9999023316419358,-22.86405750386542
8.66409984,0.9998700028335401,-23.045510130110923
8.671799296,0.9998445882643648,-23.226556780994517
8.679499776,0.9998276058683261,-23.40733666788904
8.687199232,0.9998200829798831,-23.587945046762385
8.694898688,0.9998223471680613,-23.768492760786906
8.702598144,0.9998342057794909,-23.94918837443524
8.710298624,0.9998553668812983,-24.130113317278198
8.71799808,0.9998843040979114,-24.311347922222065
8.725697536,0.999919611536706,-24.493044135891548
8.733396992,0.9999592251615494,-24.67526037708269
8.741097472,1.0000012105797658,-24.85803843454548
8.748796928,1.000042944292152,-25.041376155478822
8.756496384,1.0000821928658499,-25.22526470111949
8.76419584,1.0001169492550084,-25.409692598743355
8.77189632,1.0001450462334407,-25.59455200615843
8.779595776,1.0001649473599317,-25.779728099535866
8.787295232,1.000175553581091,-25.9651227969516
8.794994688,1.000176357956608,-26.150625382419342
8.802695168,1.0001671515624906,-26.33607064192806
8.810394624,1.0001483930320751,-26.52135157942167
8.81809408,1.0001212595827307,-26.70629354503844
8.825793536,1.0000871408949012,-26.89084765081647
8.833494016,1.0000479422931723,-27.074925489177605
8.841193472,1.0000058443338011,-27.258447685045567
8.848892928,0.9999631124136651,-27.44141866044345
8.856592384,0.9999221979869263,-27.623795115150642
8.864292864,0.9998852589462334,-27.80566214013307
8.87199232,0.9998544943921512,-27.987061954384252
8.879691776,0.9998315901535451,-28.168138393241854
8.887391232,0.9998178247305519,-28.348937042026662
8.895091712,0.9998139266959905,-28.529658034377952
8.902791168,0.9998202220748807,-28.7103475364988
8.910490624,0.9998364143023272,-28.89121194258469
8.91819008,0.999861528564952,-29.072348039569626
8.92589056,0.9998941648434138,-29.25392637835352
8.933590016,0.9999327081849808,-29.43598159014161
8.941289472,0.9999748930298521,-29.61857291169741
8.948988928,1.000018437696522,-29.801744509060796
8.956689408,1.0000608116951426,-29.985537004962673
8.964388864,1.0000997457955991,-30.16988183212307
8.97208832,1.0001331638503692,-30.354719017878182
8.979787776,1.000159042663895,-30.539989918310845
8.987488256,1.0001759773366201,-30.725524577872953
8.995187712,1.0001830335717614,-30.911256059281413
9.002887168,1.00017978872772,-31.09701619069363
9.010586624,1.0001662985103414,-31.282699041619555
9.018287104,1.000143468698822,-31.46810390968396
9.02598656,1.000112352303326,-31.653170986599143
9.033686016,1.0000749274714682,-31.8377579959054
9.041385472,1.0000328310348892,-32.021873183132094
9.049085952,0.9999887470487627,-32.205368758978814
9.056785408,0.9999451340764648,-32.3882879362946
9.064484864,0.9999040892631513,-32.57064515171339
9.07218432,0.9998683076592348,-32.75245573719505
9.0798848,0.9998394380533374,-32.9338412042777
9.087584256,0.9998194538633851,-33.11492298225659
9.095283712,0.9998091034296968,-33.29578646936877
