freq,mag,phase
6.0,0.999171902513064,51.0728200690122
6.002287616,0.999149824189178,50.93267532691258
6.004575232,0.9991817738763016,50.792435196925645
6.006862848,0.9992656640591647,50.65129813350358
6.009150464,0.9993963232323173,50.508584093300854
6.011438592,0.9995653999659159,50.36366254022204
6.013726208,0.9997622492442243,50.216059522586484
6.016013824,0.999974360166716,50.065424307822504
6.01830144,1.0001884638743073,49.91166254071681
6.020589056,1.0003909335437249,49.75487224103957
6.022876672,1.00056908973897,49.595251936529806
6.025164288,1.000711518229248,49.43329307057323
6.027451904,1.0008094316199936,49.269554291404255
6.029740032,1.0008565584337865,49.10472686356273
6.032027648,1.0008499892829468,48.93956331774189
6.034315264,1.0007899632160833,48.77485717886112
6.03660288,1.0006804528478972,48.61133507763554
6.038890496,1.0005281934964414,48.44968295908907
6.041178112,1.0003428283961275,48.29042725083435
6.043465728,1.0001360001732913,48.13395705424601
6.045753344,0.9999208829924078,47.98052696496831
6.04804096,0.9997109434279222,47.83015018055851
6.050329088,0.9995194401721572,47.68263828418638
6.052616704,0.9993585074677578,47.53766584925697
6.05490432,0.9992383591729812,47.39467928419643
6.057191936,0.9991666098512257,47.253066154992815
6.059479552,0.9991477611388356,47.112060177444405
6.061767168,0.9991830470150345,46.97092098962949
6.064054784,0.9992702871908281,46.82883089119393
6.0663424,0.9994038508168503,46.685115294838624
6.068630016,0.9995754231451937,46.539137681891376
6.070918144,0.9997741402812236,46.39042797780621
6.07320576,0.9999874411429992,46.23868170412153
6.075493376,1.000201761965562,46.08379848193241
6.077780992,1.0004037494617817,45.92586497334467
6.080068608,1.0005804217144287,45.765137376533254
6.082356224,1.000720857762428,45.60207155226286
6.08464384,1.0008161337656076,45.43724716918552
6.086931456,1.0008602164188285,45.271388376884055
6.089219584,1.0008502981097565,45.10524332604511
6.0915072,1.0007870420773621,44.93955831845087
6.093794816,1.0006743701733651,44.77510763606133
6.096082432,1.000519430265757,44.61257355548128
6.098370048,1.0003318354313044,44.452469108045506
6.100657664,1.0001235735931506,44.29518577727692
6.10294528,0.9999077090231763,44.14093117443979
6.105232896,0.9996979190915046,43.989743359742164
6.107520512,0.9995073845641658,43.841407243169364
6.10980864,0.9993481679207323,43.695571144922816
6.112096256,0.9992303797805664,43.55169357217097
6.114383872,0.9991614902719271,43.40915165382664
6.116671488,0.9991457876775862,43.2671754745643
6.118959104,0.9991843666658641,43.12499348511537
6.12124672,0.9992748351161507,42.98182757501454
6.123534336,0.9994112352181227,42.83695120333758
6.125821952,0.99958526421539,42.68979867868222
6.128109568,0.9997858385738131,42.539882596540934
6.130397696,1.0000001703175359,42.38690560741797
6.132685312,1.0002148161210538,42.2307664597871
6.134972928,1.0004162210601497,42.07156058566704
6.137260544,1.0005916356828788,41.90958478380759
6.13954816,1.0007301164446658,41.745297274409715
6.141835776,1.0008228184677614,41.579278966380336
6.144123392,1.0008638014917268,41.412238205835436
6.146411008,1.0008507832779405,41.244951107339304
6.148699136,1.000784264339691,41.07820362715117
6.150986752,1.0006685795343402,40.91272851732121
6.153274368,1.0005110062302094,40.74915904825853
6.155561984,1.0003213530276942,40.58807567481331
6.1578496,1.0001116630618636,40.42983953386191
6.160137216,0.999895155530634,40.2746346217898
6.162424832,0.9996853881571675,40.12249298629879
6.164712448,0.9994958543681219,39.973195197449314
6.167000064,0.9993382783221698,39.82636729213003
6.169288192,0.9992227474961332,39.68146990188185
6.171575808,0.9991565815900456,39.53786089435524
6.173863424,0.9991439908552321,39.3947574059231
6.17615104,0.9991857258823151,39.25140171806448
6.178438656,0.9992791905330721,39.10704039227567
6.180726272,0.9994185727496215,38.9609205515317
6.183013888,0.9995949768945864,38.81246597569333
6.185301504,0.9997971324138797,38.66119684107225
6.18758912,1.000012533303998,38.50684946817685
6.189877248,1.000227421384056,38.34933857078369
6.192164864,1.0004282241054663,38.18875848575719
6.19445248,1.0006024154712607,38.0254157959744
6.196740096,1.0007389049802735,37.85976232536055
6.199027712,1.0008290987869664,37.6924163209062
6.201315328,1.0008673626699525,37.52409048173434
6.203602944,1.0008511561835978,37.35556186882011
6.20589056,1.0007815282037547,37.1875669431796
6.208178688,1.0006629300082786,37.020920419826275
6.210466304,1.0005027936856201,36.856220238625916
6.21275392,1.0003110686954446,36.69402143253839
6.215041536,1.0001000381823484,36.534685141395016
6.217329152,0.9998828654475862,36.37840125368256
6.219616768,0.9996732988849611,36.225156265068584
6.221904384,0.9994845472175364,36.07475679115603
6.224192,0.9993285681273768,35.92679235470063
6.226479616,0.9992153001150891,35.780756200956915
6.228767744,0.99915175033895,35.63595158107596
6.23105536,0.9991421363941606,35.49161563766396
6.233342976,0.9991869677026931,35.34697232019651
6.235630592,0.9992833864372438,35.201245671386985
6.237918208,0.9994254687090441,35.05374168163406
6.240205824,0.9996040819996853,34.90385962989715
6.24249344,0.9998080330402643,34.751113998766535
6.244781056,1.0000244697669245,34.59529423744036
6.247068672,1.0002395505104398,34.43626436811465
6.2493568,1.000439905526198,34.27418900595114
6.251644416,1.0006129344110861,34.10934541420446
6.253932032,1.0007474925976991,33.942215343643674
6.256219648,1.0008353045258624,33.77340917188215
6.258507264,1.0008706948510122,33.603660747748336
6.26079488,1.000851552548342,33.43373074701626
6.263082496,1.000778959174063,33.26440335547743
6.265370112,1.000657556628509,33.09643477563195
6.26765824,1.0004948995821268,32.93046712997543
6.269945856,1.0003012302913017,32.7670080951084
6.272233472,1.000088757726258,32.60642841824808
6.274521088,0.9998710330556995,32.448922582289434
6.276808704,0.9996615629795347,32.294456173858904
6.27909632,0.9994736590915256,32.142817035997886
6.281383936,0.9993191962832568,31.993600072702257
6.283671552,0.9992080389500211,31.84627196838128
6.285959168,0.9991470233589641,31.700118145215217
6.288247296,0.9991402115076481,31.55441752954616
6.290534912,0.9991880497870559,31.40834211671459
6.292822528,0.9992873491746936,31.261148151081816
6.295110144,0.9994319914350943,31.11211680091394
6.29739776,0.9996128141583234,30.960667610620156
6.299685376,0.9998184118105405,30.806335745315724
6.301972992,1.0000357845882881,30.64890196965405
6.304260608,1.0002511816043,30.488249509243815
6.306548224,1.0004510842585412,30.324542694192566
6.308836352,1.000622890594121,30.158063132249946
6.311123968,1.0007556829164752,29.989337255378825
6.313411584,1.0008412134897828,29.818947535192795
6.3156992,1.0008739639116202,29.6476323807539
6.317986816,1.0008518780943565,29.476187153439273
6.320274432,1.000776487825072,29.305398446032488
6.322562048,1.000652392150741,29.13595883827132
6.324849664,1.0004873944011017,28.96856584144928
6.327137792,1.0002918030338894,28.803717080645608
6.329425408,1.0000781163968913,28.641780242025337
6.331713024,0.9998596506547933,28.48288873422343
6.33400064,0.9996502858814176,28.327052370332336
6.336288256,0.9994631434503316,28.17403409855454
6.338575872,0.9993101725682931,28.023429003812026
6.340863488,0.9992009012420227,27.874647909828468
6.343151104,0.9991424437442942,27.727051522163855
6.34543872,0.9991383620084218,27.579815379377106
6.347726848,0.9991889057436076,27.4321795898596
6.350014464,0.9992909848187994,27.283385608867412
6.35230208,0.9994381082045377,27.132697045202082
6.354589696,0.9996210284066692,26.97955288842612
6.356877312,0.999828235313939,26.823534583634483
6.359164928,1.0000464986639255,26.664353196812616
6.361452544,1.0002622234443896,26.5019453649572
6.36374016,1.0004616894981686,26.336452530940583
6.366027776,1.000632435444832,26.16824061072187
6.368315904,1.0007635284993606,25.997760320414272
6.37060352,1.0008469375638427,25.825666839191097
6.372891136,1.000877160782615,25.65265872355926
6.375178752,1.0008523820674362,25.479565609049782
6.377466368,1.000774304026533,25.307136466265362
6.379753984,1.0006475907042824,25.13611708482623
6.3820416,1.00048030265435,24.96716054755788
6.384329216,1.0002829586936903,24.800767479845312
6.386617344,1.0000679496652316,24.63731581034336
6.38890496,0.9998488791705339,24.47691686947385
6.391192576,0.9996396076428301,24.31956787293623
6.393480192,0.9994532809072032,24.16502377315994
6.395767808,0.9993015709764221,24.012850629530515
6.398055424,0.9991942317062268,23.862496236078
6.40034304,0.9991379986119979,23.713277686263336
6.402630656,0.9991364504614394,23.564400144437723
6.404918272,0.9991897403203798,23.415079397700143
6.4072064,0.9992945034454908,23.264536306224098
6.409494016,0.9994440162767442,23.112085362923498
6.411781632,0.999628926485385,22.9571196705587
6.414069248,0.9998375898247898,22.799244896481156
6.416356864,1.0000568703211092,22.638171703911897
6.41864448,1.0002727833162772,22.473886724816918
6.420932096,1.000471966766487,22.306515312864537
6.423219712,1.0006415646638234,22.136409931161175
6.425507328,1.0007711748985049,21.964061343193027
6.427795456,1.0008525316793526,21.790106848622827
6.430083072,1.0008803948408393,21.615281669899073
6.432370688,1.0008531096829394,21.44039581292044
6.434658304,1.000772353161935,21.266200034545268
6.43694592,1.0006432386914748,21.09344029783219
6.439233536,1.0004738091534144,20.92278462298613
6.441521152,1.0002746566839418,20.754706783079822
6.443808768,1.0000584969969106,20.589589833759433
6.446096896,0.9998388200009442,20.427525523988805
6.448384512,0.9996294895306427,20.268526463972172
6.450672128,0.9994437724402606,20.11230111736289
6.452959744,0.9992933298075912,19.958442447302076
6.45524736,0.9991876992266764,19.806390338328782
6.457534976,0.9991336743875786,19.655396043724508
6.459822592,0.9991345240929791,19.504745421145042
6.462110208,0.9991903185861022,19.353574118216944
6.464397824,0.999297506504818,19.201164228825014
6.466685952,0.9994493542633079,19.046789676619337
6.468973568,0.9996362202670795,18.889885627920982
6.471261184,0.9998463002590655,18.730018300238864
6.4735488,1.0000664975534355,18.566961071527633
6.475836416,1.0002828172273561,18.400660998036276
6.478124032,1.000481621294838,18.231266834074965
6.480411648,1.0006504422962148,18.059126857928852
6.482699264,1.0007784965286775,17.884768123675
6.48498688,1.0008580495483528,17.708837761846695
6.487275008,1.0008837270763968,17.53204417782815
6.489562624,1.0008540560016534,17.355228045242708
6.49185024,1.0007709437895538,17.179126547654043
6.494137856,1.0006393747591487,17.004489698426806
6.496425472,1.0004679012316688,16.83196436306638
6.498713088,1.0002671340401441,16.66205264454174
6.501000704,1.0000496622923112,16.49511382212128
6.50328832,0.9998293682837839,16.331247947431553
6.505576448,0.9996200055983148,16.170418862482514
6.507864064,0.9994348234230364,16.012396303608114
6.51015168,0.9992855993924026,15.85670040714099
6.512439296,0.9991815795872436,15.70276372810071
6.514726912,0.9991293622562167,15.549888770179312
6.517014528,0.9991325691225643,15.397274757216675
6.519302144,0.9991906027778421,15.244152354661857
6.52158976,0.9993001459403452,15.089720349544658
6.523877376,0.9994540808926478,14.933307336185308
6.526165504,0.999642796639492,14.774323940404345
6.52845312,0.9998543258517301,14.612348489930586
6.530740736,1.0000753757810712,14.44714333378346
6.533028352,1.0002920026473952,14.2786902539487
6.535315968,1.0004906826957514,14.10716595652891
6.537603584,1.0006586445008658,13.932874798123633
6.5398912,1.0007855706248203,13.756368684053431
6.542178816,1.000863347777812,13.578304876824781
6.544466432,1.000886987426225,13.399412250915812
6.54675456,1.0008551044977134,13.220482405305743
6.549042176,1.0007697060346665,13.042340885593056
6.551329792,1.0006359506983122,12.865700600856412
6.553617408,1.000462576674319,12.6911721159911
6.555905024,1.0002602618590444,12.519276808029876
6.55819264,1.0000416382917972,12.350349006747368
6.560480256,0.9998207183902833,12.184532786002574
6.562767872,0.9996112134319407,12.021742573857182
6.565056,0.9994264288529221,11.861717468785836
6.567343616,0.9992781443412417,11.704052515482115
6.569631232,0.9991755236831871,11.548103912488845
6.571918848,0.9991251911586293,11.39316613490908
6.574206464,0.999130334254704,11.238505750102114
6.57649408,0.9991905897052349,11.083270716575171
6.578781696,0.9993021668958533,10.92667842671462
6.581069312,0.9994581623982481,10.76809409102437
6.583356928,0.9996485860184314,10.606879127475453
6.585645056,0.9998615349158773,10.442676752846914
6.587932672,1.000083536594689,10.275194804937192
6.590220288,1.0003006217234112,10.104475509192177
6.592507904,1.0004990212261842,9.930635990628934
6.59479552,1.0006664905620024,9.75407458120022
6.597083136,1.0007922091267396,9.575279758537787
6.599370752,1.0008683896592478,9.394959273695441
6.601658368,1.0008902751106796,9.21380903633751
6.603945984,1.0008563992093233,9.032675359401802
6.606234112,1.0007689208696675,8.85232022181428
6.608521728,1.0006332228768744,8.673491738222124
6.610809344,1.0004579358973311,8.496818574533847
6.61309696,1.0002540545202023,8.322782715512608
6.615384576,1.0000342900424801,8.151733960125258
6.617672192,0.9998126469477829,7.983775772385448
6.619959808,0.9996030241156156,7.81888245886272
6.622247424,0.9994185445135108,7.6567263894275035
6.624535552,0.9992709918355076,7.496922839511398
6.626823168,0.9991695325268387,7.338802105006246
6.629110784,0.9991208710950744,7.1816938609759635
6.6313984,0.9991277806423818,7.024801448614565
6.633686016,0.99918993828892,6.8673256465939465
6.635973632,0.9993036191794897,6.708459091150447
6.638261248,0.9994613690510266,6.547547752391593
6.640548864,0.9996535034566643,6.383982340622181
6.64283648,0.9998676992544416,6.217395201783561
6.645124608,1.000090562506637,6.047531871070031
6.647412224,1.0003080886128828,5.874387486056641
6.64969984,1.0005065140027,5.698147529494672
6.651987456,1.0006735021711834,5.519141127322052
6.654275072,1.0007982719695157,5.337946796722634
6.656562688,1.0008731618326283,5.15521769904958
6.658850304,1.0008934898852615,4.971688184824707
6.66113792,1.0008578234803813,4.788174590987795
6.663426048,1.0007684461137691,4.605460479295738
6.665713664,1.0006309507228437,4.424301947226763
6.66800128,1.0004540204198005,4.245299792418247
6.670288896,1.0002487338923818,4.068978995366452
6.672576512,1.0000279430889945,3.895647816501319
6.674864128,0.9998055340015235,3.7254297033547252
6.677151744,0.99959561103337,3.558235248116805
6.67943936,0.9994114171064863,3.393818436725388
6.681726976,0.9992645845308342,3.231702668273153
6.684015104,0.9991642751613254,3.071285630587937
6.68630272,0.9991168492235658,2.911835712347956
6.688590336,0.9991253615548134,2.7525658131316866
6.690877952,0.9991893761362421,2.5926824416530394
6.693165568,0.9993047474789954,2.431407140718934
6.695453184,0.9994642566000718,2.268032636843695
6.6977408,0.9996578266640163,2.1019994572712815
6.700028416,0.9998732602600291,1.9328850668495745
6.702316032,1.0000971548690794,1.7604996328873905
6.70460416,1.0003151592167467,1.5847965198347151
6.706891776,1.0005136653471034,1.4060128590293008
6.709179392,1.0006801843410151,1.2244517402562232
6.711467008,1.0008042830472776,1.0406866513699493
6.713754624,1.0008781772093656,0.8554030402266336
6.71604224,1.000896921489784,0.6693426826657178
6.718329856,1.0008598201995522,0.48330471185991125
6.720617472,1.0007687362268842,0.2981033201555988
6.7229056,1.0006295137380095,0.11444199778237456
6.725193216,1.000450937795085,-0.0670140258873614
6.727480832,1.0002442849486435,-0.2457981709858602
6.729768448,1.0000224194913623,-0.42156744846759847
6.732056064,0.9997993783081731,-0.5942332212405892
6.73434368,0.999589105105441,-0.7638551549677731
6.736631296,0.9994049706471421,-0.9307017927324998
6.738918912,0.999258465410629,-1.095284542700726
6.741206528,0.9991590004824816,-1.2581527810871775
6.743494656,0.9991127502492343,-1.4200986099982356
6.745782272,0.9991226785647772,-1.5818457759935673
6.748069888,0.9991880965853914,-1.7442633135667658
6.750357504,0.9993050912044914,-1.9081182545994615
6.75264512,0.9994662050617507,-2.0740795739108138
6.754932736,0.9996612166250911,-2.242758557109573
6.757220352,0.9998778006969828,-2.41448802968657
6.759507968,1.0001025196296385,-2.5895344341790114
6.761795584,1.0003211320727659,-2.767918083885262
6.764083712,1.0005199479471143,-2.9494025403864232
6.766371328,1.0006862666764433,-3.1336553448370625
6.768658944,1.0008097480801024,-3.320099056187677
6.77094656,1.0008827055017464,-3.508085338231714
6.773234176,1.0009004338095973,-3.6968348157717865
6.775521792,1.0008618829738836,-3.8855328753509526
6.777809408,1.0007693841009426,-4.0734031053786435
6.780097024,1.000628766816708,-4.259692902789417
6.782385152,1.0004488167736658,-4.443791464149516
6.784672768,1.0002407534484907,-4.625164493928072
6.786960384,1.0000178371398043,-4.803555428434074
6.789248,0.9997940603418086,-4.978818336922339
6.791535616,0.9995833238819386,-5.151019971478397
6.793823232,0.9993990031439333,-5.3204697066197815
6.796110848,0.9992527962281427,-5.4876392759703085
6.798398464,0.9991539181682113,-5.653125945979768
6.80068608,0.9991084911694887,-5.817699620716884
6.802974208,0.9991195608347304,-5.982127531245785
6.805261824,0.9991864210652802,-6.1472007963965805
6.80754944,0.9993047089023374,-6.313751628728376
6.809837056,0.9994671841100499,-6.48243738829612
6.812124672,0.9996635341064974,-6.653844181708749
6.814412288,0.9998813561759956,-6.828363226230579
6.816699904,1.0001069165928627,-7.0062055194383515
6.81898752,1.0003262068974428,-7.187386214870176
6.821275136,1.0005253311268894,-7.371708107171105
6.823563264,1.000691663559897,-7.558795525212439
6.82585088,1.0008149728907734,-7.748083551635838
6.828138496,1.0008872467733516,-7.938867259933233
6.830426112,1.0009041402806773,-8.130463890531818
6.832713728,1.0008644028592837,-8.321983608519938
6.835001344,1.0007707119687854,-8.512668557174575
6.83728896,1.0006287739540567,-8.701740616599036
6.839576576,1.0004475506091,-8.88861458800587
6.841864704,1.0002383636107532,-9.072768973046891
6.84415232,1.000014337996603,-9.253922285673411
6.846439936,0.9997897392906827,-9.431924609857735
6.848727552,0.9995784727139864,-9.606890728387192
6.851015168,0.9993939331358948,-9.779107104200635
6.853302784,0.9992476756305176,-9.949018903071078
6.8555904,0.9991491477303917,-10.117288855690495
6.857878016,0.9991044457542206,-10.284618969671216
6.860165632,0.9991162730628457,-10.451831895003492
6.86245376,0.9991841385081035,-10.619739469670058
6.864741376,0.9993035209517339,-10.789113252650587
6.867028992,0.9994672490237362,-10.960667018625653
6.869316608,0.9996647649830575,-11.13495392523525
6.871604224,0.9998837054629195,-11.3123807138153
6.87389184,1.000110303127386,-11.493144526542858
6.876179456,1.0003302537281145,-11.67725441774098
6.878467072,1.0005298449702256,-11.864539259056167
6.880754688,1.0006964209466538,-12.0545743090804
6.883042816,1.000819588181304,-12.246826265091572
6.885330432,1.0008916582843284,-12.44060148927615
6.887618048,1.0009078872918007,-12.635164542180927
6.889905664,1.0008674389076155,-12.8296276889266
6.89219328,1.0007726806700779,-13.023283618683863
6.894480896,1.00062978287808,-13.21531672727201
6.896768512,1.0004473756631895,-13.40513099380594
6.899056128,1.0002371120393865,-13.59221778773014
6.901344256,1.000012080000731,-13.776276955098458
6.903631872,0.9997865842345515,-13.957207634776946
6.905919488,0.9995745624596416,-14.135069797681666
6.908207104,0.9993894950933516,-14.310192952114427
6.91049472,0.9992431915735118,-14.483028518295294
6.912782336,0.9991447216167026,-14.65420781092982
6.915069952,0.9991002243455197,-14.824466738619572
6.917357568,0.9991126293960191,-14.994609457539857
6.919645184,0.9991812557356291,-15.165461492690548
6.921933312,0.9993016573516824,-15.33781294779137
6.924220928,0.9994663716151762,-15.51234738002506
6.926508544,0.999664953274085,-15.689630997131749
