freq,mag,phase
6.0,0.9994498804053725,-18.636228308089866
6.016326656,0.9995207594081288,-19.19690639283215
6.032653312,0.9996134945009597,-19.758695577324186
6.048979456,0.9997227868147051,-20.32187949958379
6.065306112,0.999844203738552,-20.886710279616082
6.081632768,0.9999727901834782,-21.45316178481684
6.097959424,1.0001027793450734,-22.021407901259288
6.114285568,1.000229236995478,-22.591379080059134
6.130612224,1.0003462957160005,-23.163030479689613
6.14693888,1.000449367132932,-23.73618119408388
6.163265536,1.0005339229116024,-24.310703796141794
6.17959168,1.000596249347688,-24.886328199789553
6.195918336,1.000633626339653,-25.462748003626
6.212244992,1.0006446692208313,-26.039747265140406
6.228571648,1.0006282002439,-26.616913939916444
6.244897792,1.0005853933317508,-27.19398710681786
6.261224448,1.0005175750188058,-27.770640232178653
6.277551104,1.0004277923003169,-28.34657369588576
6.29387776,1.0003194845617958,-28.92168682220006
6.310203904,1.0001973510164601,-29.495563768112305
6.32653056,1.0000662580356483,-30.06821309617549
6.342857216,0.999931643505102,-30.639520292760555
6.359183872,0.9997995161924397,-31.209506217034797
6.375510016,0.9996752171156809,-31.778192997347716
6.391836672,0.9995640260579276,-32.34571772360614
6.408163328,0.9994708095925382,-32.912235704532385
6.424489984,0.9993995053174053,-33.47803637379109
6.440816128,0.9993530511905672,-34.04331014519954
6.457142784,0.9993337521692834,-34.6084534718617
6.47346944,0.9993423908294788,-35.173716772976746
6.489796096,0.9993789118998183,-35.73949573487106
6.50612224,0.9994416859786442,-36.306081792654226
6.522448896,0.9995283149652768,-36.873769457306224
6.538775552,0.9996350625931739,-37.44279347058734
6.555102208,0.9997577637070816,-38.01345893895105
6.571428352,0.999891201562254,-38.58581999261098
6.587755008,1.0000296856103934,-39.16004247399127
6.604081664,1.000167485405292,-39.73616710864243
6.62040832,1.0002989496882568,-40.314094165104706
6.636734464,1.0004181981775175,-40.89375943879902
6.65306112,1.0005205108158335,-41.474965591719155
6.669387776,1.0006012534198991,-42.057542839630386
6.685714432,1.0006569311302007,-42.64114082204149
6.702040576,1.0006855282505767,-43.2255351168361
6.718367232,1.0006850775458958,-43.81032855988716
6.734693888,1.0006558090772035,-44.39524664841275
6.751020544,1.000598909182223,-44.9798747308919
6.767346688,1.0005165755277294,-45.56396607129005
6.783673344,1.0004120043170528,-46.14721162609176
6.8,1.0002895416506685,-46.72938376680339
6.816326656,1.0001545169236647,-47.31028725103409
6.832653312,1.0000123132891752,-47.88981213000594
6.848979456,0.9998688190685041,-48.4678837940029
6.865306112,0.9997303375674921,-49.044563699496656
6.881632768,0.9996023213558832,-49.6199310703455
6.897959424,0.9994906306826924,-50.19409117248411
6.914285568,0.999399885787108,-50.767281133791684
6.930612224,0.9993338204408193,-51.339818687015885
6.94693888,0.9992954667139594,-51.911936199347345
6.963265536,0.9992867720249193,-52.48403635128657
6.97959168,0.999307933181158,-53.05646769681181
6.995918336,0.9993583872985755,-53.62951854169682
7.012244992,0.9994359490939523,-54.20360073958457
7.028571648,0.9995376705558097,-54.778921010217736
7.044897792,0.9996592553499013,-55.355853804103276
7.061224448,0.9997958612736564,-55.93455423642323
7.077551104,0.9999414217666021,-56.51517541997012
7.09387776,1.0000901768700008,-57.09779908275324
7.110203904,1.0002357375435982,-57.68237938435013
7.12653056,1.0003722055896096,-58.26890940771112
7.142857216,1.0004935678502946,-58.85722237395327
7.159183872,1.000594638685674,-59.447148057475104
7.175510016,1.000671361678801,-60.03836299743811
7.191836672,1.0007200706833967,-60.63062837755886
7.208163328,1.0007388126251655,-61.223572812570346
7.224489984,1.0007266814494764,-61.81680978178155
7.240816128,1.0006839033340917,-62.410033328540884
7.257142784,1.0006121829520045,-63.00284789839997
7.27346944,1.0005142982613315,-63.594946727332314
7.289796096,1.0003944328679528,-64.18609422182266
7.30612224,1.0002573628241551,-64.7759561446008
7.322448896,1.0001088408666654,-65.36441599264752
7.338775552,0.9999551075235807,-65.95135041996387
7.355102208,0.999802475364329,-66.5367942556253
7.371428352,0.9996572835577839,-67.12072057843461
7.387755008,0.999525858972783,-67.70327359861139
7.404081664,0.9994135864462025,-68.28463914410534
7.42040832,0.9993255653294786,-68.86507036564024
7.436734464,0.9992654496704751,-69.44490078138254
7.45306112,0.9992357937785415,-70.02443613056035
7.469387776,0.999238138731447,-70.60407413884377
7.485714432,0.9992724151721765,-71.1841679698935
7.502040576,0.9993373938421831,-71.76514296772325
7.518367232,0.9994306462235708,-72.34725987897046
7.534693888,0.9995483185988131,-72.93090155801725
7.551020544,0.9996853165108475,-73.51630959317589
7.567346688,0.9998362755697029,-74.1036916580737
7.583673344,0.9999947732000725,-74.69313472165777
7.6,1.0001542395076164,-75.28476171956238
7.616326656,1.000308102325565,-75.87846723727682
7.632653312,1.000449586773842,-76.4742359609816
7.648979456,1.0005729835425905,-77.07189102980689
7.665306112,1.0006729667541177,-77.67110110218555
7.681632768,1.0007451366328093,-78.27165838584706
7.697959424,1.0007865221802261,-78.87316515321798
7.714285568,1.0007950401004992,-79.47527097912285
7.730612224,1.0007703389232703,-80.07758403275251
7.74693888,1.0007132146975775,-80.67974929732777
7.763265536,1.000625805856816,-81.2813164756093
7.77959168,1.0005118304510263,-81.88206473018845
7.795918336,1.0003758659107453,-82.4815935003469
7.812244992,1.0002233438965702,-83.07975699440817
7.828571648,1.0000607088552607,-83.67633053360427
7.844897792,0.9998947261273443,-84.27126292960872
7.861224448,0.9997322269049429,-84.86456183037414
7.877551104,0.9995801603013377,-85.4562999876026
7.89387776,0.9994449228688219,-86.04658173241155
7.910203904,0.9993323719105205,-86.63568313757054
7.92653056,0.9992470385196307,-87.22390383263529
7.942857216,0.9991929989228435,-87.81155700843122
7.959183872,0.9991724194130854,-88.39905392915558
7.975510016,0.9991864744419646,-88.98674459651909
7.991836672,0.9992347944349423,-89.57510033085599
8.008163328,0.9993154456245195,-90.16448008305647
8.024489984,0.9994250974482901,-90.75525930458309
8.040816128,0.9995595308063578,-91.34772945311924
8.057142784,0.9997129131202869,-91.9422160276441
8.07346944,0.9998792552478649,-92.53884767194752
8.089796096,1.0000513113107001,-93.13778470291382
8.10612224,1.0002222607082774,-93.73900136345742
8.122448896,1.0003847527780136,-94.34251048789721
8.138775552,1.0005319618417936,-94.94813463893749
8.155102208,1.0006576595701597,-95.55569161411293
8.171428352,1.0007565002031993,-96.16486519772762
8.187755008,1.0008240215339868,-96.77532520417657
8.204081664,1.0008575920994067,-97.38672753612151
8.22040832,1.000855391263026,-97.99864424985228
8.236734464,1.0008174856796563,-98.6106342077627
8.25306112,1.0007451304545105,-99.22231516165938
8.269387776,1.0006413030485766,-99.83329796961154
8.285714432,1.0005100374306628,-100.44318252198816
8.302040576,1.0003567114785665,-101.05176459832948
8.318367232,1.0001876684138125,-101.65873910173973
8.334693888,1.0000098307799472,-102.2639714414614
8.351020544,0.9998306421955419,-102.86745473906268
8.367346688,0.9996575781556435,-103.46910244633551
8.383673344,0.9994979269297183,-104.06914858784306
8.4,0.9993584570003663,-104.66767231007417
8.416326656,0.9992450142175627,-105.2650104503406
8.432653312,0.9991625820630979,-105.86147385544797
8.448979456,0.9991148257830639,-106.45748245332528
8.465306112,0.9991038351145763,-107.05340864476022
8.481632768,0.9991303137963455,-107.64969116512022
8.497959424,0.9991932669704167,-108.2468177716464
8.514285568,0.9992903814293874,-108.84513269999283
8.530612224,0.9994176282737681,-109.44507484966798
8.54693888,0.9995700377094549,-110.04697237110798
8.563265536,0.999741127721551,-110.65102334791024
8.57959168,0.9999240624380544,-111.25751793334499
8.595918848,1.0001111156489162,-111.866467503247
8.61224448,1.000294564266948,-112.47791145024894
8.628571136,1.0004666395787918,-113.09177796748575
8.644897792,1.0006202245011757,-113.70788841290835
8.661224448,1.0007487514957736,-114.32598148560125
8.677551104,1.0008465966536093,-114.94570617614716
8.69387776,1.0009097269904033,-115.56676282948104
8.710204416,1.000935258174129,-116.18867934023336
8.726531072,1.00092184421716,-116.81099167727344
8.742856704,1.0008699094945104,-117.43330072316941
8.75918336,1.0007814208743497,-118.055104629331
8.775510016,1.0006598337589363,-118.67604677843802
8.791836672,1.0005100152996944,-119.2957139020289
8.808163328,1.0003379930438452,-119.91385053623873
8.824489984,1.000150965991048,-120.5302132195733
8.84081664,0.999956536412157,-121.14464379287425
8.857143296,0.9997628574979235,-121.75713828869993
8.873468928,0.9995779525209714,-122.36769965222689
8.889795584,0.9994096462623713,-122.97650030160067
8.90612224,0.9992650574017091,-123.58375682235867
8.922448896,0.9991502922889021,-124.18978757698878
8.938775552,0.9990704017606464,-124.7949802013489
8.955102208,0.9990289471734898,-125.3997485561074
8.971428864,0.9990277711058153,-126.00456947186959
8.98775552,0.9990672700587312,-126.60988984873767
9.004081152,0.9991458874113186,-127.21619105266328
9.020407808,0.9992606920277732,-127.8239406314687
9.036734464,0.9994070342440833,-128.43355094723617
9.05306112,0.9995788796691513,-129.04533623467344
9.069387776,0.9997693778505884,-129.65955253573827
9.085714432,0.9999705791326235,-130.27638030585862
9.102041088,1.0001741024436495,-130.89594112425345
9.118367744,1.0003715757514782,-131.51818280933335
9.134693376,1.0005547331526263,-132.14300402604815
9.151020032,1.0007157462354315,-132.77017777554843
9.167346688,1.0008479763955398,-133.3994385337403
9.183673344,1.000945569689951,-134.03039841019566
9.2,1.0010043714319679,-134.66264372327845
9.216326656,1.0010216353291221,-135.29570021988633
9.232653312,1.0009964752188385,-135.92907092465407
9.248979968,1.0009297741120404,-136.56227299730335
9.265306624,1.0008238376478844,-137.1948634617899
9.281632256,1.0006830198822951,-137.82633077234624
9.297958912,1.0005129409606806,-138.45636573634525
9.314285568,1.0003204451702759,-139.08462798149756
9.330612224,1.0001134405386485,-139.7109095254464
9.34693888,0.9999003828384276,-140.33504250957853
9.363265536,0.9996902082480293,-140.95701953238057
9.379592192,0.9994917396248916,-141.5769534715351
9.395918848,0.9993132025614726,-142.19499480340923
9.41224448,0.9991622674818793,-142.8113679311093
9.428571136,0.9990452369229875,-143.4265396070522
9.444897792,0.9989673993484475,-144.04083564861014
9.461224448,0.9989320713114301,-144.65478367267582
9.477551104,0.9989411377719719,-145.26886273632897
9.49387776,0.9989943485919186,-145.88364346638792
9.510204416,0.9990898431043427,-146.49960237963015
9.526531072,0.999223799423135,-147.11719490713523
9.542856704,0.9993909673016746,-147.73691420885072
9.55918336,0.9995845296698576,-148.3590451248729
9.575510016,0.9997965532892045,-148.98389961320325
9.591836672,1.0000183131135816,-149.61162899746466
9.608163328,1.0002407153357566,-150.24229949702703
9.624489984,1.000454410896439,-150.87592201053283
9.64081664,1.0006505424610341,-151.51227474193058
9.657143296,1.0008208285695752,-152.1511667005648
9.673468928,1.0009580364921076,-152.79221326305586
9.689795584,1.0010562056682786,-153.43502815751825
9.70612224,1.0011111335662812,-154.07912091881244
9.722448896,1.0011203040713674,-154.72399745064715
9.738775552,1.0010829264425103,-155.36908191890436
9.755102208,1.0010002842473678,-156.01387260149716
9.771428864,1.0008755682452974,-156.65782797538208
9.78775552,1.0007137580374108,-157.30049459608009
9.804081152,1.0005211956277815,-157.94147375645048
9.820407808,1.0003056483450008,-158.580425674767
9.836734464,1.0000760256048034,-159.21714633640866
9.85306112,0.9998417811998143,-159.85152077013905
9.869387776,0.9996126423062827,-160.48349930743962
9.885714432,0.9993980632640166,-161.11323272537683
9.902041088,0.9992071492364125,-161.74093673814056
9.918367744,0.9990479968551816,-162.36686758603776
9.934693376,0.9989274196192022,-162.99151475474383
9.951020032,0.9988506511818442,-163.61532028276633
9.967346688,0.998821198924102,-164.23879431746573
9.983673344,0.9988407246485437,-164.86254800646788
10.0,0.9989084719259332,-165.4871077086397
10.016326656,0.9990222194599523,-166.1130829418337
10.032653312,0.9991772577058766,-166.74093340088635
10.048979968,0.9993675343240435,-167.37116390311766
10.065306624,0.99958534686324,-168.00411090386766
10.081632256,0.9998218771122452,-168.64006122289362
10.097958912,1.0000673036169256,-169.27922420720716
10.114285568,1.000311479608543,-169.92160736049718
10.130612224,1.0005443891568042,-170.56714314754842
10.14693888,1.0007561636921831,-171.21569515114464
10.163265536,1.0009379960649651,-171.86692390767885
10.179592192,1.0010820355834844,-172.5204703972028
10.195918848,1.0011822171150115,-173.17582625763202
10.21224448,1.0012340225375416,-173.83252565071888
10.228571136,1.0012349738801813,-174.4899003076983
10.244897792,1.001184769830815,-175.14744170941339
10.261224448,1.0010849770677757,-175.80450129788065
10.277551104,1.000939604085099,-176.460561024698
10.29387776,1.0007541549544579,-177.11509448378476
10.310204416,1.00053608508514,-177.76767870404737
10.326531072,1.0002945107199357,-178.41795771870733
10.342856704,1.0000387709467868,-179.0657305956244
10.35918336,0.9997796765533725,-179.71085723656861
10.375510016,0.9995279839809164,179.646655662251
10.391836672,0.9992939608306175,179.00664442545468
10.408163328,0.9990876922881715,178.36886499266976
10.424489984,0.9989178176454239,177.73296474396332
10.44081664,0.9987917232729242,177.09845817760288
10.457143296,0.998714750878029,176.46480879083953
10.473468928,0.998690743309221,175.83146082398656
10.489795584,0.9987209290178057,175.1977140599916
10.50612224,0.9988044057514238,174.56298025286694
10.522448896,0.998938051850916,173.926638093952
10.538775552,0.9991167504432896,173.28813797815508
10.555102208,0.9993332919380324,172.64695423760105
10.571428864,0.9995791455885472,172.00271956525953
10.58775552,0.9998439948169527,171.35513026656122
10.604081152,1.0001172544108716,170.70401852304545
10.620407808,1.0003874449728052,170.04930973579053
10.636734464,1.000643480196279,169.39114917504887
10.65306112,1.0008747025435432,168.72971935451218
10.669387776,1.0010713048912323,168.06537599595842
10.685714432,1.0012248174878784,167.39855446632754
10.702041088,1.0013288067480004,166.7297888002025
10.718367744,1.0013784632997051,166.05967360761738
10.734693376,1.0013714515453178,165.38887013126666
10.751020032,1.0013076746467817,164.7180319158562
10.767346688,1.0011891826799546,164.04780766110832
10.783673344,1.001020604059122,163.37880361547025
10.8,1.0008084395990813,162.71158268115073
10.816326656,1.0005612211421127,162.04661984329647
10.832653312,1.0002888240260195,161.38426206579905
10.848979968,1.0000023023519233,160.72476317761704
10.865306624,0.9997134991422016,160.0682266649537
10.881632256,0.9994344252971405,159.41463130778317
10.897958912,0.9991765223783319,158.76380998585358
10.914285568,0.9989506788471628,158.11544954292518
10.930612224,0.9987666212178747,157.46914977122208
10.94693888,0.9986322793198746,156.82434343163
10.963265536,0.9985534841559852,156.18047039175158
10.979592192,0.9985339876757758,155.5368111093933
10.995918848,0.9985751819394358,154.89271123861815
11.01224448,0.9986756146178019,154.24741168123452
11.028571136,0.9988316955220347,153.60028512060933
11.044897792,0.999037326671503,152.9506676629264
11.061224448,0.9992843202364414,152.2980217606986
11.077551104,0.9995628163193163,151.64195685166348
11.09387776,0.9998613207877861,150.98207643001044
11.110204416,1.0001679072128669,150.31827835164844
11.126531072,1.00046991024344,149.65049483206118
11.142856704,1.0007545726540468,148.97885460019347
11.15918336,1.0010102604247457,148.30362004120542
11.175510016,1.0012260357649552,147.62518279741693
11.191836672,1.0013927675894287,146.94402973415268
11.208163328,1.0015034062125616,146.26081373817647
11.224489984,1.0015525239095056,145.5761484741656
11.24081664,1.00153779810628,144.890798875322
11.257143296,1.0014595373875674,144.20549554272364
11.273468928,1.001320142335807,143.5209722029135
11.289795584,1.0011251697461765,142.83790514979847
11.30612224,1.0008819753261025,142.15689678240926
11.322448896,1.0006001751307954,141.47849992056726
11.338775552,1.0002911997267254,140.80305707799354
11.355102208,0.9999675866913479,140.1308888671468
11.371428864,0.999642488588016,139.46206040930164
11.38775552,0.9993293134892333,138.79655992322176
11.404081152,0.9990411972600298,138.1341752114873
11.420407808,0.9987903810362546,137.47454985587498
11.436734464,0.9985873385360617,136.81721771570898
11.45306112,0.9984408840815476,136.16155289695615
11.469387776,0.9983576826979199,135.50685594090487
11.485714432,0.9983416558529059,134.85240416153542
11.502041088,0.9983940732931035,134.19736719773493
11.518367744,0.9985133433481846,133.54095711774826
11.534693376,0.9986949480631104,132.88239655042858
11.551020032,0.9989319679183922,132.22102845864646
11.567346688,0.9992150339426259,131.5561984969254
11.583673344,0.9995327635949844,130.88746822035174
11.6,0.9998723844480373,130.21443153792228
11.616326656,1.0002199779881134,129.53694330752356
11.632653312,1.0005613444881867,128.85499942803224
11.648979968,1.0008823494602272,128.1686725812037
11.665306624,1.0011694695920943,127.47832816674591
11.681632256,1.0014107176113412,126.78437997747663
11.697958912,1.0015956715750565,126.0874429970338
11.714285568,1.0017163796865822,125.38815455857991
11.730612224,1.0017672740637666,124.68733060775205
11.74693888,1.0017455550511996,123.98578787802019
11.763265536,1.0016516714149752,123.2843612701308
11.779592192,1.0014887561834722,122.58384369012842
11.795918848,1.00126280927731,121.88504867938074
11.81224448,1.0009826009424072,121.18866948359245
11.828571136,1.0006591571457195,120.49523306924647
11.844897792,1.0003055355164845,119.80525244448891
11.861224448,0.9999358413639697,119.1189678058692
11.877551104,0.9995651802271812,118.43654188090062
11.89387776,0.9992090045353212,117.75788508659893
11.910204416,0.9988820001035073,117.08275457885713
11.926531072,0.9985980230170549,116.41078441802479
11.942856704,0.9983691705071199,115.74140146909014
11.95918336,0.9982054110751389,115.07389888376993
11.975510016,0.9981142215192047,114.40749603124371
11.991836672,0.9980998945352022,113.74128751074717
12.008163328,0.9981638088563847,113.07440726765088
12.024489984,0.9983040591814032,112.4059263377771
12.04081664,0.9985155468168416,111.73495506097584
12.057143296,0.9987901124852737,111.0607231260408
12.073468928,0.9991169394823677,110.38251138665454
12.089795584,0.9994831657952157,109.69977862502365
12.10612224,0.999873853759825,109.01214790407019
12.122448896,1.0002733159919508,108.31939784060688
12.138775552,1.000665070152905,107.62148266420006
12.155102208,1.0010328146824825,106.91859810113498
12.171428864,1.0013614511602444,106.21105927878683
12.18775552,1.0016368691269983,105.49940774993489
12.204081152,1.0018474613524186,104.78432229774799
12.220407808,1.0019838101449918,104.06658454460025
12.236734464,1.0020396880144433,103.34706805514952
12.25306112,1.0020120569888626,102.62672104151088
12.269387776,1.001901134735542,101.90650914693443
12.285714432,1.0017108127616496,101.18738278577523
12.302041088,1.00144783012471,100.47021927538482
12.318367744,1.001122509661143,99.75582883004233
12.334693376,1.0007473637299986,99.04489106990192
12.351020032,1.0003374946354389,98.33786716653427
12.367346688,0.9999092953674421,97.63513864382405
12.383673344,0.9994801928226338,96.93683645327563
12.4,0.9990677842875049,96.24289600253596
12.416326656,0.9986893168022317,95.55303527464757
12.432653312,0.9983607384090079,94.86678924178102
12.448979968,0.998096213507015,94.18352002314137
12.465306624,0.9979072590904587,93.50242265346444
12.481632256,0.9978024951272063,92.82256158555224
12.497958912,0.9977871404268459,92.14295892209057
