freq,mag,phase
6.0,0.9998948283844892,151.09301325947177
6.002286592,0.9997834562934204,150.94262740315986
6.004572672,0.9996851697567115,150.79379308479372
6.006859264,0.9996066076500596,150.6462562813264
6.009145344,0.9995524963279963,150.499750261615
6.011431936,0.9995265853539026,150.3538103475391
6.013718016,0.9995303628114922,150.20810562316714
6.016004608,0.9995635431764245,150.06218043203864
6.018290688,0.9996242804806984,149.91559161732903
6.02057728,0.9997084373575372,149.76798592402426
6.022863872,0.9998110871764868,149.61903064293384
6.025149952,0.9999254314975289,149.46856488666833
6.027436544,1.000044316664055,149.31643446832996
6.029722624,1.0001602165635826,149.16260629441726
6.032009216,1.0002660012015199,149.00721122500437
6.034295296,1.0003547070976009,148.850469782376
6.036581888,1.0004208022784056,148.69259718464397
6.03886848,1.0004601639965736,148.5340157887635
6.04115456,1.0004703567490691,148.37509122283475
6.043441152,1.0004505209381216,148.21626197162846
6.045727232,1.0004018778415327,148.057966925617
6.048013824,1.0003276742979625,147.9006008616525
6.050299904,1.0002324964382199,147.74447073556246
6.052586496,1.0001222520976478,147.58986406543897
6.054872576,1.0000040427343262,147.4369477826103
6.057159168,0.9998852442612111,147.2858031041392
6.05944576,0.9997732621425767,147.13635474056287
6.06173184,0.9996755229800864,146.98847497207177
6.064018432,0.9995979334561073,146.84188864191586
6.066304512,0.9995455535383582,146.6962778039945
6.068591104,0.9995216302414313,146.55128510708238
6.070877184,0.9995277692752456,146.40644900382816
6.073163776,0.999563459927403,146.26133150009238
6.075450368,0.9996268307299774,146.1155130742712
6.077736448,0.9997134476929251,145.96866904885226
6.08002304,0.9998180297387221,145.8204577104516
6.08230912,0.9999340129850464,145.67065959703973
6.084595712,1.0000542087264954,145.51921577239634
6.086881792,1.0001705371643057,145.36604791267774
6.089168384,1.000276113020217,145.21131076593807
6.091454464,1.000364098427931,145.0552200374365
6.093741056,1.0004288206450749,144.89803120573674
6.096027648,1.0004664415302542,144.74013902857365
6.098313728,1.0004742663984183,144.58194338830197
6.10060032,1.0004518292278273,144.42388647295087
6.1028864,1.0004005817387354,144.26637923560796
6.105172992,1.000323981338389,144.10983165645055
6.107459072,1.0002265111287183,143.95459241280207
6.109745664,1.0001143296363035,143.80090011917778
6.112032256,0.9999947909172958,143.6489182895369
6.114318336,0.9998751985179728,143.49872498458893
6.116604928,0.9997631407086102,143.3502025496084
6.118891008,0.9996658012605627,143.20327063958797
6.1211776,0.9995893725172025,143.05763432321572
6.12346368,0.9995385428621497,142.9129559774897
6.125750272,0.9995168053190181,142.76883720439614
6.128036352,0.9995254177520193,142.6248407124383
6.130322944,0.9995638915461064,142.48053147757813
6.132609536,0.9996296527893853,142.33549513167216
6.134895616,0.9997187398623691,142.18938501756034
6.137182208,0.9998254556582078,142.04188460704503
6.139468288,0.9999430994160277,141.89277405639677
6.14175488,1.0000643029871508,141.74195851301155
6.14404096,1.0001810959242505,141.5894716572653
6.146327552,1.0002864453615479,141.43536770841393
6.148614144,1.0003736045206477,141.27991551037016
6.150900224,1.0004368833443134,141.12340417335287
6.153186816,1.0004723978895385,140.96620975016717
6.155472896,1.0004779457516642,140.80873907109753
6.157759488,1.0004529765546661,140.65144343843565
6.160045568,1.0003991013524425,140.4947517458377
6.16233216,1.00031979957706,140.33904483099408
6.16461824,1.000220004170621,140.18465440525935
6.166904832,1.000105961517827,140.03187468093196
6.169191424,0.9999848946860931,139.88084386553015
6.171477504,0.9998645930512328,139.73152747630112
6.173764096,0.9997525121876221,139.58401364697792
6.176050176,0.9996557605149896,139.4380233138144
6.178336768,0.9995805478939098,139.29329761550127
6.180622848,0.9995316113169066,139.14951477165187
6.18290944,0.999512114559039,139.00626523619349
6.18519552,0.9995231684106043,138.86309370797565
6.187482112,0.9995642917657037,138.71959775844672
6.189768704,0.9996327667307723,138.57534917225985
6.192054784,0.9997243837084897,138.42995280370215
6.194341376,0.9998332347503556,138.28314052655705
6.196627456,0.9999526057762995,138.13471621700614
6.198914048,1.000074770739346,137.98453141871383
6.201200128,1.0001921097821465,137.83266736383064
6.20348672,1.0002970508088094,137.67922211277164
6.205773312,1.0003831493478597,137.52440438065548
6.208059392,1.0004449365861394,137.36853699791615
6.210345984,1.0004784301353014,137.21204436217434
6.212632064,1.0004815080216427,137.0552837756598
6.214918656,1.000453847449634,136.89870657483607
6.217204736,1.0003972594887465,136.74281802001605
6.219491328,1.0003153189620244,136.58796236095796
6.221777408,1.0002131193375239,136.43444543045993
6.224064,1.0000972438680291,136.28254313398764
6.226350592,0.9999748981350269,136.13240692576545
6.228636672,0.9998538202019943,135.98408598492398
6.230923264,0.9997416157228103,135.83747002954433
6.233209344,0.9996456893914485,135.69239295805428
6.235495936,0.9995717358236733,135.54860923997958
6.237782016,0.9995247196194889,135.4057414641225
6.240068608,0.9995075177580502,135.26334538764837
6.2423552,0.9995212322112101,135.12100752733636
6.24464128,0.99956501473772,134.9783101622712
6.246927872,0.9996363231613602,134.83478660107784
6.249213952,0.9997304084354202,134.69011798327207
6.251500544,0.9998414017418099,134.54396791359756
6.253786624,0.9999624090452996,134.3961821306964
6.256073216,1.0000856322816472,134.24663553591353
6.258359296,1.0002032448959415,134.09539636464405
6.260645888,1.0003080787388001,133.94254800566583
6.26293248,1.0003930049492176,133.78836971930465
6.26521856,1.0004530366816478,133.6331342241597
6.267505152,1.000484387827871,133.47732041252902
6.269791232,1.000484853308208,133.32126733914072
6.272077824,1.0004544458482452,133.16545201610157
6.274363904,1.000395084922248,133.0103240954148
6.276650496,1.0003104574473956,132.85627337276014
6.278937088,1.0002059556280436,132.7036214022347
6.281223168,1.0000880610276566,132.55262368066064
6.28350976,0.9999643747952646,132.40340034171027
6.28579584,0.9998426672286231,132.25600183043363
6.288082432,0.9997305457383673,132.11032561771614
6.290368512,0.9996352806756963,131.9661587779681
6.292655104,0.999562791364505,131.82329042815775
6.294941184,0.9995177062259408,131.68128341363825
6.297227776,0.9995030114617821,131.53977210533066
6.299514368,0.9995195344366129,131.3982634124996
6.301800448,0.9995662217741852,131.25632273084778
6.30408704,0.9996402062721838,131.11354153438256
6.30637312,0.999736868346761,130.96955094664526
6.308659712,0.9998500254093718,130.8240649041102
6.310945792,0.9999726520713339,130.67689666271485
6.313232384,1.0000967483616547,130.5279769037463
6.315518464,1.0002147255979406,130.37731089651294
6.317805056,1.0003189650888265,130.22506622401673
6.320091648,1.0004028792977078,130.07148834302927
6.322377728,1.0004612055586541,129.9169174200488
6.32466432,1.0004902120036994,129.7617251046691
6.3269504,1.000488097220478,129.60637618984583
6.329236992,1.0004547895275209,129.45131043131417
6.331523072,1.0003925525449422,129.29696447010144
6.333809664,1.0003052426368733,129.14371603013
6.336096256,1.0001983195642878,128.99193375406017
6.338382336,1.000078533762756,128.84180892977062
6.340668928,0.9999536258172089,128.693512089792
6.342955008,0.9998312774107081,128.5470190811141
6.3452416,0.999719285557874,128.40223565334207
6.34752768,0.9996248861016463,128.25902430366665
6.349814272,0.9995537574323949,128.11703617456828
6.352100352,0.9995108188096294,127.97589284915753
6.354386944,0.9994985732156086,127.83520793463993
6.356673536,0.9995180433023284,127.69450947649604
6.358959616,0.9995675973389905,127.55329588191685
6.361246208,0.9996444659785536,127.4112260412938
6.363532288,0.9997437059120992,127.26791328379599
6.36581888,0.9998590923903684,127.1230698333578
6.36810496,0.9999831349977778,126.9765255888049
6.370391552,1.0001083518954403,126.82820112310182
6.372678144,1.0002264622858357,126.67811553923718
6.374964224,1.0003301800130875,126.52645730060794
6.377250816,1.000412880742168,126.37346992795793
6.379536896,1.0004694105164895,126.21951099893931
6.381823488,1.0004959861739764,126.06495489149177
6.384109568,1.0004910324153329,125.91028964614979
6.38639616,1.0004549006618626,125.75595260949568
6.38868224,1.0003895973448182,125.60235631729094
6.390968832,1.000299606897499,125.44993205056089
6.393255424,1.0001902579371889,125.29897625482346
6.395541504,1.0000686194377288,125.14973326501887
6.397828096,0.9999424055798078,125.00231177171247
6.400114176,0.9998194932550364,124.85672645975961
6.402400768,0.9997077628592632,124.71290096326533
6.404686848,0.9996141464266705,124.5705567130009
6.40697344,0.9995448094250524,124.42945931541624
6.409260032,0.9995041241379994,124.28919302850268
6.411546112,0.9994943496864376,124.1493179133961
6.413832704,0.9995166296143567,124.00937948881605
6.416118784,0.9995691942804661,123.86893207409771
6.418405376,0.9996489632644345,123.72755763422558
6.420691456,0.9997509778107564,123.58487812463596
6.422978048,0.9998684027867636,123.44064794222466
6.425264128,0.9999941770120362,123.29468111915699
6.42755072,1.0001201482361783,123.14690737784942
6.429837312,1.0002384990401418,122.9973863195727
6.432123392,1.000341522777333,122.84629024018737
6.434409984,1.000422917947585,122.69390819882068
6.436696064,1.0004774370015097,122.5405292036777
6.438982656,1.0005014695587364,122.38663603480003
6.441268736,1.00049373411677,122.2326216503709
6.443555328,1.000454588842777,122.07898983759812
6.44584192,1.000386415082071,121.92614898495196
6.448128,1.0002934887465917,121.77450347697399
6.450414592,1.0001818261213244,121.62438857533613
6.452700672,1.0000582626754222,121.476016567378
6.454987264,0.9999308501408746,121.32947243996473
6.457273344,0.9998074597881241,121.18478402518295
6.459559936,0.9996960597432235,121.04184082366746
6.461846016,0.9996034466225979,120.90042248950546
6.464132608,0.9995358115403941,120.7601833107405
6.4664192,0.9994973048111343,120.62074496099805
6.46870528,0.999490443969472,120.48167360506375
6.470991872,0.9995156834164881,120.34248970080104
6.473277952,0.9995714010226595,120.20276628471616
6.475564544,0.9996540070259708,120.0620644389703
6.477850624,0.999758579701602,119.92000178722981
6.480137216,0.9998783010792618,119.77636805963866
6.482423296,1.0000055283875011,119.63093816543991
6.484709888,1.0001323988087751,119.48372661749589
6.48699648,1.000250732110666,119.33474565739508
6.48928256,1.000353164504847,119.1842051749731
6.491569152,1.0004330916693218,119.03235727066486
6.493855232,1.0004855300330022,118.8795803073553
6.496141824,1.0005069631507297,118.7262750043037
6.498427904,1.0004964189550858,118.57293680838805
6.500714496,1.0004539958667553,118.41999726922631
6.503001088,1.0003828006029993,118.26790728716685
6.505287168,1.0002871587622815,118.1170567953154
6.50757376,1.0001729010809004,117.96775399063951
6.50985984,1.0000475946963128,117.82022006813781
6.512146432,0.9999189524976018,117.67455399410042
6.514432512,0.999795242893423,117.53075955569439
6.516719104,0.9996839634736998,117.38868555352492
6.519005184,0.9995926146799001,117.24812232216225
6.521291776,0.9995267977003177,117.10875221912286
6.523578368,0.9994907679749311,116.97013272753671
6.525864448,0.9994867266874903,116.83184701484346
6.52815104,0.9995150237062024,116.69338949779974
6.53043712,0.9995738158759814,116.55435262581136
6.532723712,0.9996595998631213,116.41428190460037
6.535009792,0.9997667147011317,116.27284730580172
6.537296384,0.9998885349602241,116.12979791745019
6.539582976,1.0000173712460079,115.98490458536622
6.541869056,1.0001450362080353,115.83821446584302
6.544155648,1.0002633824045337,115.6897515486817
6.546441728,1.0003649672495338,115.53970657795742
6.54872832,1.0004433605986238,115.38839961332519
6.5510144,1.0004935597140487,115.23619884610916
6.553300992,1.0005123681106587,115.0834810701931
6.555587072,1.0004986280271861,114.93077557429517
6.557873664,1.0004531882728502,114.77853830466826
6.560160256,1.0003788841981585,114.62714891590295
6.562446336,1.0002802446884136,114.47708744643734
6.564732928,1.0001637488406017,114.3286062670109
6.567019008,1.0000365223642538,114.18189174969774
6.5693056,0.9999066871904024,114.03708229653755
6.57159168,0.9997824984566008,113.8941472903369
6.573878272,0.9996718683194139,113.75297268377606
6.576164864,0.9995816558084006,113.61326509072164
6.578450944,0.9995177532103341,113.47471170651313
6.580737536,0.9994842242991957,113.33688191226209
6.583023616,0.9994831092395032,113.19936152862998
6.585310208,0.9995144809646316,113.06162006853492
6.587596288,0.9995765397596541,112.92324709083941
6.58988288,0.9996653769520973,112.78379859526541
6.59216896,0.9997752503084668,112.64297430815432
6.594455552,0.9998991646713233,112.50041513764072
6.596742144,1.0000294798516796,112.35607228601664
6.599028224,1.0001578435634557,112.20985421749997
6.601314816,1.0002760535596018,112.06191014136641
6.603600896,1.0003768126562944,111.91236094965963
6.605887488,1.0004535091106228,111.76158060466902
6.608173568,1.0005014695018812,111.60989505359764
6.61046016,1.0005175586201367,111.45779469636656
6.612746752,1.000500674661013,111.30569473413907
6.615032832,1.0004518642851754,111.15411222737892
6.617319424,1.0003744384718707,111.00346008626778
6.619605504,1.000272864917688,110.85413754691693
6.621892096,1.000153859747814,110.70642544856317
6.624178176,1.0000249057907498,110.56058777182513
6.626464768,0.9998940043884037,110.41660784783194
6.628750848,0.9997695713807994,110.27454701262326
6.63103744,0.9996594268371715,110.13419089885168
6.633324032,0.9995705954019166,109.99531772279973
6.635610112,0.9995087566657405,109.85758006884804
6.637896704,0.9994777541552949,109.7205326621239
6.640182784,0.9994797926197204,109.58376170855186
6.642469376,0.9995144652638442,109.44671680570413
6.644755456,0.999579806500344,109.30898016635106
6.647042048,0.9996716312490557,109.17012995083945
6.649328128,0.9997842404086166,109.02982425348418
6.65161472,0.9999102084574135,108.88780926477979
6.653901312,1.0000419500575246,108.74393038377988
6.656187392,1.0001709963588445,108.5982157025366
6.658473984,1.0002890939987206,108.45072553836594
6.660760064,1.0003888530335998,108.30164427283084
6.663046656,1.0004638410043245,108.15137908686114
6.665332736,1.0005092760090926,108.00019497088613
6.667619328,1.0005224436546114,107.84864104911595
6.66990592,1.0005023975245417,107.69716237120866
6.672192,1.0004503604706612,107.54623780250662
6.674478592,1.0003696108689968,107.39627106514045
6.676764672,1.000265198773218,107.24769786963778
6.679051264,1.0001438134735177,107.100789508207
6.681337344,1.0000129118278698,106.95572878749157
6.683623936,0.9998809332610298,106.81259996174941
6.685910016,0.9997562751911827,106.67135551175566
6.688196608,0.9996467867662595,106.53184458546312
6.6904832,0.9995594544091801,106.39380740946135
6.69276928,0.9994997756853573,106.25685692399254
6.695055872,0.9994714957155065,106.12058031448927
6.697341952,0.9994766112952989,105.98450055332923
6.699628544,0.9995146783804033,105.8481205396551
6.701914624,0.9995834333481278,105.71099680262945
6.704201216,0.9996783688709415,105.57270417114897
6.706487808,0.9997935915020644,105.43293583301502
6.708773888,0.9999218568673256,105.29141107317135
6.71106048,1.000055010866772,105.14799467311823
6.71334656,1.000184508258385,105.00272116576974
6.715633152,1.0003022997641042,104.85564776905542
6.717919232,1.000400896704819,104.70705823114837
6.720205824,1.0004740700053862,104.55723496348391
6.722491904,1.0005170849336114,104.40656750549456
6.724778496,1.0005271563956941,104.25556516366551
6.727065088,1.0005038137666835,104.10466818299292
6.729351168,1.0004484255871726,103.95436305765107
6.73163776,1.0003643725734097,103.80509803483045
6.73392384,1.0002569731269926,103.6572648487908
6.736210432,1.0001331380793856,103.51109980614737
6.738496512,1.000000505154605,103.36683666083111
6.740783104,0.9998676504139455,103.22451915613112
6.743069696,0.9997428330905646,103.0840888613196
6.745355776,0.9996341494785727,102.94540227517422
6.747642368,0.9995482126025312,102.80815511570954
6.749928448,0.9994909133221345,102.67197332979465
6.75221504,0.9994655008605123,102.53643371214692
6.75450112,0.9994738249486401,102.4010335079145
6.756787712,0.9995152876568029,102.26527889801493
6.759073792,0.9995873172247955,102.12876148331853
6.761360384,0.9996855373233041,101.9910263983047
6.763646976,0.9998034785732299,101.85172221439076
6.765933056,0.9999337823129129,101.71066857926598
6.768219648,1.000068278315767,101.56769981308291
6.770505728,1.000198292085711,101.42283824457544
6.77279232,1.0003157703802659,101.27619232231734
6.7750784,1.0004130740603654,101.12800855380718
6.777364992,1.0004844061552776,100.9786189115723
6.779651584,1.0005246922862294,100.82845853999268
6.781937664,1.0005316553914063,100.67796726281536
6.784224256,1.0005048893263115,100.52764333036541
6.786510336,1.0004459848846274,100.37797501152227
6.788796928,1.0003585449777048,100.229369300178
6.791083008,1.000248249984781,100.08222674684845
6.7933696,1.0001219799211876,99.93681322966428
6.79565568,0.9999877118610595,99.79333657603192
6.797942272,0.999853879666878,99.65180808648036
6.800228864,0.999729128281197,99.51219170578602
6.802514944,0.9996212412164261,99.37432159941119
6.804801536,0.9995370711030961,99.23784600227914
6.807087616,0.9994820061480144,99.10241076154055
6.809374208,0.9994595398615311,98.96756796404708
6.811660288,0.9994712959695211,98.83284381601058
6.81394688,0.9995162748914866,98.69770181195051
6.81623296,0.9995918532093744,98.56173299634786
6.818519552,0.9996931729889305,98.42449843806342
6.820806144,0.9998138200438843,98.28567318356366
6.823092224,0.9999462922115402,98.1450246722303
6.825378816,1.0000820482253978,98.00246385790298
6.827664896,1.0002124380232023,97.85799353622276
6.829951488,1.0003294279819208,97.71174359185908
6.832237568,1.0004254831609791,97.56395898462803
6.83452416,1.0004945375110756,97.41501577139397
6.836810752,1.0005320984480919,97.2653213696168
6.839096832,1.0005359533448428,97.11531328200462
6.841383424,1.0005056968963748,96.96555274845261
6.843669504,1.0004431923487513,96.81647199411088
6.845956096,1.0003523873612992,96.66850640609782
6.848242176,1.000239053182337,96.5220553941691
6.850528768,1.0001103789426404,96.37739366608795
6.852814848,0.99997439415983,96.23466822829057
6.85510144,0.99983985129383,96.09394864926574
6.857388032,0.9997151216013126,95.95510484407721
6.859674112,0.9996080813096445,95.81798816344904
6.861960704,0.9995257851514742,95.68227527425643
6.864246784,0.9994732083477079,95.54755232999749
6.866533376,0.9994539027052745,95.41341005064645
6.868819456,0.9994690770565023,95.27931902097455
6.871106048,0.9995177186427138,95.14476626355108
6.87339264,0.9995966923019483,95.0093206767324
6.87567872,0.9997011489262689,94.8725550261766
6.877965312,0.9998246430859121,94.73416722149186
6.880251392,0.9999591125981395,94.59393968334548
6.882537984,1.0000960569901498,94.45173785245473
6.884824064,1.0002268478354264,94.30762252186703
6.887110656,1.0003433243178024,94.16174066670582
6.889396736,1.0004379570439392,94.01432955782334
6.891683328,1.0005047346413376,93.8657781558953
6.89396992,1.0005395247901723,93.71650442892286
6.896256,1.0005399442962217,93.56700964657064
6.898542592,1.000506045732703,93.4177558278488
6.900828672,1.0004399325108282,93.2692519512452
6.903115264,1.0003457505515752,93.1219319471373
6.905401344,1.000229464306233,92.97615233331864
6.907687936,1.0000983612725876,92.83221958686342
6.909974528,0.9999607522074401,92.6902277658202
6.912260608,0.9998254565036141,92.55025680630503
6.9145472,0.9997008431803844,92.41219873076633
6.91683328,0.9995948701809954,92.27584211398207
6.919119872,0.9995144952080326,92.1408504878452
6.921405952,0.9994646818483559,92.00685120957574
6.923692544,0.9994484122750814,91.87334052263901
