freq,mag,phase
6.0,1.0008826075909034,119.2815175265778
6.002285568,1.0010088273773199,119.1236402108425
6.004571648,1.0010714342801181,118.96441420483393
6.006857216,1.0010656427152096,118.80484692913136
6.009142784,1.000991657956937,118.6458812568459
6.011428352,1.0008543501280445,118.4885000900979
6.013714432,1.000662121723114,118.3335464193287
6.016,1.0004271718866413,118.18175047438442
6.018285568,1.0001645010159657,118.03357833057093
6.020571648,0.9998906262187076,117.88938649090643
6.022857216,0.9996230346765235,117.74915406268906
6.025142784,0.9993785415661477,117.61271337786744
6.027428352,0.9991727586394421,117.47959786935445
6.029714432,0.9990189236503592,117.34914235025782
6.032,0.9989267345058622,117.22054152739923
6.034285568,0.9989021858674125,117.09284940260557
6.036571648,0.9989466705406992,116.96506175835088
6.038857216,0.9990576613212784,116.8361747878138
6.041142784,0.9992279445529824,116.70529334066349
6.043428352,0.9994468957742686,116.5716236295522
6.045714432,0.9997004738137306,116.43458713620626
6.048,0.9999725606889497,116.29374644447687
6.050285568,1.000245972008361,116.14893947065586
6.052571648,1.000503412872119,116.0003499915272
6.054857216,1.0007284836489019,115.84829811486118
6.057142784,1.0009070071415433,115.69337879488451
6.059428352,1.001027459403666,115.53630941243314
6.061714432,1.0010823183977458,115.37801130219378
6.064,1.001068056236758,115.21946680734588
6.066285568,1.0009854068089217,115.06165332430041
6.068571648,1.0008397746813789,114.90553281179052
6.070857216,1.0006403313658376,114.75196739271746
6.073142784,1.0003995050693129,114.60162223829191
6.075428352,1.0001326290359855,114.45501593933896
6.077714432,0.9998565620418347,114.31243339559497
6.08,0.9995888663713747,114.17381385663865
6.082285568,0.9993467198039466,114.03894468355487
6.084571648,0.9991450171405866,113.90737095545178
6.086857216,0.9989972073729392,113.77841995377159
6.089142784,0.9989123215697091,113.6511635448195
6.091428352,0.9988960967571691,113.52472035983966
6.093714432,0.9989492876276527,113.39804059516057
6.096,0.9990688469841205,113.27016913398666
6.098285568,0.9992470578758554,113.14016418802346
6.100571648,0.9994726074497027,113.00723936754987
6.102857216,0.9997310776144966,112.87084891395543
6.105142784,1.0000064263825754,112.73063736394036
6.107428352,1.0002807865699632,112.58644160578102
6.109714432,1.00053691370297,112.43844583345304
6.112,1.0007586589033133,112.28702407423471
6.114285568,1.0009316965431576,112.13274984662303
6.116571648,1.0010453329101472,111.97643323093384
6.118857216,1.001092110816083,111.81902105069982
6.121142784,1.0010690943348566,111.66146699753426
6.123428352,1.0009778511186522,111.5047618380981
6.125714432,1.0008239184269951,111.3498981657501
6.128,1.0006170250152804,111.19765148639073
6.130285568,1.0003703633689407,111.04877098353383
6.132571648,1.0000994741120395,110.90365957715602
6.134857216,0.9998214903527134,110.76261413323145
6.137142784,0.9995540229457744,110.62555483427428
6.139428352,0.9993142712650999,110.49223665875992
6.141714432,0.999117355190473,110.36216231758105
6.144,0.9989757114961355,110.23459760153237
6.146285568,0.9988986707182527,110.10867561252871
6.148571648,0.998890929939594,109.9833908765529
6.150857216,0.9989531137903904,109.85779297896875
6.153142784,0.9990812968614126,109.73082897475734
6.155428352,0.9992673206676069,109.60161269193304
6.157714432,0.9994996090721695,109.46940518781491
6.16,0.9997630492533082,109.33360711494053
6.162285568,1.0000411411274375,109.19393678085285
6.164571648,1.0003162515780495,109.05026121101629
6.166857216,1.000570780785521,108.9027946513121
6.169142784,1.0007888625542056,108.75188808737138
6.171428352,1.0009562832467784,108.59825754329648
6.173714432,1.001062519312782,108.44269245999732
6.176,1.0011010704648413,108.28607708670361
6.178285568,1.0010691902896272,108.12946141925514
6.180571648,1.000968932171916,107.9738366257817
6.182857216,1.0008066405785814,107.82016888147787
6.185142784,1.0005924675582931,107.669258265131
6.187428352,1.000339966118598,107.52177326877587
6.189714432,1.0000652270794244,107.37812259788686
6.192,0.9997855285379198,107.23858697006413
6.194285568,0.9995186803767452,107.1030399591794
6.196571648,0.9992817802444733,106.97122409686153
6.198857216,0.9990898045659201,106.84259592897978
6.201142784,0.9989548592526738,106.71636097406159
6.203428352,0.9988857163893625,106.59168545825482
6.205714432,0.9988867482425632,106.46751116078501
6.208,0.9989581290729912,106.34287646337029
6.210285568,0.9990952468041057,106.21675298190527
6.212571648,0.9992891383964297,106.0882745607186
6.214857216,0.9995279126364688,105.95670207562192
6.217142784,0.9997962150286359,105.82142981095308
6.219428352,1.000077038472016,105.68221746128887
6.221714432,1.0003525695766537,105.53896951683852
6.224,1.000605166559762,105.3919692243365
6.226285568,1.0008191188215108,105.24159056813492
6.228571648,1.000980478779009,105.08853102006537
6.230857216,1.0010793452260958,104.93360510304574
6.233142784,1.001109193935567,104.77778371446041
6.235428352,1.0010680995881138,104.622069086454
6.237714432,1.0009588139501613,104.46750485677228
6.24,1.0007880162387497,104.31495887222151
6.242285568,1.0005666487781204,104.1653319117404
6.244571648,1.0003084550312973,104.01919771021959
6.246857216,1.000029973875276,103.87702653904127
6.249142784,0.9997489260885276,103.73893100056387
6.251428352,0.9994829955635836,103.60489555373334
6.253714432,0.9992491587336026,103.47450579948122
6.256,0.9990622970117116,103.3472294927715
6.258285568,0.9989344824559263,103.22228061256907
6.260571648,0.9988736998235175,103.09878948622759
6.262857216,0.9988838855166661,102.9756703434249
6.265142784,0.9989645318594836,102.85194066497388
6.267428352,0.9991104509766808,102.72660185340484
6.269714432,0.9993123852150674,102.59876047031081
6.272,0.9995575888626547,102.46771718828674
6.274285568,0.999830610962525,102.33290601399226
6.276571648,1.0001137115891157,102.19410490506968
6.278857216,1.0003892464615434,102.05125736133306
6.281142784,1.0006397521548462,101.90462006477493
6.283428352,1.0008491846842542,101.75468707830342
6.285714432,1.001004424318576,101.60213437732824
6.288,1.001095329454642,101.44783366852333
6.290285568,1.00111633884058,101.29275418010461
6.292571648,1.0010659779342057,101.13793724843067
6.294857216,1.0009474497190076,100.98433969500148
6.297142784,1.0007681450076362,100.83293927334162
6.299428352,1.0005394209040466,100.68452375467712
6.301714432,1.0002758146673774,100.53973500397422
6.304,0.9999939556127782,100.39894572999016
6.306285568,0.9997116511246512,100.26229549116181
6.308571648,0.999446925708584,100.12965664789155
6.310857216,0.9992165861573529,100.00066064673906
6.313142784,0.9990354550850623,99.87472787475872
6.315428352,0.9989148852827681,99.75100194974885
6.317714432,0.9988625917868448,99.62860179950081
6.32,0.9988821968639149,99.50646381379607
6.322285568,0.998972264059269,99.38358069327546
6.324571648,0.9991271184330064,99.2589297615151
6.326857216,0.9993370534650969,99.13164992372774
6.329142784,0.9995886516060085,99.00105515576362
6.331428352,0.9998658576564602,98.86663755190766
6.333714432,1.0001513730169787,98.72816900255894
6.336,1.0004266749170727,98.58565896523253
6.338285568,1.000674612019059,98.4393507409128
6.340571648,1.000879259992596,98.28982828399525
6.342857216,1.001027725811384,98.1377355351396
6.345142784,1.0011104777235516,97.9839953801396
6.347428352,1.0011223279259547,97.82960007430512
6.349714432,1.0010624862639892,97.67559570362901
6.352,1.0009345450081428,97.52298141133899
6.354285568,1.000746761065827,97.37267277656848
6.356571648,1.0005109180026253,97.22549618493714
6.358857216,1.000241835598996,97.08198023033601
6.361142784,0.9999567426609197,96.94253643720049
6.363428352,0.9996736329588106,96.80726103551041
6.365714432,0.9994103292553302,96.67600044981452
6.368,0.9991840831391492,96.54836471492844
6.370285568,0.9990088041067501,96.42366744697911
6.372571648,0.9988958412515514,96.30111549931028
6.374857216,0.9988525202195442,96.17972328532068
6.377142784,0.9988815810634203,96.05850811914141
6.379428352,0.998981216591546,95.93637824473252
6.381714432,0.9991451517353053,95.81236580593847
6.384,0.9993629703543837,95.68558222518
6.386285568,0.9996208558566215,95.55537508566567
6.388571648,0.9999023039831572,95.4212738566091
6.390857216,1.0001896620488433,95.2830703991947
6.393142784,1.0004644646739589,95.14079714623203
6.395428352,1.0007094837334414,94.99476973154805
6.397714432,1.000909044513628,94.84556234118963
6.4,1.0010504076026299,94.69389103441256
6.402285568,1.001124775437798,94.5406803685947
6.404571648,1.0011272658749593,94.38695407355019
6.406857216,1.0010575731065816,94.2337237682415
6.409142784,1.0009203075011452,94.08202437089642
6.411428352,1.0007239014091032,93.93280530590377
6.413714432,1.0004809337626324,93.78677876048647
6.416,1.000206758795942,93.6445313493996
6.418285568,0.9999186842175694,93.50639443034007
6.420571648,0.9996349609885324,93.37244862985392
6.422857216,0.9993736547604599,93.24253410406095
6.425142784,0.9991514811440213,93.11616650974123
6.427428352,0.9989825631954377,92.99267820011156
6.429714432,0.9988776243430201,92.87121497968553
6.432,0.9988435616594078,92.75083071672363
6.434285568,0.9988822584577374,92.63040218895347
6.436571648,0.9989917614633405,92.508955371746
6.438857216,0.9991647002486813,92.38549446164718
6.441142784,0.9993902961402239,92.25913177927922
6.443428352,0.9996543447938216,92.12926418019269
6.445714432,0.9999398950346388,91.9953946078858
6.448,1.0002287412783508,91.85737088307312
6.450285568,1.0005027989786144,91.71529536046401
6.452571648,1.0007445112662652,91.56949331181416
6.454857216,1.000938607350947,91.4205652884078
6.457142784,1.0010725835396612,91.26926785118809
6.459428352,1.0011381618288262,91.11654833467509
6.461714432,1.001130963066034,90.96341933685508
6.464,1.00105132148404,90.81095750523018
6.466285568,1.0009047142569565,90.66014692971693
6.468571648,1.0006997656180132,90.51192126299962
6.470857216,1.0004497993101433,90.36702855196631
6.473142784,1.0001705024761447,90.2260168454172
6.475428352,0.9998796766768258,90.08915685187729
6.477714432,0.9995956914624401,89.95652253748092
6.48,0.9993366999249309,89.82785765330009
6.482285568,0.9991190813129329,89.7027138934061
6.484571648,0.9989567092791322,89.58037291476124
6.486857216,0.9988602629408312,89.4599601854751
6.489142784,0.9988355222334855,89.34044011238976
6.491428352,0.9988842418683939,89.22080682867076
6.493714432,0.9990034040432776,89.09995786969024
6.496,0.9991855093387543,88.97697110808822
6.498285568,0.999419018237998,88.85095134413793
6.500571648,0.9996889617834389,88.72130192726256
6.502857216,0.999978186967784,88.5876174192645
6.505142784,1.0002685483495073,88.44973842768708
6.507428352,1.0005413794467808,88.30778166932845
6.509714432,1.000779335550862,88.16214760101185
6.512,1.0009675673603737,88.01344116061247
6.514285568,1.0010939102970895,87.86246765737687
6.516571648,1.0011503508507476,87.7101944696478
6.518857216,1.0011331949164919,87.55763038917732
6.521142784,1.001043727483985,87.40588452401389
6.523428352,1.0008874269579688,87.25594190609479
6.525714432,1.0006740643943013,87.10872707064257
6.528,1.0004171710981251,86.96493139287962
6.530285568,1.0001331542433587,86.82506561145725
6.532571648,0.9998398583418071,86.6894535875508
6.534857216,0.9995559376113804,86.5580767096496
6.537142784,0.9992995348644179,86.43064568183524
6.539428352,0.9990868853729692,86.30666484498971
6.541714432,0.9989316578746437,86.18541090265322
6.544,0.9988437138858602,86.06595017144399
6.546285568,0.99882867500808,85.94727163732317
6.548571648,0.998887532560279,85.82831820678962
6.550857216,0.9990167184726557,85.70802778155279
6.553142784,0.9992079640630644,85.58539441811833
6.555428352,0.999449155365488,85.45966520289166
6.557714432,0.9997247690227318,85.33017069831867
6.56,1.0000176243899612,85.19658962613107
6.562285568,1.0003088430294302,85.0587716333852
6.564571648,1.0005802405580877,84.91686869036415
6.566857216,1.0008142419341788,84.7713458593828
6.569142784,1.0009961265312082,84.62280822657996
6.571428352,1.0011144441576423,84.47212337214182
6.573714432,1.0011615650814043,84.32024091198828
6.576,1.0011344294213573,84.16823211884375
6.578285568,1.0010347406293951,84.01717158779256
6.580571648,1.0008687037070718,83.86805771127597
6.582857216,1.0006469338670068,83.72178207862837
6.585142784,1.000383323045947,83.57905422805955
6.587428352,1.0000947259827035,83.44034513023136
6.589714432,0.999799309859754,83.30593166708263
6.592,0.9995157950712251,83.17573578530678
6.594285568,0.9992623498295907,83.04948233663671
6.596571648,0.9990550898412736,82.92663084781555
6.598857216,0.9989071612274966,82.80637427857664
6.601142784,0.9988282360222472,82.68782808819238
6.603428352,0.9988231233525855,82.56990286037396
6.605714432,0.9988922814303947,82.45156343058241
6.608,0.9990315055945126,82.3317250868289
6.610285568,0.9992318359338627,82.20942143049602
6.612571648,0.9994805805675431,82.0838696229224
6.614857216,0.9997618871439359,81.95449348524386
6.617142784,1.0000580155696732,81.82092819956124
6.619428352,1.0003499189835399,81.68310612683374
6.621714432,1.0006192887242402,81.54123293463816
6.624,1.000848978468978,81.39574027814511
6.626285568,1.0010242338433333,81.24732388353104
6.628571648,1.0011340618031668,81.09686104788929
6.630857216,1.0011715131195016,80.94535957945143
6.633142784,1.0011341920374701,80.79385413629954
6.635428352,1.0010241138195661,80.64343599446859
6.637714432,1.0008485646918044,80.49512460717636
6.64,1.0006184540518441,80.3497624407186
6.642285568,1.0003482651871476,80.2080497583618
6.644571648,1.0000552129784919,80.07045924400643
6.646857216,0.9997579340008862,79.9371894480367
6.649142784,0.9994752972398413,79.80815783765283
6.651428352,0.9992251655864949,79.68302618634988
6.653714432,0.9990236657933584,79.56123329346696
6.656,0.9988834992556483,79.44194610271495
6.658285568,0.9988137735297773,79.32421428540196
6.660571648,0.9988188916960549,79.20701525526255
6.662857216,0.9988985067070697,79.08917827048059
6.665142784,0.9990477849542698,78.9697237918348
6.667428352,0.9992571674903171,78.84767437509869
6.669714432,0.9995134065215662,78.72224516233389
6.672,0.9998000470574998,78.59286908340454
6.674285568,1.0000991007652922,78.45927774844388
6.676571648,1.0003913819280872,78.32139068437505
6.678857216,1.0006584428640115,78.17943993911885
6.681142784,1.0008833210375396,78.03396274810545
6.683428352,1.0010517615235786,77.88561877133922
6.685714432,1.001152925371807,77.73534942329587
6.688,1.001180348112025,77.58416035707862
6.690285568,1.0011325853576991,77.43314260222965
6.692571648,1.0010121454062142,77.2833395230755
6.694857216,1.0008269466702053,77.13578698575195
6.697142784,1.0005884473841333,76.99131628036588
6.699428352,1.0003118636971207,76.8505914295802
6.701714432,1.0000147916479465,76.71407036059264
6.704,0.9997159795732606,76.58191542591362
6.706285568,0.9994344167994024,76.45399183300786
6.708571648,0.9991881120023693,76.32995160665865
6.710857216,0.998992590159861,76.20916192618701
6.713142784,0.9988605703459438,76.09076020582455
6.715428352,0.9988002886670156,75.97379161301396
6.717714432,0.9988158538633738,75.8571844279842
6.72,0.9989062080343953,75.73983428556586
6.722285568,0.9990655915523687,75.62067835160543
6.724571648,0.9992839671049228,75.49878951528868
6.726857216,0.9995474714729373,75.37339254394087
6.729142784,0.9998392692013289,75.24399303395873
6.731428352,1.0001409618529946,75.11027323572993
6.733714432,1.0004332620190937,74.97225553808555
6.736,1.00069766131261,74.83020729466735
6.738285568,1.0009173958309543,74.68467222146329
6.740571648,1.0010784797085366,74.53638386752716
6.742857216,1.0011706016025637,74.38623826418925
6.745142784,1.001187926160185,74.23533889779557
6.747428352,1.0011294237893538,74.08473737527878
6.749714432,1.0009985091463751,73.93553649412843
6.752,1.0008035634430528,73.78870427364198
6.754285568,1.0005569535069527,73.64509482700299
6.756571648,1.0002741992130226,73.50534232982712
6.758857216,0.9999733236126686,73.36983111932797
6.761142784,0.9996732867696599,73.23874516957528
6.763428352,0.9993932785913955,73.11189207220733
6.765714432,0.9991509436378964,72.98887315178565
6.768,0.9989620231733704,72.86901560656376
6.770285568,0.9988384292172339,72.75144662894506
6.772571648,0.998788064359968,72.6351983621469
6.774857216,0.9988141507385809,72.5191255039541
6.777142784,0.9989152505858796,72.40216497508987
6.779428352,0.9990847979065388,72.28323588366607
6.781714432,0.9993121500519294,72.16143051407563
6.784,0.9995828555376401,72.0360156540801
6.786285568,0.999879558150237,71.90648685766925
6.788571648,1.0001836664445132,71.77259620513892
6.790857216,1.0004755234409108,71.6343994592851
6.793142784,1.0007370022748368,71.49218624824623
6.795428352,1.000951081853554,71.34652155300783
6.797714432,1.001104507256965,71.19821060037263
6.8,1.0011872550113134,71.04819112838913
6.802285568,1.0011942581401496,70.8975367484322
6.804571648,1.0011248149630128,70.74734547484252
6.806857216,1.0009835175552153,70.59867411840474
6.809142784,1.0007790012649467,70.45254270672613
6.811428352,1.0005243206279875,70.30975872058681
6.813714432,1.000235574333314,70.17093606754025
6.816,0.9999311552564262,70.03643284582246
6.818285568,0.9996303179185926,69.90635703417497
6.820571648,0.9993521047974592,69.78052387305323
6.822857216,0.9991143988777835,69.65846232580321
6.825142784,0.9989322384364309,69.53947477388445
6.827428352,0.9988173710520895,69.4226792180806
6.829714432,0.9987771555241709,69.30705241272423
6.832,0.9988141158828833,69.1914596624659
6.834285568,0.9989259748433649,69.07479403739383
6.836571648,0.9991058282749388,68.9560240441612
6.838857216,0.999341948431133,68.83424772597378
6.841142784,0.9996195770328166,68.70872480111403
6.843428352,0.9999210295320361,68.57901487753925
6.845714432,1.00022706332237,68.44488011266547
6.848,1.0005182613900094,68.30642015915785
6.850285568,1.0007761463592835,68.1639839181809
6.852571648,1.0009844839022277,68.01816749991075
6.854857216,1.0011297424199908,67.86980520637037
6.857142784,1.0012028842859213,67.71986550450951
6.859428352,1.0011992251374624,67.56941542049954
6.861714432,1.0011188812402712,67.41958595767844
6.864,1.0009668050824125,67.2714372643857
6.866285568,1.0007527961850753,67.12599057091907
6.868571648,1.0004902355736944,66.98398598491596
6.870857216,1.0001957586524788,66.84604224849917
6.873142784,0.9998880768325275,66.71250036076775
6.875428352,0.999586724166611,66.58340054804262
6.877714432,0.999310800594519,66.45852684653508
6.88,0.9990779031809153,66.33736451852106
6.882285568,0.9989030776132243,66.21923289618631
6.884571648,0.9987972415475608,66.10311934612326
6.886857216,0.9987673830273756,65.98805304634264
6.889142784,0.9988153930063416,65.87285814191343
6.891428352,0.9989381491091217,65.7564284533964
6.893714432,0.9991281081404423,65.63774846519254
6.896,0.9993729672150642,65.51589954753786
6.898285568,0.9996573803245205,65.39020210832153
6.900571648,0.9999631832924829,65.26022951717353
6.902857216,1.0002708155517634,65.12580286235753
6.905142784,1.0005610102005023,64.98702582525472
6.907428352,1.000815108619309,64.84431818579567
6.909714432,1.0010171192664241,64.69830867704779
6.912,1.0011540227877997,64.54983288875765
6.914285568,1.0012172152265704,64.39990646471534
6.916571648,1.0012026948179722,64.24965387759136
6.918857216,1.0011111877329195,64.10015392398833
6.921142784,1.0009485967861265,63.95251717107876
6.923428352,1.0007250678561597,63.80767425234352
6.925714432,1.0004547608093117,63.6664266834399
6.928,1.0001547778925315,63.529362718032154
6.930285568,0.9998442329574934,63.39671971057017
6.932571648,0.9995426938727613,63.2685627550232
6.934857216,0.9992694634578108,63.14458953919573
6.937142784,0.9990419594036662,63.024311629046984
6.939428352,0.9988746213381814,62.906908201793605
6.941714432,0.99877830614058,62.791454310775734
6.944,0.9987590090385134,62.676853776704284
6.946285568,0.9988181663484803,62.56199930673052
