freq,mag,phase
6.0,0.9996000539901402,72.90493287233951
6.002285568,0.9999108070170918,72.74233344377645
6.004571648,1.000227302633581,72.575205510061
6.006857216,1.0005299814131783,72.4035773784489
6.009142784,1.000799665101103,72.22783392290307
6.011428352,1.0010193252006692,72.04854050400934
6.013714432,1.0011751853819213,71.86654850554207
6.016,1.0012572687234198,71.68284479364638
6.018285568,1.0012604736331823,71.49853570647055
6.020571648,1.0011845990451678,71.31475634745826
6.022857216,1.0010342875907887,71.13261024672295
6.025142784,1.0008189333682507,70.95312929811432
6.027428352,1.0005523024286016,70.77712773587311
6.029714432,1.000250971809676,70.60526542039511
6.032,0.9999341013739464,70.43790098930691
6.034285568,0.9996215701056208,70.27511098104844
6.036571648,0.999333210722971,70.11669170695664
6.038857216,0.9990871767395855,69.96218602872278
6.041142784,0.9988992482631696,69.81083971374741
6.043428352,0.9987811534512853,69.66174067729179
6.045714432,0.9987406922429146,69.51380154854438
6.048,0.9987801705037792,69.36589436767186
6.050285568,0.9988972138028569,69.21684106117131
6.052571648,0.9990845512285047,69.06558874845472
6.054857216,0.9993301631192008,68.91122866018462
6.057142784,0.9996187116456638,68.7529663981308
6.059428352,0.9999317375858577,68.59034947523226
6.061714432,1.0002495577545585,68.4231725821287
6.064,1.0005521353260842,68.25148922083348
6.066285568,1.0008203373468907,68.07567740943901
6.068571648,1.0010371769712785,67.89637819587885
6.070857216,1.0011890649581827,67.71440089235207
6.073142784,1.0012663638618602,67.53077552751786
6.075428352,1.0012641888435432,67.34660207100053
6.077714432,1.00118261436066,67.16305935805902
6.08,1.001026812966818,66.98121443267823
6.082285568,1.0008064445472789,66.80211428874335
6.084571648,1.0005354855649278,66.62657402337383
6.086857216,1.0002309199399277,66.45521686231585
6.089142784,0.9999119742754478,66.28837152944335
6.091428352,0.9995988896262573,66.12614999004713
6.093714432,0.9993113433659813,65.96827988181987
6.096,0.9990676096496519,65.81428847600247
6.098285568,0.9988830338983421,65.66340930865287
6.100571648,0.9987694713849784,65.51473217797049
6.102857216,0.9987341162933846,65.36713711051742
6.105142784,0.9987792194264192,65.2195031148101
6.107428352,0.9989020025584396,65.07064272890396
6.109714432,0.9990946578258624,64.91949489818104
6.112,0.9993450256045053,64.76514063194966
6.114285568,0.9996372491261533,64.6068371440685
6.116571648,0.9999529260937514,64.44414162521193
6.118857216,1.0002719970937186,64.27684164878688
6.121142784,1.0005744643604186,64.10502463719094
6.123428352,1.000841009761916,63.929103642689704
6.125714432,1.0010550223860097,63.749686377702695
6.128,1.0012028750869515,63.56769136274358
6.130285568,1.0012752996841285,63.38406833427018
6.132571648,1.0012676495205535,63.199998037129674
6.134857216,1.0011803074179224,63.01660308982358
6.137142784,1.0010189541519925,62.83503003929984
6.139428352,1.000793454966563,62.65625126989665
6.141714432,1.0005182141694442,62.48109544971131
6.144,1.0002104586481646,62.31015026454339
6.146285568,0.9998896513778691,62.14381377932118
6.148571648,0.999575951966321,61.982045425384186
6.150857216,0.9992893517314887,61.82467229643665
6.153142784,0.9990478910216735,61.671141546395006
6.155428352,0.9988669196710361,61.52069824281539
6.157714432,0.998757938730717,61.372380401922236
6.16,0.9987278205659709,61.225066391858995
6.162285568,0.9987786984291784,61.07761405674807
6.164571648,0.9989072347997812,60.92884240165607
6.166857216,0.9991052443099523,60.77774576780329
6.169142784,0.9993603519291172,60.623336480751
6.171428352,0.9996563475083812,60.46491826520868
6.173714432,0.9999745879014547,60.3020596422712
6.176,1.0002948926669504,60.134557358563065
6.178285568,1.0005970824971893,59.962555601517124
6.180571648,1.000861934852347,59.786455078889304
6.182857216,1.0010729370428517,59.60686929097035
6.185142784,1.0012166994659135,59.4247475115648
6.187428352,1.0012840669122083,59.24108736968558
6.189714432,1.0012707826432525,59.05704629435798
6.192,1.0011777243219613,58.8737614942492
6.194285568,1.0010107038489706,58.6923684789175
6.196571648,1.000780209451384,58.513861181639875
6.198857216,1.000500610541985,58.339018749274786
6.201142784,1.0001897360686716,58.168479847402395
6.203428352,0.9998669306337064,58.0025409251243
6.205714432,0.9995528434422889,57.84120981343038
6.208,0.9992671923035815,57.68425507377938
6.210285568,0.9990281442946624,57.531118568958256
6.212571648,0.9988508702600977,57.38102393882857
6.214857216,0.9987465144090966,57.232974892378806
6.217142784,0.9987218401249789,57.08588825024468
6.219428352,0.998778413455106,56.93856430776107
6.221714432,0.998912705321781,56.78987061963689
6.224,0.9991161739745655,56.6386934512212
6.226285568,0.9993759573964777,56.48416572173099
6.228571648,0.9996757325931803,56.32556690862911
6.230857216,0.9999965253750154,56.1624629984405
6.233142784,1.0003179008158005,55.99471876887849
6.235428352,1.000619702616244,55.82242127242354
6.237714432,1.0008829321381358,55.64606016992697
6.24,1.0010908213635454,55.4662843287593
6.242285568,1.0012302955960326,55.283975804756906
6.244571648,1.0012926112595049,55.10020667001903
6.246857216,1.0012737374356249,54.91613623502905
6.249142784,1.0011748788281936,54.732900767565994
6.251428352,1.0010021919497694,54.55163678357669
6.253714432,1.0007664896564077,54.37332299268054
6.256,1.000482726138769,54.19876568981651
6.258285568,1.0001686364605338,54.02852227793868
6.260571648,0.9998441136029522,53.862928719816786
6.262857216,0.999529607509856,53.70198777634479
6.265142784,0.9992450565001321,53.545382862649255
6.267428352,0.9990084932940834,53.39258404822849
6.269714432,0.9988348479663376,53.2427583224905
6.272,0.9987353177934978,53.09495072397853
6.274285568,0.9987161178424196,52.94799670060581
6.276571648,0.9987784673089269,52.80072691910591
6.278857216,0.9989185737938181,52.65199382118748
6.281142784,0.9991274910416188,52.500718515715384
6.283428352,0.9993920482248922,52.34600228282008
6.285714432,0.9996955696999685,52.187156774590214
6.288,1.0000187254728268,52.023740574128865
6.290285568,1.0003412343689104,51.85566541412934
6.292571648,1.0006426440635667,51.68303740787188
6.294857216,1.000903935601285,51.506348809601384
6.297142784,1.0011086338713944,51.32627611894593
6.299428352,1.001243889273739,51.14374757775265
6.301714432,1.0013010093118984,50.95981669243525
6.304,1.001276438252961,50.775621913373904
6.306285568,1.001171729223948,50.59239228524984
6.308571648,1.0009933421781785,50.41119248344226
6.310857216,1.0007525277105338,50.23300888991709
6.313142784,1.0004644761575376,50.058649761228246
6.315428352,1.0001473200612045,49.8886931296828
6.317714432,0.9998210295556907,49.72337782900235
6.32,0.9995062125157367,49.562738107331654
6.322285568,0.9992229007478207,49.40641457970639
6.324571648,0.9989889257586311,49.25389237847634
6.326857216,0.9988191148655562,49.10430334493371
6.329142784,0.9987243036438384,48.95662866693723
6.331428352,0.998710662661781,48.8097472755578
6.333714432,0.9987788790063709,48.66247730915867
6.336,0.9989248360559242,48.51364324676424
6.338285568,0.999139209726159,48.362171368207115
6.340571648,0.9994084911746517,48.20719911027649
6.342857216,0.9997155788234188,48.04802622690476
6.345142784,1.000041217669477,47.88424736894396
6.347428352,1.0003646659082113,47.71576889294011
6.349714432,1.0006655933898878,47.54274315629751
6.352,1.0009249842120114,47.365683564688375
6.354285568,1.0011263981195475,47.18523464712056
6.356571648,1.0012572464315879,47.00240294022158
6.358857216,1.0013091740496989,46.81823137747069
6.361142784,1.0012788118730453,46.63391114484592
6.363428352,1.0011681927471296,46.450591132897756
6.365714432,1.0009840975243456,46.269404072815675
6.368,1.000738217367519,46.09129538209577
6.370285568,1.0004460084886415,45.917089334038394
6.372571648,1.0001256864058543,45.74732883209227
6.374857216,0.9997977565986473,45.58225068683559
6.377142784,0.9994827023499625,45.421833163301564
6.379428352,0.9992006274725284,45.265765727809054
6.381714432,0.9989692584693914,45.113430781614554
6.384,0.9988034203045794,44.96399758696826
6.386285568,0.9987134778484567,44.81640494867769
6.388571648,0.9987054075388294,44.669520134289705
6.390857216,0.9987796232495788,44.52217927578661
6.393142784,0.9989313213062891,44.373179503544534
6.395428352,0.9991511680005912,44.22145289002256
6.397714432,0.9994251254963997,44.06614787854793
6.4,0.9997359427367852,43.90657882359378
6.402285568,1.0000638660786167,43.74237592801259
6.404571648,1.0003882812778764,43.57341676688746
6.406857216,1.0006886956078878,43.399932080264186
6.409142784,1.0009460041989169,43.22240301370584
6.411428352,1.0011440626926151,43.04155728942235
6.413714432,1.0012704152594663,42.85836580891424
6.416,1.001317007430675,42.67388378725789
6.418285568,1.001280926953672,42.48934912124185
6.420571648,1.0011643900352767,42.30588158760839
6.422857216,1.0009746445667116,42.12463794104193
6.425142784,1.000723610245349,41.94656499704305
6.427428352,1.0004271846881585,41.772447568613316
6.429714432,1.0001039121971669,41.60282237375571
6.432,0.999774261246693,41.43789676149505
6.434285568,0.9994590918042254,41.27767609402669
6.436571648,0.9991783266811091,41.121773311548075
6.438857216,0.9989497254676849,40.96958563341945
6.441142784,0.9987878388041042,40.820219635374386
6.443428352,0.9987028820614113,40.67265065337954
6.445714432,0.9987003715382258,40.525693862153716
6.448,0.9987804514591224,40.37820200694139
6.450285568,0.9989382079725967,40.228957096101674
6.452571648,0.9991634357821091,40.07692096458327
6.454857216,0.9994420922899228,39.921227049333915
6.457142784,0.9997564411997841,39.76120001389227
6.459428352,1.0000866404140447,39.59647007969279
6.461714432,1.0004119351429388,39.426998903503936
6.464,1.000711673749216,39.25298175577895
6.466285568,1.0009668992277718,39.07491434729634
6.468571648,1.0011616485295913,38.89359929774464
6.470857216,1.0012834326196927,38.7099602239416
6.473142784,1.001324724787232,38.52514969829937
6.475428352,1.0012828090490886,38.34032327002473
6.477714432,1.0011602380256412,38.15666753202918
6.48,1.000964817779075,37.975311180342175
6.482285568,1.0007087342809116,37.79719766264085
6.484571648,1.0004080794332728,37.62310000978424
6.486857216,1.0000818924138588,37.453548102963374
6.489142784,0.9997507318551293,37.28874555437629
6.491428352,0.9994354586989352,37.12863487154186
6.493714432,0.9991560608727629,36.97283014335515
6.496,0.9989302263844555,36.820705219062944
6.498285568,0.9987723586991104,36.671362882672774
6.500571648,0.9986924521096239,36.5237417818303
6.502857216,0.9986956603683881,36.3766754806229
6.505142784,0.9987817075585236,36.228957622578115
6.507428352,0.99894526243961,36.079408178930606
6.509714432,0.9991759293919027,35.92698053453532
6.512,0.9994592472453178,35.77080423304617
6.514285568,0.9997771989641451,35.610260212256875
6.516571648,1.0001096418768847,35.444966959536195
6.518857216,1.000435665118995,35.27489181745609
6.521142784,1.0007346553618455,35.10026475866264
6.523428352,1.0009878292071355,34.921625474068925
6.525714432,1.0011789515344325,34.739771027884046
6.528,1.0012962422312237,34.555646229258386
6.530285568,1.0013321101360777,34.37042657194892
6.532571648,1.0012843452122273,34.185246894290316
6.534857216,1.001155892713009,34.00135220567233
6.537142784,1.0009547459109844,33.81979036022436
6.539428352,1.000693574940878,33.64158958817599
6.541714432,1.000388885840978,33.46747225999464
6.544,1.0000597182568873,33.29791026849426
6.546285568,0.9997270231966807,33.133140094397994
6.548571648,0.999411776064151,32.97309729544539
6.550857216,0.9991338658361507,32.81734102966537
6.553142784,0.9989109114619668,32.6652041649005
6.555428352,0.9987571390645287,32.51582544357734
6.557714432,0.9986822645639479,32.36809964147088
6.56,0.9986911105305849,32.22082759514692
6.562285568,0.9987831459146859,32.07281126187859
6.564571648,0.9989526119183448,31.92289451883069
6.566857216,0.9991887347011644,31.770012598068753
6.569142784,0.9994766848150212,31.61329877540189
6.571428352,0.9997980826598754,31.452158020311824
6.573714432,1.0001327451255795,31.286216406488723
6.576,1.0004595227549884,31.11549507499553
6.578285568,1.0007577228323732,30.940188313673282
6.580571648,1.0010085973196001,30.760923993120368
6.582857216,1.0011962970176629,30.578446262193136
6.585142784,1.001308943718842,30.39379400123071
6.587428352,1.00133942095445,30.208066037449512
6.589714432,1.0012858076615532,30.022505733378377
6.592,1.0011513135638161,29.83828539492622
6.594285568,1.0009445162883153,29.656499166300318
6.596571648,1.0006783352502409,29.478138144414576
6.598857216,1.0003695863403985,29.303898741448908
6.601142784,1.0000375667437722,29.134325522667094
6.603428352,0.9997034137607576,28.96954354563251
6.605714432,0.9993881407787227,28.80946027946369
6.608,0.9991118303693721,28.653687959721953
6.610285568,0.9988918346629649,28.50149473036257
6.612571648,0.998742140168788,28.35199266767687
6.614857216,0.9986723527449153,28.204074090110947
6.617142784,0.9986869203161133,28.0565383945731
6.619428352,0.9987848970539625,27.908185746642744
6.621714432,0.9989602135972112,27.75782131400656
6.624,0.9992016905806276,27.60440814624279
6.626285568,0.9994941828218149,27.44711141683256
6.628571648,0.9998190632181595,27.28530838732932
6.630857216,1.0001559000096638,27.118672388648044
6.633142784,1.0004833526051022,26.94721843777396
6.635428352,1.0007807558644894,26.771195214471916
6.637714432,1.0010293074810697,26.591212464040307
6.64,1.001213408838686,26.40807094081129
6.642285568,1.0013214229540341,26.22281408150109
6.644571648,1.0013464660924292,26.036546263576803
6.646857216,1.0012869357160754,25.850534514395854
6.649142784,1.0011464877746201,25.66592620068357
6.651428352,1.000934119842286,25.4838556818685
6.653714432,1.000662881763195,25.305260594609674
6.656,1.0003500731332275,25.130885854024413
6.658285568,1.0000153132542244,24.96116308787638
6.660571648,0.9996797210497559,24.796318436344336
6.662857216,0.9993645999357547,24.636168052067607
6.665142784,0.9990898376674572,24.480298151674067
6.667428352,0.9988728118164817,24.327983666317355
6.669714432,0.998727314563384,24.178306751362335
6.672,0.9986626331949671,24.03013161669941
6.674285568,0.9986829662386665,23.88226524282007
6.676571648,0.9987869162257544,23.733497363371626
6.678857216,0.9989681089348952,23.58262661943524
6.681142784,0.9992149436148351,23.42863897405839
6.683428352,0.9995118836982737,23.27067308654351
6.685714432,0.999840182093951,23.108126678031308
6.688,1.0001790485693391,22.940730867058136
6.690285568,1.0005071413888458,22.768470359433728
6.692571648,1.0008036606388353,22.591661068404594
6.694857216,1.0010499438172142,22.410924028526992
6.697142784,1.0012304312920373,22.227063940346245
6.699428352,1.0013337256935957,22.0411119722643
6.701714432,1.0013532809930015,21.854264604608264
6.704,1.0012878979880522,21.66771869050931
6.706285568,1.0011414774789096,21.482688552558674
6.708571648,1.0009234188651808,21.30025455824327
6.710857216,1.0006473218597054,21.1213875786949
6.713142784,1.0003304841378517,20.946785792916796
6.715428352,0.999992913265663,20.776908004907046
6.717714432,0.9996559708467752,20.611912652055548
6.72,0.9993410601900322,20.451628955924747
6.722285568,0.9990679133811139,20.295582568109673
6.724571648,0.9988538353936491,20.143092322077006
6.726857216,0.9987125596052849,19.99315054761558
6.729142784,0.9986530977117818,19.844679902834184
6.731428352,0.998679116974688,19.69642892092561
6.733714432,0.9987890765352596,19.5471791336828
6.736,0.9989760035064499,19.39573745718577
6.738285568,0.9992282153889815,19.241072246921558
6.740571648,0.9995296418750033,19.08236801321531
6.742857216,0.9998613530639349,18.919062916133377
6.745142784,1.0002022671860324,18.75083603820316
6.747428352,1.0005308521956873,18.577721645731316
6.749714432,1.0008264561253024,18.400071035180872
6.752,1.0010703982948308,18.218495506128413
6.754285568,1.001247276816139,18.033846745072417
6.756571648,1.0013458096570613,17.847193631963986
6.758857216,1.001359977581423,17.65967364281678
6.761142784,1.001288727892279,17.472551775302083
6.763428352,1.0011364595820396,17.287024108427843
6.765714432,1.0009127833858165,17.10417501562305
6.768,1.0006317118321817,16.924963541954813
6.770285568,1.0003109972994204,16.750081097931098
6.772571648,0.999970795450998,16.57998016572421
6.774857216,0.9996325589866879,16.414766987629385
6.777142784,0.9993177205366629,16.25426563161388
6.779428352,0.9990462976447065,16.098021200972575
6.781714432,0.9988352534484041,15.945291639436022
6.784,0.9986982060116711,15.795036139303294
6.786285568,0.9986438356862221,15.646182345430704
6.788571648,0.9986755498770568,15.497451114972609
6.790857216,0.9987915207355429,15.347662068180867
6.793142784,0.9989842491729227,15.195577617026018
6.795428352,0.9992416809936787,15.040199340123515
6.797714432,0.999547594330613,14.880711974254936
6.8,0.9998826126410492,14.716546933841055
6.802285568,1.0002254841811673,14.54744180749443
6.804571648,1.0005546173494022,14.373411916783846
6.806857216,1.0008492663872597,14.19485254685699
6.809142784,1.001090797385034,14.012402524173057
6.811428352,1.0012639730766932,13.826905016445153
6.813714432,1.0013578399577996,13.639462073955993
6.816,1.001366542573277,13.451228565331757
6.818285568,1.001289401299015,13.263471728472155
6.820571648,1.001131271168935,13.077372367300296
6.822857216,1.0009020142114669,12.894060213800298
6.825142784,1.0006160497235959,12.714437329198205
6.827428352,1.000291425998512,12.539222986562992
6.829714432,0.9999486372681232,12.368806790513473
6.832,0.9996091084060196,12.20332368795234
6.834285568,0.9992945896211879,12.042586473267509
6.836571648,0.999024722623986,11.88606334046943
6.838857216,0.9988168131014947,11.73299209468908
6.841142784,0.9986839916262932,11.582394659397337
6.843428352,0.9986346832460422,11.433066559383535
6.845714432,0.9986720814760963,11.28384636678117
6.848,0.9987939310127244,11.133411110349968
6.850285568,0.9989924351472899,10.98062903548045
6.852571648,0.9992551985786963,10.824486066711767
6.854857216,0.9995653954835413,10.66415777298447
6.857142784,0.9999035655824681,10.499065831588586
6.859428352,1.000248340336032,10.329005500398765
6.861714432,1.0005780172266416,10.15401692480922
6.864,1.0008716185155981,9.974493279844756
6.866285568,1.0011108466427698,9.791099908736536
6.868571648,1.0012802429036083,9.604694828959664
6.870857216,1.00136952472738,9.416388733058303
6.873142784,1.0013727276923794,9.227404554545746
6.875428352,1.001289798193983,9.038952826356605
6.877714432,1.0011258071815485,8.852236796711287
6.88,1.0008910623533658,8.668384894129442
6.882285568,1.0006003800602261,8.488327307336919
6.884571648,1.0002719580005837,8.312710030191093
6.886857216,0.9999265422642108,8.141938337564547
6.889142784,0.9995859091013,7.976118173295516
6.891428352,0.9992714764953646,7.8150446543018495
6.893714432,0.9990034691382932,7.6581702216762855
6.896,0.9987985139152167,7.50472552361687
6.898285568,0.998669933246983,7.3536926463518855
6.900571648,0.9986257212803858,7.203870187060368
6.902857216,0.9986688610101163,7.054055630165991
6.905142784,0.9987965644396192,6.902967678321473
6.907428352,0.9990008085174656,6.749434335152394
6.909714432,0.9992686870755322,6.592424512998883
6.912,0.999583257979181,6.43118228768681
6.914285568,0.9999246305194065,6.265132090098503
6.916571648,1.0002713540808459,6.0940614266649655
6.918857216,1.0006014086713506,5.918052734391642
6.921142784,1.0008939690949468,5.737507965786983
6.923428352,1.0011307022511629,5.553085669175069
6.925714432,1.001296547152203,5.365753036821313
6.928,1.0013809637617321,5.176543728852551
6.930285568,1.0013788564359802,4.986716230610223
6.932571648,1.001290095239399,4.797522766599244
6.934857216,1.0011203914524347,4.610156833214444
6.937142784,1.000880223521644,4.425701269548029
6.939428352,1.0005846019545366,4.245105387310305
6.941714432,1.0002524203512244,4.069012321673073
6.944,0.9999043713930101,3.897839098457594
