freq,mag,phase
6.0,1.0004346271102424,90.23050806061968
6.002287104,1.000428893941744,90.04699661979204
6.004574208,1.0003956213779008,89.86379376499188
6.006861312,1.0003375840989803,89.68124370344921
6.009147904,1.0002581880860415,89.4997311406162
6.011435008,1.0001624541317227,89.31949042464886
6.013722112,1.0000566701176157,89.14073215521108
6.016009216,0.9999472421609845,88.96353181058652
6.01829632,0.9998409294535169,88.78794189587073
6.020583424,0.9997447463195562,88.61381725169436
6.022870016,0.9996644943720364,88.44100388387155
6.02515712,0.9996054202050384,88.26922584721238
6.027444224,0.9995710834111737,88.09813738984252
6.029731328,0.9995637640407227,87.927365690108
6.032018432,0.9995839717173574,87.75653978400443
6.034305536,0.9996304881598651,87.58523077007513
6.036592128,0.9997003147388479,87.41311234954617
6.038879232,0.999789084928451,87.23986347176829
6.041166336,0.9998912232119251,87.06525568043931
6.04345344,1.0000003646808928,86.88912491230704
6.045740544,1.0001095549210217,86.71145219648035
6.048027648,1.0002120390301381,86.53225720462606
6.05031424,1.0003012311790993,86.35166921612128
6.052601344,1.0003716494257333,86.16996954014623
6.054888448,1.0004187294078597,85.98741626303107
6.057175552,1.0004396305947338,85.80441278439588
6.059462656,1.0004328747434152,85.62130156862737
6.06174976,1.0003989538815061,85.43849879106271
6.064036352,1.0003399081833797,85.25640188520391
6.066323456,1.0002595574070083,85.07532066586096
6.06861056,1.0001628363818875,84.89553760887888
6.070897664,1.000055900674629,84.71724894432238
6.073184768,0.9999452170783564,84.54055155950412
6.075471872,0.9998379871384171,84.36545697304487
6.077758464,0.9997410300741398,84.191859432339
6.080045568,0.9996601725440387,84.01955862020637
6.082332672,0.9996008215246875,83.84831790949086
6.084619776,0.9995664730634118,83.67777149103541
6.08690688,0.999559489215853,83.50753160273702
6.089193984,0.9995802854295628,83.33720621433078
6.091481088,0.9996275718127137,83.16642618415938
6.09376768,0.9996983092171517,82.99480573206165
6.096054784,0.9997882442670842,82.82202787196793
6.098341888,0.9998915317184813,82.64789662984045
6.100628992,1.0000017503816563,82.47222032047532
6.102916096,1.0001120933134064,82.2949593083231
6.1052032,1.0002154473441036,82.11617557532867
6.107489792,1.0003053748028305,81.93601332321641
6.109776896,1.0003762056072467,81.75470128380437
6.112064,1.0004234383341126,81.57255178650499
6.114351104,1.0004440873723612,81.38991240311704
6.116638208,1.0004369387729268,81.20720259381514
6.118925312,1.0004023917288305,81.02481225816912
6.121211904,1.0003424288182559,80.84311683674652
6.123499008,1.0002608897241112,80.66246930324779
6.125786112,1.0001630290511112,80.48312836891004
6.128073216,1.0000547456850772,80.30528398298668
6.13036032,0.9999430752667522,80.12906168988711
6.132647424,0.9998348362087296,79.95445842506822
6.134934016,0.9997369507664107,79.78136680607267
6.13722112,0.9996555849437361,79.60958744510741
6.139508224,0.9995959475910716,79.43884141651074
6.141795328,0.9995617118741364,79.26880373060798
6.144082432,0.9995550049653342,79.09909047658124
6.146369536,0.9995763543772334,78.92927767538744
6.148656128,0.9996244431456324,78.7589911397301
6.150943232,0.9996963332263091,78.58783798721119
6.153230336,0.9997872842863342,78.41554258655056
6.15551744,0.9998918552154233,78.24183459329285
6.157804544,1.000003296663852,78.06659627186338
6.160091648,1.0001146821438645,77.88974372663948
6.162378752,1.0002189535617019,77.71135658564393
6.164665344,1.0003095856682789,77.53158876044097
6.166952448,1.0003807825285165,77.35062875270418
6.169239552,1.0004281792828635,77.16885923018583
6.171526656,1.0004486588665973,76.98658683805803
6.17381376,1.0004411391262584,76.80424483358618
6.176100864,1.0004057072281733,76.62224077708414
6.178387456,1.0003448430096378,76.44094558047132
6.18067456,1.0002623083665039,76.26068536993319
6.182961664,1.0001631438248177,76.08177501530642
6.185248768,1.0000536720926767,75.9043793363311
6.187535872,0.9999408599461848,75.72862580965813
6.189822976,0.9998316675918577,75.5544647569804
6.192109568,0.9997329763282415,75.38185798568355
6.194396672,0.9996510733260763,75.21055532251567
6.196683776,0.9995911213499794,75.04032544830078
6.19897088,0.9995568645555776,74.87078053543425
6.201257984,0.99955054460735,74.70155639725698
6.203545088,0.9995726023867888,74.53221801159434
6.20583168,0.9996215152252127,74.36242191762148
6.208118784,0.9996944535332092,74.19172679913581
6.210405888,0.999786698136547,74.01987559961675
6.212692992,0.999892416165163,73.84659411895102
6.214980096,1.000005057667597,73.67174425950654
6.2172672,1.0001175061020975,73.49528720874768
6.219553792,1.0002227052322608,73.31728863821064
6.221840896,1.0003139879685923,73.13783918041493
6.224128,1.000385650891486,72.95727199518691
6.226415104,1.0004330383841702,72.77583563231998
6.228702208,1.000453398270007,72.59391929248598
6.230989312,1.0004452040017289,72.4119212915889
6.233275904,1.0004090436219364,72.23028103178055
6.235563008,1.0003471739505942,72.04934742341598
6.237850112,1.000263480007223,71.86947986103883
6.240137216,1.0001631121838748,71.6909710039882
6.24242432,1.0000523561553794,71.51398743539417
6.244711424,0.9999384262808788,71.33866502484024
6.246998528,0.9998282017667954,71.1649638524056
6.24928512,0.9997286791994433,70.99283107907425
6.251572224,0.9996462321729288,70.82199077422858
6.253859328,0.9995860129260177,70.65223598461849
6.256146432,0.999551920014149,70.48318451195088
6.258433536,0.9995459782068655,70.31441479507986
6.26072064,0.9995685508191017,70.1455630218986
6.263007232,0.9996185606225019,69.97620490035524
6.265294336,0.9996925928401189,69.80595721915904
6.26758144,0.9997859861968141,69.63451206164149
6.269868544,0.9998929920319424,69.46163769383058
6.272155648,1.0000069011547543,69.28718434757619
6.274442752,1.000120444172721,69.11108697549689
6.276729344,1.0002265877780374,68.93341375718434
6.279016448,1.0003184578190425,68.75432492631137
6.281303552,1.000390518550257,68.57406504005034
6.283590656,1.0004380047439556,68.39294996376927
6.28587776,1.000458095885966,68.21136186286614
6.288164864,1.0004493461625399,68.02969232719394
6.290451456,1.0004123519247263,67.84838519887835
6.29273856,1.0003494484118596,67.66780815393012
6.295025664,1.000264542866869,67.4883072045029
6.297312768,1.0001628106938532,67.3101711373964
6.299599872,1.0000509875314214,67.13360409023844
6.301886976,0.9999357516292993,66.95867756126269
6.304173568,0.9998244800831158,66.78543337471045
6.306460672,0.9997242181713214,66.61372069168048
6.308747776,0.9996412543070675,66.44336066219013
6.31103488,0.9995808297163131,66.2740486197409
6.313321984,0.9995468094482182,66.10545045357532
6.315609088,0.9995412435137916,65.93714139283294
6.317896192,0.9995646819184029,65.76873383668153
6.320182784,0.9996155300717118,65.59978274337524
6.322469888,0.9996906664272845,65.42996309452134
6.324756992,0.9997853814702687,65.25891734034937
6.327044096,0.9998936675995421,65.08641404462188
6.3293312,1.000008842727721,64.91232275286525
6.331618304,1.0001235341620822,64.73657198986315
6.333904896,1.0002305268275058,64.55921930149916
6.336192,1.0003231511165072,64.38044010718183
6.338479104,1.0003955442918837,64.20047743219422
6.340766208,1.0004431545220807,64.01966669799755
6.343053312,1.0004629194239154,63.83837424360473
6.345340416,1.0004536184961528,63.65703380131482
6.347627008,1.0004157322053,63.47601702433501
6.349914112,1.0003517603165861,63.29576040943942
6.352201216,1.0002656071154337,63.116608285764826
6.35448832,1.0001626327270874,62.93882637172386
6.356775424,1.0000494273135805,62.76264566348167
6.359062528,0.9999330050166738,62.58812377055415
6.36134912,0.9998206616735327,62.41528394654299
6.363636224,0.9997196154243807,62.24399404368927
6.365923328,0.9996361264776699,62.074065871870744
6.368210432,0.9995755330903212,61.905179411714975
6.370497536,0.9995416325713199,61.737009260679756
6.37278464,0.999536545523002,61.56915888088253
6.375071232,0.9995606909998493,61.401163745386135
6.377358336,0.9996125929761311,61.23262562112342
6.37964544,0.9996889469881257,61.06318829332246
6.381932544,0.9997849112683491,60.892526106786086
6.384219648,0.9998945404104925,60.72037441794129
6.386506752,1.000010953428963,60.546593311879064
6.388793344,1.0001267594421612,60.37116189858959
6.391080448,1.000234721919403,60.19410804463647
6.393367552,1.0003279581843163,60.015623801885646
6.395654656,1.0004007973265572,59.835935723571176
6.39794176,1.0004483613750337,59.65539310227094
6.400228864,1.000467858210172,59.47438673029529
6.402515968,1.0004578152900236,59.293323273382704
6.40480256,1.0004191421416382,59.11259755155208
6.407089664,1.0003540072226107,58.93265561744354
6.409376768,1.0002665369168042,58.75379716848362
6.411663872,1.0001623286379009,58.57637093616142
6.413950976,1.0000477163124066,58.40055009369945
6.41623808,0.9999300385160197,58.22639681483959
6.418524672,0.9998167039447492,58.053945244815175
6.420811776,0.9997148448219242,57.883047491925474
6.42309888,0.9996308389786991,57.71353600657746
6.425385984,0.9995700443937415,57.54507531918763
6.427673088,0.9995363316710467,57.37732087043327
6.429960192,0.9995317895801942,57.20986212560653
6.432246784,0.9995567202134307,57.04227327919809
6.434533888,0.9996096298705701,56.87413175044751
6.436820992,0.9996872004778591,56.70505655932321
6.439108096,0.9997845789130089,56.53473043381366
6.4413952,0.9998955269165324,56.36290887973491
6.443682304,1.0000131625554805,56.189439819443095
6.445968896,1.000130231685532,56.014286635479664
6.448256,1.0002391122778922,55.837512510212186
6.450543104,1.000332975305924,55.6592892131657
6.452830208,1.0004060303977835,55.47985054652334
6.455117312,1.0004536542430233,55.29955302246787
6.457404416,1.000472737795429,55.11877984001783
6.459691008,1.00046213125858,54.93796476083987
6.461978112,1.0004224696608657,54.75751233014237
6.464265216,1.0003561894806114,54.57784607795905
6.46655232,1.0002674086196168,54.39929637292297
6.468839424,1.0001618015543388,54.22218411615763
6.471126528,1.0000458379838764,54.04668486777737
6.473413632,0.9999269481605402,53.87290653723385
6.475700224,0.9998125597421895,53.70079363801371
6.477987328,0.9997099017826909,53.530312332751514
6.480274432,0.9996253830716222,53.361159898253746
6.482561536,0.9995644295721724,53.19311235251774
6.48484864,0.9995308769840165,53.0257331231861
6.487135744,0.9995269055052397,52.85865799900545
6.489422336,0.9995527188087677,52.69144743727358
6.49170944,0.9996066563771538,52.52366227904832
6.493996544,0.9996855594192051,52.354930199145265
6.496283648,0.9997841845917423,52.184936409532554
6.498570752,0.999896575667673,52.01341451965735
6.500857856,1.00001557964962,51.84022447833469
6.503144448,1.00013368602001,51.66532120383567
6.505431552,1.0002435524440376,51.48879665395732
6.507718656,1.0003381167271346,51.31080353021792
6.51000576,1.0004114711717234,51.131579051254676
6.512292864,1.0004590354050482,50.95150783345801
6.514579968,1.0004778216707957,50.77096119410276
6.51686656,1.0004664007618267,50.590376515822946
6.519153664,1.0004257630248057,50.41017644449488
6.521440768,1.0003582385543086,50.2307551019312
6.523727872,1.0002681997994858,50.05249045158771
6.526014976,1.000161112805098,49.87567333338668
6.52830208,1.0000438115976744,49.70047575355829
6.530588672,0.999923628380833,49.52700210779281
6.532875776,0.999808257899906,49.35526835587075
6.53516288,0.9997047399417504,49.18511449469806
6.537449984,0.999619823296694,49.01635993016825
6.539737088,0.9995587077863487,48.84866271946699
6.542024192,0.9995254373648014,48.68168151842016
6.544310784,0.9995219735598305,48.514959285318724
6.546597888,0.9995486592281517,48.34809924044496
6.548884992,0.9996037450776221,48.180639236801355
6.551172096,0.9996838587913984,48.01222049578417
6.5534592,0.9997840408908538,47.842511102185746
6.555746304,0.9998978740485314,47.671267140078584
6.558033408,1.000018175009034,47.498327128627245
6.56032,1.0001374793220852,47.32367043242048
6.562607104,1.0002483059263125,47.14736299198623
6.564894208,1.0003434671688973,46.969551642620765
6.567181312,1.000417136987204,46.790532318476544
6.569468416,1.0004647226115715,46.61066197411067
6.57175552,1.0004829504679345,46.43030887626603
6.574042112,1.0004709473822233,46.24993704258101
6.576329216,1.0004292282422707,46.069930963268924
6.57861632,1.000360435392189,45.89075571018383
6.580903424,1.0002689778873333,45.712754034857475
6.583190528,1.0001604776957478,45.53615797189354
6.585477632,1.00004177937817,45.36127582453456
6.587764224,0.9999203611679697,45.18809969144498
6.590051328,0.9998038317107885,45.01668737942162
6.592338432,0.9996995891776537,44.846891823263846
6.594625536,0.9996140642407465,44.678459475506806
6.59691264,0.9995529042008151,44.51110675098886
6.599199744,0.9995198155648443,44.34444124204843
6.601486336,0.9995169409083517,44.178078789614325
6.60377344,0.9995445513705448,44.011535626003315
6.606060544,0.9996008440124377,43.84439580445873
6.608347648,0.9996823620892422,43.6762714503996
6.610634752,0.9997838458800765,43.50683743827339
6.612921856,0.9998991419284857,43.335836197364
6.615208448,1.0000208657998897,43.16312216027953
6.617495552,1.0001413810991018,42.988667375092184
6.619782656,1.0002530432587138,42.81252784940369
6.62206976,1.000348885529456,42.63491268795086
6.624356864,1.0004229223304604,42.45606459425577
6.626643968,1.000470310893189,42.27635783438134
6.628931072,1.0004882622169984,42.09618118730718
6.631217664,1.0004753794916172,41.91596447281628
6.633504768,1.0004326006915207,41.736154067061314
6.635791872,1.000362546264464,41.55718876231491
6.638078976,1.000269689277427,41.37938833982147
6.64036608,1.0001596663332468,41.20306866700927
6.642653184,1.000039504589892,41.02842745261542
6.644939776,0.9999168471592819,40.855549267938585
6.64722688,0.9997992349763706,40.68442931726493
6.649513984,0.9996941714075492,40.514912779485755
6.651801088,0.9996082976552976,40.346826283421876
6.654088192,0.9995470188699943,40.179803108809644
6.656375296,0.9995142598111821,40.01347461633748
6.658661888,0.9995120212879844,39.84740124894083
6.660948992,0.999540516815347,39.681154138030436
6.663236096,0.9995980723859144,39.51429618266901
6.6655232,0.999680899530044,39.34643994737198
6.667810304,0.9997839016073451,39.17723855751116
6.670097408,0.9999006338375036,39.00644752023881
6.672384,1.0000237068790776,38.833943104358504
6.674671104,1.0001454536800938,38.659667470651065
6.676958208,1.0002581691285148,38.4836906781223
6.679245312,1.0003546142952584,38.306216492206985
6.681532416,1.0004288465508768,38.12751325462407
6.68381952,1.0004761954814236,37.94793684394041
6.686106112,1.00049358832069,37.767907628036504
6.688393216,1.0004798829720751,37.58783187834317
6.69068032,1.0004360271993609,37.40818278247211
6.692967424,1.000364693247019,37.22938041312974
6.695254528,1.0002702815888174,37.051798196422965
6.697541632,1.0001587322837935,36.87569214159112
6.699828224,1.0000372314741406,36.70129704500593
6.702115328,0.999913173985479,36.528672097904234
6.704402432,0.9997944650244289,36.35783011941253
6.706689536,0.9996885806223664,36.188616927455186
6.70897664,0.9996022295894214,36.02080269787311
6.711263744,0.9995409081809835,35.85407935922596
6.713550848,0.9995083917848347,35.68803497510752
6.71583744,0.999506787892796,35.5222603645338
6.718124544,0.999536386284732,35.35628262533741
6.720411648,0.9995952244432733,35.18969901176996
6.722698752,0.9996794697122838,35.02205896659722
6.724985856,0.9997839704537475,34.853074261101945
6.72727296,0.99990224225454,34.6824879619173
6.729559552,1.000026773814803,34.51013547027414
6.731846656,1.0001497093058662,34.33600266824618
6.73413376,1.0002632469033172,34.160171191249816
6.736420864,1.000360373005497,33.98282184711916
6.738707968,1.0004348826878686,33.80420865353653
6.740995072,1.000482067134431,33.624751375553096
6.743281664,1.00049899565649,33.44483625192419
6.745568768,1.0004845139284282,33.26489156933508
6.747855872,1.0004394489587651,33.08537724159741
6.750142976,1.000366827192126,32.90673770978528
6.75243008,1.0002708305130987,32.729316873560464
6.754717184,1.0001578822621726,32.55340963307145
6.757003776,1.0000347616195917,32.37921968063575
6.75929088,0.9999094048604035,32.20682769657957
6.761577984,0.9997896126428147,32.03623167823388
6.763865088,0.999682949290607,31.867270579882664
6.766152192,0.9995961858391883,31.699737440035317
6.768439296,0.9995347746843468,31.533289252544662
6.770725888,0.9995025235309127,31.367510400609877
6.773012992,0.9995016900318269,31.20198454342178
6.775300096,0.9995322043513921,31.036272369441065
6.7775872,0.9995922990815033,30.869896349607732
6.779874304,0.9996780167993677,30.70249163037959
6.782161408,0.9997841497846,30.533676319706867
6.784448512,0.999903891713615,30.363252316282104
6.786735104,1.0000298278933708,30.191054616205395
6.789022208,1.000153920061267,30.017045518548525
6.791309312,1.000268492584453,29.841305916996536
6.793596416,1.0003662070544759,29.664043028057748
6.79588352,1.000441000022078,29.48552959890658
6.798170624,1.0004880204620217,29.306149429182984
6.800457216,1.0005043686227066,29.126309406953276
6.80274432,1.000489009496244,28.946461434773806
6.805031424,1.0004427915813687,28.76707212337821
6.807318528,1.0003686338415507,28.588544845309535
6.809605632,1.000271222388294,28.411266616175507
6.811892736,1.0001566547753438,28.235527861239543
6.814179328,1.000032092631817,28.061519611052592
6.816466432,0.9999053761490698,27.889333339478938
6.818753536,0.9997844658764644,27.718963584104223
6.82104064,0.9996770897922224,27.55024405341292
6.823327744,0.9995898394416312,27.38295801371631
6.825614848,0.9995283536645669,27.216759178029953
6.82790144,0.9994965466993827,27.051230832063357
6.830188544,0.9994965115546436,26.88594711603813
6.832475648,0.9995280678870947,26.720450275884943
6.834762752,0.9995893432498303,26.554276396790048
6.837049856,0.9996766904641483,26.38704421873726
6.83933696,0.99978440588334,26.21840774789626
6.841623552,0.9999057531024086,26.048105435017117
6.843910656,1.0000330901325647,25.876015781585604
6.84619776,1.0001585026372624,25.702094302068883
6.848484864,1.000273935793191,25.526438909829363
6.850771968,1.0003723488509009,25.34923451321711
6.853059072,1.0004472965969626,25.170770020542076
6.855345664,1.0004941020551634,24.991433056487388
6.857632768,1.0005099891831597,24.811633970615596
6.859919872,1.0004935934280093,24.63187852768681
6.862206976,1.0004461750635993,24.452562694223147
6.86449408,1.0003706419459382,24.27413786683656
6.866781184,1.000271675250197,24.09697989454056
6.869068288,1.000155424812849,23.921382214983293
6.87135488,1.000029341074366,23.747532118328053
6.873641984,0.9999012336015722,23.575537914847857
6.875929088,0.9997792263588927,23.40536002390921
6.878216192,0.9996710032545729,23.236869586865822
6.880503296,0.999583382980911,23.0698050149948
6.8827904,0.9995219573369928,22.903814073183348
6.885076992,0.9994905450086151,22.738516478778607
6.887364096,0.9994911486390069,22.573433333155233
6.8896512,0.9995238185232587,22.408133647506663
6.891938304,0.9995865406087618,22.242146582384805
6.894225408,0.9996753997707002,22.07506320617703
6.896512512,0.9997846544127403,21.9065568074755
6.898799104,0.9999076355203966,21.73636581905124
6.901086208,1.0000364502748558,21.56434516217931
6.903373312,1.0001631782051972,21.390485145110436
6.905660416,1.0002796069734403,21.21488696664473
6.90794752,1.000378566854595,21.037699259700076
6.910234624,1.000453725729298,20.85928195307196
6.912521216,1.000500375385266,20.679967895221722
6.91480832,1.0005155984084457,20.500215800042486
6.917095424,1.000498304934073,20.320475750790873
6.919382528,1.0004497389359748,20.14120042397946
6.921669632,1.000372601780787,19.96284924510259
6.923956736,1.0002720355707888,19.785784311289497
6.926243328,1.0001542112066608,19.610305624746395
6.928530432,1.0000265090414233,19.436596193890498
6.930817536,0.9998970239787067,19.26476066327299
6.93310464,0.9997738790734465,19.094771136452835
6.935391744,0.9996648532452593,18.92645151443031
