freq,mag,phase
6.0,1.0006488750176106,-8.635674390572534
6.012480512,1.000599656055875,-9.06158605298559
6.024961024,1.0005242590168397,-9.48695305941944
6.037441536,1.0004244303291416,-9.91138381394399
6.049922048,1.0003047160459964,-10.33463059245772
6.06240256,1.0001706505737025,-10.756429519779978
6.074883072,1.0000283949169713,-11.176747789294074
6.087363584,0.9998847458100601,-11.595419720424811
6.099844096,0.9997461203271861,-12.01251741992964
6.112324608,0.9996191101359323,-12.428090425236816
6.12480512,0.9995095363121215,-12.842437877233223
6.137285632,0.9994228533567346,-13.255662926326659
6.149766144,0.999362845936152,-13.668161362503861
6.162246656,0.9993325975610018,-14.080228102164606
6.174727168,0.9993334120127848,-14.492311202279524
6.18720768,0.9993655009850462,-14.904704207652895
6.199688192,0.9994274247135893,-15.317852564711448
6.212168704,0.9995164042852017,-15.732123689887914
6.224649216,0.9996283254861401,-16.147795726335183
6.237129728,0.9997580987558956,-16.565140761007214
6.24961024,0.999899697677873,-16.984329861618747
6.26209024,1.0000466115271625,-17.405495821052746
6.274570752,1.0001919316791734,-17.828631906348356
6.287051264,1.0003289586899553,-18.25371461363872
6.299531776,1.000451384482871,-18.68056623462993
6.312012288,1.000553410183865,-19.108974445649583
6.3244928,1.0006298953741999,-19.538740134039923
6.336973312,1.0006777942216363,-19.969411893199293
6.349453824,1.0006944278242773,-20.40068783557694
6.361934336,1.000679116979161,-20.832156355916
6.374414848,1.000632338036586,-21.263394756934385
6.38689536,1.0005561639535694,-21.694114112474956
6.399375872,1.0004541270093634,-22.12388808247649
6.411856384,1.000330794053109,-22.552468005900636
6.424336896,1.0001920358314456,-22.979582125353677
6.436817408,1.0000439122450562,-23.40512189859455
6.44929792,0.9998934740605586,-23.8289523501037
6.461778432,0.9997479255354911,-24.251171057488172
6.474258944,0.9996135935904953,-24.67178014906517
6.486739456,0.9994970968072755,-25.091015650752578
6.499219968,0.9994038231174877,-25.509082397620492
6.51170048,0.9993380390749779,-25.92639832565096
6.524180992,0.9993034270325853,-26.343204237057847
6.536661504,0.9993009714727997,-26.759952231593328
6.549142016,0.9993313667605809,-27.17705623426108
6.561622528,0.999393075247132,-27.59489622026849
6.57410304,0.9994834424556316,-28.013858036882137
6.586583552,0.999598477778292,-28.434247608900854
6.599064064,0.9997325670887789,-28.856375544089847
6.611544576,0.9998797388045652,-29.280410506194976
6.624025088,1.000033206693052,-29.70652985009272
6.6365056,1.0001857447392737,-30.13468615328808
6.648986112,1.0003302625401667,-30.56490721259133
6.661466624,1.0004602101979185,-30.99699870952918
6.673947136,1.0005691915056987,-31.43078962362948
6.686427648,1.0006524477656893,-31.865950823738313
6.69890816,1.0007057938621537,-32.302135063531885
6.711388672,1.0007266189108224,-32.73900298045496
6.723869184,1.0007138838670007,-33.17613797143433
6.736349696,1.0006683475995182,-33.61308506322089
6.748830208,1.0005915473618983,-34.04948799500105
6.761310208,1.000487238347641,-34.484954446953154
6.77379072,1.0003603578626021,-34.9191705217748
6.786271232,1.0002161851578253,-35.35192595529624
6.798751744,1.0000616880135258,-35.7830101358229
6.811232256,0.9999042015334106,-36.21233596425863
6.823712768,0.9997508221255569,-36.639943074805174
6.83619328,0.9996085824750945,-37.06587480740715
6.848673792,0.9994843008920016,-37.49035763810682
6.861154304,0.9993837959368223,-37.91357379381986
6.873634816,0.9993117241035738,-38.3359180682703
6.886115328,0.9992718144692561,-38.75777249417669
6.89859584,0.9992656762530636,-39.17948449549404
6.911076352,0.9992939388424485,-39.601489409876166
6.923556864,0.9993552287852492,-40.02424413600148
6.936037376,0.9994469524338255,-40.44813558180681
6.948517888,0.999564956871148,-40.87351612709776
6.9609984,0.9997037184819193,-41.30063286878927
6.973478912,0.9998568535277366,-41.72981176058842
6.985959424,1.0000174016448513,-42.16109276338522
6.998439936,1.000177856636389,-42.59456326590465
7.010920448,1.000330676247036,-43.030188863251794
7.02340096,1.00046892350716,-43.46779315213354
7.035881472,1.000585824324868,-43.907198696376035
7.048361984,1.0006763480245335,-44.34809014440826
7.060842496,1.0007358370522643,-44.79012597022875
7.073323008,1.0007614984406417,-45.232888831057345
7.08580352,1.0007520656033135,-45.67594169073537
7.098284032,1.000707805255801,-46.1188916059692
7.110764544,1.0006308531107633,-46.56132267285459
7.123245056,1.0005243126376524,-47.002790871988786
7.135725568,1.0003933451934255,-47.4430048841575
7.14820608,1.000243906671592,-47.88170439393629
7.160686592,1.0000826390387678,-48.31865139126461
7.173167104,0.9999172962960962,-48.75379890385468
7.185647616,0.9997553255409354,-49.18706752707683
7.198128128,0.9996043465818671,-49.61860806359553
7.21060864,0.999471424105263,-50.04858512919882
7.223089152,0.9993628194383777,-50.47725037277418
7.235569664,0.9992837556193832,-50.90492183750193
7.248050176,0.999237792987854,-51.33199060030153
7.260530176,0.9992272946429639,-51.75889971174809
7.273010688,0.9992528229870757,-52.18608813013115
7.2854912,0.9993136065288282,-52.613976453584975
7.297971712,0.9994065380140735,-53.0430340389039
7.310452224,0.9995276177221134,-53.473588858289276
7.322932736,0.9996711829257403,-53.90598741321022
7.335413248,0.9998307908635552,-54.34047036210032
7.34789376,0.9999990644794654,-54.77717540643161
7.360374272,1.0001679072517708,-55.2161760140789
7.372854784,1.0003299265192305,-55.65740852956376
7.385335296,1.0004771712867406,-56.10079476169662
7.397815808,1.0006032531482876,-56.546058273429836
7.41029632,1.0007015925925709,-56.992994848961324
7.422776832,1.0007681188968591,-57.44112045746094
7.435257344,1.0007993853953108,-57.890076349699235
7.447737856,1.0007937948861017,-58.33939098296797
7.460218368,1.0007514034967542,-58.78865106934461
7.47269888,1.0006743308675825,-59.23739490655334
7.485179392,1.0005657129328402,-59.685199886981465
7.497659904,1.0004308239433453,-60.13170789647667
7.510140416,1.0002754236318687,-60.57662608178682
7.522620928,1.0001069253353665,-61.01980013038772
7.53510144,0.999933138701932,-61.46100312343714
7.547581952,0.9997619960746436,-61.90025673275996
7.560062464,0.9996012259106686,-62.337686947144746
7.572542976,0.9994588161485409,-62.77344400714411
7.585023488,0.9993412063630417,-63.20772761369596
7.597504,0.9992540141481512,-63.640949297296046
7.609984512,0.999201292658994,-64.07350259298187
7.622465024,0.9991856051160922,-64.50581999659505
7.634945536,0.999208041869113,-64.93835336543131
7.647426048,0.9992675495570128,-65.37161369128269
7.65990656,0.9993615541824779,-65.80598475961501
7.672387072,0.9994856548873483,-66.24193385365092
7.684867584,0.9996343272434398,-66.67976580755708
7.697348096,0.9998007095750827,-67.11971045285242
7.709828608,0.9999771912202006,-67.5620518755603
7.72230912,1.000155312285552,-68.00678470120282
7.734789632,1.0003273438273326,-68.45386978075294
7.747270144,1.0004848340735715,-68.90324520942043
7.759750144,1.000620594686308,-69.35464896418574
7.772230656,1.0007281397593841,-69.80776027477793
7.784711168,1.0008026614492498,-70.26225705040757
7.79719168,1.0008402165294514,-70.71768545708858
7.809672192,1.0008392775687802,-71.17355114929425
7.822152704,1.0007994488089689,-71.62939919078914
7.834633216,1.0007225758062246,-72.08475213419858
7.847113728,1.0006122101994477,-72.5391648578874
7.85959424,1.0004731439245194,-72.99224200268968
7.872074752,1.0003117360766718,-73.44371096632553
7.884555264,1.000135409962903,-73.89330176876395
7.897035776,0.9999524256671017,-74.34086847285637
7.909516288,0.9997711497770574,-74.78637811176499
7.9219968,0.9995998358239171,-75.22993608091735
7.934477312,0.9994468077304705,-75.6716847203968
7.946957824,0.999319049154782,-76.11185250367693
7.959438336,0.999222635254685,-76.55084486523006
7.971918848,0.9991620752369937,-76.98904489300051
7.98439936,0.999140566436729,-77.42695253457558
7.996879872,0.9991589707736634,-77.8650428455787
8.009360384,0.9992167190519581,-78.30378649524661
8.021840896,0.9993113798688616,-78.74365420544612
8.034321408,0.999438471594204,-79.18510497994797
8.04680192,0.9995923047417281,-79.6285146315294
8.059282432,0.9997659082447886,-80.07416474169631
8.071762944,0.9999511115846166,-80.52225770218429
8.084243456,1.000139499793613,-80.97285986757193
8.096723968,1.0003223531949066,-81.42600303406718
8.10920448,1.0004910838072,-81.8815228764118
8.121684992,1.000637849916142,-82.33922332011181
8.134165504,1.0007557589211626,-82.79882415152875
8.146646016,1.0008392380328832,-83.25989267955129
8.159126528,1.0008844062373379,-83.72196208651548
8.17160704,1.0008889180851577,-84.18459801040012
8.184087552,1.000852382049588,-84.6472600142954
8.196568064,1.000776212695857,-85.10950387085242
8.209048576,1.0006641439261237,-85.57077986216007
8.221529088,1.0005210209723086,-86.03072307564884
8.2340096,1.0003533166564842,-86.48896049815943
8.246490112,1.0001688187050093,-86.94524968093798
8.258970112,0.9999758540302222,-87.39944732011305
8.271450624,0.9997835367834983,-87.85142599832723
8.283931136,0.9996005717344407,-88.3013440972854
8.296411648,0.9994356062520423,-88.74925236630257
8.30889216,0.9992965786388607,-89.19552773533283
8.321372672,0.9991896773495677,-89.64046684891169
8.333853184,0.9991202482573694,-90.08446626298475
8.346333696,0.9990916227651346,-90.52808523974241
8.358814208,0.999105224356656,-90.97182911663695
8.37129472,0.9991606589062068,-91.41616627400823
8.383775232,0.9992553883346553,-91.86162884924056
8.396255744,0.9993853096730397,-92.30872900189026
8.408736256,0.9995444837682393,-92.75779657655563
8.421216768,0.9997255343486983,-93.20921347780548
8.43369728,0.9999202877307539,-93.66315652685792
8.446177792,1.0001196885194783,-94.11974236827261
8.458658304,1.0003145141925245,-94.57901762736135
8.471138816,1.0004956825228584,-95.04084480335524
8.483619328,1.000654729142452,-95.50501796819354
8.49609984,1.0007843186573482,-95.971243958224
8.508580352,1.0008782577904227,-96.439029811518
8.521060864,1.0009320334010525,-96.90797684106641
8.533541376,1.0009430976588025,-97.37760986155638
8.546021888,1.0009106546003268,-97.84733334763992
8.5585024,1.0008361389748972,-98.31664918827606
8.570982912,1.0007227015700206,-98.78504635617564
8.583463424,1.0005755904286278,-99.25204805358497
8.595943424,1.0004012932271305,-99.71731461169125
8.608423936,1.0002079746483865,-100.18053456466237
8.620904448,1.0000043380705579,-100.64152784600513
8.63338496,0.999799915417142,-101.100193720907
8.645865472,0.9996040771887617,-101.5566233672722
8.658345984,0.9994261078115423,-102.01093539642902
8.670826496,0.9992741187773855,-102.46339978121111
8.683307008,0.9991553946044374,-102.9143929897971
8.69578752,0.9990755835370239,-103.36434893656556
8.708268032,0.9990386543374861,-103.81380014909733
8.720748544,0.9990462366481792,-104.26323093984253
8.733229056,0.9990984474471439,-104.7132430636029
8.745709568,0.9991928904508081,-105.1643953699797
8.75819008,0.999325310338861,-105.61710824000767
8.770670592,0.9994898021515166,-106.07190134211997
8.783151104,0.9996787364883009,-106.52909349092525
8.795631616,0.9998836961033122,-106.98897404970978
8.808112128,1.000094987472997,-107.45162918505324
8.82059264,1.0003029781009245,-107.91709741883092
8.833073152,1.0004979917156411,-108.38531537717303
8.845553664,1.0006708410464127,-108.85604143604336
8.858034176,1.0008135688548339,-109.32892593173634
8.870514688,1.000919476653245,-109.8036274223736
8.8829952,1.000983350275674,-110.27962826866154
8.895475712,1.0010022463441086,-110.7563604706669
8.907956224,1.0009749442794316,-111.2333042887005
8.920436736,1.0009026446841656,-111.70988566570126
8.932917248,1.0007884517342065,-112.18555651080231
8.94539776,1.000637481242865,-112.65982813149668
8.957878272,1.0004565078406327,-113.13229057643383
8.970358784,1.0002538140882873,-113.60262302902423
8.982839296,1.0000386870827642,-114.07060854040252
8.995319808,0.9998210558916631,-114.53611704184557
9.00780032,0.9996110148355762,-114.99921472284481
9.020280832,0.9994182567202841,-115.4600225769439
9.032761344,0.9992518864529993,-115.91880767541268
9.045241856,0.9991197042336529,-116.37594343194861
9.057722368,0.9990279352100945,-116.83188851317969
9.07020288,0.9989810749914121,-117.2871739903427
9.082683392,0.9989815652108636,-117.74235893848059
9.095163904,0.9990293426263049,-118.19804975838115
9.107644416,0.9991226151384379,-118.65481263049152
9.120124928,0.9992572714258257,-119.11318977366963
9.13260544,0.9994270601303421,-119.57366917827265
9.145085952,0.9996243897224225,-120.03662265752331
9.157566464,0.9998400745827031,-120.50236677119396
9.170046976,1.0000643826652778,-120.97107183857766
9.182527488,1.000286851053048,-121.44273053896144
9.195008,1.0004971808889778,-121.91733876127893
9.207488512,1.0006856681916056,-122.39462911172767
9.219969024,1.0008432928676851,-122.8743031286187
9.232449536,1.0009629019115944,-123.35594301371097
9.244930048,1.001038667593306,-123.83904878358807
9.25741056,1.0010669429175374,-124.3230275391284
9.269891072,1.0010461598014664,-124.80730504879388
9.282371584,1.0009770471636892,-125.29130737888474
9.294852096,1.000862729663412,-125.7744042366938
9.307332608,1.0007081332341705,-126.25612464990381
9.31981312,1.000520378252561,-126.73591044182697
9.332293632,1.000307869024682,-127.21350338295218
9.344774144,1.0000803040134436,-127.68860205180567
9.357254656,0.9998482948230268,-128.16107029210144
9.369735168,0.9996224139892221,-128.63094535211613
9.38221568,0.9994132806103546,-129.0982995928294
9.394696192,0.9992305455330445,-129.56346319155872
9.407176704,0.9990828865417422,-130.02676384670036
9.419657216,0.9989773200523521,-130.48869353429905
9.432137728,0.9989187880059346,-130.94983046638143
9.44461824,0.9989104690805105,-131.41069476387514
9.457098752,0.9989527575304412,-131.87198684873323
9.469579264,0.9990440448025416,-132.33431005748307
9.482059776,0.9991802371581011,-132.79823019426186
9.494540288,0.9993552188665322,-133.2643161971684
9.507019776,0.9995610632735854,-133.73293512852493
9.519500288,0.9997884724286354,-134.20445801691238
9.5319808,1.0000268796037954,-134.6790896609707
9.544461312,1.000265296638929,-135.1568987981202
9.556941824,1.0004927138948634,-135.6378146452162
9.569422336,1.0006985883661663,-136.12165101694976
9.581902848,1.0008733341976421,-136.60809501828436
9.59438336,1.0010087144447872,-137.09668942500988
9.606863872,1.0010982889431446,-137.58690518183943
9.619344384,1.0011376574343211,-138.07819367842055
9.631824896,1.0011249864550391,-138.5699042919008
9.644305408,1.0010603078205267,-139.06139116098555
9.65678592,1.0009467231321398,-139.5520216545668
9.669266432,1.0007889533741035,-140.0412359814895
9.681746944,1.000594195964633,-140.5285138870304
9.694227456,1.0003713244007486,-141.0134435451599
9.706707968,1.0001303366132221,-141.49575785544906
9.71918848,0.9998824845128642,-141.97525864015338
9.731668992,0.9996390697817442,-142.45193045053423
9.744149504,0.9994114441858211,-142.92591755227465
9.756630016,0.9992102313699188,-143.39743905787358
9.769110528,0.9990448622430668,-143.86689606017052
9.78159104,0.9989231820867365,-144.33473528212906
9.794071552,0.99885100081746,-144.8015756685563
9.806552064,0.9988319376345103,-145.26805654383853
9.819032576,0.9988671448608034,-145.73481898594886
9.831513088,0.9989552120537021,-146.20253253565392
9.8439936,0.999092280335924,-146.6718310818649
9.856474112,0.999272328055438,-147.14329769600099
9.868954624,0.9994870243928172,-147.6173972047058
9.881435136,0.9997267455116943,-148.0945295255488
9.893915648,0.9999804977868612,-148.57494427096836
9.90639616,1.0002365406989147,-149.05871435816437
9.918876672,1.000483073134115,-149.5458336464301
9.931357184,1.0007087734799482,-150.0360958989607
9.943837696,1.000902811662852,-150.52920169906662
9.956318208,1.0010563350485433,-151.02469406990372
9.96879872,1.0011621549900809,-151.52203724629803
9.981279232,1.0012148897955682,-152.02061099038164
9.993759744,1.0012120502358968,-152.51975540993266
10.006240256,1.001153400596481,-153.01877797035195
10.018720768,1.0010414916972599,-153.5169972860967
10.03120128,1.000881119781518,-154.01379205656116
10.043681792,1.0006793991700706,-154.5085839920961
10.056162304,1.0004456275371771,-155.00094169267567
10.068642816,1.0001901957162869,-155.49049647182417
10.081123328,0.9999249574941749,-155.97706720424523
10.09360384,0.9996621060573132,-156.46059352448816
10.106084352,0.9994137607871693,-156.94114329676907
10.118564864,0.9991915071735133,-157.4189997800171
10.131045376,0.9990058581654285,-157.8944810618965
10.143525888,0.9988653890453337,-158.36816540158168
10.1560064,0.9987771821847214,-158.84060300550422
10.168486912,0.9987451922215246,-159.31247847910444
10.180967424,0.9987713950468288,-159.7844746906756
10.193447936,0.9988548915366527,-160.2573299020527
10.205928448,0.9989919893335993,-160.73176571920217
10.21840896,0.9991766508614371,-161.2083638058951
10.230889472,0.9994005775069414,-161.68769237238607
10.243369984,0.9996536107494808,-162.17018315712713
10.255850496,0.9999240723608195,-162.65610159127957
10.268331008,1.0001996998314389,-163.14562151383768
10.28081152,1.0004676185325867,-163.63872141599236
10.293292032,1.000715514643902,-164.1352439405825
10.305772544,1.0009318437702655,-164.63486658657308
10.318253056,1.0011065191276212,-165.1371480802775
10.330733568,1.0012310700138904,-165.64153480285648
10.34321408,1.001299784883745,-166.14733887544097
10.355694592,1.0013090956484334,-166.6539104911827
10.368175104,1.001258233030171,-167.16045708800536
10.380655616,1.0011492771784223,-167.6662634763879
10.393136128,1.0009869221420793,-168.17068092172013
10.40561664,1.0007783702223523,-168.6730438797712
10.418097152,1.0005329698959218,-169.1728423475753
10.430577664,1.0002619155228656,-169.66967949932257
10.443058176,0.9999776147113436,-170.16330825012312
10.455538688,0.9996930097369597,-170.65363471434642
10.4680192,0.9994212728500581,-171.1407203728782
10.480499712,0.999175047028144,-171.62477459664188
10.492980224,0.9989660396629657,-172.1061989500371
10.505459712,0.9988038229828529,-172.58552135683183
10.517940224,0.998696399854831,-173.06332226164363
10.530420736,0.9986489808145524,-173.5403324118504
10.542901248,0.9986640262326753,-174.0173141654466
10.55538176,0.9987411500617914,-174.49503396733382
10.567862272,0.998877170341949,-174.9742402749971
10.580342784,0.9990661216862646,-175.45565421158625
10.592823296,0.9992994359371759,-175.93986512563035
10.605303808,0.9995666731573405,-176.42734663533662
10.61778432,0.9998555522560337,-176.91846482736688
10.630264832,1.0001527396729675,-177.41343801098958
10.642745344,1.0004448085774087,-177.91224328588538
10.655225856,1.000718085479526,-178.41478458991276
10.667706368,1.0009599544111918,-178.92071180740544
10.68018688,1.0011589739031062,-179.42959623548276
10.692667392,1.0013057553070281,-179.9408935788677
10.705147904,1.0013933839898075,179.54613709974691
10.717628416,1.001417558376691,179.0322112954067
10.730108928,1.0013765489845556,178.51813909263396
10.74258944,1.0012721472872779,178.00471015741599
10.755069952,1.0011087328504276,177.49269415659924
10.767550464,1.0008934528088054,176.9827392430772
10.780030976,1.0006359640978473,176.47549214706274
10.792511488,1.00034796572335,175.9713635661597
10.804992,1.0000424076219823,175.47068396150962
10.817472512,0.9997334392825344,174.97359386158055
10.829953024,0.9994352662739363,174.48007179460666
10.842433536,0.9991616922843637,173.98989693487948
10.854914048,0.9989255790388326,173.50269701667537
10.86739456,0.9987380114889204,173.0179705327503
10.879875072,0.9986079347062711,172.5350482234915
10.892355584,0.9985418281080148,172.05319959044974
10.904836096,0.9985430068699008,171.57158928562166
10.917316608,0.9986116872880545,171.08938527150696
10.92979712,0.9987453446648933,170.60577417154084
10.942277632,0.9989378936215846,170.11998202088827
10.954758144,0.9991808745473368,169.63132238524088
