freq,mag,phase
6.0,1.0000209511587461,43.06573196498821
6.0246912,1.0000163796177608,42.50081756560269
6.049382912,1.0000106309013943,41.9359993983249
6.074074112,1.0000046417353736,41.3711805273969
6.098765312,0.9999985088117909,40.806405288122484
6.123457024,0.9999924006860857,40.241699365225855
6.148148224,0.9999866823255461,39.67702939654903
6.172839424,0.999981440385819,39.11240728317672
6.197530624,0.999976903648535,38.547807280687344
6.222222336,0.9999730905918376,37.98322697254016
6.246913536,0.9999703551239146,37.41871776233035
6.271604736,0.9999686142919488,36.85413102513735
6.296296448,0.9999680291952165,36.289612501777974
6.320987648,0.9999684703449697,35.72504225035255
6.345678848,0.9999702427128128,35.16047769272293
6.37037056,0.9999729310715674,34.595878974987215
6.39506176,0.9999766676418643,34.0312013375888
6.41975296,0.9999814009300885,33.4665063393444
6.444444672,0.9999868842191362,32.90169799112327
6.469135872,0.9999928569989337,32.33685208561582
6.493827072,0.9999993445447403,31.771874758851972
6.518518272,1.0000059188085957,31.20684157813964
6.543209984,1.0000125695054776,30.641739339641628
6.567901184,1.0000189602506855,30.076549799539393
6.592592384,1.0000248518453252,29.511284213243353
6.617284096,1.000030127653929,28.945925382386136
6.641975296,1.0000345399560473,28.380456033481266
6.666666496,1.000038053653694,27.814990905794545
6.691358208,1.0000404172680906,27.249481221857607
6.716049408,1.0000415493575565,26.68387150935868
6.740740608,1.0000414776320616,26.11829397346898
6.76543232,1.0000402072758656,25.552668549785196
6.79012352,1.0000376358420817,24.987066219285907
6.81481472,1.0000339353276992,24.421475866310512
6.83950592,1.0000292378461546,23.855915717909134
6.864197632,1.0000235771699797,23.290359683145876
6.888888832,1.000017240740422,22.72486842318484
6.913580032,1.000010357908301,22.15944302324318
6.938271744,1.0000031270437135,21.5940500264909
6.962962944,0.9999958750595764,21.028730753103602
6.987654144,0.9999887285205701,20.463463296431474
7.012345856,0.9999820688430521,19.898235431560323
7.037037056,0.9999759981080809,19.33305227060158
7.061728256,0.999970688676985,18.767901321974843
7.086419968,0.9999663822463283,18.2028482785333
7.111111168,0.9999632204946224,17.63775952357854
7.135802368,0.9999613782506401,17.072690276283783
7.16049408,0.9999608077562233,16.50762607279145
7.18518528,0.9999616098861636,15.942569469022907
7.20987648,0.9999637076070281,15.377449726031399
7.23456768,0.9999671772749522,14.812247211671133
7.259259392,0.9999717946248352,14.247026147618408
7.283950592,0.9999774775138046,13.681751675525925
7.308641792,0.999983941485749,13.11636534185349
7.333333504,0.9999912381706371,12.550917844066124
7.358024704,0.9999989054009687,11.985349540938936
7.382715904,1.0000067155923849,11.41970885921222
7.407407616,1.0000145971277616,10.853939726313788
7.432098816,1.0000219741400405,10.288066036936808
7.456790016,1.0000289381444227,9.72213986479711
7.481481728,1.0000350406755767,9.156102091375715
7.506172928,1.0000401748270684,8.589987432451561
7.530864128,1.000044137366577,8.023804914463271
7.555555328,1.0000467358733955,7.45757489492127
7.58024704,1.000047918892517,6.891281697287707
7.60493824,1.000047665554502,6.324987036132653
7.62962944,1.0000460266247726,5.75865312046937
7.654321152,1.0000427723803775,5.1923196778384
7.679012352,1.000038360322628,4.626031078363183
7.703703552,1.000032710921918,4.059770106414861
7.728395264,1.0000258889131004,3.493541125356701
7.753086464,1.0000183122235184,2.9273580490636943
7.777777664,1.0000101685900624,2.361275120722372
7.802469376,1.000001692552736,1.795192239557586
7.827160576,0.9999931316329672,1.229205091721606
7.851851776,0.9999849321089023,0.6632934343596816
7.876542976,0.9999770688174761,0.09747528489817138
7.901234688,0.9999699272519257,-0.4683374629926344
7.925925888,0.9999638385022658,-1.0340855606864567
7.950617088,0.9999588703546487,-1.5997607229040438
7.9753088,0.9999554419062335,-2.1654570628222634
8.0,0.9999533684948164,-2.7311203913982247
8.0246912,0.9999528027736722,-3.296781227283744
8.049382912,0.9999540005259523,-3.862496119176584
8.074074112,0.999956658530266,-4.428238868279251
8.098765312,0.9999607660170169,-4.9940361924980134
8.123457024,0.9999664560663802,-5.559852771678042
8.148148224,0.9999732447065727,-6.12578929509488
8.172839424,0.9999810272579096,-6.691839240622584
8.197530624,0.99998963677714,-7.2579743853023535
8.222222336,0.9999986106807053,-7.824231122441839
8.246913536,1.0000078609738894,-8.390622342457533
8.271604736,1.0000169440127828,-8.95709787307248
8.296296448,1.000025758173976,-9.523678524012967
8.320987648,1.00003381670108,-10.090396305493137
8.345678848,1.0000408404437595,-10.65721453508236
8.37037056,1.0000468682285293,-11.22411152755418
8.39506176,1.0000512587549575,-11.79110307284092
8.41975296,1.0000542339300549,-12.358096887574325
8.444444672,1.000055654132171,-12.925218649191699
8.469135872,1.0000551214743452,-13.49232414171676
8.493827072,1.0000529064828723,-14.05947638057109
8.518518272,1.0000490965080198,-14.626582168088765
8.543209984,1.0000437144885046,-15.193680698096816
8.567901184,1.0000369107286424,-15.76073300688196
8.592592896,1.0000289978487793,-16.32776317128078
8.617283584,1.0000199994834988,-16.894680109885126
8.641975296,1.0000103745082534,-17.461553587136272
8.666667008,1.0000004985583324,-18.028364731481304
8.691357696,0.9999904206311723,-18.595052816146083
8.716049408,0.9999807638984839,-19.16170179746448
8.74074112,0.9999715775010424,-19.728274499235447
8.765431808,0.9999633515102724,-20.29475813310421
8.79012352,0.9999563270961053,-20.86117121498882
8.814815232,0.9999507449719144,-21.427568450754293
8.83950592,0.9999467168268084,-21.99395420426376
8.864197632,0.9999444459678822,-22.560274793805874
8.888889344,0.999944063152463,-23.126629009209005
8.913580032,0.9999454941377729,-23.693021249240413
8.938271744,0.9999488276856643,-24.25944426870119
8.962963456,0.9999539815764447,-24.825936222373898
8.987654144,0.9999606258692657,-25.392495440428757
9.012345856,0.9999686400183896,-25.95916242462572
9.037036544,0.9999778565263079,-26.52594744207432
9.061728256,0.9999880273069783,-27.092867362596824
9.086419968,0.9999986253546462,-27.659894177155493
9.111110656,1.0000093441532178,-28.227071040212703
9.135802368,1.0000201605309258,-28.794377087924126
9.16049408,1.000030301751552,-29.361801291648973
9.185184768,1.0000397341073635,-29.929368638851198
9.20987648,1.0000479743137598,-30.497046369086753
9.234568192,1.000054747033633,-31.06481256413082
9.25925888,1.0000599159327603,-31.632700374218242
9.283950592,1.0000632318679483,-32.200655020196685
9.308642304,1.0000645729761493,-32.76864433431692
9.333332992,1.0000638800400319,-33.336669668323765
9.358024704,1.0000611496677574,-33.90472589749845
9.382716416,1.0000565796795697,-34.472741465791515
9.407407104,1.000050162307365,-35.04073366100324
9.432098816,1.000042077643012,-35.60869951305673
9.456790528,1.00003260930624,-36.176592688500534
9.481481216,1.000022187903209,-36.744392189084095
9.506172928,1.0000108058783912,-37.312106927156165
9.53086464,0.9999990946306441,-37.87974308556366
9.555555328,0.9999874022451339,-38.447274377649315
9.58024704,0.999976007148403,-39.014719577351514
9.604938752,0.9999654225770502,-39.58205921645118
9.62962944,0.9999559165483667,-40.149336980220596
9.654321152,0.9999477243917513,-40.71653995517302
9.67901184,0.9999412666649736,-41.283698985703175
9.703703552,0.9999366979440091,-41.85082611361571
9.728395264,0.9999342643128571,-42.417923578372424
9.753085952,0.999933800584068,-42.98503331654425
9.777777664,0.9999357195524418,-43.55217668829495
9.802469376,0.9999397270838394,-44.11936142501214
9.827160064,0.9999458588141408,-44.68664435733836
9.851851776,0.9999537545963106,-45.25401474564992
9.876543488,0.9999632523317471,-45.82147463820378
9.901234176,0.9999741723566414,-46.38910141137533
9.925925888,0.9999860987834536,-46.956855047164886
9.9506176,0.9999986202260127,-47.52474966656803
9.975308288,1.0000113397898873,-48.092814876500114
10.0,1.0000238682152087,-48.66104015290386
10.024691712,1.0000357668401125,-49.22942337599059
10.0493824,1.000046739787382,-49.79795309959853
10.074074112,1.0000562961754258,-50.36658808516012
10.098765824,1.0000642021822792,-50.93538124032169
10.123456512,1.0000702245474336,-51.504245279672396
10.148148224,1.0000738897561023,-52.07321157099369
10.172839936,1.0000753939531897,-52.642212530991955
10.197530624,1.0000745677610012,-53.211277907653596
10.222222336,1.0000713273474056,-53.78033945919921
10.246914048,1.0000657158520503,-54.34937884017501
10.271604736,1.0000580794433338,-54.918386600953056
10.296296448,1.0000485163070254,-55.48734757777571
10.32098816,1.0000374046104508,-56.05619625462694
10.345678848,1.0000249796196508,-56.624997930020605
10.37037056,1.0000116361735556,-57.193667519504295
10.395061248,0.9999978439984087,-57.76222115174628
10.41975296,0.9999842452728126,-58.33068389355508
10.444444672,0.999970909452891,-58.899015366442164
10.46913536,0.999958471307352,-59.467250878576394
10.493827072,0.9999473538184173,-60.03538519846258
10.518518784,0.9999378983553618,-60.603460826672205
10.543209472,0.999930348354987,-61.171439675969474
10.567901184,0.9999251538994661,-61.73940879758517
10.592592896,0.9999222866971054,-62.307328288120864
10.617283584,0.9999220195100414,-62.87529292497249
10.641975296,0.9999243088422807,-63.44327158380337
10.666667008,0.9999291381619662,-64.01132795122878
10.691357696,0.9999364234976003,-64.57945865562152
10.716049408,0.9999457698099897,-65.14769776033494
10.74074112,0.999957167233579,-65.71607484301384
10.765431808,0.9999700362960737,-66.28461052537142
10.79012352,0.9999840888388316,-66.85330596729638
10.814815232,0.9999987792413975,-67.42218858179235
10.83950592,1.0000137072322441,-67.99124973589667
10.864197632,1.000028501949582,-68.5604846718076
10.888889344,1.000042400358204,-69.12991785650512
10.913580032,1.0000552755904335,-69.69949790649679
10.938271744,1.0000664201365987,-70.26923906947735
10.962963456,1.0000756498686811,-70.8391333861946
10.987654144,1.000082616503477,-71.40911293552712
11.012345856,1.0000869075919379,-71.97921114382422
11.037036544,1.0000885876141858,-72.54937773856784
11.061728256,1.000087500098538,-73.11957184963939
11.086419968,1.0000835270349155,-73.68978635846489
11.111110656,1.000076891319856,-74.2599669970693
11.135802368,1.0000678329186774,-74.8300972033152
11.16049408,1.0000564009058956,-75.40016970558706
11.185184768,1.0000432676980688,-75.97015721921058
11.20987648,1.0000285512375806,-76.54000967153969
11.234568192,1.0000129179095716,-77.10974227976669
11.25925888,0.9999966601573972,-77.67933864904545
11.283950592,0.9999804183969196,-78.24881396987168
11.308642304,0.9999648435165125,-78.81814371998061
11.333332992,0.9999502337787417,-79.38736435626747
11.358024704,0.999937158425673,-79.95646820488008
11.382716416,0.9999259760963517,-80.52545129167062
11.407407104,0.9999172857177349,-81.094393133386
11.432098816,0.9999110921172217,-81.66326891426422
11.456790528,0.99990794238108,-82.23211855677427
11.481481216,0.9999077244154164,-82.80098869968141
11.506172928,0.9999104734186087,-83.36989523394779
11.53086464,0.9999163099744512,-83.9388742379698
11.555555328,0.9999249291410798,-84.50793979999762
11.58024704,0.9999361280801891,-85.07715952192407
11.604938752,0.9999496102934159,-85.64652129887239
11.62962944,0.9999648833545203,-86.21606574929714
11.654321152,0.9999815082005429,-86.78580060016397
11.67901184,0.9999989149144627,-87.3557450428334
11.703703552,1.0000166684468086,-87.92590223194776
11.728395264,1.0000340253469229,-88.49628368484439
11.753085952,1.0000506078530986,-89.06686979604102
11.777777664,1.0000657755517286,-89.63764837324312
11.802469376,1.0000789893324034,-90.20861923417746
11.827160064,1.0000898127290716,-90.7797585519389
11.851851776,1.0000979506401764,-91.35101922976592
11.876543488,1.0001030176516104,-91.92237767147212
11.901234176,1.0001049153704835,-92.49383298070282
11.925925888,1.00010353455633,-93.06532225461409
11.9506176,1.0000987453923587,-93.6368144475228
11.975308288,1.0000908743866768,-94.20828791289797
12.0,1.000079931239324,-94.77968568245997
12.024691712,1.0000665014573573,-95.35100485729427
12.0493824,1.0000507178468085,-95.9222304693334
12.074074112,1.0000331951491142,-96.4932988145787
12.098765824,1.0000146018212113,-97.06422311449994
12.123456512,0.9999953876543001,-97.63499941282151
12.148148224,0.9999760640012368,-98.20558062312551
12.172839936,0.9999574615893945,-98.77603054454043
12.197530624,0.9999401046796118,-99.34631336842105
12.222222336,0.9999245889839983,-99.916466374717
12.246914048,0.9999113706726094,-100.48649578469134
12.271604736,0.9999010014506575,-101.05643603996002
12.296296448,0.999893735460572,-101.62631784109391
12.32098816,0.9998900084855227,-102.196167425783
12.345678848,0.9998897992827732,-102.76603095677365
12.37037056,0.9998931139803742,-103.33594054412276
12.395061248,0.9999000890244003,-103.90592665213356
12.41975296,0.999910475932644,-104.47604034765531
12.444444672,0.9999238723394781,-105.04629455119064
12.46913536,0.9999399549438721,-105.61674449209694
12.493827072,0.999958206607664,-106.18740193817511
12.518518784,0.9999781005193754,-106.75828993889724
12.543209472,0.9999989238568241,-107.32942023961982
12.567901184,1.0000201243374072,-107.90080158737744
12.592592896,1.0000409487425481,-108.4724425355364
12.617283584,1.0000607588142811,-109.04433131207989
12.641975296,1.000078852063218,-109.61646053542036
12.666667008,1.0000946051513115,-110.18878986299501
12.691357696,1.0001076228737753,-110.76131127217616
12.716049408,1.0001173171354987,-111.33401072888152
12.74074112,1.0001233873077309,-111.90683728882601
12.765431808,1.000125660064207,-112.47972930028796
12.79012352,1.0001239162988231,-113.05267919615832
12.814815232,1.0001181788516675,-113.62562874120272
12.83950592,1.0001086984688687,-114.1985555254487
12.864197632,1.0000955771064444,-114.77141344512891
12.888889344,1.0000793542445514,-115.34415064473367
12.913580032,1.000060433687561,-115.91675060538088
12.938271744,1.0000393558306542,-116.48919125079415
12.962963456,1.0000169016788214,-117.06145669783983
12.987654144,0.9999936752207849,-117.6335049124357
13.012345856,0.9999705064274387,-118.20537140052537
13.037036544,0.9999481030149573,-118.77702574715364
13.061728256,0.9999271185820936,-119.34850316871042
13.086419968,0.9999083157271932,-119.9197986968855
13.111110656,0.9998924509143621,-120.49096673908204
13.135802368,0.9998798939569112,-121.06200045320537
13.16049408,0.999871103814188,-121.63296670698854
13.185184768,0.9998664536888572,-122.2039135215462
13.20987648,0.9998661736047665,-122.77484144631327
13.234568192,0.9998702796130735,-123.34583190000691
13.25925888,0.9998787177616717,-123.91691322203448
13.283950592,0.9998912223187689,-124.48814346084706
13.308642304,0.9999074186626185,-125.05955782561036
13.333332992,0.99992688635931,-125.63116984458257
13.358024704,0.9999491002673748,-126.20304938240305
13.382716416,0.9999731966989469,-126.77519858975295
13.407407104,0.9999985947565783,-127.34764348369579
13.432098816,1.0000243830603808,-127.92039212495779
13.456790528,1.0000497678579034,-128.4934580719673
13.481481216,1.0000738460323582,-129.06680041021718
13.506172928,1.0000959394639308,-129.64045226517715
13.53086464,1.0001152853738333,-130.2143414166989
13.555555328,1.0001312126737578,-130.7884757430862
13.58024704,1.0001431031326804,-131.36281181473373
13.604938752,1.0001506290906204,-131.9372677183188
13.62962944,1.0001534041680649,-132.51185915145714
13.654321152,1.000151401363371,-133.08648993552853
13.67901184,1.0001445269570013,-133.6611341287933
13.703703552,1.0001328763618351,-134.23572516562191
13.728395264,1.000116862533778,-134.81023258156466
13.753085952,1.0000969449155743,-135.384595938119
13.777777664,1.00007375333401,-135.9588042043728
13.802469376,1.000047922541139,-136.53280855088715
13.827160064,1.0000202998685408,-137.10656772715836
13.851851776,0.9999916393315486,-137.68007724452193
13.876543488,0.9999630458851384,-138.2533585777173
13.901234176,0.9999352639370481,-138.8263714086076
13.925925888,0.9999093810989467,-139.39916879118053
13.9506176,0.99988605950128,-139.97172580938397
13.975308288,0.9998662440193713,-140.54412338552567
14.0,0.9998505980447994,-141.11635470979132
