freq,mag,phase
6.0,1.0001200080293648,-71.85358142450343
6.004854272,1.0000538893919406,-72.08532642813002
6.009708544,0.9999850119675695,-72.31616113631493
6.014563328,0.9999171832827144,-72.54607905759084
6.0194176,0.9998542034892653,-72.77510576442904
6.024271872,0.9997995468526719,-73.00338423873363
6.029126144,0.9997569430794553,-73.2310133797855
6.033980416,0.9997288049375824,-73.45819228113037
6.0388352,0.9997169218940852,-73.68511711825072
6.043689472,0.9997214984267263,-73.91204953202336
6.048543744,0.999742901590187,-74.13920800664891
6.053398016,0.9997795776888807,-74.36679836779615
6.058252288,0.9998297920707111,-74.59506476787715
6.06310656,0.9998898243427605,-74.82411299790968
6.067961344,0.999956741320619,-75.05414157353539
6.072815616,1.0000265367570207,-75.28515460456923
6.077669888,1.00009497962059,-75.51723772388662
6.08252416,1.0001578642856515,-75.75020312978866
6.087378432,1.0002118264590214,-75.98408489539912
6.092233216,1.0002533417830979,-76.21868771593672
6.097087488,1.0002799214952365,-76.45374968341412
6.10194176,1.0002901871395857,-76.68922831719655
6.106796032,1.0002833630076546,-76.92471919788382
6.111650304,1.0002597733417151,-77.16006571448719
6.116505088,1.000220881605192,-77.39497918408689
6.12135936,1.0001689291986295,-77.62935858468103
6.126213632,1.0001070819274438,-77.86297623660612
6.131067904,1.0000385557122733,-78.09570222398368
6.135922176,0.999967930402952,-78.32752121194595
6.140776448,0.9998990690535655,-78.55839130812032
6.145631232,0.9998363351265829,-78.7883824563803
6.150485504,0.999783044345513,-79.01760693849991
6.155339776,0.99974271787663,-79.24621323310213
6.160194048,0.999717641169859,-79.47440420749982
6.16504832,0.9997091897251412,-79.70243739946265
6.169903104,0.999718288574019,-79.93048395158027
6.174757376,0.9997439412227931,-80.15880549401116
6.179611648,0.9997852108714723,-80.38760807515027
6.18446592,0.9998391561511025,-80.61716469074483
6.189320192,0.9999027168432365,-80.84758481957824
6.194174976,0.9999726377911208,-81.0789536417478
6.199029248,1.0000439594342516,-81.31142022063783
6.20388352,1.0001131768124905,-81.54487323146981
6.208737792,1.0001759919438917,-81.77933990925543
6.213592064,1.0002285043294035,-82.01459446231767
6.218446848,1.0002675601915652,-82.25057979768408
6.22330112,1.000290949136881,-82.48705979975176
6.228155392,1.00029735761575,-82.72377152647894
6.233009664,1.000286243799339,-82.96056086653908
6.237863936,1.0002583218573566,-83.19702355717276
6.242718208,1.0002150461369028,-83.43310354275663
6.247572992,1.0001590503116093,-83.66852762210564
6.252427264,1.000093655114211,-83.90312297609111
6.257281536,1.0000225980341808,-84.136820541486
6.262135808,0.9999502516933676,-84.36954961041131
6.26699008,0.9998808939895857,-84.6013167849674
6.271844864,0.9998184306899046,-84.83221013041853
6.276699136,0.9997666082052918,-85.0623572858189
6.281553408,0.9997288330250932,-85.29189478156725
6.28640768,0.9997068307721629,-85.52107721445908
6.291261952,0.9997024293923704,-85.75008835383242
6.296116736,0.99971590901611,-85.97919715009711
6.300971008,0.9997460819108531,-86.20866467882105
6.30582528,0.999791648547548,-86.43870468304274
6.310679552,0.9998495745663605,-86.66953717216498
6.315533824,0.9999166671334582,-86.90124098049517
6.320388096,0.9999888386847391,-87.13399314910784
6.32524288,1.0000619526295684,-87.3678028986581
6.330097152,1.0001317174437399,-87.60265610985489
6.334951424,1.0001938242875483,-87.83847402203956
6.339805696,1.0002446879458857,-88.0751308015111
6.344659968,1.0002812453320133,-88.31246158284478
6.349514752,1.000301303019021,-88.55025073680294
6.354369024,1.0003035848816644,-88.78821092741205
6.359223296,1.0002881437849644,-89.02611181194348
6.364077568,1.0002556786959451,-89.26372433817114
6.36893184,1.0002079495487681,-89.50083931110974
6.373786624,1.0001482045332792,-89.73723448729268
6.378640896,1.0000793869586724,-89.97278936981436
6.383495168,1.0000060729505331,-90.20737202086174
6.38834944,0.9999320450952219,-90.44099186774436
6.393203712,0.9998622097305372,-90.67359843944539
6.398058496,0.9998003873847142,-90.90535665806392
6.402912768,0.9997503509341523,-91.13632554904382
6.40776704,0.9997152126560722,-91.36679327277392
6.412621312,0.9996969548614225,-91.5968825395078
6.417475584,0.9996966749965969,-91.82688178647757
6.422329856,0.9997144038303711,-92.0570534326725
6.42718464,0.9997492487142637,-92.28759662016925
6.432038912,0.9997989423411533,-92.51878859923474
6.436893184,0.9998608560321156,-92.75080940456441
6.441747456,0.999931202045174,-92.98382157107584
6.446601728,1.0000059364929663,-93.21786363993066
6.451456512,1.0000803932550666,-93.4529987861135
6.456310784,1.0001504645169497,-93.68918958008646
6.461165056,1.000211790224954,-93.92634987918576
6.466019328,1.0002607893500466,-94.16432475232163
6.4708736,1.0002945284524485,-94.40294461960401
6.475728384,1.0003110292847786,-94.64190846582866
6.480582656,1.0003092493258503,-94.88108318970932
6.485436928,1.0002893519493226,-95.12006256070201
6.4902912,1.0002522964091867,-95.35874389658797
6.495145472,1.0002002557875342,-95.59684157742682
6.499999744,1.0001364365223369,-95.83419081650149
6.504854528,1.0000646234412338,-96.07060650237524
6.5097088,0.9999887754643003,-96.30601815463132
6.514563072,0.9999136765179063,-96.5404141891908
6.519417344,0.9998435239493719,-96.7738155026901
6.524271616,0.999782613204136,-97.00636568774802
6.5291264,0.9997345914096443,-97.23816413795599
6.533980672,0.9997023713507397,-97.46944609384212
6.538834944,0.9996877303702585,-97.70039309588128
6.543689216,0.9996915942800486,-97.93135781213353
6.548543488,0.9997139467943552,-98.16251595719692
6.553398272,0.9997532864407234,-98.39414858275204
6.558252544,0.9998075411306838,-98.62645130635502
6.563106816,0.9998731387486125,-98.85967008961246
6.567961088,0.9999467742617818,-99.09386473128116
6.57281536,1.0000235685797707,-99.32917456854389
6.577670144,1.0000993164300267,-99.56558854479562
6.582524416,1.000169423198783,-99.80307147855406
6.587378688,1.0002297403433835,-100.04146585815664
6.59223296,1.0002767314769008,-100.28071125468924
6.597087232,1.0003073708430272,-100.52052120040443
6.601941504,1.0003201867482119,-100.76068570543083
6.606796288,1.0003141643784323,-101.00093487741418
6.61165056,1.0002894964720692,-101.24100346342684
6.616504832,1.000247811372711,-101.48065889429583
6.621359104,1.0001914735628739,-101.71968788703447
6.626213376,1.0001238756487092,-101.95784057020657
6.63106816,1.0000488257670086,-102.19504189493871
6.635922432,0.9999708983647715,-102.43121182010253
6.640776704,0.9998947034595681,-102.66635872030893
6.645630976,0.9998245714475562,-102.90047709532597
6.650485248,0.9997648396404917,-103.1337396057591
6.655340032,0.99971912317824,-103.36629112604044
6.660194304,0.9996898518185461,-103.59834553557059
6.665048576,0.999679124476519,-103.83015166091772
6.669902848,0.9996873917628296,-104.06199866915182
6.67475712,0.9997143085910795,-104.29407441768758
6.679611904,0.9997584084571173,-104.5267018387578
6.684466176,0.9998168251444058,-104.76012171176404
6.689320448,0.9998864105688711,-104.99442282826793
6.69417472,0.9999628094260907,-105.22980112663433
6.699028992,1.0000418294705609,-105.46629905312027
6.703883264,1.0001185886634374,-105.70395846229218
6.708738048,1.000188521592247,-105.94266297441071
6.71359232,1.000247544975594,-106.18229219573429
6.718446592,1.0002921891902565,-106.42268685626993
6.723300864,1.0003196714565645,-106.66364121287545
6.728155136,1.0003283996549148,-106.90489489347627
6.73300992,1.00031792107327,-107.14616051536991
6.737864192,1.0002886123653962,-107.38720450668447
6.742718464,1.0002423480223828,-107.62773747605871
6.747572736,1.0001816397301595,-107.86758568916599
6.752427008,1.0001103209176694,-108.10649501765211
6.757281792,1.0000323226239276,-108.34443265204295
6.762136064,0.999952401763319,-108.5813007451783
6.766990336,0.9998753245366495,-108.81707724522084
6.771844608,0.999805463841959,-109.05188048446648
6.77669888,0.9997472019964835,-109.2857998120884
6.781553152,0.9997038193926416,-109.51901405240231
6.786407936,0.9996779021850698,-109.75181233031552
6.791262208,0.9996711574170132,-109.98439963952711
6.79611648,0.9996840371981965,-110.21704170145783
6.800970752,0.9997156677282418,-110.45002281902877
6.805825024,0.9997644200860433,-110.68361695405892
6.810679808,0.9998271627823516,-110.91801532573947
6.81553408,0.999900464156092,-111.15342543603376
6.820388352,0.9999797768312112,-111.3899138366942
6.825242624,1.0000606405516514,-111.62756093685695
6.830096896,1.0001380645552596,-111.86634464096434
6.83495168,1.0002076699421598,-112.10621682072495
6.839805952,1.0002652491719435,-112.34697987263469
6.844660224,1.0003073199188108,-112.588521646311
6.849514496,1.0003313405918983,-112.83052298381935
6.854368768,1.0003360271890838,-113.07278835087023
6.859223552,1.0003208532579275,-113.31499928618405
6.864077824,1.0002868205597462,-113.55691461628308
6.868932096,1.0002357771624948,-113.79829316241592
6.873786368,1.000171027657,-114.0388284541334
6.87864064,1.0000958759513248,-114.27846303665885
6.883494912,1.0000151351110176,-114.51703991655076
6.888349696,0.9999334504724628,-114.75452088333087
6.893203968,0.9998555518670688,-114.9908587410996
6.89805824,0.9997862787083694,-115.22625705313197
6.902912512,0.9997295688909823,-115.46071968344218
6.907766784,0.9996888350513023,-115.69457787007316
6.912621568,0.9996665736122816,-115.92801692991796
6.91747584,0.9996640549414456,-116.16133391707386
6.922330112,0.9996815731397416,-116.39474810585762
6.927184384,0.9997180753148593,-116.62856868177094
6.932038656,0.9997713820616803,-116.86306637813402
6.93689344,0.9998384973653103,-117.09841354271245
6.941747712,0.9999153612424619,-117.33480295217855
6.946601984,0.9999974654483342,-117.57234614758075
6.951456256,1.000079962411536,-117.81105251518936
6.956310528,1.000158040518289,-118.05094681803112
6.9611648,1.0002269999724631,-118.29192548754173
6.966019584,1.0002827898603974,-118.53375391486647
6.970873856,1.0003220667370767,-118.77632522197709
6.975728128,1.0003424988783935,-119.01932709340652
6.9805824,1.0003428524810438,-119.2624877056745
6.985436672,1.0003229383240835,-119.50558824169435
6.990291456,1.000284111438261,-119.74829637106383
6.995145728,1.0002283778530985,-119.99034615741259
7.0,1.000159210988047,-120.23158783238708
7.004854272,1.000080567302855,-120.47181858285934
7.009708544,0.9999971992497924,-120.71092756773903
7.014563328,0.999913846573592,-120.94891402341574
7.0194176,0.9998355845224633,-121.18574493812916
7.024271872,0.999766961939829,-121.42162867737783
7.029126144,0.999712126246474,-121.65666122200177
7.033980416,0.9996743078611983,-121.89106090873497
7.0388352,0.9996558865533524,-122.12508806245887
7.043689472,0.9996576628747169,-122.35900425833707
7.048543744,0.9996800369463136,-122.59316074850435
7.053398016,0.9997213830412383,-122.8277634250163
7.058252288,0.9997794821665442,-123.06306850158673
7.06310656,0.9998507436864977,-123.29927015606648
7.067961344,0.9999311688629307,-123.53663686950377
7.072815616,1.0000158564532713,-123.77516625631326
7.077669888,1.0000999091119978,-124.01488531124797
7.08252416,1.000178251358162,-124.25579184168947
7.087378432,1.0002463581432375,-124.49777177079018
7.092233216,1.0003001413420838,-124.7406346273437
7.097087488,1.0003364378357664,-124.98408396042726
7.10194176,1.0003528638178643,-125.22802134679637
7.106796032,1.00034874260231,-125.47204932382606
7.111650304,1.0003240455880749,-125.71589089613094
7.116505088,1.0002801709915354,-125.95927796644649
7.12135936,1.0002198853568556,-126.202019797907
7.126213632,1.0001465207119338,-126.4437987909982
7.131067904,1.0000643979626829,-126.6845201677637
7.135922176,0.9999784888659089,-126.92408544232426
7.140776448,0.9998937828951474,-127.16251344597676
7.145631232,0.9998151863215106,-127.3997833359485
7.150485504,0.9997476009444435,-127.63607654256488
7.155339776,0.9996949417534989,-127.8715210004339
7.160194048,0.9996602054533564,-128.10639248298904
7.16504832,0.9996456787169488,-128.34095623374807
7.169903104,0.999652162388326,-128.57545066860544
7.174757376,0.9996793488505975,-128.81019843129997
7.179611648,0.9997256631439719,-129.0455021014089
7.18446592,0.9997883569708688,-129.2815880087217
7.189320192,0.9998638448119402,-129.51864363009068
7.194174976,0.9999476588508808,-129.75686454854866
7.199029248,1.0000348006495405,-129.99628277902445
7.20388352,1.0001201432405777,-130.23697329542935
7.208737792,1.0001987131708938,-130.4788302085308
7.213592064,1.00026564754157,-130.72170967460391
7.218446848,1.000317251489528,-130.96548495620087
7.22330112,1.0003501941722126,-131.20983144543413
7.228155392,1.0003627724972894,-131.45455022930904
7.233009664,1.0003538878454366,-131.6993279119845
7.237863936,1.0003241884603602,-131.94386754093156
7.242718208,1.0002754266379417,-132.18785552159147
7.247572992,1.0002103987542719,-132.43108327239517
7.252427264,1.0001328548494595,-132.6733320167475
7.257281536,1.0000474192553674,-132.91449224082453
7.262135808,0.9999591453836597,-133.15445304085517
7.26699008,0.9998732620692939,-133.3931906248222
7.271844864,0.999794690716599,-133.6307916329894
7.276699136,0.9997283489145102,-133.86742490232183
7.281553408,0.9996779426262589,-134.10324380252257
7.28640768,0.9996467001907551,-134.33848483152266
7.291261952,0.9996363059061643,-134.57347256732714
7.296116736,0.9996475737130357,-134.80845491892492
7.300971008,0.9996798325281916,-135.04380225929384
7.30582528,0.9997311571832875,-135.27972645883065
7.310679552,0.9997986011870804,-135.5165141545216
7.315533824,0.9998781380164649,-135.75433719586152
7.320388096,0.9999652419024744,-135.99335968478854
7.32524288,1.0000547195181066,-136.23363498658753
7.330097152,1.0001411553740405,-136.47515667358417
7.334951424,1.0002195247196743,-136.7178650530356
7.339805696,1.0002852018665054,-136.9616249810764
7.344659968,1.0003342693613664,-137.20616429644863
7.349514752,1.000363704057235,-137.4513357573695
7.354369024,1.000371938804275,-137.69676889110053
7.359223296,1.0003583059150125,-137.94218861240796
7.364077568,1.000323527993544,-138.1873182388798
7.36893184,1.0002696222219623,-138.43182721495054
7.373786624,1.0001998569432364,-138.67549643385553
7.378640896,1.0001183251186163,-138.91810716753886
7.383495168,1.0000296476348067,-139.1595381192917
7.38834944,0.9999391850437938,-139.39980038020053
7.393203712,0.9998522329498031,-139.63876193941857
7.398058496,0.9997739487103806,-139.8766157487628
7.402912768,0.9997090068234945,-140.1134749793362
7.40776704,0.9996612593756913,-140.3495718355982
7.412621312,0.9996335873371119,-140.5851213034743
7.417475584,0.9996276393481293,-140.82046464453845
7.422329856,0.9996437443748737,-141.0558845883574
7.42718464,0.999681131486585,-141.29170986600917
7.432038912,0.9997375217238353,-141.5282098623257
7.436893184,0.9998097498713354,-141.76559935138152
7.441747456,0.9998934177306966,-142.00412463131377
7.446601728,0.9999836209031379,-142.24388941744633
7.451456512,1.0000750900356712,-142.48490285480446
7.456310784,1.0001623964568234,-142.7272536455764
7.461165056,1.0002404765287782,-142.9707211286979
7.466019328,1.0003045517225375,-143.21524549886627
7.4708736,1.0003508410587638,-143.46055574566472
7.475728384,1.0003766225868562,-143.70636505471958
7.480582656,1.0003803222104424,-143.95241987863167
7.485436928,1.000361687631439,-144.19837464473602
7.4902912,1.000321703797584,-144.44399360634765
7.495145472,1.0002627961831043,-144.688888019699
7.500000256,1.0001882821528527,-144.93289910811163
7.504854528,1.0001026468464629,-145.1757883579792
7.5097088,1.0000108776613297,-145.41745146632567
7.514563072,0.9999184289050468,-145.65785236525429
7.519417344,0.9998307097032485,-145.89696472180376
7.524271616,0.9997529459484094,-146.13496815043496
7.5291264,0.9996896888968783,-146.37200130016382
7.533980672,0.9996448561431294,-146.6082261754403
7.538834944,0.9996210645529163,-146.8440443880652
7.543689216,0.9996196978872626,-147.07966660089082
7.548543488,0.999640918522758,-147.31542948882105
7.553398272,0.9996835338220935,-147.55167321031013
7.558252544,0.9997451102822152,-147.78866226982362
7.563106816,0.9998219531121887,-148.02659933431326
7.567961088,0.9999096110320396,-148.26573381285934
7.57281536,1.0000029485368136,-148.50614845083652
7.577670144,1.0000963417139832,-148.747861130077
7.582524416,1.000184378678512,-148.99088240998603
7.587378688,1.0002617450212465,-149.23507250292775
7.59223296,1.0003239292331774,-149.4802621461025
7.597087232,1.0003673005232345,-149.72619536622972
7.601941504,1.0003890516388232,-149.97262619483075
7.606796288,1.0003880306011506,-150.21920709070787
7.61165056,1.0003642152224004,-150.46562600188665
7.616504832,1.0003189923968163,-150.7116055625376
7.621359104,1.0002548641609006,-150.9568133701686
7.626213376,1.0001756805067759,-151.20101846887871
7.63106816,1.0000860789262949,-151.44408846413137
7.635922432,0.999991324935243,-151.685858359381
7.640776704,0.9998970489771829,-151.9263020875574
7.645630976,0.9998087884352864,-152.16550707570352
7.650485248,0.9997316960996281,-152.40354883247443
7.655340032,0.9996704795673271,-152.6406167209104
7.660194304,0.9996287952262564,-152.8769821168998
7.665048576,0.9996090713632951,-153.11293239961776
7.669902848,0.999612460812012,-153.34877087652518
7.67475712,0.9996389250408745,-153.58477854030124
7.679611904,0.9996869111831613,-153.82136836522335
7.684466176,0.9997536679637649,-154.0587431283042
7.689320448,0.9998352165105042,-154.29717493623417
7.69417472,0.9999267499618656,-154.53685045178037
7.699028992,1.0000229326679286,-154.77783183671073
7.703883264,1.0001180694252736,-155.02014427983815
7.708738048,1.0002065366446236,-155.26378641589835
7.71359232,1.0002830252157036,-155.50858313418954
7.718446592,1.0003431447622264,-155.75434115687636
7.723300864,1.0003832216044892,-156.0008392393331
7.728155136,1.0004007604253478,-156.24775714051998
7.73300992,1.0003948951844617,-156.4947551616086
7.737864192,1.0003656400304353,-156.74154480258386
7.742718464,1.0003149933588424,-156.9877674258461
7.747572736,1.0002456574346426,-157.23315406549486
7.752427008,1.0001618632653553,-157.47750443819336
7.757281792,1.0000683886233541,-157.72061892884142
7.762136064,0.9999707623355871,-157.96240577739474
7.766990336,0.999874918006894,-158.2028345739508
7.771844608,0.9997862575362029,-158.44197288258954
7.77669888,0.9997102173522634,-158.6799749948324
7.781553152,0.9996512825534332,-158.9170338647472
7.786407936,0.9996129879903517,-159.1533746994528
7.791262208,0.9995975791311892,-159.38938725323254
7.79611648,0.9996059562456779,-159.62531147006175
7.800970752,0.9996378705273328,-159.8615572675259
7.805825024,0.9996914433063653,-160.0984002909878
7.810679808,0.9997633903864241,-160.33611279295056
7.81553408,0.9998495136694752,-160.57492637637603
7.820388352,0.9999449877123964,-160.8150355357632
7.825242624,1.0000438409304215,-161.05651454824348
7.830096896,1.0001405171600237,-161.29938801492008
7.83495168,1.0002291689420053,-161.54355434364888
7.839805952,1.0003045864261726,-161.7888783355016
7.844660224,1.0003622199980928,-162.03518396093787
7.849514496,1.0003988002767152,-162.28210574303657
7.854368768,1.000411953480682,-162.5294054267049
7.859223552,1.0004008445055086,-162.77672221103182
7.864077824,1.0003662077047255,-163.02376662302996
7.868932096,1.0003100383845902,-163.27014512057423
7.873786368,1.0002354966150782,-163.5156102182314
7.87864064,1.0001469468858681,-163.75996447239731
7.883494912,1.0000498063120256,-164.00304373219942
7.888349696,0.9999494853949472,-164.24470740208673
7.893203968,0.9998521406154992,-164.4850045009628
7.89805824,0.9997634442920781,-164.7240179862835
7.902912512,0.9996886785421312,-164.96186136854976
7.907766784,0.9996323021093723,-165.19878912903044
7.912621568,0.999597623386855,-165.43507741625484
7.91747584,0.9995867911763631,-165.67101548243224
7.922330112,0.9996005155642744,-165.90702801153583
7.927184384,0.9996379727101481,-166.1433536468093
7.932038656,0.9996970725700066,-166.38040297955004
