freq,mag,phase
6.0,1.0005863339757095,-155.57828871386366
6.002285568,1.0004433302890077,-155.7328488707459
6.004571648,1.000271877300648,-155.8851052373058
6.006857216,1.0000828418845504,-156.03476343013347
6.009142784,0.9998880503014912,-156.18161090895262
6.011428352,0.9996999951772996,-156.3256597795244
6.013714432,0.9995305841855181,-156.4671385601474
6.016,0.9993905451383078,-156.6063543147247
6.018285568,0.9992887859932058,-156.74379849891773
6.020571648,0.9992317768525778,-156.88009705359596
6.022857216,0.9992232065358505,-157.01586938530323
6.025142784,0.9992635656704992,-157.15191845020306
6.027428352,0.9993503595540242,-157.28888114697617
6.029714432,0.9994781002934056,-157.42740467120763
6.032,0.9996385906107155,-157.56802009648217
6.034285568,0.9998217926874523,-157.7111098706849
6.036571648,1.0000160445290849,-157.8569925457156
6.038857216,1.0002089932208118,-158.00566260316523
6.041142784,1.000388349190193,-158.15704047756648
6.043428352,1.0005429149155212,-158.31084064440273
6.045714432,1.000662772313698,-158.466638952582
6.048,1.0007402576577649,-158.62390181236975
6.050285568,1.0007706778040246,-158.78188384775487
6.052571648,1.000751866495814,-158.9400061860022
6.054857216,1.0006851539802024,-159.09749454443943
6.057142784,1.0005746828158377,-159.2536651521983
6.059428352,1.00042729475377,-159.40800134432857
6.061714432,1.0002525282113441,-159.5599627851446
6.064,1.0000613841565438,-159.70931223856778
6.066285568,0.999865949925319,-159.855818044557
6.068571648,0.9996785105420317,-159.99954399758124
6.070857216,0.9995110483337581,-160.14067822653848
6.073142784,0.999374241483183,-160.27960708422333
6.075428352,0.9992768147402724,-160.41681345579212
6.077714432,0.999224886235266,-160.55294617109635
6.08,0.9992217857376281,-160.68867074092623
6.082285568,0.9992678121998779,-160.82471136780543
6.084571648,0.999359877429313,-160.96170441993272
6.086857216,0.9994923217323297,-161.10037757931212
6.089142784,0.9996566973952657,-161.2411985625514
6.091428352,0.9998425064293841,-161.38457452830892
6.093714432,1.0000380961601527,-161.53073066365516
6.096,1.0002310438194255,-161.67968173957507
6.098285568,1.0004090408776816,-161.83133338266433
6.100571648,1.00056075837523,-161.98538059136732
6.102857216,1.0006767982825926,-162.1413850683877
6.105142784,1.0007495714298391,-162.29872214806414
6.107428352,1.0007745673114505,-162.45681614443205
6.109714432,1.0007502145053004,-162.6148793209736
6.112,1.000677982011048,-162.7722495721763
6.114285568,1.0005624350883553,-162.92826671266235
6.116571648,1.0004108129570448,-163.082349764175
6.118857216,1.0002327875052328,-163.23403300422743
6.121142784,1.0000396475730402,-163.38301922261593
6.123428352,0.9998435069139082,-163.52917182453385
6.125714432,0.9996569156337715,-163.67252529627373
6.128,0.9994916349173608,-163.81332662092228
6.130285568,0.9993583083166906,-163.95195013846777
6.132571648,0.9992652263852749,-164.08891531216358
6.134857216,0.9992184103405266,-164.22485205927808
6.137142784,0.9992209017410899,-164.36047449076275
6.139428352,0.9992724623326329,-164.4964818887521
6.141714432,0.9993699002849137,-164.6335693687329
6.144,0.9995069787530744,-164.77234497886516
6.146285568,0.9996751205371762,-164.91336229497023
6.148571648,0.9998635538196664,-165.05695653738113
6.150857216,1.0000604394425279,-165.20336667475993
6.153142784,1.0002530855298288,-165.35260423235175
6.155428352,1.0004295155038978,-165.50450492872335
6.157714432,1.0005784145971113,-165.65877249391033
6.16,1.0006904709972455,-165.8149455887113
6.162285568,1.000758362167268,-165.97243200592496
6.164571648,1.0007779602283005,-166.13051842214318
6.166857216,1.000748002644803,-166.28853820076637
6.169142784,1.0006703308642975,-166.44579994245728
6.171428352,1.0005496075648976,-166.6016071917009
6.173714432,1.0003938775087817,-166.7554028580546
6.176,1.0002127677217065,-166.90676661333057
6.178285568,1.0000177046186847,-167.05538380317873
6.180571648,0.999821135307157,-167.20113984476168
6.182857216,0.9996354246109135,-167.34410166838768
6.185142784,0.9994725692435927,-167.4845395085365
6.187428352,0.9993426459683712,-167.62283408850388
6.189714432,0.9992541363239835,-167.75954317634498
6.192,0.9992125920170859,-167.89531252943908
6.194285568,0.9992206130967404,-168.03080567729648
6.196571648,0.9992778823648766,-168.16676366721651
6.198857216,0.9993806023561389,-168.30391434580517
6.201142784,0.9995223477415922,-168.44282056342658
6.203428352,0.9996940646568823,-168.58399385271025
6.205714432,0.9998849504264775,-168.72783333883135
6.208,1.0000829082914742,-168.87447080873693
6.210285568,1.0002752801701726,-169.02393316688926
6.212571648,1.0004499439102856,-169.1761164935411
6.214857216,1.0005958736294944,-169.33056933439966
6.217142784,1.0007037095034332,-169.48688889866037
6.219428352,1.000766777566741,-169.64444069893167
6.221714432,1.0007807945116494,-169.80254725965958
6.224,1.0007450988561286,-169.96047514676
6.226285568,1.00066184954848,-170.11757109097329
6.228571648,1.0005363482094276,-170.2731584943153
6.230857216,1.000376388626018,-170.42663141323777
6.233142784,1.0001921936703757,-170.5776273853937
6.235428352,0.9999954753738083,-170.72584692296766
6.237714432,0.999798546812326,-170.87120347491137
6.24,0.9996139729372374,-171.013793079788
6.242285568,0.9994534949652567,-171.15386139643758
6.244571648,0.9993272822159445,-171.29180303757082
6.246857216,0.9992434250097784,-171.42825246936934
6.249142784,0.999207166336951,-171.56379525690858
6.251428352,0.9992209044048262,-171.69917719343854
6.253714432,0.9992837173756686,-171.8350756312153
6.256,0.9993917465775658,-171.97225823285763
6.258285568,0.9995380335847713,-172.11126241589938
6.260571648,0.9997133965298745,-172.25264260701164
6.262857216,0.9999065717110592,-172.3966816893301
6.265142784,1.0001054315356115,-172.54354543672574
6.267428352,1.0002974034000975,-172.69324639561043
6.269714432,1.0004702586084857,-172.8455977569158
6.272,1.000612921194728,-173.0002621754801
6.274285568,1.0007165714084518,-173.1566933134267
6.276571648,1.0007745135017296,-173.3143192227933
6.278857216,1.00078305567876,-173.4723956531045
6.281142784,1.0007416550366235,-173.6302449507139
6.283428352,1.0006528144396736,-173.78712628358872
6.285714432,1.0005224405703632,-173.94245263472726
6.288,1.000358527743251,-174.09557615459966
6.290285568,1.0001714045465047,-174.2462194061592
6.292571648,0.9999730195587427,-174.39399890325825
6.294857216,0.999775935127932,-174.53894321834022
6.297142784,0.9995925938709197,-174.6810809406985
6.299428352,0.9994347397915037,-174.82073189062785
6.301714432,0.9993123959798714,-174.95835683195733
6.304,0.99923319909729,-175.09450231011368
6.306285568,0.9992024297694623,-175.22983323686927
6.308571648,0.9992218053092153,-175.36507375313968
6.310857216,0.9992902913903005,-175.50094911298848
6.313142784,0.9994035879535837,-175.63816999312206
6.315428352,0.9995544160382862,-175.7772575488187
6.317714432,0.9997331990456751,-175.91878432772046
6.32,0.9999286523941784,-176.0629964461695
6.322285568,1.0001283687067828,-176.21007620549992
6.324571648,1.0003197322314705,-176.36000728525497
6.326857216,1.0004904236240886,-176.51256349086515
6.329142784,1.0006298029656961,-176.66736701688666
6.331428352,1.0007290828343154,-176.82391503356337
6.333714432,1.00078187491255,-176.98153179850155
6.336,1.0007847355514254,-177.1395790893792
6.338285568,1.0007375634254263,-177.29726905671268
6.340571648,1.0006433945307667,-177.4539551705328
6.342857216,1.000507950428115,-177.60897901837407
6.345142784,1.0003400335252035,-177.7617881930809
6.347428352,1.0001501007460245,-177.91197100742082
6.349714432,0.9999502564942722,-178.05932904522504
6.352,0.9997531463383033,-178.20381214762068
6.354285568,0.9995712647383812,-178.34554090337423
6.356571648,0.9994162253705581,-178.48478974967472
6.358857216,0.9992977626847802,-178.62202769333894
6.361142784,0.9992234388974255,-178.7578512839743
6.363428352,0.9991981342716691,-178.89297803059057
6.365714432,0.9992232913960264,-179.0280598001928
6.368,0.9992975066617743,-179.16388206196038
6.370285568,0.9994159637008372,-179.30108081159008
6.372571648,0.9995712134045592,-179.4402945817454
6.374857216,0.9997533852372614,-179.5819401225631
6.377142784,0.9999509064227183,-179.7263477897702
6.379428352,1.0001513252432057,-179.8736248498914
6.381714432,1.000341859090533,179.9762339230039
6.384,1.0005104322479004,179.82351367358845
6.386285568,1.0006464039420642,179.66857764413754
6.388571648,1.0007410688372653,179.51196335312304
6.390857216,1.0007886926112588,179.35434444485827
6.393142784,1.0007857955571142,179.196390724118
6.395428352,1.000732925530887,179.03881941898982
6.397714432,1.0006332247083842,178.88237164630644
6.4,1.0004930690315088,178.7276930654037
6.402285568,1.000321046200604,178.57527811704094
6.404571648,1.0001285759465477,178.4255032881408
6.406857216,0.9999273956762533,178.2785929270306
6.409142784,0.9997303841406696,178.13459982420684
6.411428352,0.9995500251798071,177.99334926818415
6.413714432,0.9993978744011222,177.8545082415133
6.416,0.9992834679492305,177.71765589546973
6.418285568,0.9992142888732114,177.58210686889285
6.420571648,0.9991944576396312,177.44728016027074
6.422857216,0.9992255041643855,177.31230893727636
6.425142784,0.9993053172208716,177.17656529867438
6.427428352,0.9994290360736987,177.03934388072358
6.429714432,0.9995886284449775,176.90007379293036
6.432,0.9997740672653825,176.75830832366412
6.434285568,0.999973517348505,176.6137509799345
6.436571648,1.0001744864132476,176.46626566250438
6.438857216,1.000364110434695,176.31596279867566
6.441142784,1.0005303360383622,176.16305825092257
6.443428352,1.0006626904432778,176.00800416332135
6.445714432,1.0007527606235356,175.8513479734126
6.448,1.0007947734402778,175.69372722603714
6.450285568,1.0007862152679887,175.53588156972958
6.452571648,1.0007275458513365,175.37850084397593
6.454857216,1.0006224516146163,175.22234926994008
6.457142784,1.0004774838740942,175.06798187650585
6.459428352,1.0003017250979744,174.9159954976805
6.461714432,1.0001064830165582,174.7666571811788
6.464,0.9999041692470105,174.62023514698612
6.466285568,0.9997074508902043,174.47672303883098
6.468571648,0.9995288613494737,174.33596182508134
6.470857216,0.9993797285088643,174.197586416742
6.473142784,0.9992696014917194,174.06109935658512
6.475428352,0.9992054772150444,173.92591224919988
6.477714432,0.9991913372104633,173.79128091411684
6.48,0.9992282757817458,173.65650063963616
6.482285568,0.9993139259390813,173.52085700606776
6.484571648,0.9994426462633647,173.38362205773365
6.486857216,0.9996065066218096,173.2443040780231
6.489142784,0.9997951424124428,173.1023798210791
6.491428352,0.9999964525413173,172.95767008030495
6.493714432,1.0001977199045113,172.81001391091124
6.496,1.0003863098787689,172.659543599543
6.498285568,1.0005499116058363,172.50652330609267
6.500571648,1.0006786145298516,172.351372451177
6.502857216,1.0007639177061125,172.19468742696725
6.505142784,1.000800513835216,172.03713415555418
6.507428352,1.0007861744363098,171.87939232171516
6.509714432,1.0007216483296388,171.7222435695328
6.512,1.000610889034561,171.56636077863664
6.514285568,1.000461279402816,171.41239630396882
6.516571648,1.0002818995091611,171.26082443315974
6.518857216,1.0000842119999171,171.11197337078355
6.521142784,0.999880766977258,170.96605004828234
6.523428352,0.9996844409458575,170.8230570544308
6.525714432,0.99950786656338,170.68275448633176
6.528,0.999361921723935,170.5448435071351
6.530285568,0.9992561601048721,170.40876094260494
6.532571648,0.9991972399382777,170.2739179443303
6.534857216,0.999188939573148,170.13955427344948
6.537142784,0.9992316162151734,170.00494335698346
6.539428352,0.9993229623341922,169.86935906832014
6.541714432,0.9994568589860358,169.73214999042065
6.544,0.9996250017051603,169.59275508207088
6.546285568,0.9998167005463012,169.45074012361917
6.548571648,1.000019585702878,169.30586883888392
6.550857216,1.0002211361493225,169.15808538984402
6.553142784,1.0004084203992691,169.00745302662293
6.555428352,1.0005694252470925,168.85428861932536
6.557714432,1.000694221250677,168.6990724952569
6.56,1.0007746424113775,168.5423909082448
6.562285568,1.0008056738296374,168.3848818458729
6.564571648,1.0007854575176134,168.22731555936696
6.566857216,1.00071508058884,168.0703982090213
6.569142784,1.000598849388364,167.91486849939656
6.571428352,1.0004444632842862,167.76126003095848
6.573714432,1.0002614794430331,167.61014268026048
6.576,1.0000614617355912,167.46180154206306
6.578285568,0.9998571910176811,167.31640985948988
6.580571648,0.9996615158089559,167.17392566408864
6.582857216,0.9994869365771384,167.03417629213064
6.585142784,0.999344368779695,166.89673203672731
6.587428352,0.999243075708721,166.76105313717258
6.589714432,0.9991895190971017,166.62654901135312
6.592,0.9991870410617095,166.49243487225684
6.594285568,0.9992358204844071,166.3580101102539
6.596571648,0.9993327513679242,166.22252305744686
6.598857216,0.9994718370579617,166.08533644755954
6.601142784,0.9996440646403505,165.94587915400874
6.603428352,0.9998385445763501,165.8037734832719
6.605714432,1.0000432440349676,165.6587707912609
6.608,1.0002447329302298,165.51082796775458
6.610285568,1.0004305434108187,165.3600377133194
6.612571648,1.0005887838040908,165.20679903158836
6.614857216,1.0007094977583961,165.05154943403627
6.617142784,1.0007848539383535,164.8948542932193
6.619428352,1.000810246323858,164.7374297956497
6.621714432,1.000783977732238,164.58004931358826
6.624,1.000707803652369,164.4234186355697
6.626285568,1.0005863026014647,164.2681846020672
6.628571648,1.0004272300634929,164.1150442523497
6.630857216,1.0002406209355477,163.9643562918248
6.633142784,1.000038528773951,163.81657775279757
6.635428352,0.9998334670822484,163.6717163220704
6.637714432,0.9996385248627027,163.52980930877334
6.64,0.999466077838712,163.39054874929658
6.642285568,0.9993271233389811,163.25358695991486
6.644571648,0.999230577615233,163.1183515660631
6.646857216,0.9991824163269684,162.984178207558
6.649142784,0.9991857477734741,162.8503329343101
6.651428352,0.9992406411804262,162.71610211952012
6.653714432,0.9993432530099603,162.58072137071645
6.656,0.999487315532112,162.44353616975332
6.658285568,0.9996636706394347,162.30406925986497
6.660571648,0.9998610734427593,162.16185811946613
6.662857216,1.000066998817995,162.01669807432242
6.665142784,1.0002684642379922,161.86865185434593
6.667428352,1.0004527191101023,161.71775541171144
6.669714432,1.0006079657659432,161.5644127761208
6.672,1.00072444305081,161.4091217587642
6.674285568,1.0007946364804214,161.25246739647616
6.676571648,1.000814252962305,161.09518847273398
6.678857216,1.0007820416970215,160.93797358246172
6.681142784,1.0006998397715823,160.78163447771428
6.683428352,1.0005729768615557,160.6267812001455
6.685714432,1.000409416605405,160.4740637141372
6.688,1.000219492469279,160.32391137194128
6.690285568,1.0000151375830075,160.1766354269276
6.692571648,0.9998094564964167,160.03236219698053
6.694857216,0.999615476568025,159.89099718249193
6.697142784,0.9994454674555345,159.75229823584039
6.699428352,0.9993102669872497,159.61580670598312
6.701714432,0.999218461133283,159.48101736364103
6.704,0.9991758070984702,159.34719435540362
6.706285568,0.9991852915821293,159.21362744877212
6.708571648,0.9992460780544952,159.0795672880654
6.710857216,0.9993543984241351,158.94431041239514
6.713142784,0.9995034150400824,158.80715066515262
6.715428352,0.9996838017418758,158.66762124250297
6.717714432,0.9998839674157366,158.52532266835385
6.72,1.0000911927085905,158.38007005033802
6.722285568,1.0002923148095528,158.23186980628944
6.724571648,1.000474770302523,158.08088306161568
6.726857216,1.0006268400231233,157.92749475646602
6.729142784,1.0007388753126643,157.77216138536596
6.731428352,1.0008039238600415,157.6155735183554
6.733714432,1.0008177033516443,157.45841307520934
6.736,1.0007792866678802,157.30143875634897
6.738285568,1.0006911929741888,157.14542139578043
6.740571648,1.0005589516741966,156.99094369919035
6.742857216,1.0003908241627566,156.83870669456
6.745142784,1.0001975658926578,156.6890601718326
6.747428352,0.9999913272820923,156.54237497123248
6.749714432,0.9997853102098808,156.3986792272312
6.752,0.9995923895185365,156.25787366389105
6.754285568,0.9994249960978911,156.1197496095244
6.756571648,0.9992935693854821,155.98377044464434
6.758857216,0.999206628381911,155.84940335753768
6.761142784,0.9991697087456428,155.71593690447352
6.763428352,0.9991853272588059,155.58267815594948
6.765714432,0.999252158573995,155.44879051280412
6.768,0.9993661949701819,155.3136579153333
6.770285568,0.9995202542614122,155.17654000671294
6.772571648,0.9997045032882491,155.03695456166326
6.774857216,0.9999070576547123,154.89457969698788
6.777142784,1.000115488681444,154.74923320406654
6.779428352,1.000316246357462,154.60090590000704
6.781714432,1.0004967609361752,154.4498282801542
6.784,1.0006453877011114,154.29637603674553
6.786285568,1.000752980283366,154.14106014629036
6.788571648,1.0008126469177359,153.9845608591167
6.790857216,1.0008203894840313,153.8275339811632
6.793142784,1.0007758541906628,153.67081169460062
6.795428352,1.0006818946604827,153.51509150121356
6.797714432,1.0005442693430635,153.3610611871714
6.8,1.0003717725249657,153.2093189493991
6.802285568,1.0001752367895846,153.06022727064678
6.804571648,0.9999671854856216,152.914117085961
6.806857216,0.9997608360860832,152.77099779841149
6.809142784,0.9995692273148898,152.630825281889
6.811428352,0.9994044873816827,152.4932132745228
6.813714432,0.9992771972825002,152.35776007102723
6.816,0.9991953933537048,152.22386262300347
6.818285568,0.9991643114198747,152.09078317135547
6.820571648,0.9991858979196312,151.95778289081122
6.822857216,0.9992588628211052,151.8240925838051
6.825142784,0.9993786418399943,151.6890453421528
6.827428352,0.9995376049397642,151.55195725842412
6.829714432,0.9997256166878526,151.4123528409004
6.832,0.9999307963559064,151.26992195861146
6.834285568,1.00014003534125,151.12447514600836
6.836571648,1.0003402958712282,150.97604480952987
6.838857216,1.0005185583847391,150.8248708903267
6.841142784,1.0006638105947698,150.67138763903105
6.843428352,1.000766795723097,150.51609280648654
6.845714432,1.000820744245424,150.35967353160643
6.848,1.000822606654399,150.20285971305805
6.850285568,1.000771705193073,150.04638912610417
6.852571648,1.0006719167474958,149.89103887039565
6.854857216,1.0005289067416,149.73744628587067
6.857142784,1.0003520855848793,149.5861929204627
6.859428352,1.0001525538351377,149.43766596330298
6.861714432,0.9999428301526311,149.29214365404732
6.864,0.9997362709870379,149.14964779454792
6.866285568,0.9995462177643109,149.01006381665823
6.868571648,0.9993844561691171,148.87305794921437
6.870857216,0.9992612353476868,148.73813076318393
6.873142784,0.9991847320952171,148.60465609661256
6.875428352,0.9991595571146652,148.47196263965304
6.877714432,0.9991873533684911,148.33924424865432
6.88,0.9992665383354636,148.20575328714062
6.882285568,0.9993919779411512,148.0708278054965
6.884571648,0.9995557125173535,147.93378292000835
6.886857216,0.9997473361632457,147.7941444553107
6.889142784,0.9999548000981873,147.65160888254715
6.891428352,1.0001649861810837,147.5060760377719
6.893714432,1.0003642801320831,147.3575609346567
6.896,1.000540422494998,147.20634740665926
6.898285568,1.0006820433162351,147.05282319043064
6.900571648,1.0007800064209849,146.897572300312
6.902857216,1.0008283642933067,146.74122670133588
6.905142784,1.0008240918881068,146.584627119433
6.907428352,1.0007669225585076,146.4284651308039
6.909714432,1.000661050732585,146.2734930938702
6.912,1.0005128657044144,146.12033447603966
6.914285568,1.000331731989295,145.96961759828275
6.916571648,1.0001291595426711,145.82168966608808
6.918857216,0.9999179453056712,145.67679264859294
6.921142784,0.9997116055470507,145.53492027474925
6.923428352,0.9995230706348401,145.39595504001582
6.925714432,0.9993643714239265,145.2595332934252
6.928,0.9992455303870325,145.12513947398233
6.930285568,0.9991743801575803,144.99213366611409
