freq,mag,phase
6.0,0.9998951904921987,124.17512794258285
6.002285568,0.9998338337207056,124.01086025671302
6.004571648,0.9997828021111056,123.8473976552709
6.006857216,0.9997459581823848,123.68459997956815
6.009142784,0.9997256099337348,123.52225444030127
6.011428352,0.9997230569761518,123.36008304850102
6.013714432,0.9997385130143243,123.19781472493017
6.016,0.999770827083871,123.03524774176458
6.018285568,0.9998182011645692,122.87208720609085
6.020571648,0.9998775238542699,122.70820538523583
6.022857216,0.9999449633710581,122.54338643824579
6.025142784,1.000016421817248,122.37756893399563
6.027428352,1.0000873520673428,122.21076193964593
6.029714432,1.0001532379340659,122.04297433590176
6.032,1.000209931924305,121.87429120889718
6.034285568,1.0002538976609399,121.70490494262981
6.036571648,1.0002822034070356,121.535006777917
6.038857216,1.0002933146792299,121.3648356305373
6.041142784,1.0002862117549698,121.1946695655469
6.043428352,1.0002616040224683,121.02472434346309
6.045714432,1.000220878852937,120.85527897302572
6.048,1.0001667012228597,120.68652836886794
6.050285568,1.0001023813300771,120.51866205481964
6.052571648,1.000032084751046,120.35179046314677
6.054857216,0.9999601151161359,120.18595441366499
6.057142784,0.9998910974715953,120.021155207025
6.059428352,0.9998295368132057,119.85733031194259
6.061714432,0.9997789699146037,119.69431460529306
6.064,0.9997429076500757,119.53195306385697
6.066285568,0.999723465216326,119.37003114709788
6.068571648,0.9997219261492186,119.20825997420492
6.070857216,0.9997385489716321,119.04640158529078
6.073142784,0.999772067097046,118.88418211556139
6.075428352,0.9998204483940902,118.72139750194401
6.077714432,0.999880556124976,118.55782178868449
6.08,0.9999488151315022,118.39336241414814
6.082285568,1.0000206617788763,118.22788186852662
6.084571648,1.0000918450581615,118.06136449204143
6.086857216,1.0001576255448414,117.89389169059626
6.089142784,1.0002139836992983,117.72554838081771
6.091428352,1.0002572599296313,117.55647278981225
6.093714432,1.0002847022854124,117.38691888069613
6.096,1.0002948174477195,117.21709807517254
6.098285568,1.00028651703301,117.0472861491523
6.100571648,1.0002608387934566,116.87774064204051
6.102857216,1.0002190445241774,116.7086831512019
6.105142784,1.0001637889113586,116.54034083157454
6.107428352,1.0000986813006671,116.37290476562411
6.109714432,1.0000277420521562,116.20647406273822
6.112,0.9999554086398954,116.04108517367571
6.114285568,0.9998864513416669,115.87674724640813
6.116571648,0.9998249640288495,115.71335287183734
6.118857216,0.9997751038254815,115.55079429522148
6.121142784,0.9997397659760026,115.38886713665461
6.123428352,0.9997212396730969,115.22735423167155
6.125714432,0.9997209529196811,115.06597738094948
6.128,0.9997385761780063,114.90451131462558
6.130285568,0.9997732969101374,114.74267306393484
6.132571648,0.9998228401139444,114.5802434377988
6.134857216,0.9998839909671348,114.41701807075238
6.137142784,0.9999528025296325,114.25286674509168
6.139428352,1.0000252784009478,114.08770542444904
6.141714432,1.0000966468725383,113.92150496384623
6.144,1.0001622209851562,113.75434483323615
6.146285568,1.0002181994083337,113.58630854223065
6.148571648,1.0002607666101184,113.41757174879956
6.150857216,1.0002874684883771,113.24833804209881
6.153142784,1.0002963378265268,113.07888909734514
6.155428352,1.0002870643632256,112.90943955583944
6.157714432,1.0002601407543712,112.74026676309919
6.16,1.0002171344202788,112.57161776767843
6.162285568,1.0001608786484029,112.40368195777914
6.164571648,1.0000949321964425,112.23665865671609
6.166857216,1.000023459484817,112.07066835924181
6.169142784,0.9999508194372465,111.90574658554732
6.171428352,0.9998816983353099,111.74183225395548
6.173714432,0.9998205505878831,111.57888762447212
6.176,0.9997710881692438,111.41676815412391
6.178285568,0.9997365772159348,111.25526163521324
6.180571648,0.9997191841087788,111.09416853961893
6.182857216,0.9997198664152769,110.9331992187303
6.185142784,0.9997387418454711,110.77210241924361
6.187428352,0.999774548188101,110.61063227299712
6.189714432,0.9998251543144268,110.44856724684836
6.192,0.9998872590493739,110.28565379455632
6.194285568,0.9999569385536297,110.12182869320026
6.196571648,1.0000297281554236,109.9569886671505
6.198857216,1.0001012063639625,109.79110147148766
6.201142784,1.000166777860268,109.62425522364589
6.203428352,1.000222233628476,109.45652852046456
6.205714432,1.0002642392944971,109.28812205605091
6.208,1.000289918648153,109.11923326026857
6.210285568,1.0002977482978548,108.95011131687119
6.212571648,1.0002873592200572,108.78100605117773
6.214857216,1.0002591533561893,108.61223219970626
6.217142784,1.0002150310143458,108.44397416531719
6.219428352,1.000157765115195,108.27647779312049
6.221714432,1.000090974355809,108.10988430566076
6.224,1.000018857275671,107.94430104553817
6.226285568,0.999945917691713,107.77980714207871
6.228571648,0.9998768559849283,107.61635370561426
6.230857216,0.9998159590558278,107.45386320237107
6.233142784,0.999767139022246,107.2921658962487
6.235428352,0.9997333740769723,107.1311116501461
6.237714432,0.9997169508079387,106.97041661526471
6.24,0.9997188493563197,106.80984696155808
6.242285568,0.9997389980557075,106.64912591812524
6.244571648,0.9997760295858582,106.4880281166256
6.246857216,0.9998276909638504,106.32627892722617
6.249142784,0.9998907613751655,106.16373136246786
6.251428352,0.9999611249833386,106.00022496177708
6.253714432,1.000034401921464,105.83567422883701
6.256,1.000106050307957,105.67009299458952
6.258285568,1.0001714801296477,105.5035335142788
6.260571648,1.0002265488132605,105.33614038099036
6.262857216,1.000267759472441,105.1680412685754
6.265142784,1.0002924939862723,104.99948887041711
6.267428352,1.0002993350496467,104.83068497354485
6.269714432,1.000287694889474,104.66196726058321
6.272,1.0002583014929682,104.49355727236448
6.274285568,1.0002129361423506,104.32568919505451
6.276571648,1.0001547049214727,104.15860331151434
6.278857216,1.000086969796053,103.99241458672262
6.281142784,1.000014320379645,103.82728864548457
6.283428352,0.9999411200253558,103.66321859119934
6.285714432,0.999871977592074,103.50021466910103
6.288,0.999811398010799,103.3381616796508
6.290285568,0.9997632316678275,103.17690117454397
6.292571648,0.9997303144141466,103.01626034013178
6.294857216,0.9997149212627587,102.85599534643039
6.297142784,0.9997180408180409,102.6958039933896
6.299428352,0.9997392798848668,102.53545383304248
6.301714432,0.9997775218707456,102.37471838094744
6.304,0.9998303269356394,102.21331495572281
6.306285568,0.9998942466530116,102.05108244172025
6.308571648,0.9999653898830895,101.88787725323226
6.310857216,1.0000392250301526,101.7236371422457
6.313142784,1.0001108998234602,101.55835656620404
6.315428352,1.0001761802067728,101.3921153985129
6.317714432,1.0002308022749422,101.22498640784846
6.32,1.00027125771285,101.05721167365229
6.322285568,1.0002950241881436,100.88897764667922
6.324571648,1.0003007243798925,100.72053345321852
6.326857216,1.0002878339537236,100.5521444859088
6.329142784,1.0002571547273467,100.38410987152612
6.331428352,1.0002107479183193,100.21664890664053
6.333714432,1.0001514014594988,100.04995805964406
6.336,1.0000829070921944,99.88422103195056
6.338285568,1.0000095870867718,99.719490411667
6.340571648,0.9999361345481069,99.55586914367883
6.342857216,0.9998670498477894,99.39329879872155
6.345142784,0.9998068622079601,99.23166577920499
6.347428352,0.9997592649358683,99.07085428964639
6.349714432,0.9997271935401613,98.91061958975253
6.352,0.9997129479550189,98.75073345361793
6.354285568,0.9997171841699993,98.59094572459283
6.356571648,0.9997398149393733,98.43097973465426
6.358857216,0.9997792323146153,98.27057883102123
6.361142784,0.9998331501748468,98.1095068817387
6.363428352,0.9998979446941596,97.94757538459648
6.365714432,0.9999697927408977,97.784670401026
6.368,1.0000440350847928,97.62074501179184
6.370285568,1.0001159146568621,97.45575435213289
6.372571648,1.000181015480451,97.28979855229792
6.374857216,1.000235136911105,97.12297215894426
6.377142784,1.0002748107486088,96.95549396411393
6.379428352,1.0002977060603124,96.78757137950927
6.381714432,1.000302178448303,96.61947403713633
6.384,1.0002880372176322,96.45144516290935
6.386285568,1.0002560931792497,96.28377617374872
6.388571648,1.0002084631434875,96.1166884651873
6.390857216,1.000148088779586,95.95038945514209
6.393142784,1.0000787723027107,95.7850572402102
6.395428352,1.000004884077811,95.62077093768721
6.397714432,0.9999310670124273,95.4575698969509
6.4,0.9998620781072909,95.29542346408479
6.402285568,0.9998022018184154,95.13422725713912
6.404571648,0.9997552090107178,94.97384244895117
6.406857216,0.9997241878136287,94.81401518430765
6.409142784,0.9997109290417682,94.65451310661992
6.411428352,0.9997164323255477,94.4951048958662
6.413714432,0.9997402315344206,94.33550178066467
6.416,0.9997809831987321,94.17543191987951
6.418285568,0.9998359729099668,94.01467892608099
6.420571648,0.9999018616979799,93.85306626699077
6.422857216,0.9999743349608649,93.69047168203394
6.425142784,1.0000489834268744,93.52682488495967
6.427428352,1.0001210175624502,93.36213270464643
6.429714432,1.0001858762342097,93.19644953419387
6.432,1.0002393745976665,93.02992184652365
6.434285568,1.0002782870772193,92.86273180782631
6.436571648,1.0003001275494503,92.6951330347736
6.438857216,1.0003034536306188,92.52732867764516
6.441142784,1.0002880627322754,92.35964469236319
6.443428352,1.0002548886863383,92.19233422080266
6.445714432,1.0002060590511401,92.02564109726126
6.448,1.0001446854684406,91.8597417179736
6.450285568,1.0000745001464315,91.69481601720277
6.452571648,0.9999999860549916,91.53094390637422
6.454857216,0.9999260103550609,91.3681660520363
6.457142784,0.9998570480114227,91.20645241279833
6.459428352,0.9997974882255276,91.045672083936
6.461714432,0.9997511499354865,90.88569396630986
6.464,0.9997209597406882,90.72627745668107
6.466285568,0.9997089363556156,90.56717331965679
6.468571648,0.9997155961942837,90.40812017750162
6.470857216,0.9997407327432563,90.24886350939543
6.473142784,0.999782758675425,90.08912990187166
6.475428352,0.9998388285501277,89.92869057839366
6.477714432,0.9999056609351412,89.76738594307771
6.48,0.9999789911057403,89.60507629635114
6.482285568,1.0000539132169033,89.44170425925695
6.484571648,1.0001260569713604,89.27727159684041
6.486857216,1.000190731783693,89.11186227859775
6.489142784,1.000243742053728,88.9456363271786
6.491428352,1.0002818244452476,88.7787228284545
6.493714432,1.0003025692069998,88.61142347643579
6.496,1.0003046830334854,88.4439420969128
6.498285568,1.0002880224564783,88.27659572846375
6.500571648,1.0002535429600368,88.10964662563599
6.502857216,1.000203492541032,87.94330244110623
6.505142784,1.0001409549514066,87.77779627766105
6.507428352,1.0000700416480572,87.6132796924237
6.509714432,0.9999950223232649,87.44981804409547
6.512,0.999920768534185,87.28745817343712
6.514285568,0.9998518571448074,87.12616810982266
6.516571648,0.9997928112711896,86.96579125398202
6.518857216,0.9997471846742871,86.8062209271178
6.521142784,0.9997179475353771,86.6471855437564
6.523428352,0.9997070528563167,86.48846721230977
6.525714432,0.9997149537580128,86.32978689283642
6.528,0.9997414404689747,86.17086651743176
6.530285568,0.9997846523234947,86.01145472088449
6.532571648,0.9998419724879508,85.85132200606752
6.534857216,0.9999097166283878,85.69031125895921
6.537142784,0.9999836896044371,85.52826662266303
6.539428352,1.0000591205500409,85.36516336404122
6.541714432,1.0001312849588075,85.20098708583134
6.544,1.0001956200947713,85.03585296549923
6.546285568,1.0002480758106602,84.86987536813467
6.548571648,1.0002852670277949,84.70325864202081
6.550857216,1.0003050771076338,84.53624493192632
6.553142784,1.0003059217521333,84.36908458607694
6.555428352,1.0002879428715248,84.20207150131789
6.557714432,1.0002521974688439,84.03545746438628
6.56,1.000200920306474,83.86947856786854
6.562285568,1.0001374065796491,83.704357184906
6.564571648,1.000065593688215,83.54024342580767
6.566857216,0.999990046769715,83.37717287673175
6.569142784,0.9999155252266201,83.21523199646225
6.571428352,0.9998467577964879,83.05434772400997
6.573714432,0.9997880954058862,82.8943822699108
6.576,0.9997431567076331,82.73519117258587
6.578285568,0.9997149245869631,82.5765544952743
6.580571648,0.9997051637458458,82.41820187968862
6.582857216,0.9997143724442608,82.2598624061785
6.585142784,0.9997422508808771,82.10126906531278
6.587428352,0.999786670504876,81.94218515922172
6.589714432,0.9998451622508957,81.78235915234983
6.592,0.9999138470473699,81.62159043518461
6.594285568,0.9999884624431007,81.45981479157368
6.596571648,1.000064300285578,81.29697937051367
6.598857216,1.0001365387464076,81.13305217421404
6.601142784,1.000200587700632,80.96815647121738
6.603428352,1.0002525026971552,80.80245317383724
6.605714432,1.0002888170011894,80.636112177591
6.608,1.0003074703997126,80.46938663570394
6.610285568,1.000307144550398,80.30252560523283
6.612571648,1.0002877436408086,80.13583582136859
6.614857216,1.0002507128258775,79.9695552816492
6.617142784,1.0001982106998082,79.80393087714681
6.619428352,1.0001336282033577,79.63916981664572
6.621714432,1.0000609751610892,79.47544617384432
6.624,0.9999849193107622,79.31278180484748
6.626285568,0.9999101406851835,79.15123316660765
6.628571648,0.999841473402535,78.99073985357911
6.630857216,0.9997833059099303,78.83118367719246
6.633142784,0.9997391188089959,78.67238539530462
6.635428352,0.9997119312670072,78.51411943878809
6.637714432,0.999703356947887,78.3561083606811
6.64,0.9997139356150301,78.19813462130061
6.642285568,0.9997430524001863,78.03984341413802
6.644571648,0.9997888293215308,77.88105624339856
6.646857216,0.9998484309968767,77.72150157822111
6.649142784,0.9999181353448312,77.56102370009123
6.651428352,0.999993423699676,77.39950470116119
6.653714432,1.0000695968221787,77.23689115406106
6.656,1.000141836476686,77.07322030335723
6.658285568,1.000205607090165,76.9085755810136
6.660571648,1.0002569096614806,76.74311141920315
6.662857216,1.0002923945878075,76.57702210728992
6.665142784,1.00030983882336,76.41054294361797
6.667428352,1.0003082152407354,76.24400417821087
6.669714432,1.0002875450962985,76.07761928133591
6.672,1.0002490656413139,75.91166475711871
6.674285568,1.0001953208556689,75.74640174669612
6.676571648,1.0001297105980924,75.58201404409995
6.678857216,1.0000562377880642,75.418641786928
6.681142784,0.9999797043318308,75.25638206028607
6.683428352,0.9999047235897887,75.09521241467762
6.685714432,0.9998362213395733,74.93511373880085
6.688,0.9997784681671001,74.77593589680853
6.690285568,0.9997351405948092,74.617519823147
6.692571648,0.9997088800441171,74.45962259285011
6.694857216,0.9997015362384948,74.3019468042584
6.697142784,0.9997134636493986,74.14428456317896
6.699428352,0.9997439625304022,73.98632490996214
6.701714432,0.9997910720405876,73.82780922760513
6.704,0.9998518202760089,73.6685275349267
6.706285568,0.9999224688887521,73.50830419867052
6.708571648,0.9999984740332578,73.3470270520926
6.710857216,1.0000749824282493,73.18463234344753
6.713142784,1.0001472305864911,73.02120264127684
6.715428352,1.000210803832493,72.85678443462936
6.717714432,1.000261357421528,72.69156743781285
6.72,1.0002959084722083,72.52572242362156
6.722285568,1.0003122039350776,72.35953945945806
6.724571648,1.0003092768233663,72.1932457079035
6.726857216,1.0002871535446178,72.02716056023249
6.729142784,1.0002473618041707,71.86152687099117
6.731428352,1.0001924536848168,71.69658737054577
6.733714432,1.0001256764569435,71.5325774484235
6.736,1.0000514088023487,71.36956654920063
6.738285568,0.9999742848014563,71.20766660605811
6.740571648,0.9998991402257612,71.04689232900763
6.742857216,0.9998309220739897,70.88716985289248
6.745142784,0.9997735615147206,70.72836981531647
6.747428352,0.9997310983219414,70.57031084054957
6.749714432,0.9997059273189141,70.41276890138019
6.752,0.9996998039295008,70.25543841997228
6.754285568,0.9997130781141778,70.09808624197365
6.756571648,0.9997449807240252,69.94041326058894
6.758857216,0.9997933454386284,69.78217841325619
6.761142784,0.9998553805649211,69.62314506818676
6.763428352,0.9999268455872263,69.46315769033514
6.765714432,1.0000035787817847,69.30209927507576
6.768,1.0000804215087633,69.13995577500475
6.770285568,1.0001527328989184,68.97672838693082
6.772571648,1.0002158057357369,68.81252906219672
6.774857216,1.0002656729464126,68.64753307929325
6.777142784,1.0002992860560038,68.48193265346221
6.779428352,1.0003144453933024,68.31598399741834
6.781714432,1.0003101712386633,68.14997099284153
6.784,1.0002867646645524,67.9841783904146
6.786285568,1.0002455243039599,67.81885131351162
6.788571648,1.0001892353426742,67.65424618067324
6.790857216,1.0001215163913737,67.49057032542365
6.793142784,1.0000464301592011,67.32791384297427
6.795428352,0.9999687763541671,67.16639891662285
6.797714432,0.9998935909488915,67.00598473031108
6.8,0.9998253356197899,66.84662501862731
6.802285568,0.9997686254209759,66.68820551514416
6.804571648,0.9997270280692133,66.53049882958469
6.806857216,0.9997029461006858,66.37328485620934
6.809142784,0.9996981382636773,66.21629027887485
6.811428352,0.9997127823153913,66.0592349314146
6.813714432,0.9997461181958699,65.90183206179601
6.816,0.9997958935019908,65.74385006522682
6.818285568,0.9998589864931763,65.58506408122713
6.820571648,0.9999314914170571,65.42531014449769
6.822857216,1.0000087663648591,65.26447675442896
6.825142784,1.0000860152956372,65.10252002849279
6.827428352,1.0001582347696825,64.93950020726417
6.829714432,1.0002208670667445,64.77551480199504
6.832,1.0002701543619676,64.61071069844122
6.834285568,1.0003027574692052,64.44534471380241
6.836571648,1.0003166915161716,64.27964570000779
6.838857216,1.000311055562426,64.11389530633994
6.841142784,1.0002862211736145,63.94835860118655
6.843428352,1.0002436949792135,63.78333258368665
6.845714432,1.0001861716215663,63.6190402949285
6.848,1.0001173266027843,63.45568069983762
6.850285568,1.0000414241879345,63.29340653504179
6.852571648,0.9999632190284328,63.1322239233263
6.854857216,0.9998878867544987,62.972177460587304
6.857142784,0.9998199549142741,62.81317722770836
6.859428352,0.9997637942554938,62.65508868088081
6.861714432,0.999723043561024,62.497730398568
6.864,0.9997001005233257,62.34083470466215
6.866285568,0.9996965817817071,62.184152680327166
6.868571648,0.9997126257071168,62.027389941583216
6.870857216,0.9997473301320065,61.87026120178105
6.873142784,0.9997984780579148,61.71252569301705
6.875428352,0.9998628123054457,61.55397749952531
6.877714432,0.9999361796310181,61.39441445966675
6.88,1.000014080374535,61.233771602647245
6.882285568,1.0000916687046841,61.072018437215974
6.884571648,1.0001638653499902,60.909174193704004
6.886857216,1.0002262080401108,60.745393953996604
6.889142784,1.0002746434073686,60.580785125763455
6.891428352,1.0003062067302764,60.41562385120932
6.893714432,1.0003189272603952,60.25016152359373
6.896,1.0003119059884213,60.0846595590804
6.898285568,1.0002855475578247,59.91940800396745
6.900571648,1.0002416150293665,59.754659595553846
6.902857216,1.000182868586126,59.590673897922024
6.905142784,1.0001128951731537,59.427627169386696
6.907428352,1.0000362463128534,59.26566864366123
6.909714432,0.9999576465099286,59.104838172566815
6.912,0.9998820904640384,58.94513248609331
6.914285568,0.9998144353876701,58.78649879244219
6.916571648,0.9997588521856795,58.628742980341634
6.918857216,0.9997189105832962,58.471707140986084
6.921142784,0.9996972534358696,58.31512940532077
6.923428352,0.9996950447599815,58.15873528472248
6.925714432,0.9997125034142506,58.00223943072829
6.928,0.9997487024401255,57.84536988349271
6.930285568,0.9998011045559146,57.687870679788745
6.932571648,0.9998666421422006,57.52952390979433
6.934857216,0.9999409854638386,57.370163308401224
6.937142784,1.0000195793672477,57.20969972594467
6.939428352,1.0000974272381913,57.04812574538189
6.941714432,1.0001694918712387,56.885465743547336
6.944,1.000231341141137,56.72184938535006
