freq,mag,phase
6.0,0.9992170528623361,86.3233992689576
6.002287104,0.9994336966987244,86.15848135796608
6.004574208,0.9996859694639011,85.99017728875177
6.006861312,0.9999582421986877,85.81809918370924
6.009147904,1.0002335793766486,85.64204981948733
6.011435008,1.000494392119061,85.46216115955458
6.013722112,1.0007245770162732,85.27871484860789
6.016009216,1.0009093165983367,85.09228504711055
6.01829632,1.0010371650783707,84.9036105638416
6.020583424,1.0011000055048498,84.71359074848115
6.022870016,1.0010937146449954,84.52318240626568
6.02515712,1.001019021848213,84.33334625078233
6.027444224,1.000880171898707,84.14509544284823
6.029731328,1.0006862120376645,83.95925099728198
6.032018432,1.0004491265543036,83.77654486273516
6.034305536,1.0001839644161037,83.59751290475428
6.036592128,0.9999071348856103,83.42242067026073
6.038879232,0.9996364115502014,83.25129979165264
6.041166336,0.9993887921153816,83.08396857640369
6.04345344,0.9991797709275042,82.91997577987316
6.045740544,0.9990226617464135,82.75866253304034
6.048027648,0.9989274589530317,82.59920609101553
6.05031424,0.9989000947719595,82.44066775416213
6.052601344,0.9989425083283094,82.28204771527876
6.054888448,0.9990519262245239,82.12233704256934
6.057175552,0.9992212930420907,81.96061029847023
6.059462656,0.9994402438855658,81.79610830018177
6.06174976,0.9996947331538528,81.6281548645694
6.064036352,0.9999688776446762,81.45641034026605
6.066323456,1.0002452751574609,81.28069647172535
6.06861056,1.0005065881425372,81.10108390140256
6.070897664,1.0007362799976467,80.91794867193417
6.073184768,1.0009199048094177,80.73184835883349
6.075471872,1.0010459066661552,80.54349886963037
6.077758464,1.0011063313353017,80.35382518996873
6.080045568,1.0010973787117057,80.16380075183501
6.082332672,1.0010196157084552,79.97443620242854
6.084619776,1.0008777323073736,79.78664671443646
6.08690688,1.00068091153692,79.6013207896193
6.089193984,1.000441234178887,79.41918612488989
6.091481088,1.0001739038977027,79.24074200358244
6.09376768,0.9998957871747626,79.06624727275349
6.096054784,0.999624269820817,78.89575606388281
6.098341888,0.9993766293279271,78.72906941471582
6.100628992,0.9991684758225879,78.56571188525933
6.102916096,0.9990128408658119,78.4050156180117
6.1052032,0.9989197239276699,78.24613729682123
6.107489792,0.9988951014821564,78.088153385606
6.109776896,0.9989404445630689,77.9300276178271
6.112064,0.9990528523196419,77.77078950277144
6.114351104,0.999225323407122,77.60947287861629
6.116638208,0.9994470844540234,77.44532811302979
6.118925312,0.9997039612123957,77.27772804744932
6.121211904,0.9999798169630849,77.10628824291224
6.123499008,1.00025735235421,76.93083384234714
6.125786112,1.0005189557435847,76.75149043470842
6.128073216,1.0007481930048234,76.56862874298865
6.13036032,1.000930601578914,76.38280490513448
6.132647424,1.001054855680636,76.19474832238053
6.134934016,1.0011127610083523,76.00542328543636
6.13722112,1.0011010361472188,75.81576532011408
6.139508224,1.0010200524916728,75.62679036503674
6.141795328,1.000875138763157,75.43945571815286
6.144082432,1.000675305830231,75.25463878083131
6.146369536,1.0004330721028034,75.07302559648984
6.148656128,1.0001636132887268,74.89513701559258
6.150943232,0.9998840420701454,74.72123356136727
6.153230336,0.9996117729710969,74.55137600433973
6.15551744,0.9993642034614058,74.3852856257022
6.157804544,0.9991568532257721,74.22253712841405
6.160091648,0.999002832719407,74.06239610311775
6.162378752,0.9989119844708012,73.90410017695969
6.164665344,0.9988899671153344,73.74660968582873
6.166952448,0.9989383888732135,73.58897838439405
6.169239552,0.9990539459806411,73.43015283722661
6.171526656,0.9992295472896241,73.26924681070558
6.17381376,0.9994541703696408,73.10542951032514
6.176100864,0.9997134086447321,72.9381216017873
6.178387456,0.9999911380022428,72.76693848423295
6.18067456,1.000269699251967,72.59172615825221
6.182961664,1.0005316409715521,72.41263993157715
6.185248768,1.0007603884873202,72.23000862258941
6.187535872,1.0009415413849518,72.04441702950389
6.189822976,1.0010637034881509,71.85664727742261
6.192109568,1.0011192557944197,71.66761300951855
6.194396672,1.0011044846443826,71.47826951767432
6.196683776,1.0010204372733547,71.28968363234434
6.19897088,1.0008723609666996,71.10277983777625
6.201257984,1.0006695071566845,70.91841590467021
6.203545088,1.0004245709550317,70.73731740192848
6.20583168,1.0001530349182783,70.55996886524817
6.208118784,0.9998719214176909,70.38664496503355
6.210405888,0.999599091203346,70.21734083971195
6.212692992,0.999351552499604,70.05184042725926
6.214980096,0.9991450990114165,69.88966061053193
6.2172672,0.9989928068957548,69.73008553032307
6.219553792,0.9989041470286932,69.5722990239178
6.221840896,0.998884959997292,69.41532064699673
6.224128,0.9989364162086932,69.25809866703683
6.226415104,0.9990553432229354,69.09967116817779
6.228702208,0.9992340848589916,68.93911468703563
6.230989312,0.9994614816012489,68.77560325234138
6.233275904,0.9997232608517433,68.60857064513779
6.235563008,1.000002767784732,68.43762050821265
6.237850112,1.0002824441137412,68.2626280777357
6.240137216,1.000544643976687,68.08371274596455
6.24242432,1.0007728784091285,67.90128770976126
6.244711424,1.0009527147517956,67.71590442233487
6.246998528,1.0010729257022026,67.52836545209813
6.24928512,1.0011257378294176,67.33957628329124
6.251572224,1.0011080102020935,67.15055977335088
6.253859328,1.0010207473446315,66.96230385541298
6.256146432,1.0008693794296866,66.77578214320928
6.258433536,1.0006634706706778,66.59186951685939
6.26072064,1.0004158225776802,66.41124665513252
6.263007232,1.0001421242525603,66.23440553633388
6.265294336,0.9998595704843349,66.06161858659947
6.26758144,0.999585984508536,65.89287569895824
6.269868544,0.9993386256093949,65.72792025985707
6.272155648,0.9991330721404562,65.56628082533524
6.274442752,0.9989824973928276,65.40726752811358
6.276729344,0.99889626929766,65.24992961398411
6.279016448,0.9988798933738533,65.09343206113711
6.281303552,0.9989345614972769,64.93662843402439
6.283590656,0.9990567533508069,64.77856498414732
6.28587776,0.9992386979487555,64.6182887873121
6.288164864,0.9994691288241089,64.45507171473692
6.290451456,0.9997332206128702,64.2882516180461
6.29273856,1.0000145943198957,64.11749955729564
6.295025664,1.0002953296221466,63.94265100525413
6.297312768,1.0005577838485262,63.76391970815413
6.299599872,1.0007854349867862,63.581634083399884
6.301886976,1.0009639621772883,63.396429849844075
6.304173568,1.0010820425877316,63.20909762570923
6.306460672,1.0011322791022157,63.020535822578935
6.308747776,1.0011114351422878,62.83179917793371
6.31103488,1.0010208963384732,62.643868835880966
6.313321984,1.0008661981854137,62.45770430761807
6.315609088,1.0006571883161004,62.27419476305773
6.317896192,1.0004068295352944,62.09402583466299
6.320182784,1.000130913595019,61.9176619063152
6.322469888,0.9998469481966674,61.74538731867914
6.324756992,0.9995726897103495,61.577166628981814
6.327044096,0.9993254774248786,61.41273699028039
6.3293312,0.999120991242933,61.25161473196071
6.331618304,0.9989721011160877,61.09307672645497
6.333904896,0.9988883211558299,60.936226715929365
6.336192,0.9988749657018016,60.78012514617577
6.338479104,0.9989327627750396,60.623701034279065
6.340766208,0.9990582968641969,60.46594314285327
6.343053312,0.9992436659339289,60.305978911901946
6.345340416,0.9994769662123723,60.142971826092136
6.347627008,0.9997435636510655,59.976353742381335
6.349914112,1.0000267536789942,59.80573742107877
6.352201216,1.0003085331717487,59.63106396886288
6.35448832,1.0005713137360277,59.452439382360446
6.356775424,1.000798319642534,59.27027812900576
6.359062528,1.0009753154850891,59.085202237410584
6.36134912,1.0010913482737125,58.89803922888007
6.363636224,1.0011388191360533,58.70967431152548
6.365923328,1.001114863403336,58.52117114753752
6.368210432,1.0010209458490447,58.33350414013249
6.370497536,1.0008628736119312,58.14768734222515
6.37278464,1.000650639745986,57.96454842022706
6.375071232,1.000397568441327,57.784796617363654
6.377358336,1.0001195115915353,57.60889795374553
6.37964544,0.9998339342501179,57.437089335631676
6.381932544,0.9995590493947193,57.26936099671639
6.384219648,0.9993121089236138,57.10543095228627
6.386506752,0.9991086887822034,56.9447996403124
6.388793344,0.9989615940952519,56.786717141263495
6.391080448,0.9988803004560555,56.6303211955721
6.393367552,0.9988698992650304,56.4745856105607
6.395654656,0.9989311839606695,56.31850411399511
6.39794176,0.9990601331918969,56.16107616939204
6.400228864,0.9992487040434772,56.001322032547684
6.402515968,0.9994850648889789,55.83850371665612
6.40480256,0.9997542060215501,55.67202361669008
6.407089664,1.0000392184672926,55.501547516319775
6.409376768,1.0003221157802114,55.32697071160688
6.411663872,1.00058497629901,55.148430668725176
6.413950976,1.0008113446626383,54.966352489454636
6.41623808,1.0009870062911135,54.781379676334275
6.418524672,1.0011007205028641,54.594328880861184
6.420811776,1.001145376975541,54.406154334440444
6.42309888,1.0011182627588406,54.2178515545838
6.425385984,1.001020893391628,54.030422108343146
6.427673088,1.000859374676536,53.844902010923555
6.429960192,1.0006439619459093,53.66210689263465
6.432246784,1.0003880683659236,53.48275246401235
6.434533888,1.0001077780007965,53.30726889420919
6.436820992,0.9998208455017857,53.135913837246214
6.439108096,0.9995452753446674,52.968640912229475
6.4413952,0.9992985472920105,52.8051859978686
6.443682304,0.9990961678382204,52.64498719407983
6.445968896,0.9989510410541512,52.48734135759159
6.448256,0.9988722861294184,52.33133518461815
6.450543104,0.9988650078807408,52.17596863869336
6.452830208,0.9989296542861875,52.020200831671794
6.455117312,0.9990620633819705,51.8630052217645
6.457404416,0.9992540413347804,51.70346245974144
6.459691008,0.9994934571602726,51.54081509087059
6.461978112,0.9997651214480783,51.3744535480905
6.464265216,1.0000519605193023,51.20403437178076
6.46655232,1.0003358986526527,51.02950833644107
6.468839424,1.0005990228403685,50.85103107099605
6.471126528,1.000824727972851,50.66899658421316
6.473413632,1.0009987355108645,50.484106761869796
6.475700224,1.0011102284433433,50.29713878663823
6.477987328,1.0011520174941781,50.10907342811936
6.480274432,1.001121589375321,49.92093848448828
6.482561536,1.001020747967454,49.73375264592774
6.48484864,1.0008557205197819,49.54851294872517
6.487135744,1.000637015072597,49.36602113780806
6.489422336,1.000378259982839,49.186989735000786
6.49170944,1.000095848890026,49.01193498775277
6.493996544,0.9998074075067723,48.84097182975202
6.496283648,0.9995312222631466,48.67414795685905
6.498570752,0.9992847311098546,48.5111196542056
6.500857856,0.9990835157396333,48.35134978434328
6.503144448,0.998940311755454,48.19408475579868
6.505431552,0.998864214860408,48.038446565397614
6.507718656,0.9988600112973643,47.88340793501579
6.51000576,0.9989280982650237,47.72790836988537
6.512292864,0.9990641351618081,47.57093460080756
6.514579968,0.9992595359748883,47.411567033429236
6.51686656,0.999502034409773,47.24902614016746
6.519153664,0.9997762511574456,47.082743065718624
6.521440768,1.0000649276318254,46.91238300954768
6.523727872,1.0003498066970962,46.73786039156999
6.526014976,1.0006131529866327,46.55938992572761
6.52830208,1.0008380907574959,46.377386417370516
6.530588672,1.0010105400816935,46.19250824293702
6.532875776,1.0011196318732187,46.00561075448086
6.53516288,1.0011584998130478,45.81763045515126
6.537449984,1.0011247236731438,45.62963481458459
6.539737088,1.0010202624218658,45.44262943215076
6.542024192,1.0008518146851966,45.25762076546685
6.544310784,1.0006297227731444,45.0754137590484
6.546597888,1.0003681170679757,44.89672159609041
6.548884992,1.0000834882305285,44.72200681725366
6.551172096,0.9997935450063303,44.55144593390416
6.5534592,0.9995168157287935,44.3850088907298
6.555746304,0.9992706536954064,44.22239187655544
6.558033408,0.9990706703125428,44.063022012288656
6.56032,0.9989294243739618,43.90612628694462
6.562607104,0.9988560124426497,43.7508105712072
6.564894208,0.9988550387239045,43.596058058804324
6.567181312,0.9989266526229434,43.44079161900925
6.569468416,0.9990662832464428,43.284003548021246
6.57175552,0.9992651696891005,43.124760709653884
6.574042112,0.9995107942741485,42.962299132087225
6.576329216,0.9997875928393865,42.79604179432532
6.57861632,1.0000781986431693,42.62568558762517
6.580903424,1.0003641195167015,42.45116442816894
6.583190528,1.000627528222878,42.27265222257134
6.585477632,1.0008516086435986,42.09061916574663
6.587764224,1.0010225302541873,41.90574877709451
6.590051328,1.0011292099577547,41.71885758165696
6.592338432,1.0011650821579565,41.53093792734744
6.594625536,1.001127869193451,41.34305333766733
6.59691264,1.0010199017904504,41.15619477502423
6.599199744,1.0008477761946355,40.97137619034779
6.601486336,1.000622333911437,40.789423736771944
6.60377344,1.0003579588255813,40.611044287769765
6.606060544,1.000070934060707,40.43664151021954
6.608347648,0.999779685767498,40.26644352069797
6.610634752,0.9995023123234521,40.10037988526862
6.612921856,0.9992565191213361,39.93811828247412
6.615208448,0.9990577665328751,39.77909684389174
6.617495552,0.9989186032172176,39.62254695878839
6.619782656,0.9988479581648131,39.46753515319794
6.62206976,0.9988501900598877,39.313015599876195
6.624356864,0.9989253998756333,39.15795033412719
6.626643968,0.9990687147187903,39.00132661604295
6.628931072,0.9992710769331639,38.84216095128348
6.631217664,0.9995198498175798,38.67975278535875
6.633504768,0.9997992659969837,38.513487721116924
6.635791872,1.0000915882767187,38.34309030495955
6.638078976,1.0003786963221444,38.16853300626544
6.64036608,1.000642069987233,37.989932979169346
6.642653184,1.0008654597356657,37.80786217539589
6.644939776,1.0010345514667072,37.62293090086657
6.64722688,1.0011388748291272,37.436040080062426
6.649513984,1.0011716474716381,37.248126348086345
6.651801088,1.0011309950118137,37.06030503041932
6.654088192,1.0010192534034092,36.87357059301286
6.656375296,1.000843558684262,36.68891817578965
6.658661888,1.0006147956687592,36.507198155552
6.660948992,1.000347417190925,36.32906163818705
6.663236096,1.0000581484322213,36.154961051060916
6.6655232,0.9997654305188792,35.98509694804506
6.667810304,0.9994875751123409,35.819371334615106
6.670097408,0.9992420609612004,35.65743535777458
6.672384,0.9990446376098512,35.49875199680321
6.674671104,0.9989075930370689,35.34248601474751
6.676958208,0.998839746018139,35.18773823877924
6.679245312,0.9988453275537893,35.03345074672402
6.681532416,0.9989241478380477,34.87854029884931
6.68381952,0.9990711589293068,34.72200891402616
6.686106112,0.9992770914943953,34.56291065822872
6.688393216,0.9995290266270562,34.40049983324574
6.69068032,0.9998111262524564,34.234201795322434
6.692967424,1.0001052739357608,34.06375271028419
6.695254528,1.0003933216125878,33.88907011940919
6.697541632,1.0006568114644347,33.71037965251005
6.699828224,1.000879303787699,33.5281997825188
6.702115328,1.0010467349100067,33.34319536085944
6.704402432,1.0011485151800095,33.15624258791275
6.706689536,1.0011782627755519,32.968321307296705
6.70897664,1.001133997668332,32.7805273104632
6.711263744,1.0010185514765246,32.5938828531963
6.713550848,1.0008391555600027,32.40935372419335
6.71583744,1.000607011732532,32.22782582278578
6.718124544,1.0003366693357845,32.04992707210307
6.720411648,1.000045248003556,31.87611284289443
6.722698752,0.999750983238992,31.70650813623306
6.724985856,0.9994725832463641,31.541093590144783
6.72727296,0.999227541879345,31.379477016428087
6.729559552,0.9990313754184664,31.22108087657912
6.731846656,0.9988964656594999,31.06508570915485
6.73413376,0.9988315173478591,30.910563469554432
6.736420864,0.998840537915437,30.756454796583984
6.738707968,0.9989230696400033,30.60166630732123
6.740995072,0.9990738378955526,30.445214821201944
6.743281664,0.9992834015034942,30.286134305455082
6.745568768,0.9995385329219602,30.123673653025346
6.747855872,0.9998231126814136,29.957311585593484
6.750142976,1.0001191863449266,29.78674080489539
6.75243008,1.000408196409972,29.611939510866474
6.754717184,1.0006716883027764,29.433116990747987
6.757003776,1.0008933164770182,29.250798738758515
6.75929088,1.0010590190798836,29.06567259472858
6.761577984,1.0011581933830078,28.87861216426853
6.763865088,1.0011848098073461,28.690660913703127
6.766152192,1.0011369591262451,28.502859245436568
6.768439296,1.00101779595111,28.31627045737853
6.770725888,1.000834626971722,28.131845786719317
6.773012992,1.000599033991315,27.950474520396263
6.775300096,1.000325815717589,27.7727604188698
6.7775872,1.000032106597209,27.599168757575818
6.779874304,0.9997364443858112,27.42986052265464
6.782161408,0.9994575233353722,27.264701058225835
6.784448512,0.9992128885839192,27.103366759519968
6.786735104,0.9990181530808167,26.945212072986696
6.789022208,0.9988854322556188,26.789467919713235
6.791309312,0.9988233522969745,26.635114981903033
6.793596416,0.9988357512700193,26.48116249670491
6.79588352,0.9989220023544978,26.326475516438656
6.798170624,0.9990766552601144,26.17005182393535
6.800457216,0.999289752227234,26.010957734119465
6.80274432,0.9995481531957168,25.848435770636218
6.805031424,0.9998353907651202,25.68195981404683
6.807318528,1.000133352912575,25.51122581397176
6.809605632,1.000423207209173,25.336243722035256
6.811892736,1.0006868319531368,25.157255279285174
6.814179328,1.0009075038372128,24.974745479997754
6.816466432,1.0010713521396002,24.789477825173762
6.818753536,1.0011679608157096,24.60230409880968
6.82104064,1.0011912991574268,24.414264553051524
6.823327744,1.0011398730112984,24.226428225416832
6.825614848,1.001016852760654,24.039857183171645
6.82790144,1.000829887330358,23.85550276071433
6.830188544,1.000590865150073,23.674250744008646
6.832475648,1.0003146218663435,23.49670891853649
6.834762752,1.000018727191939,23.323307739822386
6.837049856,0.9997216233038473,23.154218945159105
6.83933696,0.9994422182927767,22.989316759212564
6.841623552,0.9991980025395771,22.828209571689733
6.843910656,0.9990046180000869,22.67029410073467
6.84619776,0.9988742163732961,22.51472501020163
6.848484864,0.9988150274162954,22.36056022478235
6.850771968,0.9988308940513659,22.2066993582676
6.853059072,0.9989210018343664,22.05208356132205
6.855345664,0.9990794595280184,21.895652347361096
6.857632768,0.9992962303676239,21.73650117650559
6.859919872,0.9995578427707029,21.57387438278587
6.862206976,0.9998477622990599,21.4072301964402
6.86449408,1.000147578176041,21.236334569035343
6.866781184,1.000438415368226,21.06113779390702
6.869068288,1.000702003745624,20.881931215475127
6.87135488,1.0009217623955018,20.69922618851188
6.873641984,1.001083642256602,20.51374813324649
6.875929088,1.0011776454626777,20.326428563627037
6.878216192,1.0011977680386497,20.138281728855272
6.880503296,1.0011426332997613,19.950353527868955
6.8827904,1.0010158147900179,19.76375972424969
6.885076992,1.000825098239152,19.579463506031257
6.887364096,1.0005825603098155,19.398284765300687
6.8896512,1.000303279707559,19.220871193243788
6.891938304,1.0000051108934054,19.0476538351155
6.894225408,0.9997065599395376,18.878756257061948
6.896512512,0.9994266487687453,18.714063155663098
6.898799104,0.9991830243793329,18.553176118138218
6.901086208,0.9989910648404492,18.395451459231367
6.903373312,0.998862903048508,18.240058700360855
6.905660416,0.9988067846693467,18.086001467531506
6.90794752,0.9988262571845071,17.932220348730773
6.910234624,0.9989200830059274,17.777616874208917
6.912521216,0.9990823728306317,17.621163084435924
6.91480832,0.9993029380473452,17.461907992647117
6.917095424,0.9995678022776673,17.29915116315443
6.919382528,0.9998603200692413,17.13230951995553
6.921669632,1.0001620404212075,16.961186411538325
6.923956736,1.000453826270489,16.785762351640916
6.926243328,1.0007173682998225,16.606301991919967
6.928530432,1.0009361263821892,16.423347140273282
6.930817536,1.0010961641246539,16.237641868115123
6.93310464,1.001187433482419,16.05010711004989
6.935391744,1.001204241292725,15.86181295971033
