freq,mag,phase
6.0,1.0004097456323249,106.45274721086972
6.002287104,1.0002171391157866,106.29747264921562
6.004574208,1.0000124248757556,106.1450680598993
6.006861312,0.9998072045454315,105.99570970759109
6.009147904,0.999614309343099,105.84925885580716
6.011435008,0.9994461452912623,105.7054655440359
6.013722112,0.999313223059812,105.56392786047402
6.016009216,0.9992240582145578,105.42403741317607
6.01829632,0.9991842703609373,105.28510421160291
6.020583424,0.9991964460142113,105.1463748737022
6.022870016,0.9992598977080505,105.00720101430669
6.02515712,0.9993704556689578,104.86675723369656
6.027444224,0.9995213107767419,104.72445619738929
6.029731328,0.9997028303318772,104.5797811073986
6.032018432,0.9999034164772407,104.43234038933085
6.034305536,1.0001106753407922,104.28198240395471
6.036592128,1.000311257129585,104.12872803418543
6.038879232,1.0004926784601704,103.97268920647066
6.041166336,1.0006432483376702,103.81428598256723
6.04345344,1.0007535723855878,103.65404122716434
6.045740544,1.0008166523322493,103.49256918822608
6.048027648,1.0008284845966486,103.33058048152517
6.05031424,1.00078827798898,103.16880971642287
6.052601344,1.0006986793253125,103.00801544446196
6.054888448,1.0005651004991643,102.84889231318917
6.057175552,1.0003961485300017,102.69196065748909
6.059462656,1.0002024465912218,102.53772540852329
6.06174976,0.9999961657306626,102.38640998284355
6.064036352,0.9997901948148189,102.23810619198237
6.066323456,0.9995978604069448,102.09273969373419
6.06861056,0.9994311401505153,101.95002117617136
6.070897664,0.999300820840995,101.80950901564964
6.073184768,0.999214857585551,101.67058345883456
6.075471872,0.9991790185688646,101.53259878871823
6.077758464,0.999195388776308,101.39474938973683
6.080045568,0.9992631078480775,101.25637571300152
6.082332672,0.9993777723838109,101.11667288901461
6.084619776,0.9995321963250379,100.97506511902807
6.08690688,0.9997166269077647,100.83100951508037
6.089193984,0.9999194348758553,100.68418653695662
6.091481088,1.0001276359396254,100.53439313502497
6.09376768,1.0003282689151543,100.38169574597765
6.096054784,1.0005084869281686,100.22622861417238
6.098341888,1.0006569405593122,100.06843052529652
6.100628992,1.0007642697793855,99.90877570572809
6.102916096,1.0008236892965572,99.74797462537711
6.1052032,1.0008313456541278,99.58670825032073
6.107489792,1.0007869381487833,99.42573905484329
6.109776896,1.0006930021926295,99.26579719932025
6.112064,1.000555603529713,99.10754753981671
6.114351104,1.0003831781178094,98.95158086784646
6.116638208,1.0001869376453008,98.7983122469631
6.118925312,0.9999790265307632,98.64802096525462
6.121211904,0.9997726314095713,98.50076387330998
6.123499008,0.999580914673538,98.35640916668231
6.125786112,0.9994159055671364,98.21470488734253
6.128073216,0.9992880447420437,98.07515648463276
6.13036032,0.9992056026511316,97.93718658475349
6.132647424,0.9991737673824057,97.80004760811526
6.134934016,0.9991945138137072,97.66305732803366
6.13722112,0.9992665305120749,97.5253888451761
6.139508224,0.9993854257835036,97.38638529865067
6.141795328,0.9995434513564521,97.24539435283384
6.144082432,0.9997308028819991,97.10192106827132
6.146369536,0.9999357119848825,96.9556275277854
6.148656128,1.0001448841210567,96.80635488386997
6.150943232,1.000345461482549,96.65413235342872
6.153230336,1.000524496075637,96.49917538585508
6.15551744,1.0006707320082098,96.34190005471497
6.157804544,1.000775047699275,96.1828364453766
6.160091648,1.0008306816921189,96.02263988027376
6.162378752,1.0008341745324865,95.86203577010082
6.164665344,1.0007852189284476,95.70178220660738
6.166952448,1.0006869191767453,95.54265430016031
6.169239552,1.0005456102164638,95.38526616522286
6.171526656,1.0003699388175125,95.23018411233829
6.17381376,1.000171205022272,95.0778685847138
6.176100864,0.9999618060360307,94.92853687111366
6.178387456,0.9997549519226622,94.78225591143288
6.18067456,0.9995638621128944,94.63889871397146
6.182961664,0.999400612923186,94.49814404217885
6.185248768,0.9992755640070384,94.35950781896011
6.187535872,0.9991967353455473,94.22238986533702
6.189822976,0.9991688554815685,94.08610625077922
6.192109568,0.9991940392487604,93.94984178713258
6.194396672,0.9992705791914785,93.81287081375831
6.196683776,0.9993935828885296,93.67449983368672
6.19897088,0.9995554177583673,93.53403914586542
6.201257984,0.9997457706419562,93.39108702437497
6.203545088,0.9999525168619188,93.24525891126038
6.20583168,1.000162661164431,93.0964248476444
6.208118784,1.0003630757833446,92.94466205048094
6.210405888,1.0005408916614518,92.79013977907468
6.212692992,1.0006847289523564,92.63334341651175
6.214980096,1.0007857683785166,92.47478139125104
6.2172672,1.0008375641360188,92.315158371206
6.219553792,1.0008366917056368,92.15517028284285
6.221840896,1.0007831726336105,91.99561721964423
6.224128,1.000680563875154,91.83718599556465
6.226415104,1.0005351745992719,91.68061377973328
6.228702208,1.0003562791802187,91.5263975108902
6.230989312,1.0001549927217657,91.3749551648191
6.233275904,0.9999440170582341,91.22652493391885
6.235563008,0.9997369745466819,91.08118039089511
6.237850112,0.9995466991933203,90.9387644424709
6.240137216,0.9993852910967198,90.79890412668216
6.24242432,0.9992631165612529,90.66115142041784
6.244711424,0.9991878463995336,90.52484761807827
6.246998528,0.999164279034811,90.38929213090144
6.24928512,0.9991939889423128,90.25373214317268
6.251572224,0.9992749208249571,90.11739383429916
6.253859328,0.9994022887038172,89.97954542933107
6.256146432,0.9995677299862777,89.83960306419586
6.258433536,0.9997610686543633,89.69709510479295
6.26072064,0.9999697566132574,89.5516698600911
6.263007232,1.0001808476913543,89.4032534819941
6.265294336,1.0003808034766366,89.25184613298597
6.26758144,1.0005571448828232,89.09773784660365
6.269868544,1.0006986719835858,88.94134872815445
6.272155648,1.0007963145050185,88.78325412139371
6.274442752,1.0008440765961237,88.62410940556545
6.276729344,1.0008386424960976,88.46468188564036
6.279016448,1.0007807050718285,88.30576449884717
6.281303552,1.0006736078258474,88.14803857041366
6.283590656,1.0005241545391228,87.99216460084516
6.28587776,1.0003417909414594,87.83877254602355
6.288164864,1.0001380857694628,87.68820158785151
6.290451456,0.9999258499281505,87.54065742514193
6.29273856,0.9997184385825969,87.39615677918778
6.295025664,0.9995290652085602,87.25461457173309
6.297312768,0.999369787659635,87.11559655169789
6.299599872,0.9992505568329826,86.97865215469213
6.301886976,0.9991789983282501,86.84310641253751
6.304173568,0.9991597719370838,86.70826451956151
6.306460672,0.9991941165487994,86.57333337962142
6.308747776,0.9992796748025192,86.43754436777697
6.31103488,0.9994112784910949,86.30019289435957
6.313321984,0.999580582880967,86.16068476707514
6.315609088,0.9997767179102798,86.01857175555584
6.317896192,0.9999873230502827,85.87346470952293
6.320182784,1.000199097389527,85.72538164432234
6.322469888,1.0003987971076447,85.57429480465204
6.324756992,1.0005736015930613,85.42051676517298
6.327044096,1.0007125101782999,85.26446356539248
6.3293312,1.000806665800273,85.10678047898885
6.331618304,1.000850247771223,84.9481146656059
6.333904896,1.0008403216834518,84.78920958026545
6.336192,1.000777658802185,84.63083078866698
6.338479104,1.0006660874637272,84.47376022339904
6.340766208,1.0005126062758178,84.31862944835132
6.343053312,1.0003269402462813,84.16595807255851
6.345340416,1.0001208242158712,84.01617105816513
6.347627008,0.9999071422263919,83.86943352512056
6.349914112,0.9996996400506675,83.72580176259144
6.352201216,0.9995112951399711,83.5850583715104
6.35448832,0.999354122061499,83.44683754772018
6.356775424,0.9992379981292364,83.3106258179189
6.359062528,0.9991704891678601,83.17579987286801
6.36134912,0.999155733233281,83.04159471043484
6.363636224,0.9991947368142123,82.9071990725985
6.365923328,0.9992849959179252,82.7719291667367
6.368210432,0.9994209561767348,82.6350380768128
6.370497536,0.99959393792857,82.49588429154961
6.37278464,0.9997929051923395,82.35408120832187
6.375071232,1.0000053965796305,82.20928520483218
6.377358336,1.000218013034814,82.06143609423837
6.37964544,1.0004171561926822,81.91060278188576
6.381932544,1.0005902687529906,81.75709916195105
6.384219648,1.0007264526481068,81.60136160683898
6.386506752,1.0008170560534073,81.44401229785127
6.388793344,1.0008563440163065,81.2857274663785
6.391080448,1.0008418221651127,81.12729220481812
6.393367552,1.0007743255798376,80.96943088029771
6.395654656,1.0006582359264167,80.81297369832255
6.39794176,1.0005007069380816,80.65846975647136
6.400228864,1.0003117507507537,80.50653554512398
6.402515968,1.000103180946496,80.35745565475683
6.40480256,0.9998883961433757,80.21150304796171
6.407089664,0.9996807502403593,80.06864340833164
6.409376768,0.9994935760275779,79.92864672239517
6.411663872,0.9993386835775413,79.79119230325946
6.413950976,0.9992258814659081,79.65568066811059
6.41623808,0.9991622882649724,79.52148126907903
6.418524672,0.9991520203251062,79.3878604439253
6.420811776,0.9991958877956344,79.25398570860139
6.42309888,0.9992909061828528,79.11914801674205
6.425385984,0.9994312101704887,78.98259067104603
6.427673088,0.9996078621301074,78.8437612716593
6.429960192,0.9998097357210446,78.7021841951745
6.432246784,1.0000240689850204,78.55762567744053
6.434533888,1.0002372190589506,78.40996908441024
6.436820992,1.0004357477440358,78.25934375016382
6.439108096,1.0006071562590224,78.10605815760687
6.4413952,1.0007404927025745,77.95057239278135
6.443682304,1.0008273656486715,77.79349469148978
6.445968896,1.000862303429111,77.6355430464136
6.448256,1.0008429635955634,77.477533334592
6.450543104,1.000770738620459,77.32015950618462
6.452830208,1.000649861871542,77.1642290410503
6.455117312,1.0004882896080007,77.01033429979427
6.457404416,1.0002959624306922,76.85904010550709
6.459691008,1.0000852018466142,76.7106729286881
6.461978112,0.9998691686571469,76.56542676670749
6.464265216,0.9996616574824904,76.42328881511723
6.46655232,0.9994756059621119,76.28402570308593
6.468839424,0.9993231107391917,76.1472179580778
6.471126528,0.9992136081803512,76.012361081036
6.473413632,0.9991541670978991,75.87874426540773
6.475700224,0.9991486633022213,75.74563023577448
6.477987328,0.9991973037976004,75.61220929993168
6.480274432,0.9992970876554873,75.47775748036061
6.482561536,0.9994418092272095,75.34149543210579
6.48484864,0.9996221935493201,75.20290816259698
6.487135744,0.9998270082217082,75.0615324942417
6.489422336,1.00004299469982,74.9171128066028
6.49170944,1.0002566132869812,74.76961275593895
6.493996544,1.0004545003832235,74.61910909020656
6.496283648,1.0006239881164432,74.46597176019736
6.498570752,1.000754304183357,74.31068051568936
6.500857856,1.000837319669148,74.15383173461565
6.503144448,1.0008678276065792,73.99617757574269
6.505431552,1.0008436739998738,73.83850883240804
6.507718656,1.0007664866503094,73.68156173761447
6.51000576,1.0006411056191757,73.52613428687377
6.512292864,1.0004753707969047,73.37279362165924
6.514579968,1.0002797894295727,73.22209451427696
6.51686656,1.0000666956932291,73.07437741370315
6.519153664,0.9998495458415134,72.92980608295095
6.521440768,0.9996421335792987,72.78832458424584
6.523727872,0.9994574654887588,72.64970030030278
6.526014976,0.9993074544488915,72.51357397365193
6.52830208,0.9992015342517304,72.37928410279979
6.530588672,0.9991463204728523,72.24617178781922
6.532875776,0.9991454940012305,72.11352123488545
6.53516288,0.9991991623669367,71.9804956671617
6.537449984,0.9993038156445668,71.84632287919283
6.539737088,0.9994529760901611,71.71032005113105
6.542024192,0.9996369849537339,71.57189350992056
6.544310784,0.9998444807344107,71.43066791773325
6.546597888,1.0000621868387969,71.28636421780604
6.548884992,1.0002763577575549,71.13891126462856
6.551172096,1.000473339673773,70.9884802536503
6.5534592,1.0006408229149861,70.83544514864757
6.555746304,1.0007680483557118,70.68026907474434
6.558033408,1.000847173070452,70.5236077103126
6.56032,1.0008730695009436,70.3662342507721
6.562607104,1.0008439587427402,70.2088252736489
6.564894208,1.000761909277045,70.05227864727604
6.567181312,1.0006317826000781,69.89727813409223
6.569468416,1.0004620141094158,69.74442946492833
6.57175552,1.0002631439813627,69.59429700094208
6.574042112,1.0000478873031355,69.44717306374999
6.576329216,0.9998296909817533,69.30320157211364
6.57861632,0.9996224321402923,69.16232316969617
6.580903424,0.999439315092699,69.02433201145303
6.583190528,0.9992918776678482,68.88874220799966
6.585477632,0.9991895180670843,68.75499632334285
6.587764224,0.9991387068198566,68.62235598037712
6.590051328,0.9991426944005409,68.49008737194104
6.592338432,0.9992013725886879,68.35738647206337
6.594625536,0.9993108358496874,68.22346986617917
6.59691264,0.9994643841526226,68.08763991650171
6.599199744,0.9996522275638824,67.94934099441664
6.601486336,0.9998623647717888,67.80818390602236
6.60377344,1.0000816329058029,67.66389190885351
6.606060544,1.000296150384905,67.516458221741
6.608347648,1.000492263685992,67.3660597067282
6.610634752,1.000657530103243,67.21306633064708
6.612921856,1.0007817157990302,67.05796139276222
6.615208448,1.00085669349175,66.90143963187023
6.617495552,1.0008779525352194,66.7442264431959
6.619782656,1.000843915744911,66.58707553691313
6.62206976,1.0007567778629494,66.43086542902408
6.624356864,1.0006220693141141,66.27624037206625
6.626643968,1.0004480732820158,66.12385636893492
6.628931072,1.0002460663482835,65.97422696713643
6.631217664,1.000028558217947,65.82763794382531
6.633504768,0.999809493866563,65.68424525420716
6.635791872,0.999602647683956,65.54393528161832
6.638078976,0.999421053711966,65.40647663668868
6.64036608,0.9992763660139509,65.27140569974978
6.642653184,0.999177740399989,65.13812056024305
6.644939776,0.9991313844415294,65.00588917975172
6.64722688,0.9991403709238197,64.87394575659897
6.649513984,0.9992040086729715,64.74150204529973
6.651801088,0.9993185858754551,64.60775966971855
6.654088192,0.9994764745633977,64.47205611159806
6.656375296,0.9996680237879157,64.33380694304645
6.658661888,0.9998807593009824,64.19261341275461
6.660948992,1.0001015316969064,64.04832285197385
6.663236096,1.000316267800113,63.90086426260399
6.6655232,1.0005113813838538,63.750413049199395
6.667810304,1.000674488084134,63.59738601363941
6.670097408,1.0007952249759768,63.4423181819651
6.672384,1.0008661120392763,63.28584605778325
6.674671104,1.0008825054674995,63.12876491593438
6.676958208,1.0008433833573624,62.97184099389119
6.679245312,1.0007511766949635,62.81589405686756
6.681532416,1.0006116440380304,62.66160511146392
6.68381952,1.0004337396264744,62.509641247179935
6.686106112,1.0002284919042408,62.360443217082484
6.688393216,1.0000089422765694,62.214364073701695
6.69068032,0.9997890726341581,62.07145335207057
6.692967424,0.9995826228790691,61.93168594207427
6.695254528,0.9994027289823281,61.79470546990033
6.697541632,0.9992609383725898,61.6600935484517
6.699828224,0.9991661145787314,61.52720574675309
6.702115328,0.9991242997842844,61.395331458864995
6.704402432,0.9991382940697701,61.26365916260691
6.706689536,0.999207198357046,61.131402032885816
6.70897664,0.9993265488965469,60.997788569210236
6.711263744,0.9994889659461196,60.86213410321641
6.713550848,0.9996841079842711,60.72387709300168
6.71583744,0.9998995220836642,60.58264825153906
6.718124544,1.0001217575594286,60.43823537162383
6.720411648,1.0003366080482083,60.290671595569144
6.722698752,1.0005306053472698,60.14012763022799
6.724985856,1.0006913153171886,59.98704285670729
6.72727296,1.00080872491064,59.83192139489405
6.729559552,1.0008753437846207,59.67548421009821
6.731846656,1.0008868537688873,59.51846134642343
6.73413376,1.0008425277038502,59.361694427687475
6.736420864,1.0007452951166536,59.20596438072289
6.738707968,1.0006010629004765,59.05197485278547
6.740995072,1.0004190536072157,58.900357781975295
6.743281664,1.0002106908067059,58.75157263682927
6.745568768,0.999989171541416,58.6059193382504
6.747855872,0.9997685015896527,58.463495773001135
6.750142976,0.9995625783755203,58.324163661913715
6.75243008,0.9993845454073279,58.18763162069305
6.754717184,0.999245684699793,58.05339733803319
6.757003776,0.9991547468373502,57.920881796894726
6.75929088,0.9991176449290866,57.78927061204286
6.761577984,0.9991367026784785,57.65782729148288
6.763865088,0.999210733934119,57.525704320227554
6.766152192,0.9993351307971033,57.39213838621137
6.768439296,0.999501952937042,57.25646439680549
6.770725888,0.9997005941494906,57.1181345492685
6.773012992,0.9999186038904876,56.976792503390136
6.775300096,1.0001421367077192,56.83221643844296
6.7775872,1.0003571171583927,56.68448085481951
6.779874304,1.000549807692765,56.53380780136403
6.782161408,1.0007080951617628,56.38057595862619
6.784448512,1.0008219290787943,56.22536034075081
6.786735104,1.0008841350152347,56.06887243528335
6.789022208,1.0008907643514053,55.91191166187144
6.791309312,1.0008412925798542,55.75522835162902
6.793596416,1.000738862442728,55.599676619890595
6.79588352,1.0005899396063795,55.44593155531368
6.798170624,1.0004038715546175,55.29462219705107
6.800457216,1.0001924234734187,55.14619402656411
6.80274432,0.9999690240356852,55.00092840234432
6.805031424,0.9997475874536298,54.85889414938627
6.807318528,0.9995423840199353,54.71997352269103
6.809605632,0.999366235430593,54.58381596856096
6.811892736,0.9992305336698252,54.449944649196276
6.814179328,0.9991436801752529,54.31769419360864
6.816466432,0.9991113338277572,54.18631442472422
6.818753536,0.9991355678132131,54.055013331088766
6.82104064,0.9992148420538768,53.92295784173469
6.823327744,0.9993441678742656,53.78939273978615
6.825614848,0.9995154182955941,53.6536480348621
6.82790144,0.9997176767432573,53.51517777304752
6.830188544,0.9999382823590321,53.3736416827997
6.832475648,1.0001630147506524,53.228874742790794
6.834762752,1.0003778092318742,53.08090532411705
6.837049856,1.0005692108604816,52.93000182838834
6.83933696,1.0007248860957345,52.77659013272665
6.841623552,1.0008351221344935,52.62123986013457
6.843910656,1.0008928247565054,52.464663608081445
6.84619776,1.0008944127578072,52.30766124349555
6.848484864,1.0008396631434548,52.15104376430888
6.850771968,1.000732107366764,51.99558500679403
6.853059072,1.0005784226039591,51.84205357936402
6.855345664,1.0003884037557285,51.690992247572304
6.857632768,1.0001739205833466,51.542848960213135
6.859919872,0.9999485799814902,51.39792219654927
6.862206976,0.9997266768812744,51.256259241240684
6.86449408,0.9995221241178082,51.11766532674779
6.866781184,0.9993480414782555,50.981843955664225
6.869068288,0.9992154361136717,50.84826288502986
6.87135488,0.9991327491069986,50.716230552321825
6.873641984,0.9991052374291329,50.58503643239071
6.875929088,0.9991347052500468,50.45381227558718
6.878216192,0.9992193001414154,50.321776648585015
6.880503296,0.9993536191015855,50.1881230686546
6.8827904,0.9995291643437265,50.05225338986526
6.885076992,0.9997350447928524,49.913592600696944
6.887364096,0.9999580004620477,49.77180747216319
6.8896512,1.0001838890512185,49.62675360530591
6.891938304,1.000398693808749,49.47849849527723
6.894225408,1.0005885331391065,49.32733277789966
6.896512512,1.0007415405499633,49.17366244899129
6.898799104,1.0008479695026118,49.01812081101815
6.901086208,1.0009011700722568,48.86140882295652
6.903373312,1.0008976909918357,48.70433114779616
6.905660416,1.0008376633204814,48.5477105963344
6.90794752,1.0007249042933768,48.39233306621781
6.910234624,1.000566523217445,48.23892558306147
6.912521216,1.000372511780239,48.08806373907874
6.91480832,1.000155079212128,47.940188006175234
6.917095424,0.999927912586462,47.795537162583955
6.919382528,0.9997055194377527,47.65416278668526
6.921669632,0.9995018383946193,47.51587717696039
6.923956736,0.9993298703713431,47.38031374055688
6.926243328,0.9992005949023346,47.24695499393308
6.928530432,0.9991221807655781,47.11510608943722
6.930817536,0.9990995426224003,46.984012416589124
6.93310464,0.9991342447599304,46.852819235121444
6.935391744,0.9992241293002192,46.720708380438516
6.937678848,0.9993634588345223,46.58694189585297
