freq,mag,phase
6.0,0.9999998979020114,-46.995109056474455
6.041236992,1.0000014902482819,-48.614383103942075
6.082473984,0.9999999178071166,-50.23450667587545
6.123711488,0.9999984998848382,-51.85552846787847
6.16494848,0.999997027559541,-53.477355744734496
6.206185472,0.9999954839244035,-55.10003561227383
6.247422464,0.9999939666361521,-56.72360098983247
6.288659968,0.999992598975146,-58.347963011503644
6.32989696,0.999991021156391,-59.973128394857746
6.371133952,0.9999897504387901,-61.59911792936957
6.412370944,0.9999884095916608,-63.22592742544038
6.453608448,0.9999872401348247,-64.85353498579498
6.49484544,0.999986207967417,-66.48193727863502
6.536082432,0.9999852568506968,-68.11117559185396
6.577319424,0.9999844372084448,-69.74112419920627
6.618556928,0.9999837713829178,-71.37193250400335
6.65979392,0.9999832998704545,-73.00344019151865
6.701030912,0.999983009320568,-74.63571485169352
6.742267904,0.9999828289938488,-76.26876484064296
6.783505408,0.9999827783500111,-77.90257359351803
6.8247424,0.9999830171692201,-79.5370427584684
6.865979392,0.999983288593334,-81.17234116984311
6.907216384,0.9999838456813257,-82.80829503549913
6.948453376,0.9999845973591497,-84.44498099688923
6.98969088,0.9999855216528141,-86.08235029459144
7.030927872,0.9999864955469656,-87.72044560029764
7.072164864,0.9999875575756316,-89.35920030912706
7.113401856,0.9999889249801315,-90.99862321570947
7.15463936,0.9999903233737445,-92.63869806143371
7.195876352,0.9999916851643051,-94.27946681421803
7.237113344,0.9999932858863895,-95.92085981494989
7.278350336,0.9999948799165976,-97.56285727521484
7.31958784,0.999996446554453,-99.20549844065485
7.360824832,0.9999981159280373,-100.84874143236046
7.402061824,0.9999998130497979,-102.4926123910472
7.443298816,1.0000013960875247,-104.13701714914083
7.48453632,1.0000028365624574,-105.78201541783199
7.525773312,1.0000043173336937,-107.42758380642064
7.567010304,1.0000056511398143,-109.07367786964016
7.608247296,1.000007044831464,-110.72031929826878
7.649484288,1.000008107525981,-112.36749357794238
7.690721792,1.000009096385497,-114.0151330034283
7.731958784,1.000009980680782,-115.66328364014264
7.773195776,1.000010580269674,-117.31193329299808
7.814432768,1.0000110732091223,-118.9610166636839
7.855670272,1.0000113892303262,-120.61057394768811
7.896907264,1.0000115004628487,-122.26053596308505
7.938144256,1.0000114379339007,-123.91093202592315
7.979381248,1.000011159693945,-125.56172242236353
8.020618752,1.0000106377273106,-127.21291975745761
8.061855744,1.0000099207522959,-128.864441150982
8.103092736,1.0000090447603578,-130.51639571379943
8.144329728,1.0000079616161752,-132.16864567226023
8.185567232,1.0000067902928182,-133.8211900004368
8.226804224,1.0000053893990113,-135.47410288329755
8.268041216,1.0000038818383308,-137.1272728672738
8.309278208,1.0000022078199464,-138.78075136488062
8.350515712,1.0000004874854318,-140.43444393734165
8.391752704,0.9999986885435239,-142.08843907433376
8.432989696,0.9999968644929046,-143.7426548216828
8.474226688,0.9999949369395198,-145.3970788316263
8.51546368,0.9999930640193975,-147.051681137919
8.556701184,0.9999911240274982,-148.70649459120852
8.597938176,0.9999892679842791,-150.36147920670018
8.63917568,0.9999874691042672,-152.0166349269277
8.68041216,0.999985722785662,-153.67191292059346
8.721649664,0.9999840911646828,-155.32732405909
8.762886144,0.9999826074186454,-156.98284726818372
8.804123648,0.9999812096755514,-158.63846396760022
8.845361152,0.999980104147944,-160.29418121015922
8.886597632,0.9999791285377481,-161.94994143713845
8.927835136,0.9999782320392328,-163.60577779351246
8.96907264,0.9999776561011727,-165.2616465166157
9.01030912,0.9999772455223574,-166.91754522374328
9.051546624,0.9999770465429854,-168.57346106690608
9.092783104,0.9999771596627964,-170.22936676310277
9.134020608,0.9999774471457139,-171.8852728948055
9.175258112,0.9999778768416384,-173.54113294297082
9.216494592,0.999978622171443,-175.19695875891998
9.257732096,0.9999795062883594,-176.8527386796129
9.298968576,0.9999806722469204,-178.5084108298608
9.34020608,0.9999821045013968,179.83595604019527
9.381443584,0.9999835638752111,178.18044423860607
9.422680064,0.9999852876372834,176.52505410442149
9.463917568,0.9999870844111016,174.86976723752258
9.505155072,0.99998896501592,173.21463980440467
9.546391552,0.9999910162637987,171.55966376012256
9.587629056,0.9999930968102123,169.90486031645764
9.628865536,0.9999953142829945,168.2502280815468
9.67010304,0.9999973290762671,166.5958090895138
9.711340544,0.9999995565675339,164.94160423462966
9.752577024,1.000001679587795,163.2876224524994
9.793814528,1.0000037398055364,161.6338689855182
9.835052032,1.0000057708811934,159.98038814643363
9.876288512,1.0000075862643083,158.32718827906135
9.917526016,1.0000092444220001,156.6742693808534
9.958762496,1.000010786891637,155.02165277793344
10.0,1.0000121056242806,153.3693454308918
10.041237504,1.0000133207594704,151.7173757833458
10.082473984,1.0000142171092081,150.0657583730413
10.123711488,1.0000148547139993,148.41451069750335
10.164947968,1.0000152899606025,146.76362418554274
10.206185472,1.000015531675336,145.11314022314832
10.247422976,1.0000153952195363,143.46306057898462
10.288659456,1.000015067242913,141.81340742522718
10.32989696,1.000014510736181,140.1642060681038
10.371134464,1.0000135811160484,138.51544044780383
10.412370944,1.0000124786867886,136.86714726086913
10.453608448,1.0000111882142733,135.21934251426805
10.494844928,1.0000096543752293,133.57203348613382
10.536082432,1.0000078439364348,131.9252222196946
10.577319936,1.0000058645487457,130.27895102144848
10.618556416,1.0000037065983045,128.63318947805368
10.65979392,1.0000014449758248,126.98800109183748
10.701031424,0.999999049423557,125.3433711789839
10.742267904,0.9999965654405057,123.69931105633631
10.783505408,0.9999940493150362,122.05582739351465
10.824741888,0.9999914837874182,120.41295451432251
10.865979392,0.9999889880205567,118.77069163166175
10.907216896,0.9999864350046846,117.12905763202615
10.948453376,0.9999839965484788,115.488034240843
10.98969088,0.9999816759827636,113.84764932920223
11.03092736,0.9999795201942022,112.20791348261862
11.072164864,0.9999774650695143,110.56884970907872
11.113402368,0.999975696110224,108.93045354083476
11.154638848,0.9999739520968614,107.2927279536471
11.195876352,0.9999726088656092,105.65566489294956
11.237113856,0.9999715081377271,104.01931538409534
11.278350336,0.9999706844556561,102.38366238631387
11.31958784,0.9999700927418023,100.74871050219679
11.36082432,0.9999698601596264,99.1144869000101
11.402061824,0.9999699709106804,97.48098288939659
11.443299328,0.9999702949933462,95.84818582968525
11.484535808,0.9999710733614043,94.21612216058081
11.525773312,0.9999720561969409,92.58479984057556
11.567010816,0.9999733330544069,90.95422243702214
11.608247296,0.9999749853493991,89.32439135220879
11.6494848,0.9999767777935001,87.69533256908109
11.69072128,0.9999789380247407,86.06699452944478
11.731958784,0.9999813508321379,84.43945225564077
11.773196288,0.9999838853973618,82.8126703761579
11.814432768,0.9999866461384351,81.18666943300539
11.855670272,0.9999895091688915,79.56142235834292
11.896906752,0.9999925492565881,77.93698428358009
11.938144256,0.9999955979600508,76.31332013401631
11.97938176,0.9999987241726737,74.69045792928512
12.02061824,1.000001766756948,73.06839755944407
12.061855744,1.0000048908138026,71.4471456770759
12.103093248,1.00000787501644,69.82668925937321
12.144329728,1.0000107674779857,68.20705433433062
12.185567232,1.0000134659762783,66.5882228530852
12.226803712,1.0000159547039547,64.97023039790295
12.268041216,1.0000182690247035,63.353065349189585
12.30927872,1.0000202790997572,61.73674959757775
12.3505152,1.0000220049257076,60.12126443446586
12.391752704,1.0000234809438675,58.50662086282111
12.432989184,1.0000245614472052,56.89281514282799
12.474226688,1.0000252548665889,55.27988799430124
12.515464192,1.0000256662427518,53.667801722608516
12.556700672,1.0000255556365676,52.05660029918724
12.597938176,1.0000251982186323,50.446253404807166
12.63917568,1.0000244279432913,48.836772942979934
12.68041216,1.0000232340373998,47.228177223054274
12.721649664,1.0000217013399106,45.620481252391464
12.762886144,1.0000197775262707,44.01366461356489
12.804123648,1.000017533348866,42.407722762908826
12.845361152,1.0000148936960553,40.80268480459241
12.886597632,1.0000121140485723,39.19853878429243
12.927835136,1.0000089446195273,37.59531146145197
12.96907264,1.0000056421882428,35.99296017583166
13.01030912,1.0000020749863945,34.39150686014866
13.051546624,0.9999983465556843,32.79097837706095
13.092783104,0.9999945950300778,31.191332278266945
13.134020608,0.9999906478322212,29.592606799021958
13.175258112,0.9999867828281175,27.994781534786433
13.216494592,0.9999831210688201,26.397849497747078
13.257732096,0.9999793284487245,24.80182381924364
13.298968576,0.9999757330673342,23.20670830409877
13.34020608,0.9999722625169326,21.61248614576987
13.381443584,0.9999691567478879,20.019151302037226
13.422680064,0.9999662456937354,18.42671070352686
13.463917568,0.9999636954932274,16.835163126067247
13.505155072,0.999961560563949,15.244508420095283
13.546391552,0.9999596862055135,13.654724331027579
13.587629056,0.9999583101729961,12.065797565271664
13.628865536,0.9999573660551776,10.477762599950674
13.67010304,0.9999569296422401,8.890594776562837
13.711340544,0.9999568532701291,7.304253500216886
13.752577024,0.9999574268353056,5.718795676979623
13.793814528,0.9999583985179864,4.13416868604213
13.835052032,0.9999599154059349,2.550380516127882
13.876288512,0.9999619369020674,0.9674262594429448
13.917526016,0.9999643876838898,-0.614708393483167
13.958762496,0.9999672845322664,-2.196021363625313
14.0,0.9999706303131641,-3.7765375353094837
