freq,mag,phase
6.0,1.000136993865889,171.51200049281434
6.002286592,1.0001454681916897,171.35723364257674
6.004572672,1.0001456651655698,171.20243093304245
6.006859264,1.0001369271331852,171.04771881299743
6.009145344,1.0001196600784128,170.89317971469006
6.011431936,1.0000951210837485,170.73897363432548
6.013718016,1.0000647436909018,170.58516901655335
6.016004608,1.000030459331548,170.4318669984011
6.018290688,0.9999946190931619,170.27904345080321
6.02057728,0.9999591952644687,170.12680188187144
6.022863872,0.9999266462263051,169.97504405400076
6.025149952,0.9998989131689257,169.82374753155523
6.027436544,0.999877817027759,169.6727968895954
6.029722624,0.9998647273252981,169.52214920518534
6.032009216,0.9998604501278149,169.37158507919543
6.034295296,0.999865149247947,169.22107285961494
6.036581888,0.9998786894924389,169.07041934138286
6.03886848,0.9999000768101849,168.91955085935393
6.04115456,0.9999281830326228,168.76831312922366
6.043441152,0.999960918623277,168.61665997478067
6.045727232,0.9999964151500796,168.46451855298994
6.048013824,1.000032393394577,168.31184821361705
6.050299904,1.0000664734095637,168.1587364408449
6.052586496,1.000096789235874,168.0051098531225
6.054872576,1.0001211382564252,167.85113321127577
6.057159168,1.0001380364100456,167.69686914180232
6.05944576,1.0001464250303371,167.54242419797754
6.06173184,1.000145831978545,167.3879365232413
6.064018432,1.0001362698525809,167.23353833568666
6.066304512,1.0001181411449755,167.07934980480007
6.068591104,1.0000930108893868,166.9255159056776
6.070877184,1.000062078332156,166.7720859722953
6.073163776,1.0000273657685272,166.6191161906273
6.075450368,0.9999913458132336,166.46670023446453
6.077736448,0.9999559928030223,166.31482995058659
6.08002304,0.999923619430679,166.16344863955177
6.08230912,0.9998963359072754,166.01250764982922
6.084595712,0.9998757673577311,165.8619322211608
6.086881792,0.9998634652933893,165.71161292787065
6.089168384,0.9998598582632109,165.56142176166378
6.091454464,0.9998654825138251,165.41122604946173
6.093741056,0.999879710429598,165.26092409393377
6.096027648,0.9999020320759737,165.1103260991915
6.098313728,0.9999305691264144,164.95942284133133
6.10060032,0.9999637846285776,164.80804114533666
6.1028864,0.9999995916340195,164.65618015388384
6.105172992,1.0000356245225257,164.5038315240573
6.107459072,1.0000697158448242,164.35098328634987
6.109745664,1.0000996124175112,164.19766505457633
6.112032256,1.0001233501367806,164.04398265511372
6.114318336,1.0001396741735091,163.89003140150504
6.116604928,1.0001473104009753,163.73591822782132
6.118891008,1.000145823699375,163.58175130455513
6.1211776,1.0001354743905118,163.42770416989117
6.12346368,1.000116618722199,163.2738903507369
6.125750272,1.0000907721029344,163.12038883079376
6.128036352,1.0000593259307538,162.96731157277648
6.130322944,1.0000242733418887,162.81474850902876
6.132609536,0.9999880205543127,162.662723388142
6.134895616,0.9999526220927896,162.51123369826027
6.137182208,0.9999205860727521,162.36024164969373
6.139468288,0.9998936948178032,162.20967418646094
6.14175488,0.9998737751058261,162.0594760548082
6.14404096,0.9998620826056688,161.9095301116577
6.146327552,0.9998593565801818,161.7597044084416
6.148614144,0.9998658232872095,161.60985180481842
6.150900224,0.9998809622348701,161.45986086689527
6.153186816,0.9999038497639638,161.30961705256004
6.155472896,0.9999330552679006,161.159009386866
6.157759488,0.9999667337524796,161.00793552802645
6.160045568,1.000002818376034,160.8564047243062
6.16233216,1.0000389457677048,160.7043285823014
6.16461824,1.000072742377864,160.55179598711422
6.166904832,1.00010234974673,160.39877830824693
6.169191424,1.0001255793193171,160.24540030309058
6.171477504,1.0001411149542474,160.0917639755485
6.173764096,1.0001480028840108,159.93798028780432
6.176050176,1.0001457877644109,159.78415781504088
6.178336768,1.0001345371825263,159.63045829364034
6.180622848,1.0001150271171657,159.47700831385245
6.18290944,1.0000884366785376,159.32388945460943
6.18519552,1.0000563805422011,159.17121214996337
6.187482112,1.0000210723513123,159.01904295737236
6.189768704,0.9999846072488876,158.8674181804348
6.192054784,0.9999493737201423,158.7163124821032
6.194341376,0.999917546204128,158.5657245831909
6.196627456,0.9998911704939524,158.41554324654328
6.198914048,0.9998717946805274,158.26575141535886
6.201200128,0.9998608749117722,158.1161632896747
6.20348672,0.9998589077504366,157.96671643820952
6.205773312,0.9998661741890245,157.8172087845404
6.208059392,0.9998821302154888,157.6675676845627
6.210345984,0.9999058333777439,157.51762539041636
6.212632064,0.9999356450734632,157.36733130096897
6.214918656,0.9999697682166512,157.21660386128792
6.217204736,1.0000061054351101,157.06537689327547
6.219491328,1.0000422716921693,156.91361459706408
6.221777408,1.0000759585117585,156.7613483180274
6.224064,1.000105051317512,156.60867615523904
6.226350592,1.0001278150857067,156.45563403080612
6.228636672,1.0001427237301694,156.30230507868325
6.230923264,1.000148903932426,156.1488537278569
6.233209344,1.0001457058877083,155.99541109122438
6.235495936,1.000133655325905,155.84207135919857
6.237782016,1.0001132107279187,155.68899335083583
6.240068608,1.0000860069716935,155.5362832258301
6.2423552,1.0000535108646762,155.3840010961421
6.24464128,1.0000178148341674,155.23222672275486
6.246927872,0.9999813267779664,155.08100854597657
6.249213952,0.9999460330186356,154.9303100237852
6.251500544,0.9999145673835163,154.78013010679413
6.253786624,0.9998885668877672,154.63036664390177
6.256073216,0.9998699637160839,154.4809487296008
6.258359296,0.9998596416968943,154.331775482506
6.260645888,0.999858617447143,154.18266244227914
6.26293248,0.9998666556456437,154.03353804231983
6.26521856,0.9998835228120119,153.8842465733173
6.267505152,0.9999078583741461,153.734673792076
6.269791232,0.9999383215765262,153.5846741112638
6.272077824,0.9999728656057968,153.43428443951754
6.274363904,1.0000093931974166,153.2833403638217
6.276650496,1.0000455741247771,153.13193271706857
6.278937088,1.0000791099484032,152.97999513204167
6.281223168,1.0001078169217863,152.8276278829665
6.28350976,1.000130070409923,152.6749104519685
6.28579584,1.0001442382730612,152.52194267730604
6.288082432,1.0001495835564902,152.3688411387869
6.290368512,1.000145474779139,152.21573737072558
6.292655104,1.0001325428437278,152.0627764994084
6.294941184,1.0001115105028093,151.91007673170935
6.297227776,1.000083524000086,151.75774526677625
6.299514368,1.0000506135150253,151.60589474840444
6.301800448,1.0000145435537975,151.45453622515038
6.30408704,0.9999777892357918,151.30371393368816
6.30637312,0.9999427237874795,151.1534550781177
6.308659712,0.9999114103795097,151.0037141873884
6.310945792,0.9998859987519781,150.8543478513719
6.313232384,0.9998679852877695,150.7053252452499
6.315518464,0.999858473295403,150.5565388147284
6.317805056,0.9998583094623646,150.40781963779133
6.320091648,0.9998673438212592,150.25905416768506
6.322377728,0.9998849234362288,150.11010561291872
6.32466432,0.9999099593031252,149.9608688701502
6.3269504,0.9999409810048256,149.81125052124798
6.329236992,0.9999759885326459,149.6611557458578
6.331523072,1.0000126424825546,149.5105636724814
6.333809664,1.00004883369655,149.3594636514387
6.336096256,1.0000822308148425,149.20785197746173
6.338382336,1.000110657332746,149.0558283274147
6.340668928,1.0001321565025174,148.9034154975209
6.342955008,1.000145692403369,148.75081100243736
6.3452416,1.0001500891624224,148.59806406327948
6.34752768,1.0001453268566802,148.44533629436302
6.349814272,1.000131605666148,148.2927660505769
6.352100352,1.0001096113007972,148.14048993688374
6.354386944,1.000081096941231,147.98855126149732
6.356673536,1.0000474480345376,147.83711056859735
6.358959616,1.0000111703050556,147.6861931702571
6.361246208,0.9999743944476435,147.5358083792289
6.363532288,0.9999393137801392,147.38596106343357
6.36581888,0.999908468772946,147.2366012069228
6.36810496,0.9998834172136044,147.08768014262924
6.370391552,0.9998661741674353,146.93907311481948
6.372678144,0.9998575380415639,146.79065905250854
6.374964224,0.999858134048273,146.64234678955893
6.377250816,0.9998679049311522,146.49395756224374
6.379536896,0.999886396933799,146.3453741760429
6.381823488,0.9999120865414903,146.19648663638193
6.384109568,0.999943733951938,146.04719833621908
6.38639616,0.9999792371435315,145.89744378566837
6.38868224,1.0000161709773023,145.74718446889312
6.390968832,1.0000522599259383,145.59641081789533
6.393255424,1.000085420384435,145.44514424181222
6.395541504,1.0001133424891828,145.29342925939227
6.397828096,1.0001343902577386,145.14139026214488
6.400114176,1.0001470316678833,144.9891223511373
6.402400768,1.0001506625520784,144.83674947610413
6.404686848,1.0001450099875597,144.68441377509228
6.40697344,1.0001303276054265,144.53221271942218
6.409260032,1.0001076727490654,144.38033650404435
6.411546112,1.0000784104395375,144.22882602509074
6.413832704,1.0000444485313191,144.07781336672522
6.416118784,1.0000077556118885,143.92729171196484
6.418405376,0.9999708695998384,143.77735550451192
6.420691456,0.999936022692184,143.6279273857624
6.422978048,0.999905362199703,143.47900788335753
6.425264128,0.9998810303766074,143.33051342754868
6.42755072,0.9998643734384318,143.18230984585273
6.429837312,0.9998565578590952,143.03431907274194
6.432123392,0.9998579602626992,142.88637746235023
6.434409984,0.9998686582210433,142.7383802177203
6.436696064,0.9998879214006448,142.59017774712072
6.438982656,0.9999144363409946,142.44163192115573
6.441268736,0.9999466273145059,142.29270334749268
6.443555328,0.9999823455806963,142.1432998926295
6.44584192,1.0000196312586904,141.99334883823244
6.448128,1.0000557380361148,141.842900959718
6.450414592,1.0000885508888304,141.69198645749924
6.452700672,1.0001160056664429,141.5406411444438
6.454987264,1.000136469581964,141.38892832319914
6.457273344,1.0001483502376693,141.2370265247515
6.459559936,1.00015119325922,141.08501385114855
6.461846016,1.0001446546911088,140.93308388457245
6.464132608,1.000129105964102,140.78128002487878
6.4664192,1.0001056862461422,140.6298016603737
6.46870528,1.000075759533767,140.47870191934572
6.470991872,1.0000411798596256,140.32813397565243
6.473277952,1.0000043082163625,140.17805541291224
6.475564544,0.9999673473775454,140.02853760991673
6.477850624,0.999932624455858,139.87957506281387
6.480137216,0.9999023950612528,139.73108404695978
6.482423296,0.9998785370240615,139.58300336934724
6.484709888,0.9998626609531753,139.43522331604584
6.48699648,0.9998556021122724,139.28764096078814
6.48928256,0.9998579734118599,139.1400967536915
6.491569152,0.9998694663736905,138.99248373484403
6.493855232,0.9998894663050703,138.84463309214848
6.496141824,0.9999167748163912,138.69646748967352
6.498427904,0.9999496561315291,138.54786730186075
6.500714496,0.9999857737706099,138.39880351719847
6.503001088,1.000023114453992,138.24922534673505
6.505287168,1.00005919682992,138.09911129235854
6.50757376,1.000091693005107,137.94851044108904
6.50985984,1.0001186800943669,137.79751037798778
6.512146432,1.000138419886188,137.64618486652287
6.514432512,1.0001496108536683,137.49464412475692
6.516719104,1.0001516046325103,137.34299597026953
6.519005184,1.000144083775566,137.1914316072631
6.521291776,1.000127739207187,137.04005777039023
6.523578368,1.0001035870562167,136.88899547276853
6.525864448,1.0000730267460467,136.73833667742835
6.52815104,1.0000380280486636,136.5881684643054
6.53043712,1.0000008258429212,136.43854733086494
6.532723712,0.9999637923890067,136.2894778170276
6.535009792,0.9999291273290296,136.14095643673087
6.537296384,0.9998994277253244,135.992898508646
6.539582976,0.9998761336397709,135.84525086722357
6.541869056,0.9998608918642998,135.6978958449533
6.544155648,0.9998547412737447,135.55073399504252
6.546441728,0.9998578834990358,135.4035653864568
6.54872832,0.9998703574867563,135.25634242341974
6.5510144,0.9998912790086903,135.10887273346088
6.553300992,0.9999192495195715,134.96107693344376
6.555587072,0.9999525496450532,134.81284578453304
6.557873664,0.9999890542452292,134.66411237045853
6.560160256,1.0000266428743867,134.51486163793746
6.562446336,1.0000626063012028,134.3650865388956
6.564732928,1.000094894991735,134.21484651202857
6.567019008,1.000121325690511,134.06418753637593
6.5693056,1.0001404873751858,133.9132154590947
6.57159168,1.0001507881356755,133.7620157142846
6.573878272,1.0001517898419963,133.61079754232804
6.576164864,1.0001435069670104,133.45962090519836
6.578450944,1.000126304072882,133.30866233480248
6.580737536,1.0001013198555377,133.15801311964796
6.583023616,1.0000700447270203,133.00778291274972
6.585310208,1.0000347226400172,132.85805979699342
6.587596288,0.9999971534941198,132.7088815081542
6.58988288,0.9999601660857159,132.5602555798773
6.59216896,0.9999257496861271,132.41218424623025
6.594455552,0.9998962786093726,132.26456318767748
6.596742144,0.9998737185917882,132.11734387136076
6.599028224,0.9998592605237157,131.97041366125012
6.601314816,0.9998539217129551,131.8236430679539
6.603600896,0.9998580599385498,131.67691060384527
6.605887488,0.9998713130700161,131.53007790147814
6.608173568,0.9998930841957875,131.38297399413798
6.61046016,0.9999217825689515,131.2355108530855
6.612746752,0.9999556022177954,131.0876518721998
6.615032832,0.9999924973702167,130.9392857496466
6.617319424,1.0000302455178025,130.79035483978828
6.619605504,1.0000661582333146,130.6409361207351
6.621892096,1.0000980651157128,130.4910564645413
6.624178176,1.0001241089958641,130.34072593619555
6.626464768,1.000142495148097,130.1901112560481
6.628750848,1.0001520040141767,130.03931316946728
6.63103744,1.0001521617056566,129.88848405796662
6.633324032,1.000142871810592,129.73770782776086
6.635610112,1.0001248559196785,129.58715289195874
6.637896704,1.0000990946714854,129.4369169583908
6.640182784,1.0000671040340732,129.28712094234442
6.642469376,1.0000312646700493,129.13784095152434
6.644755456,0.9999935749085015,128.9891013418799
6.647042048,0.9999565496328161,128.84092119592273
6.649328128,0.9999223370569518,128.69328965414735
6.65161472,0.9998933506143624,128.5461283605931
6.653901312,0.9998712467997377,128.39934311075015
6.656187392,0.9998576524487438,128.25284278393823
6.658473984,0.99985314055491,128.10648113797313
6.660760064,0.999858138532551,127.96013295158154
6.663046656,0.9998723486606974,127.8136848974248
6.665332736,0.9998949432917187,127.66696585623652
6.667619328,0.9999242376618774,127.51989499612033
6.66990592,0.9999587599506738,127.37236035310761
6.672192,0.9999959709504931,127.22433077870383
6.674478592,1.0000337073839909,127.07577900549153
6.676764672,1.0000695374983675,126.9267010715277
6.679051264,1.000101207996187,126.77713936389341
6.681337344,1.0001266553020627,126.62720732364134
6.683623936,1.0001443284278093,126.47694356049271
6.685910016,1.0001530532987828,126.32651363800257
6.688196608,1.0001523339602003,126.17605691938833
6.6904832,1.0001422050619397,126.0256808259104
6.69276928,1.0001233016764308,125.87553030494088
6.695055872,1.0000966190488956,125.7257347557007
6.697341952,1.0000642364158914,125.57636620930076
6.699628544,1.0000278927132689,125.42753644895019
6.701914624,0.9999899864182282,125.27925966018536
6.704201216,0.9999528485259388,125.13151651813942
6.706487808,0.9999189990827266,124.98434002011912
6.708773888,0.9998904327294025,124.83760229604152
6.71106048,0.9998690653493068,124.69127622719157
6.71334656,0.9998561718320735,124.54520372948207
6.715633152,0.9998524653441888,124.39925061541406
6.717919232,0.9998583226359753,124.25330131787784
6.720205824,0.9998734282053368,124.10722279476616
6.722491904,0.9998969800593909,123.96090565468465
6.724778496,0.9999270365199515,123.81417767961429
6.727065088,0.9999619837370645,123.66700194578927
6.729351168,0.9999994882111154,123.51932719828805
6.73163776,1.0000373086324899,123.37110177737172
6.73392384,1.0000730497601293,123.22237679503654
6.736210432,1.0001043793427387,123.07317069344992
6.738496512,1.0001291595445947,122.92357451787178
6.740783104,1.000146188788324,122.7736997006767
6.743069696,1.0001540662096446,122.62364725245953
6.745355776,1.000152382496737,122.47355738233263
6.747642368,1.0001412862072723,122.32359736331405
6.749928448,1.000121504348683,122.17386822436977
6.75221504,1.0000942506172157,122.02448555919347
6.75450112,1.0000610457067767,121.87557010786242
6.756787712,1.0000242795040768,121.72716380817924
6.759073792,0.9999862871806348,121.57933175489613
6.761360384,0.999949087047088,121.4320791007296
6.763646976,0.999915556771878,121.28532231534692
6.765933056,0.9998874476766716,121.13904302397994
6.768219648,0.9998666977426017,120.99312195258203
6.770505728,0.9998544981568418,120.84748713965664
6.77279232,0.9998518465182735,120.70196709222654
6.7750784,0.9998587167626297,120.5564027722327
6.777364992,0.9998747593465959,120.41072222405269
6.779651584,0.9998989125043171,120.26475496396172
6.781937664,0.9999298039226902,120.11838468950434
6.784224256,0.9999651935864231,119.97157690823221
6.786510336,1.0000030980502068,119.82423839887196
6.788796928,1.0000410166578129,119.67637279912046
6.791083008,1.000076515005624,119.52798205130769
6.7933696,1.0001073506023734,119.37913488870524
6.79565568,1.0001317887506191,119.22988199361032
6.797942272,1.0001480138982084,119.08037097956468
6.800228864,1.0001549384007864,118.93068541202706
6.802514944,1.0001524009059133,118.78099931208068
6.804801536,1.000140445454179,118.63144026035236
6.807087616,1.0001196926695768,118.48211333050433
6.809374208,1.0000914768427438,118.33317311276649
6.811660288,1.0000579500393911,118.18470643873712
6.81394688,1.0000207895778257,118.03675935852631
6.81623296,0.9999823911172703,117.88936271317228
6.818519552,0.9999455252374881,117.74253153543879
6.820806144,0.9999120884332746,117.59622382764317
6.823092224,0.9998844925915775,117.45040284394094
6.825378816,0.9998644249695964,117.3049222733229
6.827664896,0.9998530770422273,117.15969819382099
6.829951488,0.9998512462050894,117.01457881641787
6.832237568,0.9998591324352768,116.8694328652061
6.83452416,0.9998761052246737,116.72410794064866
6.836810752,0.9999010552385078,116.57852309092131
6.839096832,0.9999325580685814,116.43251268212951
6.841383424,0.9999685932594993,116.28606130889548
6.843669504,1.0000067293283617,116.1390575120586
6.845956096,1.000044728404448,115.99154124037462
6.848242176,1.000080052007365,115.8434928472817
6.850528768,1.000110538933088,115.69499075821845
6.852814848,1.0001342289966344,115.54610618121208
6.85510144,1.0001497405248632,115.39693271754741
6.857388032,1.0001558184286157,115.24763661350711
6.859674112,1.0001522979200825,115.09835137648807
6.861960704,1.000139341359079,114.94917278537908
6.864246784,1.000117876517271,114.80027755351018
6.866533376,1.0000889471050167,114.65177144379106
6.868819456,1.000054676516041,114.50370965788544
6.871106048,1.000017028286674,114.35621255426697
6.87339264,0.9999786354184762,114.20925657996904
6.87567872,0.9999417742554386,114.06289070542398
6.877965312,0.9999087265598661,113.91703226887408
6.880251392,0.9998816224679469,113.77165453195714
6.882537984,0.9998621877179554,113.6265931380816
6.884824064,0.9998518108592012,113.48179067357134
6.887110656,0.9998508605614727,113.33707092097774
6.889396736,0.9998596506880851,113.19231573436
6.891683328,0.9998775582296058,113.04739154083751
6.89396992,0.9999033739863026,112.90216065450487
6.896256,0.9999355713693472,112.75652626533747
6.898542592,0.9999719651128942,112.61038648129814
6.900828672,1.0000104621742214,112.46372878928732
6.903115264,1.0000484744430465,112.3165419152244
6.905401344,1.0000836094020988,112.16885831303794
6.907687936,1.0001136334515983,112.02068676156777
6.909974528,1.0001367121863458,111.87213769188911
6.912260608,1.0001513668499185,111.72334674164217
6.9145472,1.0001566713476362,111.574420861774
6.91683328,1.0001521500583364,111.42551638123341
6.919119872,1.0001382024748111,111.27674352356541
6.921405952,1.000115831300395,111.12824837527386
6.923692544,1.0000861923458784,110.98016637919423
