freq,mag,phase
6.0,1.0001754178070275,177.84596383107387
6.002287616,1.0000799755285,177.69550493992438
6.004575232,0.9999801237812814,177.54649613611215
6.006862848,0.9998817821684512,177.39896849496807
6.009150464,0.9997915203008615,177.2528171806686
6.011438592,0.9997147303776684,177.10794604188655
6.013726208,0.9996564672563489,176.96406633174072
6.016013824,0.9996204032562801,176.82095574322048
6.01830144,0.9996090138860554,176.67820035801336
6.020589056,0.9996227994244289,176.5354611563317
6.022876672,0.9996610555517573,176.39240875822492
6.025164288,0.9997213766175518,176.2486852433082
6.027451904,0.9997999579567819,176.10395592360922
6.029740032,0.999891674190386,175.9580351493571
6.032027648,0.9999910134473946,175.81078357782349
6.034315264,1.0000914690246008,175.66210819868863
6.03660288,1.0001866912143598,175.5120296420658
6.038890496,1.0002707225441771,175.3607086204263
6.041178112,1.0003382431486847,175.2082966886909
6.043465728,1.0003847261709735,175.05511178824545
6.045753344,1.0004074545996802,174.90142144922598
6.04804096,1.0004049113461078,174.74764452598237
6.050329088,1.0003771138882307,174.59412790564372
6.052616704,1.0003260336064903,174.441228082481
6.05490432,1.0002546791631348,174.28921916273046
6.057191936,1.0001674248540409,174.13842251540947
6.059479552,1.0000700798430056,173.98900187695259
6.061767168,0.9999686811589759,173.84105196753436
6.064054784,0.9998695585115785,173.69457352452292
6.0663424,0.9997791426495384,173.54955107118676
6.068630016,0.9997032355071022,173.40578124247418
6.070918144,0.9996465106237035,173.26298893529705
6.07320576,0.9996125389436776,173.12090696276763
6.075493376,0.9996036994724407,172.97914815653826
6.077780992,0.9996206100517262,172.83742107811108
6.080068608,0.9996618932018669,172.6952749630584
6.082356224,0.9997252092739837,172.55242499115045
6.08464384,0.9998065481538088,172.4085496025783
6.086931456,0.9999007439436904,172.26343113584184
6.089219584,1.000001778588737,172.1169445640831
6.0915072,1.0001033864656879,171.96902300708055
6.093794816,1.00019899854855,171.8196984683974
6.096082432,1.0002825891104132,171.6691147959063
6.098370048,1.0003488097071722,171.51746634614142
6.100657664,1.000393576215388,171.36504509901783
6.10294528,1.0004137852563122,171.2121814554979
6.105232896,1.0004082821422793,171.0592625014289
6.107520512,1.0003775317373917,170.90665206034294
6.10980864,1.0003232551675638,170.7546730452332
6.112096256,1.0002488794492168,170.60366544920572
6.114383872,1.0001591731777033,170.45384313453525
6.116671488,1.0000597340279975,170.30551728487546
6.118959104,0.9999569085937182,170.15863717213213
6.12124672,0.9998571851452246,170.01327079055358
6.123534336,0.9997667921019547,169.86935643404172
6.125821952,0.9996917398253168,169.7266599675139
6.128109568,0.9996366284864846,169.58495003171552
6.130397696,0.9996050181146217,169.4439201741335
6.132685312,0.9995989485974128,169.3032096923426
6.134972928,0.9996186661269071,169.16243339953323
6.137260544,0.9996632312874982,169.02121758720196
6.13954816,0.999729706878208,168.87924061025936
6.141835776,0.9998138747088036,168.73621454782548
6.144123392,0.9999103536198033,168.59191794998083
6.146411008,1.000013154609514,168.44620595184426
6.148699136,1.0001158242739383,168.2990159738109
6.150986752,1.0002117346128858,168.1504660111368
6.153274368,1.000294636704078,168.00059542512824
6.155561984,1.0003595698625043,167.84972801637812
6.1578496,1.000402300010272,167.69809020884247
6.160137216,1.0004198569947877,167.5460419235144
6.162424832,1.000411519903545,167.3939891729511
6.164712448,1.000377469920785,167.24226005758194
6.167000064,1.0003200275427881,167.09121350650696
6.169288192,1.0002426076075277,166.9412254511285
6.171575808,1.0001502297574267,166.7924747899103
6.173863424,1.0000488870773958,166.6451818765511
6.17615104,0.999944650366255,166.49939680322692
6.178438656,0.9998443239233968,166.3551722063383
6.180726272,0.9997542399227748,166.21234362030629
6.183013888,0.9996802266348151,166.0707601312079
6.185301504,0.9996267537835271,165.93014140692347
6.18758912,0.9995975581042547,165.79017787708847
6.189877248,0.9995943988537885,165.650451947893
6.192164864,0.9996172635913441,165.5106555186204
6.19445248,0.999665051312745,165.3703795783129
6.196740096,0.9997347022188087,165.22932085305447
6.199027712,0.9998215777849221,165.0871009926495
6.201315328,0.9999205047146003,164.94362526917297
6.203602944,1.0000251000984894,164.7986513321048
6.20589056,1.0001285204397685,164.65225814607456
6.208178688,1.0002245411292587,164.50440305216333
6.210466304,1.0003068092660723,164.35532104419013
6.21275392,1.000370223173087,164.2052196939634
6.215041536,1.0004108064096855,164.05434362141182
6.217329152,1.0004257882079837,163.90315448843228
6.219616768,1.0004142259372228,163.7519556411817
6.221904384,1.0003769243285052,163.6011460820849
6.224192,1.0003162611541425,163.45107151543925
6.226479616,1.0002358461422336,163.30206944393916
6.228767744,1.0001408728279413,163.15439236289026
6.23105536,1.0000373267296014,163.00816255249808
6.233342976,0.9999318474727149,162.86351969233792
6.235630592,0.9998310770145707,162.72038433398484
6.237918208,0.9997412962917788,162.5786812227208
6.240205824,0.9996684974433474,162.43822381819797
6.24249344,0.9996169377611213,162.29867454618417
6.244781056,0.9995901841173963,162.15977576782905
6.247068672,0.9995899316677594,162.02111216337843
6.2493568,0.9996162019229471,161.8822563730867
6.251644416,0.999667380997899,161.74290349461927
6.253932032,0.999740135603075,161.60270686312745
6.256219648,0.9998299866860773,161.46132016441322
6.258507264,0.9999311898749583,161.318619626599
6.26079488,1.000037348810482,161.1744542850039
6.263082496,1.0001416353708974,161.02877783978823
6.265370112,1.000237702137324,160.88168121141257
6.26765824,1.0003191485545904,160.73333022636956
6.269945856,1.0003809413675577,160.58397822870623
6.272233472,1.000419236185171,160.43393124556545
6.274521088,1.000431374372054,160.28354729975632
6.276808704,1.0004167307102125,160.1332315952868
6.27909632,1.0003760107786046,159.98332746050326
6.281383936,1.0003119094658928,159.83425466770115
6.283671552,1.0002284871398246,159.68627062035947
6.285959168,1.0001309391053017,159.53960048143173
6.288247296,1.0000255506645728,159.3945043386999
6.290534912,0.9999186730101258,159.25096917345678
6.292822528,0.9998174840567327,159.1089579941492
6.295110144,0.9997282885729228,158.96840749578024
6.29739776,0.9996566877444142,158.82904229737116
6.299685376,0.999607238532941,158.69060957167872
6.301972992,0.9995832759738801,158.55271658571604
6.304260608,0.9995861051806908,158.41506257667692
6.306548224,0.9996156626250925,158.27721023519533
6.308836352,0.9996701100988142,158.13875707056897
6.311123968,0.9997461645227079,157.99944151852395
6.313411584,0.9998387734175125,157.85889349259037
6.3156992,0.9999423743360424,157.71696485148848
6.317986816,1.0000500754491761,157.57354066701626
6.320274432,1.000155220329121,157.42863290638837
6.322562048,1.0002510900676913,157.28227587214246
6.324849664,1.0003316021140596,157.13464124651307
6.327137792,1.0003916673782065,156.9860645822931
6.329425408,1.0004275132911398,156.83681535502683
6.331713024,1.0004367772141385,156.6872858271766
6.33400064,1.000418730103255,156.53782169160434
6.336288256,1.0003745605067134,156.38884948767975
6.338575872,1.0003071114138735,156.2407321081777
6.340863488,1.0002205267073838,156.09379249695337
6.343151104,1.0001205065846088,155.94819938982874
6.34543872,1.0000131667844105,155.80416834567134
6.347726848,0.999905320955538,155.6617427775544
6.350014464,0.9998038076428922,155.52089206337408
6.35230208,0.999715041449969,155.38144659710318
6.354589696,0.9996448806893906,155.243190879049
6.356877312,0.9995976837685329,155.10585089158153
6.359164928,0.9995763752285584,154.96903793052994
6.361452544,0.9995824864064702,154.83238212334112
6.36374016,0.9996155370041471,154.69549411437546
6.366027776,0.9996734725147204,154.5579831494277
6.368315904,0.9997528998215672,154.419483335809
6.37060352,0.9998483604989554,154.27974654526747
6.372891136,0.9999541268856945,154.13861365164843
6.375178752,1.0000632780229526,153.99594143083576
6.377466368,1.0001692043963746,153.85172008952466
6.379753984,1.0002649297928699,153.7061253943599
6.3820416,1.0003443657947007,153.55926156448334
6.384329216,1.000402484753189,153.41142601000433
6.386617344,1.000435722835866,153.2629605075464
6.38890496,1.0004416880351417,153.11426140568145
6.391192576,1.000420173247689,152.965687951901
6.393480192,1.0003725760927649,152.81764459638376
6.395767808,1.0003017973978094,152.67051811037086
6.398055424,1.00021201876062,152.524585430668
6.40034304,1.000109395161113,152.38009625885957
6.402630656,1.0000001691665532,152.2371652633784
6.404918272,0.9998911971869081,152.0958643475395
6.4072064,0.9997894958922846,151.95612753702687
6.409494016,0.999701523237128,151.8178093118289
6.411781632,0.9996330013060851,151.68069750869458
6.414069248,0.9995880326021248,151.54444988785312
6.416356864,0.9995697453602977,151.40867069682093
6.41864448,0.9995791732418764,151.27300699093834
6.420932096,0.9996159294647826,151.13704793160954
6.423219712,0.9996774506899077,151.0004244965257
6.425507328,0.999759967894948,150.86278457264487
6.427795456,0.9998584095017242,150.723857652993
6.430083072,0.9999663226105797,150.58349498691135
6.432370688,1.0000769796360305,150.4415541151572
6.434658304,1.0001833424139466,150.29806056580247
6.43694592,1.000278714427831,150.15315921813195
6.439233536,1.0003569949674687,150.0070113592421
6.441521152,1.0004129953603875,149.85995375667355
6.443808768,1.0004434387084444,149.7122889760588
6.446096896,1.0004462362726771,149.56441868029736
6.448384512,1.0004213696363913,149.41671663410895
6.450672128,1.000369992707021,149.26961078185732
6.452959744,1.0002956747002993,149.12348402066726
6.45524736,1.0002028384359722,148.9785939871269
6.457534976,1.0000976313211818,148.8351786642957
6.459822592,0.9999866262291679,148.69332418842276
6.462110208,0.9998765916681515,148.5531599394031
6.464397824,0.9997750203667372,148.41456073428117
6.466685952,0.9996879490511422,148.2773932451328
6.468973568,0.9996211717897611,148.14134488016663
6.471261184,0.999578678971727,148.00616038330404
6.4735488,0.9995634481092008,147.87145167251217
6.475836416,0.9995761926109463,147.73680044067518
6.478124032,0.9996166617984119,147.60176736399103
6.480411648,0.9996818053319648,147.46601877153958
6.482699264,0.9997678767227249,147.32919184664337
6.48498688,0.9998689210413194,147.1910859609958
6.487275008,0.9999789609074535,147.05145856976662
6.489562624,1.0000910371782115,146.91024167909038
6.49185024,1.00019792485421,146.76748756979032
6.494137856,1.0002927090785803,146.6232725997851
6.496425472,1.000369548146829,146.47786572431727
6.498713088,1.0004234464476502,146.33151707171143
6.501000704,1.0004510758374843,146.18467075343966
6.50328832,1.0004504953804958,146.03761955020494
6.505576448,1.000421874289359,145.89080079671814
6.507864064,1.0003667888376526,145.7446603925129
6.51015168,1.0002889677300062,145.59948878513694
6.512439296,1.0001931679904434,145.45562141912828
6.514726912,1.0000854148429394,145.31327495691121
6.517014528,0.9999726290190698,145.17255712486474
6.519302144,0.9998618994528821,145.03348709528626
6.52158976,0.9997601692136218,144.896040465719
6.523877376,0.9996741602674971,144.75997828144315
6.526165504,0.9996092926275968,144.62507326997783
6.52845312,0.9995694372709666,144.49092265153612
6.530740736,0.999557406286416,144.35723905197284
6.533028352,0.9995740855176909,144.22353707313462
6.535315968,0.9996181567935692,144.08943105139582
6.537603584,0.9996868495021303,143.9545728820912
6.5398912,0.9997762487698219,143.81856273503587
6.542178816,0.9998802669007238,143.6812139601184
6.544466432,0.9999923932218504,143.54230891292596
6.54675456,1.000105729090509,143.4017911835209
6.549042176,1.000212774750881,143.2597617274327
6.551329792,1.0003070408385986,143.11625020242806
6.553617408,1.000382225209834,142.9715343489514
6.555905024,1.0004338922885714,142.82594114041578
6.55819264,1.000458349853491,142.67986403752198
6.560480256,1.0004543403556263,142.53361919866524
6.562767872,1.0004219089462512,142.38772851205547
6.565056,1.000363126945952,142.24250144210103
6.567343616,1.0002815829203018,142.09832762325712
6.569631232,1.0001826802727063,141.95546669150383
6.571918848,1.0000724435628723,141.81421599979274
6.574206464,0.9999580027503349,141.6746111241632
6.57649408,0.9998465661745636,141.53666934145645
6.578781696,0.9997452472389485,141.40034208642484
6.581069312,0.9996603548983634,141.26540264335614
6.583356928,0.9995974875235598,141.1315665769136
6.585645056,0.9995603857188556,140.99852975661486
6.587932672,0.999551805006929,140.86581385930322
6.590220288,0.9995721018283787,140.73309947189261
6.592507904,0.9996200385614725,140.5998970230685
6.59479552,0.9996926150378387,140.4658551530004
6.597083136,0.9997852728319825,140.33064186871763
6.599370752,0.99989212114873,140.19406113403528
6.601658368,1.0000064593011777,140.05585996642378
6.603945984,1.0001208512377209,139.9160789244147
6.606234112,1.0002281574611325,139.7746705480636
6.608521728,1.0003216099386327,139.63183831340626
6.610809344,1.000395191550125,139.48786038916072
6.61309696,1.0004441625115328,139.34302239228916
6.615384576,1.0004654615607838,139.19766988100895
6.617672192,1.0004578803312438,139.05225968914485
6.619959808,1.0004214348612441,138.90724520994488
6.622247424,1.0003588097095404,138.7629365323016
6.624535552,1.0002738394536805,138.61974271023752
6.626823168,1.0001717286307317,138.4779614227711
6.629110784,1.0000591023051668,138.33776291332399
6.6313984,0.9999431841731159,138.19927100200002
6.633686016,0.9998309772071013,138.06244257179878
6.635973632,0.9997300974051941,137.9272051567483
6.638261248,0.9996464533065994,137.79340084814376
6.640548864,0.9995857937383358,137.6606430981408
6.64283648,0.9995517944121183,137.52862134715667
6.645124608,0.9995466326943588,137.39692658835457
6.647412224,0.9995707433592946,137.26515742484273
6.64969984,0.9996227200096364,137.13283460987003
6.651987456,0.9996990512259014,136.99963254567734
6.654275072,0.9997951356784041,136.86521401746725
6.656562688,0.9999047439786658,136.72932222892538
6.658850304,1.0000209147323451,136.5918337180786
6.66113792,1.0001363682306446,136.45270631714996
6.663426048,1.0002436655217724,136.3119978507384
6.665713664,1.0003362305070425,136.16983806724548
6.66800128,1.000407894829506,136.02650924469626
6.670288896,1.0004542403741001,135.8823944783181
6.672576512,1.000472246501325,135.73782712473246
6.674864128,1.0004607475912224,135.5932364780629
6.677151744,1.000420526945466,135.4490695287834
6.67943936,1.0003538848543871,135.30572023498405
6.681726976,1.000265155567501,135.16350650163315
6.684015104,1.0001600932873995,135.02274653406838
6.68630272,1.0000452035918208,134.8836390367787
6.688590336,0.9999277740892449,134.7462153277968
6.690877952,0.9998150876125007,134.610525345931
6.693165568,0.9997145395048046,134.47641052675817
6.695453184,0.9996325527444518,134.34366237176636
6.6977408,0.9995742955103564,134.21200938859226
6.700028416,0.9995433484445525,134.08099266818292
6.702316032,0.9995418861151985,133.95030329860447
6.70460416,0.9995700958306802,133.81943773610013
6.706891776,0.9996260241562299,133.6879670161157
6.709179392,0.9997061765083785,133.55557739036408
6.711467008,0.9998056076468125,133.4219220999874
6.713754624,0.9999179072400872,133.28674361352898
6.71604224,1.0000360358968436,133.14992968279626
6.718329856,1.0001523829271892,133.0114380026677
6.720617472,1.0002596281026401,132.87137482145027
6.7229056,1.000351018430842,132.72985310558818
6.725193216,1.0004206093839807,132.58723503374875
6.727480832,1.000464127448604,132.4438207057617
6.729768448,1.0004786105438037,132.29999338311535
6.732056064,1.0004632056643925,132.1562518382799
6.73434368,1.0004186845889071,132.01292785334456
6.736631296,1.0003482450165573,131.87049209696357
6.738918912,1.0002559136053588,131.72926553891426
6.741206528,1.0001476969419585,131.58952303895634
6.743494656,1.000030475321938,131.4514738066174
6.745782272,0.9999116000781815,131.31518292619305
6.748069888,0.9997988068515931,131.18060008952082
6.750357504,0.9996987853560005,131.0476095956658
6.75264512,0.9996184447800125,130.91594017820665
6.754932736,0.9995626773284658,130.78531774322866
6.757220352,0.999535209878806,130.65536354771982
6.759507968,0.9995375447658132,130.52557892828816
6.761795584,0.9995697669754116,130.3956287217154
6.764083712,0.9996297880230608,130.2650218560875
6.766371328,0.99971387238289,130.13340340085995
6.768658944,0.9998167581146299,130.00045723939664
6.77094656,0.9999316817100874,129.86596581405175
6.773234176,1.0000515191038843,129.7297981529401
6.775521792,1.0001687426695185,129.59195055235844
6.777809408,1.0002758738720767,129.45248812210744
6.780097024,1.0003659215270593,129.31162487524958
6.782385152,1.0004333277270003,129.16967383539327
6.784672768,1.000473617372827,129.02694896707035
6.786960384,1.0004845326188088,128.8839064791908
6.789248,1.0004650548860012,128.74090988805148
6.791535616,1.0004164723856555,128.59845395410227
6.793823232,1.0003418053732982,128.45697338316822
6.796110848,1.0002459644314776,128.3167114471164
6.798398464,1.0001346797097457,128.17801032740283
6.80068608,1.0000152291280964,128.04100070219965
6.802974208,0.9998951058484538,127.90580696659104
6.805261824,0.9997819290744011,127.77230068499912
6.80754944,0.9996830516242542,127.64039184012151
6.809837056,0.9996044619423045,127.509818103331
6.812124672,0.9995514746385592,127.38022683969345
6.814412288,0.9995274571329406,127.25125235067354
6.816699904,0.9995337530898544,127.12242379428506
6.81898752,0.9995701747845,126.99335319941436
6.821275136,0.999634283944545,126.86355554483531
6.823563264,0.9997223556018078,126.73267984861037
6.82585088,0.9998285582771339,126.60045277149406
6.828138496,0.9999461273178869,126.46661412342704
6.830426112,1.000067691074571,126.33109733360797
6.832713728,1.0001855587213069,126.19382892263762
6.835001344,1.0002922498354123,126.05500173872443
6.83728896,1.0003808297202177,125.91475085427872
6.839576576,1.0004457658188142,125.77344298496317
6.841864704,1.000483083697092,125.63141269611597
6.84415232,1.0004900176683624,125.48907030516641
6.846439936,1.0004663717140059,125.34691382457663
6.848727552,1.0004134468517312,125.20532702798727
6.851015168,1.0003348359615598,125.06472070568849
6.853302784,1.0002351029225869,124.92542046748171
6.8555904,1.0001209733820366,124.78775803834867
6.857878016,0.9999992729538668,124.65180568958358
6.860165632,0.9998780268901993,124.5176499626435
6.86245376,0.9997648966145259,124.38527974664183
6.864741376,0.9996669105028649,124.25444008872866
6.867028992,0.9995904526916743,124.12493102343504
6.869316608,0.999540417233745,123.9963467640492
6.871604224,0.9995199980189647,123.86834765750412
6.87389184,0.9995303742512114,123.74043647643913
6.876179456,0.9995710988960518,123.61219795428218
6.878467072,0.9996396256303407,123.48320867587634
6.880754688,0.9997314882363327,123.3530823012925
6.883042816,0.9998410145382877,123.22151889363322
6.885330432,0.9999611256474749,123.08831910703164
6.887618048,1.0000843084978588,122.95338289293502
6.889905664,1.0002027072871824,122.81672521908018
6.89219328,1.0003088197350465,122.67844510374128
6.894480896,1.0003957594474122,122.53882071367617
6.896768512,1.0004581940810788,122.39813666039015
6.899056128,1.0004919945395756,122.25676224890644
6.901344256,1.0004950055121034,122.11516024727075
6.903631872,1.0004670569245253,121.97379469705099
6.905919488,1.0004097852077996,121.83303837288753
6.908207104,1.0003269705923286,121.69335956366811
6.91049472,1.0002237531094655,121.55505011832442
6.912782336,1.0001065155658806,121.41835585637831
6.915069952,0.9999828637341758,121.28347444887629
6.917357568,0.999860626441865,121.15038761751703
6.919645184,0.9997474031833125,121.01908543151417
6.921933312,0.999650690611153,120.8893387057248
6.924220928,0.9995765061159799,120.76084257318976
