freq,mag,phase
6.0,1.000851107973168,-38.61769678603048
6.014034944,1.0011540585405754,-39.175779210274634
6.0280704,1.001407302321587,-39.737493541253876
6.042105344,1.0015987356887184,-40.30208672537358
6.056140288,1.0017204446591108,-40.868837188995236
6.070175232,1.0017664969622566,-41.436826411239565
6.084210688,1.0017353413791334,-42.0051523612341
6.098245632,1.0016276873060768,-42.572878956434224
6.112280576,1.001448516313175,-43.139142790567824
6.126316032,1.0012051326905964,-43.70311759397332
6.140350976,1.0009088279029563,-44.264101675804376
6.15438592,1.0005718381129498,-44.82153667548661
6.168420864,1.0002092921053343,-45.37496280390078
6.18245632,0.9998369659214282,-45.924208632268694
6.196491264,0.999471070325732,-46.46918035324439
6.210526208,0.9991278476941332,-47.010171788893146
6.224561152,0.9988222534762545,-47.54742197423241
6.238596608,0.9985681705933374,-48.08151820315617
6.252631552,0.9983766455646075,-48.61318187440594
6.266666496,0.9982562350633146,-49.143125331816464
6.280701952,0.9982123386268572,-49.67230469549764
6.294736896,0.9982469867067052,-50.20169488172522
6.30877184,0.9983587753559439,-50.732153272727246
6.322806784,0.9985430406529064,-51.26465610705854
6.33684224,0.9987914114374429,-51.79998221264534
6.350877184,0.9990933227809811,-52.33891848453036
6.364912128,0.9994353697319349,-52.881942264829235
6.378947584,0.9998027100955018,-53.429509487311684
6.392982528,1.000179071941507,-53.981807569124975
6.407017472,1.0005481364465556,-54.538860540234985
6.421052416,1.0008933729630578,-55.10043018111309
6.435087872,1.0011998760545218,-55.66620662546628
6.449122816,1.0014541383609754,-56.23558961848547
6.46315776,1.0016449035998145,-56.807922811377935
6.477193216,1.0017635448953175,-57.382345487042606
6.49122816,1.001805335492967,-57.95800981400896
6.505263104,1.001767893958047,-58.53397800279091
6.519298048,1.0016526003423967,-59.10926945160295
6.533333504,1.001464840030501,-59.68299597669725
6.547368448,1.0012124028228815,-60.25435250986788
6.561403392,1.0009062731275424,-60.822592448949074
6.575438848,1.0005600009807305,-61.38714755772487
6.589473792,1.0001884544317714,-61.94763502754077
6.603508736,0.9998079272023008,-62.50386912384465
6.61754368,0.9994349611247738,-63.05577779954681
6.631579136,0.9990862540702717,-63.60354952915211
6.64561408,0.9987770443255795,-64.14759395498015
6.659649024,0.9985212394923152,-64.68844294397466
6.673683968,0.9983297024291448,-65.2268348185781
6.687719424,0.9982113394963444,-65.76359857884303
6.701754368,0.9981713194759306,-66.2996388478236
6.715789312,0.9982117616376281,-66.83586274492873
6.729824768,0.9983306689496589,-67.37331817691317
6.743859712,0.998523116206147,-67.91289014928587
6.757894656,0.9987807612275038,-68.45538004385595
6.7719296,0.9990921856958976,-69.00163604189129
6.785965056,0.9994440783965945,-69.55205403113459
6.8,0.9998205157050922,-70.10720066273049
6.814034944,1.00020546350274,-70.66714676851707
6.8280704,1.0005817982200151,-71.23193343852233
6.842105344,1.0009331732647084,-71.80135338920387
6.856140288,1.0012442577625922,-72.37503389238314
6.870175232,1.00150096392636,-72.95240765462513
6.884210688,1.0016923140412548,-73.53271953563083
6.898245632,1.001809793752652,-74.11513386008045
6.912280576,1.0018481116985718,-74.69876784351531
6.926316032,1.0018055056075954,-75.28266864983456
6.940350976,1.0016838253487255,-75.86580808452177
6.95438592,1.0014880587826447,-76.4473408803695
6.968420864,1.0012267509205894,-77.0263793572295
6.98245632,1.00091115309352,-77.60222810589849
6.996491264,1.000555060334826,-78.1743205766379
7.010526208,1.0001738178197381,-78.74220292816099
7.024561152,0.999784252583173,-79.30571533663878
7.038596608,0.9994034076092657,-79.86482174058726
7.052631552,0.9990479957996954,-80.41971449885264
7.066666496,0.9987335773056766,-80.9707965764842
7.080701952,0.9984742421202119,-81.51867193069133
7.094736896,0.9982813064553511,-82.0640660737154
7.10877184,0.9981635414672838,-82.60778085484526
7.122806784,0.9981262132707389,-83.15079161757598
7.13684224,0.9981709363684906,-83.69406741200841
7.150877184,0.9982960880584474,-84.23865180628057
7.164912128,0.9984962371615004,-84.78543314521133
7.178947584,0.9987625962991479,-85.33525507747262
7.192982528,0.9990836910593022,-85.88889021039913
7.207017472,0.9994454081779365,-86.44689576397562
7.221052416,0.9998318744133812,-87.00970122312604
7.235087872,1.0002263361475594,-87.577399676023
7.249122816,1.0006112658803208,-88.1500862019916
7.26315776,1.0009700919565765,-88.72751736519109
7.277193216,1.0012870184906821,-89.30930640724078
7.29122816,1.0015479522151318,-89.89479049687395
7.305263104,1.0017416431357324,-90.48330775723919
7.319298048,1.0018592243924442,-91.07394904323556
7.333333504,1.0018958604988142,-91.66575288991815
7.347368448,1.001849578120032,-92.25782011596812
7.361403392,1.0017221111183998,-92.84912345964008
7.375438848,1.0015190920483446,-93.43867606053111
7.389473792,1.001249217128689,-94.0257286274411
7.403508736,1.0009240745777748,-94.60943536174187
7.41754368,1.0005577036935516,-95.18925115491737
7.431579136,1.0001662819323252,-95.76478779284558
7.44561408,0.9997666978290718,-96.33582492841485
7.459649024,0.9993764221198588,-96.90233865810232
7.473683968,0.999012671632363,-97.46455201233985
7.487719424,0.9986915947362807,-98.02288005957824
7.501754368,0.9984271052412103,-98.57790495594934
7.515789312,0.998231021638233,-99.13037884880103
7.529824768,0.9981121214236338,-99.68118728052261
7.543859712,0.9980758170776441,-100.23131388985786
7.557894656,0.9981236661513248,-100.7817125124867
7.5719296,0.9982540624533484,-101.3334345284255
7.585965056,0.9984611718459245,-101.8874732490249
7.6,0.9987359307166372,-102.44463412638186
7.614034944,0.999066618554927,-103.0057252814458
7.6280704,0.9994386991002138,-103.5712647321706
7.642105344,0.9998359007558507,-104.14173676631785
7.656140288,1.0002409570171091,-104.71731021763974
7.670175232,1.0006360146010889,-105.29791123577925
7.684210688,1.0010039252638565,-105.8834208950247
7.698245632,1.0013284948040857,-106.47331317914863
7.712280576,1.0015955213016232,-107.06704753220781
7.726316032,1.001793176170436,-107.66383513249465
7.740350976,1.0019128553422487,-108.26281180391156
7.75438592,1.0019491039042845,-108.86300892124405
7.768420864,1.0019002541649527,-109.46339234126052
7.78245632,1.0017683121891148,-110.06297161614246
7.796491264,1.0015587196636886,-110.66078381480483
7.810526208,1.001280515798471,-111.2559571724414
7.824561152,1.0009458572935792,-111.84772678797985
7.838596608,1.0005689526851023,-112.4355021386238
7.852631552,1.0001663218485817,-113.0188104367696
7.866666496,0.9997555787912921,-113.59752303696237
7.880701952,0.9993545489150197,-114.17159018869434
7.894736896,0.9989808110710224,-114.7412345414242
7.90877184,0.9986509301861157,-115.30686916626603
7.922806784,0.9983793362002479,-115.86912819798208
7.93684224,0.9981781830502225,-116.42872691617461
7.950877184,0.9980563515623144,-116.98661923753794
7.964912128,0.9980194104682334,-117.543802437866
7.978947584,0.9980691388119951,-118.10127079256198
7.992982528,0.9982035824184269,-118.66011039748898
8.007017472,0.9984168169800802,-119.22129456580043
8.021052416,0.9986998188267354,-119.78569540657415
8.035087872,0.9990402243541404,-120.35411837543896
8.049122816,0.9994231614544786,-120.92714480953688
8.06315776,0.9998319573770182,-121.5051990939687
8.077193216,1.0002488901384357,-122.0884830242319
8.09122816,1.0006556403398625,-122.6769828237373
8.105263104,1.0010343890956317,-123.27045615051327
8.119298048,1.0013686001934206,-123.8684876977193
8.133333504,1.001643684040583,-124.47043637216473
8.147368448,1.0018475513654812,-125.07553557518496
8.161403392,1.0019711144355616,-125.68288386779065
8.175438848,1.0020089330987296,-126.29145638932484
8.189473792,1.0019591068747133,-126.90025301023788
8.203508736,1.0018237355124073,-127.50820138048573
8.21754368,1.0016083107495566,-128.1143575268759
8.231579136,1.001322239063008,-128.7177748328036
8.24561408,1.0009777467657437,-129.31768793413545
8.259649024,1.0005898036357963,-129.9134267657138
8.273683968,1.0001751132220207,-130.50466919833758
8.287719424,0.9997516930313302,-131.0910798636917
8.301754368,0.9993381343213168,-131.67271567511509
8.315789312,0.9989525139933987,-132.24980116036028
8.329824768,0.9986117334828548,-132.82270515216408
8.343859712,0.9983309071538307,-133.3921037990636
8.357894656,0.9981224409760227,-133.95877742547216
8.3719296,0.9979956167040769,-134.52367196291985
8.385965056,0.9979562308110969,-135.08776794780485
8.4,0.9980061751915259,-135.6521368948577
8.414034944,0.998143413322859,-136.21788960768257
8.4280704,0.9983621019211337,-136.7860275358297
8.442105344,0.9986529132522001,-137.3574385793993
8.456140288,0.9990031472936725,-137.93299673361827
8.470175232,0.9993975908657591,-138.51327905970007
8.484210688,0.9998191291606546,-139.09869959018943
8.498245632,1.0002493639802894,-139.6895226561809
8.512280576,1.0006695162715114,-140.28570535870554
8.526316032,1.0010612388362967,-140.88702278501907
8.540350976,1.0014074668461397,-141.49303706014607
8.55438592,1.0016929254781988,-142.10307953521055
8.568420864,1.0019052069677368,-142.71635464944708
8.58245632,1.0020349003162001,-143.3319891790589
8.596491264,1.0020761422575608,-143.94894770212792
8.610526208,1.002026918385911,-144.56609369637593
8.624561152,1.0018892605395626,-145.18239522341847
8.638596096,1.0016689060535413,-145.79684376016203
8.652632064,1.0013752608328406,-146.40848334222207
8.666667008,1.0010208144144537,-147.01653622288154
8.680701952,1.0006210395811634,-147.6202971390187
8.694736896,1.0001931020028716,-148.21933572111135
8.70877184,0.9997555585826471,-148.8134475917412
8.722806784,0.9993275566431625,-149.40257635812495
8.736841728,0.9989277802687584,-149.98696034641785
8.750877696,0.9985737780480419,-150.56705144414437
8.76491264,0.9982812445433994,-151.14344563148367
8.778947584,0.9980630665860926,-151.71696254842493
8.792982528,0.9979289178302252,-152.28856644619583
8.807017472,0.9978850397558271,-152.8593251798072
8.821052416,0.9979334309927037,-153.43031771302887
8.83508736,0.9980723020628797,-154.0026415542103
8.849122304,0.9982956514168332,-154.57740587529193
8.863158272,0.9985939821930727,-155.15552692865845
8.877193216,0.9989542918386956,-155.73784431903286
8.89122816,0.9993610769527471,-156.3250434242438
8.905263104,0.999796573476601,-156.9175175739598
8.919298048,1.0002418850367143,-157.51552275149956
8.933332992,1.0006774896548125,-158.11908174461144
8.947367936,1.0010846507928308,-158.72795328673956
8.961403904,1.0014453348962549,-159.3416609739473
8.975438848,1.001743874948913,-159.9596101339423
8.989473792,1.0019671073315313,-160.58093278216913
9.003508736,1.002105228905195,-161.20467834169236
9.01754368,1.0021520573820308,-161.8297926015946
9.031578624,1.0021053983298125,-162.4551973969206
9.045613568,1.0019668405330047,-163.0797373560579
9.059649536,1.0017422675521557,-163.70240285961913
9.07368448,1.0014412214111208,-164.3221832703533
9.087719424,1.0010766788318275,-164.9382355245066
9.101754368,1.00066413208646,-165.54987018984596
9.115789312,1.0002215232550924,-166.15665502565545
9.129824256,0.9997679261384005,-166.75828642878278
9.1438592,0.999323265644501,-167.35475804266324
9.157895168,0.9989067408620292,-167.94622381897298
9.171930112,0.9985368006057523,-168.5331929451416
9.185965056,0.9982296547827302,-169.11629836702565
9.2,0.9979990203938941,-169.6963657891979
9.214034944,0.9978549525555839,-170.2743668861188
9.228069888,0.9978043526041862,-170.851383634464
9.242104832,0.9978493777401732,-171.4285736127694
9.2561408,0.9979883197939928,-172.00705120892002
9.270175744,0.998215546953317,-172.58799024260094
9.284210688,0.9985211446076939,-173.1723183281281
9.298245632,0.9988920051044314,-173.760959605972
9.312280576,0.9993119632828412,-174.35455814377926
9.32631552,0.9997629078096572,-174.95361332599384
9.340350464,1.0002252391297926,-175.5584006929723
9.354386432,1.000678843678641,-176.16892977379504
9.368421376,1.0011040065646173,-176.78496278189658
9.38245632,1.001482012665697,-177.40606009572056
9.396491264,1.001796626630622,-178.03152494009328
9.410526208,1.0020336782755779,-178.6605812697623
9.424561152,1.0021830221314156,-179.29217486978382
9.438596096,1.0022378153014202,-179.92524806202903
9.452632064,1.0021954376164013,179.4413155949366
9.466667008,1.0020574203086043,178.8087063958588
9.480701952,1.00182945704632,178.1780481286625
9.494736896,1.0015214345255588,177.55030673128326
9.50877184,1.0011461190651705,176.92641908347593
9.522806784,1.0007199331567826,176.3070837647155
9.536841728,1.0002609700147589,175.69279304887598
9.550877696,0.9997893439199892,175.08387300355696
9.56491264,0.9993251912724467,174.48036270778178
9.578947584,0.9988891145117845,173.88205970571082
9.592982528,0.9985001284287881,173.28852718442403
9.607017472,0.9981752916394103,172.6991134911522
9.621052416,0.9979291180735561,172.11294994052986
9.63508736,0.9977724956388063,171.5290191616305
9.649122304,0.9977124579072245,170.94623280042774
9.663158272,0.9977521551630171,170.36337127791197
9.677193216,0.9978898301745321,169.77926399225572
9.69122816,0.998120014492143,169.19276912054133
9.705263104,0.9984326435026352,168.60280126270322
9.719298048,0.9988145011632098,168.00844197767438
9.733332992,0.9992489819923173,167.40898396972545
9.747367936,0.9997172127287696,166.80388237534348
9.761403904,1.000199060860392,166.19284667151368
9.775438848,1.0006733014028162,165.57586517728734
9.789473792,1.0011197171442443,164.9531520281027
9.803508736,1.001518533192816,164.32515119748498
9.81754368,1.0018523386960916,163.69250009490867
9.831578624,1.0021065691525088,163.05611467036704
9.845613568,1.0022701314544231,162.41697423710997
9.859649536,1.0023353718649062,161.7762212313555
9.87368448,1.0022995000163422,161.13505253246694
9.887719424,1.002163571712421,160.49463527393917
9.901754368,1.0019331926743549,159.85617426414674
9.915789312,1.0016179937123868,159.2206959978116
9.929824256,1.0012316018758265,158.58918877307903
9.9438592,1.0007901780891573,157.96240493876618
9.957895168,1.0003129731319995,157.34090815177782
9.971930112,0.9998206307020586,156.72499127670176
9.985965056,0.9993342526596873,156.11473659951713
10.0,0.9988751404754642,155.51001079877992
10.014034944,0.9984635289391508,154.91032387031228
10.028069888,0.9981174883131809,154.31501206603906
10.042104832,0.9978521777348403,153.72325168660328
10.0561408,0.9976795937188782,153.13396658137762
10.070175744,0.9976076663946727,152.54598093841045
10.084210688,0.9976396051375394,151.9580732557316
10.098245632,0.9977745498243974,151.3690202579253
10.112280576,0.998006873900263,150.7775660769035
10.12631552,0.9983266311837228,150.18262845201733
10.140350464,0.9987202608886091,149.58322849866866
10.154386432,0.9991706200702438,148.9785467404364
10.168421376,0.9996583960974552,148.36804574781527
10.18245632,1.0001624200637667,147.75138913936516
10.196491264,1.00066084296425,147.12851895208425
10.210526208,1.001131957139276,146.49962326244608
10.224561152,1.001555218281631,145.86515961979921
10.238596096,1.001912221568032,145.22581213532604
10.252632064,1.0021872928093625,144.58245274922575
10.266667008,1.0023682909895375,143.93615083017747
10.280701952,1.0024470267202648,143.28803918096293
10.294736896,1.002419854139638,142.63938451026627
10.30877184,1.002287542007856,141.99143713852584
10.322806784,1.0020554131178179,141.34540623998484
10.336841728,1.0017333518945137,140.70248003345895
10.350877696,1.0013345924673929,140.06358297888158
10.36491264,1.000876540098889,139.42959863422976
10.378947584,1.0003786168223432,138.80114078036095
10.392982528,0.9998624089959541,138.17853838629975
10.407017472,0.9993501869374078,137.56193305846168
10.421052416,0.9988641436647681,136.9511389661119
10.43508736,0.9984256782313399,136.34575823896898
10.449122304,0.9980541986059669,135.74507859356893
10.463158272,0.9977659995384989,135.14824975245236
10.477193216,0.9975738241873593,134.55415646744677
10.49122816,0.9974867815884423,133.9616489487617
10.505263104,0.9975086958077894,133.36936424814436
10.519298048,0.9976391873790498,132.77602751135618
10.533332992,0.9978728212753263,132.18036442297498
10.547367936,0.9981999107639358,131.58117352822637
10.561403904,0.9986063021708075,130.97740677901575
10.575438848,0.9990745811385198,130.36822403141528
10.589473792,0.9995845539483181,129.752984698211
10.603508736,1.0001142029956702,129.13130671263278
10.61754368,1.0006406097345708,128.50312646963147
10.631578624,1.0011408316517076,127.86860927315854
10.645613568,1.0015931925169854,127.22817843396635
10.659649536,1.0019777922279303,126.58252179136888
10.67368448,1.0022779499759642,125.9325830728683
10.687719424,1.0024802966910265,125.27938560156718
10.701754368,1.002575761780497,124.62420787073825
10.715789312,1.002559806684015,123.96830847690828
10.729824256,1.0024328941387337,123.31301595102272
10.7438592,1.0021998492684057,122.65963522920391
10.757895168,1.001870475003492,122.00935162359866
10.771930112,1.0014585297988545,121.36331799339696
10.785965056,1.0009815144758696,120.72234954540698
10.8,1.000459932683213,120.08712713464762
10.814034944,0.9999160973717942,119.45813133321448
10.828069888,0.9993736631229215,118.83544708201273
10.842104832,0.9988560161704482,118.21899119545448
10.8561408,0.998385999005169,117.6083112820381
10.870175744,0.9979841016819168,117.0027664509859
10.884210688,0.9976681793793772,116.40137898210988
10.898245632,0.9974524655324204,115.80311022398745
10.912280576,0.9973466575277934,115.20666525193161
10.92631552,0.9973558376045766,114.61067751660798
10.940350464,0.9974801337728956,114.01377672149252
10.954386432,0.9977145123776278,113.41457947188138
10.968421376,0.9980491021561233,112.8118297688523
10.98245632,0.9984696448923646,112.20441684567923
10.996491264,0.9989582878912246,111.59136364325062
11.010526208,0.9994939327967419,110.97201778692288
11.024561152,1.0000533928526565,110.34593101330603
11.038596096,1.000612506559555,109.71296959946937
11.052632064,1.0011470489613097,109.07326193690373
11.066667008,1.0016337273496443,108.42725380749734
11.080701952,1.0020513051984814,107.7756373068204
11.094736896,1.002381522105302,107.11934935547008
11.10877184,1.0026097559793548,106.4595013601643
11.122806784,1.0027256069262798,105.79737942999066
11.136841728,1.00272391725883,105.13434271386393
11.150877696,1.0026040890519654,104.47175572130209
11.16491264,1.0023708114304244,103.81106572725773
11.178947584,1.0020336905782057,103.15352840514302
11.192982528,1.001606750249484,102.50031196750102
11.207017472,1.0011081433041373,101.85242027731232
11.221052416,1.0005591979704829,101.21058492888855
11.23508736,0.9999832845790236,100.57527962898841
11.249122304,0.999405178264105,99.94673856884046
11.263158272,0.9988502688630544,99.32484271119657
11.277193216,0.9983426119471832,98.70917777936688
11.29122816,0.9979045411708707,98.09911374502046
11.305263104,0.9975555990735194,97.49365529065395
11.319298048,0.9973112217190373,96.89166816908839
11.333332992,0.9971826047879062,96.29185068707905
11.347367936,0.9971760621011971,95.69274272966916
11.361403904,0.9972921643501563,95.09286887640519
11.375438848,0.997526409589449,94.4908016139718
11.389473792,0.9978692436285725,93.88514147841106
11.403508736,0.9983060224104803,93.27465780692154
11.41754368,0.9988181692460271,92.65833347377328
11.431578624,0.9993836057214893,92.03539600532127
11.445613568,0.9999781452433694,91.40534024612475
11.459649536,1.0005758899627262,90.7679485926676
11.47368448,1.0011510220800945,90.1233842497524
11.487719424,1.0016786762892227,89.47202122193758
11.501754368,1.0021356578461853,88.81456849143332
11.515789312,1.0025018400318562,88.15198246902521
11.529824256,1.0027612131996715,87.4854273929402
11.5438592,1.0029021396607813,86.81625129739122
11.557895168,1.0029179513700857,86.14590970452413
11.571930112,1.002807395206036,85.47586515905665
11.585965056,1.0025745351626596,84.80761886806678
11.6,1.0022289097292247,84.14255648621696
