freq,mag,phase
6.0,1.0000017199828055,24.521551327598363
6.042105344,1.0000012865619439,23.42890515798187
6.084210688,1.0000009287959706,22.33630218294985
6.126316032,1.0000006650115685,21.243626945482063
6.168420864,1.0000002774693215,20.150902156138233
6.210526208,1.0000000164416039,19.058190839374294
6.252631552,0.9999997733368488,17.96543186570832
6.294736896,0.9999995572202157,16.872665772484442
6.33684224,0.9999993750049506,15.779856985177618
6.378947584,0.9999991496381256,14.68701026909348
6.421052416,0.9999990396926703,13.594116579832365
6.46315776,0.9999988954964281,12.50121331301645
6.505263104,0.9999988692598925,11.408284168210432
6.547368448,0.9999988451394332,10.315301835561536
6.589473792,0.9999989578021045,9.222296365879304
6.631579136,0.9999989588312064,8.129237600290814
6.673683968,0.999999102039656,7.036174511373612
6.715789312,0.9999992704990617,5.943061630703671
6.757894656,0.9999994814144519,4.849951107631579
6.8,0.9999997840171239,3.75673385135628
6.842105344,0.9999999612017866,2.6635446870996655
6.884210688,1.0000002059392192,1.5702803265459129
6.926316032,1.0000005636097504,0.4770206376483685
6.968420864,1.000000875317746,-0.6163378424602
7.010526208,1.000001210270982,-1.709639539708179
7.052631552,1.0000015914783746,-2.8030727491271827
7.094736896,1.000001891525153,-3.89649909751378
7.13684224,1.0000022918487688,-4.989956257711142
7.178947584,1.000002616052868,-6.0834623237681145
7.221052416,1.0000030421126087,-7.1770009000596255
7.26315776,1.0000032865613178,-8.270600483099335
7.305263104,1.0000035205332989,-9.364208953274897
7.347368448,1.0000039371450866,-10.457843590850889
7.389473792,1.00000409717254,-11.551528120040741
7.431579136,1.0000043601618813,-12.645299709566675
7.473683968,1.0000044133052426,-13.739027667684665
7.515789312,1.0000045319494542,-14.832843467447637
7.557894656,1.0000047765079005,-15.926676581712647
7.6,1.0000047287745615,-17.020549569611212
7.642105344,1.000004732137134,-18.114473639156998
7.684210688,1.000004582451296,-19.20839871601968
7.726316032,1.0000045898828762,-20.302386558291097
7.768420864,1.0000043372219527,-21.396417634459834
7.810526208,1.0000041341448123,-22.490472167750063
7.852631552,1.0000039834370182,-23.584544281602028
7.894736896,1.000003725410497,-24.678666594199516
7.93684224,1.0000033444547765,-25.77284541887784
7.978947584,1.0000030959641186,-26.867041595142954
8.021052416,1.0000027995970682,-27.961253830328133
8.06315776,1.000002459245209,-29.055514788272166
8.105263104,1.000002037491913,-30.14982816997843
8.147368448,1.0000015848044335,-31.244152783326047
8.189473792,1.000001246231841,-32.33852430167306
8.231579136,1.0000008378555918,-33.432919738128625
8.273683968,1.0000004179621003,-34.52735108298906
8.315789312,1.000000073011024,-35.62182443871721
8.357894656,0.9999996325426785,-36.716364315406864
8.4,0.9999994657649575,-37.81089873015973
8.442105344,0.9999991517785363,-38.905450714206935
8.484210688,0.9999989712234091,-40.00007366863323
8.526316032,0.9999986732427812,-41.094752869551755
8.568420864,0.9999985655300613,-42.189433627949036
8.610526208,0.9999983592546671,-43.284161161563155
8.652632064,0.9999983378864801,-44.3789174097332
8.694736896,0.9999981689029203,-45.47371991886885
8.736841728,0.999998121151356,-46.56857483911116
8.778947584,0.9999982381498769,-47.66346845877187
8.821052416,0.99999844044025,-48.75837508511741
8.863158272,0.9999985742219725,-49.853332329077084
8.905263104,0.9999988360905755,-50.94833733564266
8.947367936,0.9999990400058725,-52.04337149843686
8.989473792,0.9999993668577009,-53.13843997138414
9.031578624,0.999999708165328,-54.23359546863454
9.07368448,1.00000001625677,-55.32875521590609
9.115789312,1.0000004839898333,-56.423974477392356
9.157895168,1.000000842398736,-57.51920420781175
9.2,1.000001253137011,-58.61451498966239
9.242104832,1.0000016981038111,-59.709841754227334
9.284210688,1.000002148882539,-60.80522454633099
9.32631552,1.0000025116733788,-61.90064427133659
9.368421376,1.0000030764123946,-62.99611193278691
9.410526208,1.0000033199352292,-64.09163350386326
9.452632064,1.0000037270425663,-65.18719121065388
9.494736896,1.0000042009463601,-66.28276984538576
9.536841728,1.0000044891422288,-67.3784085980471
9.578947584,1.0000047299744705,-68.4740981632805
9.621052416,1.0000049711789494,-69.56983025432838
9.663158272,1.000005174921571,-70.66558711887349
9.705263104,1.0000053651451584,-71.76138986527542
9.747367936,1.0000054211353928,-72.85723233441833
9.789473792,1.0000054558742266,-73.9531456881247
9.831578624,1.0000055173798894,-75.0490623986927
9.87368448,1.00000542527934,-76.14503035825177
9.915789312,1.0000052180996006,-77.24104098133827
9.957895168,1.0000050577436483,-78.3371126442448
10.0,1.000004866324973,-79.433191647072
10.042104832,1.0000046396943645,-80.52931605252745
10.084210688,1.0000042790606394,-81.62548183971927
10.12631552,1.0000039565630598,-82.72169053921513
10.168421376,1.0000034871532895,-83.81793547303832
10.210526208,1.000003169899648,-84.91423150500977
10.252632064,1.000002637226572,-86.01055525404814
10.294736896,1.000002216713267,-87.10692568962504
10.336841728,1.0000017843887565,-88.20333230917859
10.378947584,1.0000013059891617,-89.29977084595264
10.421052416,1.000000845885193,-90.39623631763854
10.463158272,1.000000344763061,-91.49276138004356
10.505263104,0.9999998931621368,-92.58930552979167
10.547367936,0.9999994691807429,-93.6858957354837
10.589473792,0.9999991367871393,-94.78252136134181
10.631578624,0.9999987616491917,-95.87921070458223
10.67368448,0.9999985114874964,-96.97589817675542
10.715789312,0.9999981650988798,-98.07266933654344
10.757895168,0.9999980773921419,-99.16945797955486
10.8,0.9999978395747592,-100.2662749323838
10.842104832,0.9999977512401956,-101.36314364345404
10.884210688,0.9999978089582454,-102.46005064208032
10.92631552,0.9999978289201176,-103.55700524080123
10.968421376,0.9999979108204909,-104.65399862837279
11.010526208,0.9999981303169482,-105.75103418247942
11.052632064,0.9999982838972331,-106.84812238130591
11.094736896,0.9999985588564122,-107.94523229615581
11.136841728,0.9999989145346972,-109.04240770256831
11.178947584,0.9999992468460742,-110.13962531770385
11.221052416,0.9999996891390911,-111.23690327071898
11.263158272,1.000000152151796,-112.33418090043554
11.305263104,1.0000006825542231,-113.4315478788575
11.347367936,1.0000012074266629,-114.52894086421152
11.389473792,1.000001744155778,-115.62638167529789
11.431578624,1.0000022960722503,-116.72384961359637
11.47368448,1.0000028529843978,-117.82139905024017
11.515789312,1.000003368678968,-118.91895320017596
11.557895168,1.000003949717328,-120.01659073092084
11.6,1.0000044270217865,-121.11426098499489
11.642104832,1.0000048557081918,-122.21195972625443
11.684210688,1.0000053104940587,-123.30972790110401
11.72631552,1.0000058063489652,-124.40754771328895
11.768421376,1.0000061377855725,-125.50537913248489
11.810526208,1.0000063801890917,-126.60328263347847
11.852632064,1.0000066338431954,-127.70120722938704
11.894736896,1.0000067723274444,-128.7992038582528
11.936841728,1.0000068974130336,-129.89721672681912
11.978947584,1.000006990764499,-130.99528970038997
12.021052416,1.0000068494388181,-132.0933990069419
12.063158272,1.0000068924623915,-133.1915453826561
12.105263104,1.0000066851955587,-134.28973966395384
12.147367936,1.0000064292064692,-135.38797052376367
12.189473792,1.0000061863388239,-136.48625030060137
12.231578624,1.000005752744581,-137.58456521970155
12.27368448,1.0000053765615378,-138.68291510313637
12.315789312,1.0000048482621522,-139.78131029298487
12.357895168,1.000004369621741,-140.87975199479408
12.4,1.0000038370554731,-141.97822023067343
12.442104832,1.0000032116335738,-143.07671844234775
12.484210688,1.0000026059447231,-144.17527489263236
12.52631552,1.000002058464079,-145.27384382357843
12.568421376,1.0000014133451418,-146.37247827205766
12.610526208,1.0000008276329297,-147.47112854331058
12.652632064,1.0000001632678606,-148.56982551317444
12.694736896,0.9999996314427864,-149.66856437764875
12.736841728,0.9999990643800392,-150.76733611638156
12.778947584,0.9999985644163462,-151.86615335725872
12.821052416,0.9999980950066947,-152.9649858630719
12.863158272,0.9999977383976076,-154.0638786320841
12.905263104,0.9999973160125722,-155.1628020485683
12.947367936,0.999997113343619,-156.26177180061603
12.989473792,0.9999968980216433,-157.3607782354391
13.031578624,0.9999967447033211,-158.4598215698284
13.07368448,0.9999967501870235,-159.55890724846185
13.115789312,0.9999967511760796,-160.6580416250185
13.157895168,0.9999969750227191,-161.75720775838064
13.2,0.9999970962187754,-162.85641510080393
13.242104832,0.99999746968647,-163.9556756789507
13.284210688,0.9999978393232761,-165.05497338438062
13.32631552,0.9999981952420538,-166.1543142919984
13.368421376,0.9999987271814198,-167.2536995034838
13.410526208,0.9999992813745984,-168.35312023194302
13.452632064,0.9999999252558851,-169.4526048259849
13.494736896,1.0000006114231534,-170.55212526969808
13.536841728,1.0000013064532747,-171.6516989316143
13.578947584,1.0000020564287788,-172.7513115234907
13.621052416,1.0000027577983894,-173.85097820882783
13.663158272,1.0000035479030247,-174.95067821290243
13.705263104,1.0000043681940178,-176.05041742130226
13.747367936,1.0000050186147875,-177.15021854725939
13.789473792,1.0000057465931649,-178.25007609079233
13.831578624,1.0000064225686864,-179.34995893859283
13.87368448,1.0000071055335675,179.55010500529318
13.915789312,1.0000076235442599,178.45011584707086
13.957895168,1.0000080696915017,177.35009355964436
14.0,1.0000085910536118,176.25002516479327
