freq,mag,phase
6.0,0.9990267900486556,-7.002807993183149
6.015180288,0.9992867293863655,-7.488661501932801
6.030360576,0.9995773432637661,-7.978005940334523
6.045540864,0.9998869570997116,-8.47109139013663
6.060721152,1.0002021482341126,-8.968107079281376
6.07590144,1.000509117435257,-9.469073432551887
6.091081728,1.0007946839871102,-9.973739939526329
6.106262016,1.0010463326527221,-10.481854965060498
6.121442304,1.001253486641802,-10.992810336850372
6.136622592,1.001406712109837,-11.506179532949432
6.15180288,1.001499621434757,-12.021208746397088
6.166983168,1.0015280414871839,-12.537104086127712
6.182162944,1.0014904157251423,-13.05320974839067
6.197343232,1.0013886224418411,-13.568646462326216
6.21252352,1.0012268239223447,-14.082710243734134
6.227703808,1.0010117880195577,-14.594715560789886
6.242884096,1.0007528104298695,-15.104071508228124
6.258064384,1.0004610206670124,-15.610356347649843
6.273244672,1.0001491226758217,-16.1132082848899
6.28842496,0.9998303446394616,-16.612502694460414
6.303605248,0.9995186366007027,-17.108131355138458
6.318785536,0.9992273063695782,-17.600383111054867
6.333965824,0.9989691597031675,-18.08947656826298
6.349146112,0.998755671085565,-18.575953925764512
6.3643264,0.9985959102573723,-19.060340163826428
6.379506688,0.9984970100412542,-19.543359141199698
6.394686976,0.9984632286424662,-20.025757393153395
6.409867264,0.9984964023136345,-20.5082800046041
6.425047552,0.9985948832379176,-20.991861122352816
6.44022784,0.9987548106637966,-21.47707766647402
6.455408128,0.9989690848500362,-21.964795962557545
6.470588416,0.9992286435785179,-22.455547846560442
6.485768704,0.9995220803865,-22.949754965335668
6.500948992,0.9998368996894554,-23.447843528613063
6.51612928,1.0001596275840061,-23.949908627195498
6.531309056,1.000476096739583,-24.456033947197675
6.546489344,1.000772543761517,-24.96600287742354
6.561669632,1.001036299976342,-25.479530067174025
6.57684992,1.001255832651867,-25.996162972507527
6.592030208,1.0014216501890745,-26.515323481210242
6.607210496,1.001526555434401,-27.03626872119442
6.622390784,1.0015656941260909,-27.558282618241634
6.637571072,1.001537732664802,-28.080569386281777
6.65275136,1.001443274458113,-28.602383684156923
6.667931648,1.0012865341542738,-29.122898050859874
6.683111936,1.0010741582410139,-29.641424952055097
6.698292224,1.0008150084714857,-30.157335810373862
6.713472512,1.0005205860951485,-30.67017706728398
6.7286528,1.0002031591436373,-31.17953771760757
6.743833088,0.9998767091322196,-31.68525432687137
6.759013376,0.9995550246492231,-32.18728548297365
6.774193664,0.9992523149486405,-32.68578350803454
6.789373952,0.9989816902860466,-33.181034506292285
6.80455424,0.9987546927769885,-33.673492127857095
6.819734528,0.9985817172436482,-34.16372122099679
6.834914816,0.9984698662061229,-34.65245639430272
6.850095104,0.9984245114910809,-35.14040615633008
6.865275392,0.9984475156107325,-35.62843918304055
6.880455168,0.998537972584858,-36.11728754993575
6.895635456,0.9986921901659342,-36.607886794301756
6.910815744,0.9989035807781279,-37.10084112058621
6.925996032,0.9991630591769091,-37.59680411039049
6.94117632,0.9994593586318309,-38.09633380739167
6.956356608,0.9997798651518618,-38.5997176106305
6.971536896,1.0001105385523266,-39.107256856199626
6.986717184,1.0004372358406137,-39.618907333211006
7.001897472,1.0007457836961797,-40.134585467480036
7.01707776,1.0010228761453603,-40.65400137252254
7.032258048,1.001256384285016,-41.176673753109725
7.047438336,1.0014362886326245,-41.70204917229286
7.062618624,1.0015548021519667,-42.229412358117195
7.077798912,1.0016065507039622,-42.75802051345546
7.0929792,1.0015892587445243,-43.28708998537651
7.108159488,1.0015035570502777,-43.81573853924487
7.123339776,1.0013528848449658,-44.34326338778373
7.138520064,1.0011436479294133,-44.86883349741889
7.153700352,1.0008850389508681,-45.39184020630929
7.16888064,1.0005878447171308,-45.91177464117148
7.184060928,1.0002647935265185,-46.42822767606853
7.199241216,0.9999299997458853,-46.94092962213493
7.214421504,0.9995976395729659,-47.44989801720284
7.22960128,0.9992822312310533,-47.95520577147003
7.244781568,0.998997454230331,-48.457091769181716
7.259961856,0.9987556672611754,-48.95604615596852
7.275142144,0.9985675594466026,-49.45259851799082
7.290322432,0.9984413955796508,-49.94747210712927
7.30550272,0.9983825766454912,-50.44146463936241
7.320683008,0.9983939064334622,-50.93535947538439
7.335863296,0.9984749338479243,-51.42998989134275
7.351043584,0.9986224390599425,-51.926236741440015
7.366223872,0.9988301174733403,-52.42480398078735
7.38140416,0.9990889987106855,-52.92640062127282
7.396584448,0.9993879096662197,-53.43152895625055
7.411764736,0.9997141517242811,-53.94064007338495
7.426945024,1.000053459354591,-54.45399167797778
7.442125312,1.0003913441170056,-54.97158434490989
7.4573056,1.0007132262634584,-55.493375758007
7.472485888,1.001005005217248,-56.019033955483486
7.487666176,1.0012542021103463,-56.548181777537316
7.502846464,1.001449950612597,-57.08023193037763
7.518026752,1.0015839545854721,-57.614476841136955
7.53320704,1.0016499101019836,-58.15016917944213
7.548387328,1.0016450778245871,-58.68648809145659
7.563567616,1.0015695483884048,-59.22252570609649
7.578747392,1.0014262113510208,-59.75757178031773
7.59392768,1.0012214238750838,-60.2907719636308
7.609107968,1.0009636793090098,-60.82145936268921
7.624288256,1.0006638993144432,-61.34907041126526
7.639468544,1.0003351477664955,-61.87315724212428
7.654648832,0.9999913702435809,-62.39345080676472
7.66982912,0.999647291483304,-62.90990305947366
7.685009408,0.9993180176595009,-63.42250066444763
7.700189696,0.9990176611223606,-63.93160167213881
7.715369984,0.998759353926411,-64.43752944766472
7.730550272,0.9985544502520111,-64.9409135427006
7.74573056,0.9984116882915591,-65.44243526208346
7.760910848,0.9983374687816177,-65.94287997058672
7.776091136,0.998335263849662,-66.44307777950796
7.791271424,0.9984053816702835,-66.94384296106858
7.806451712,0.9985449066276705,-67.44615848697785
7.821632,0.998747700731783,-67.95072902932549
7.836812288,0.9990052349208673,-68.45827609154823
7.851992576,0.9993065377839497,-68.96940198272306
7.867172864,0.9996386481550529,-69.48457205586163
7.882353152,0.9999872146369629,-70.00405931908848
7.89753344,1.0003372942787847,-70.52793790632802
7.912713728,1.0006736480283853,-71.05619785570448
7.927893504,1.000982025635526,-71.5885229307408
7.943073792,1.0012487495141718,-72.12456052044213
7.95825408,1.0014624580654277,-72.6636951302516
7.973434368,1.0016137092602304,-73.20528536266781
7.988614656,1.0016960987906818,-73.74854072263288
8.003794944,1.0017057582376805,-74.29258643933112
8.018975232,1.001642124994756,-74.83658864172496
8.03415552,1.001507671763448,-75.37967430716293
8.049335808,1.001308428972244,-75.92104737691785
8.064516096,1.0010523354279472,-76.45999278547777
8.079696384,1.0007504760138841,-76.99587080618582
8.094876672,1.0004158161755812,-77.52817053803024
8.11005696,1.0000624949026071,-78.05664648372905
8.125237248,0.9997060584422075,-78.58112504555623
8.140417536,0.9993614625750322,-79.10162982944777
8.155597824,0.9990437646996767,-79.61844851590892
8.170778112,0.9987669204525711,-80.13192413374894
8.1859584,0.9985428954076002,-80.64261784527832
8.201138688,0.9983813984748645,-81.15121124116924
8.216318976,0.9982897489015554,-81.6585322128899
8.231499264,0.998271990559786,-82.16545235141948
8.246679552,0.9983289443228465,-82.67283512749066
8.261859328,0.9984585573130345,-83.18151943751744
8.277039616,0.9986553284629434,-83.69243056910652
8.292219904,0.9989107032546886,-84.20630486807434
8.307400192,0.9992139609371185,-84.72376425873836
8.32258048,0.9995520014303771,-85.24528476313539
8.337760768,0.9999102244054541,-85.77121954815259
8.352941056,1.0002734253152283,-86.30176582849451
8.368121344,1.0006258855591084,-86.83679736833854
8.383301632,1.000952282918049,-87.37617386853968
8.39848192,1.001238542734463,-87.91948296608587
8.413662208,1.0014724947746219,-88.46615147488218
8.428842496,1.0016435837376751,-89.01549315614363
8.444022784,1.0017445359558907,-89.56676125831243
8.459203072,1.0017709913118178,-90.11908838705195
8.47438336,1.001721523201209,-90.67155029009314
8.489563648,1.0015978510712238,-91.22323487118241
8.504743936,1.0014054014279108,-91.77337093885609
8.519924224,1.001152099113118,-92.3211219717946
8.535104512,1.0008487866735285,-92.86583536141943
8.5502848,1.0005082577226583,-93.40697729604153
8.565465088,1.0001450870789885,-93.94418841594816
8.580645376,0.9997749702450309,-94.47729091542908
8.595825664,0.999413731680797,-95.00631249498622
8.61100544,0.9990769331957539,-95.53139602142188
8.62618624,0.9987792827356611,-96.0529108051716
8.641366016,0.9985338173679499,-96.57143228901363
8.656546816,0.9983510056484171,-97.08761475825582
8.671726592,0.9982392239566987,-97.60227087484168
8.686907392,0.9982032980351347,-98.11629619708425
8.702087168,0.998245030214023,-98.63060093087383
8.717267968,0.9983627164045589,-99.14609076627336
8.732447744,0.9985516909000265,-99.66367589208562
8.747628544,0.9988037203600958,-100.18416008554165
8.76280832,0.9991081548210198,-100.70820065904951
8.77798912,0.9994520391224826,-101.23639842037585
8.793168896,0.9998204548210589,-101.76912644242495
8.808348672,1.0001977289261228,-102.30658310631709
8.823529472,1.0005675901138837,-102.84876527354525
8.838709248,1.000914125530333,-103.39552335447749
8.853890048,1.0012222745222972,-103.94643820617507
8.869069824,1.001478913775935,-104.50103253830459
8.884250624,1.0016727416303148,-105.05859863078187
8.8994304,1.001795345528714,-105.61832928375539
8.9146112,1.0018412423752625,-106.17938637612257
8.929790976,1.0018082413776155,-106.74080258126615
8.944971776,1.0016977488570782,-107.30168626111481
8.960151552,1.0015139884509623,-107.8611159663036
8.975332352,1.0012648361404206,-108.41828902194686
8.990512128,1.0009607128619469,-108.97244383676906
9.005692928,1.0006145858665478,-109.52304840369446
9.020872704,1.0002412222460604,-110.0696330505462
9.036053504,0.9998565205047325,-110.61199299223692
9.05123328,0.9994770226423071,-111.15004990149295
9.06641408,0.9991191566875993,-111.68395553524557
9.081593856,0.9987982999276537,-112.21410494694767
9.096774656,0.9985284746979616,-112.74093754771422
9.111954432,0.9983215211425881,-113.26519753594775
9.127135232,0.9981864975974272,-113.78763465846727
9.142315008,0.9981294464253996,-114.30917212134645
9.157494784,0.9981530089347825,-114.83077592903439
9.172675584,0.9982564634837114,-115.35339190218293
9.18785536,0.9984356036717256,-115.87797283936636
9.20303616,0.9986827704758613,-116.40532109682731
9.218215936,0.9989873980047284,-116.93629371911838
9.233396736,0.999336767058112,-117.4714216979852
9.248576512,0.9997157637421171,-118.01118160887565
9.263757312,1.0001081715379783,-118.55583697893712
9.278937088,1.0004970722606954,-119.10543990014772
9.294117888,1.0008658911500294,-119.65985516408813
9.309297664,1.0011986357853433,-120.21876064573343
9.324478464,1.0014808530158887,-120.78161587238318
9.33965824,1.0017005348610364,-121.34776307497926
9.35483904,1.0018480310750517,-121.91644285663848
9.370018816,1.001916643759363,-122.48671673779468
9.385199616,1.001903315232093,-123.0576207918881
9.400379392,1.0018084268479457,-123.62822546229614
9.415560192,1.0016357491040124,-124.19756919928612
9.430739968,1.0013924439039676,-124.76473316233722
9.445920768,1.0010888293370486,-125.32899616099537
9.461100544,1.0007375327387347,-125.88964421332545
9.476281344,1.0003535257653962,-126.44625148967762
9.49146112,0.999953367514267,-126.99846566785216
9.506640896,0.999554028115395,-127.54620151015158
9.521821696,0.9991727241638398,-128.08957205755726
9.537001472,0.9988259075090832,-128.62886920104472
9.552182272,0.9985286706421703,-129.16456238533414
9.567362048,0.9982940302272166,-129.69734474149809
9.582542848,0.9981322374795671,-130.22801625518701
9.597722624,0.9980504182976305,-130.75751395014495
9.612903424,0.9980526279367102,-131.28678683129186
9.6280832,0.9981387778814131,-131.81683700307366
9.643264,0.9983054121626098,-132.34866479382126
9.658443776,0.9985457515820472,-132.88321498981296
9.673624576,0.9988494840694383,-133.42130116338157
9.688804352,0.9992037223403843,-133.96359530105514
9.703985152,0.9995934824853866,-134.51061200987218
9.719164928,1.0000020145324051,-135.06269387244905
9.734345728,1.000411740439819,-135.61997862031882
9.749525504,1.000805233196953,-136.182358346041
9.764706304,1.0011653470988187,-136.74951871660977
9.77988608,1.0014767906865751,-137.3210004143659
9.79506688,1.0017259460078007,-137.89616073533927
9.810246656,1.0019019693002034,-138.47414754732716
9.825427456,1.0019971593167862,-139.05411797799604
9.840607232,1.0020072038536756,-139.63505272995647
9.855787008,1.001931292154963,-140.2159223573348
9.870967808,1.0017724943062147,-140.79575524539572
9.886147584,1.001537262337881,-141.37358188192024
9.901328384,1.0012354209819614,-141.94857412679994
9.91650816,1.0008796936655413,-142.5199901725033
9.93168896,1.000485032451616,-143.08725208556694
9.946868736,1.0000683179443366,-143.6500214376351
9.962049536,0.9996472782101231,-144.20809387952082
9.977229312,0.9992400936825897,-144.7615056961336
9.992410112,0.998864152608723,-145.31057107830634
10.007589888,0.9985358449210524,-145.85569850984672
10.022770688,0.9982694323604047,-146.3975369491904
10.037950464,0.9980766967458752,-146.93691267275895
10.053131264,0.9979661511759007,-147.47474942199509
10.06831104,0.9979428086832457,-148.0120419996414
10.08349184,0.9980080218737424,-148.54985395280139
10.098671616,0.9981592260827504,-149.08924469311123
10.113852416,0.9983901633828176,-149.6312043337958
10.129032192,0.9986911728147277,-150.1766161358119
10.144212992,0.9990496643699777,-150.72628634095958
10.159392768,0.9994502256692495,-151.280779174245
10.174572544,0.9998758501092578,-151.8404973696294
10.189753344,1.0003083478763166,-152.40566441644455
10.20493312,1.000729036681113,-152.97621867423362
10.22011392,1.0011200817611325,-153.55195386507935
10.235293696,1.0014646167360544,-154.13240791983705
10.250474496,1.0017476141068378,-154.71690100916828
10.265654272,1.0019568705423687,-155.30470669654838
10.280835072,1.002083140652925,-155.89483357605027
10.296014848,1.002120902420634,-156.4863162539892
10.311195648,1.002067946625488,-157.07805748087054
10.326375424,1.0019265193942668,-157.66902501700437
10.341556224,1.0017021261866175,-158.25820413528396
10.356736,1.001404037729182,-158.84462786999555
10.3719168,1.0010447346955864,-159.4275060518546
10.387096576,1.0006394375736485,-160.00618692263131
10.402277376,1.0002053332275163,-160.58022614417408
10.417457152,0.9997606653475457,-161.14933609077372
10.432637952,0.9993246662723451,-161.7135429226544
10.447817728,0.9989160598061466,-162.27302306502665
10.462998528,0.9985524519246565,-162.82817659623782
10.478178304,0.9982496064201405,-163.37964253071885
10.493359104,0.9980209549755255,-163.9282097663484
10.50853888,0.9978765439812775,-164.4748391136856
10.523718656,0.9978228777329519,-165.02055318117934
10.538899456,0.9978625614250713,-165.56645603363117
10.554079232,0.9979944616276724,-166.11368074492188
10.569260032,0.9982130299620974,-166.6632889253769
10.584439808,0.9985093224127527,-167.2162593878356
10.599620608,0.9988706747474324,-167.77347036178023
10.614800384,0.9992820065106275,-168.3356137734326
10.629981184,0.999725746388877,-168.90317926112866
10.64516096,1.000183029402479,-169.47643171751858
10.66034176,1.0006340880953832,-170.0554395221143
10.675521536,1.00106002597287,-170.64000600138613
10.690702336,1.0014421144853836,-171.22972178035778
10.705882112,1.001764137265369,-171.8240003638048
10.721062912,1.0020120077267605,-172.42202423405604
10.736242688,1.0021749607093264,-173.02288275843313
10.751423488,1.0022456246846068,-173.62549680057876
10.766603264,1.0022206180085167,-174.22877923119646
10.781784064,1.0021007012667684,-174.83158571919006
10.79696384,1.001890632589969,-175.43284701080526
10.81214464,1.001598873068068,-176.03151219690528
10.827324416,1.0012375103647835,-176.62669588712322
10.842505216,1.0008217909738242,-177.21764357395952
10.857684992,1.0003691377345874,-177.80379809779117
10.872864768,0.9998986833865057,-178.3848223056624
10.888045568,0.9994306551978057,-178.96060284595353
10.903225344,0.9989850453945861,-179.53125437811264
10.918406144,0.9985809377993455,179.90284236522666
10.93358592,0.9982360868651357,179.34109139526677
10.94876672,0.9979654775374363,178.7827473012834
10.963946496,0.9977809763683405,178.2268102667374
10.979127296,0.9976910561835325,177.67221260254587
10.994307072,0.9976998711971764,177.1178459002147
11.009487872,0.9978074461294519,176.56246368173132
11.024667648,0.9980097202174798,176.0049315490833
11.039848448,0.9982982431257139,175.4441563043608
11.055028224,0.9986609848156714,174.87918871313784
11.070209024,0.9990827465699201,174.3092186417917
11.0853888,0.9995456165245759,173.73361013581098
11.1005696,1.000029942825363,173.15204180010227
11.115749376,1.0005150193305026,172.5643365103026
11.130930176,1.0009803208727177,171.97062936141214
11.146109952,1.001405678850899,171.3712303121736
11.161290752,1.0017729365380592,170.76674017894769
11.176470528,1.002066013613468,170.15793506813688
11.191651328,1.0022722953238286,169.54576943959606
11.206831104,1.0023825418714132,168.9313200968073
11.22201088,1.0023915339394747,168.31573177899847
11.23719168,1.0022986523198318,167.700201633025
11.252371456,1.002107172782661,167.08592799861313
11.267552256,1.001824880399465,166.47403703351188
11.282732032,1.0014633898917842,165.86553344040738
11.297912832,1.0010376579989357,165.26128780942318
11.313092608,1.0005654830341921,164.66196416002475
11.328273408,1.000066785924431,164.0680178020042
11.343453184,0.9995629960290122,163.47967003759672
11.358633984,0.999075168981535,162.8968767174435
11.37381376,0.9986247269998411,162.31931818134993
11.38899456,0.9982309445344995,161.74647750761824
11.404174336,0.9979110113973676,161.17756889806816
11.419355136,0.9976789255534995,160.6116682455925
11.434534912,0.9975453182532993,160.0476204925817
11.449715712,0.9975163628504108,159.48425777006315
11.464895488,0.9975936730826261,158.9202996907935
11.480076288,0.9977746112152902,158.35445945650287
11.495256064,0.9980516829271785,157.78560030003794
11.510436864,0.9984136667181192,157.21257692442737
11.52561664,0.9988452689233553,156.63447050653062
11.54079744,0.9993283659222042,156.05056696860584
11.555977216,0.9998426026701346,155.4603558244132
11.571156992,1.0003660022991943,154.86357660517444
11.586337792,1.0008763041037332,154.26028329204473
11.601517568,1.0013516712003747,153.65072304388238
11.616698368,1.001771672840201,153.03540461030096
11.631878144,1.00211823063424,152.41514349650527
11.647058944,1.0023761650885705,151.79083826395643
11.66223872,1.00253415824886,151.16361535925085
11.67741952,1.0025849770021131,150.5346974354521
11.692599296,1.0025258867213305,149.90534556642396
11.707780096,1.0023587638151839,149.27684020685678
11.722959872,1.0020902674359644,148.65044757006814
11.738140672,1.0017310690428278,148.0272846183292
11.753320448,1.0012961939767506,147.40838093718475
11.768501248,1.0008035665337163,146.79451286573226
11.783681024,1.0002738317235078,146.18626968420307
11.798861824,0.9997293367269776,145.58400106263164
11.8140416,0.9991933551560681,144.9877505462925
11.8292224,0.9986887727623184,144.3973160889624
11.844402176,0.9982373968282805,143.81221614567187
11.859582976,0.9978588538009526,143.23171550017636
11.874762752,0.9975698164822244,142.6548763604005
11.889943552,0.9973831610344175,142.08052429509758
11.905123328,0.9973075284183948,141.50742128247973
11.920303104,0.9973466740072139,140.93421136372882
11.935483904,0.9974996667336912,140.35951328517862
11.95066368,0.9977604480400052,139.78201873579786
11.96584448,0.9981185555637243,139.20045709212442
11.981024256,0.9985591450633142,138.6137758277396
11.996205056,0.9990636737825279,138.021060599284
12.011384832,0.9996109201061438,137.42169378328757
12.026565632,1.0001777693811,136.81527402592354
