freq,mag,phase
6.0,1.000647837825399,-34.44232038984405
6.015094272,1.000609925120378,-35.03474746786048
6.030188544,1.0005470506715595,-35.62691435883123
6.045282816,1.0004607845964661,-36.218582315279164
6.0603776,1.000355013508236,-36.80945620856697
6.075471872,1.0002338998419096,-37.39932045161693
6.090566144,1.0001022106363988,-37.988078569889616
6.105660416,0.9999660202230947,-38.57558008561912
6.120754688,0.9998308935684457,-39.16182713222098
6.13584896,0.9997022080736486,-39.7468118995428
6.150943232,0.9995856616117579,-40.330752326010554
6.166037504,0.9994861664270313,-40.913754054062935
6.181132288,0.9994080488106328,-41.49601248507039
6.19622656,0.9993545529252517,-42.07780324004711
6.211320832,0.9993279635221574,-42.65947833968414
6.226415104,0.9993297235481494,-43.24138225287832
6.241509376,0.9993599299680822,-43.823721105290296
6.256603648,0.9994170522529965,-44.406992127985596
6.27169792,0.9994991210000845,-44.99139887376376
6.286792704,0.9996024394788322,-45.57724512362105
6.301886976,0.9997230469562626,-46.16477418595705
6.316981248,0.999855946893371,-46.75409399847556
6.33207552,0.9999951515500105,-47.345417085991734
6.347169792,1.0001351574367086,-47.93872589567922
6.362264064,1.000270094753005,-48.53400397062207
6.377358336,1.0003942169720712,-49.13119395464176
6.392452608,1.000502232344731,-49.73007690956699
6.407547392,1.000589418377419,-50.33051448091959
6.422641664,1.0006523424290619,-50.932200423452784
6.437735936,1.000688031518633,-51.534831086854126
6.452830208,1.00069475333466,-52.13811260634639
6.46792448,1.0006725449830347,-52.74165524190276
6.483018752,1.0006218805956772,-53.345131706838295
6.498113024,1.0005449468520267,-53.948237423828196
6.513207296,1.0004446591408336,-54.550677442227695
6.52830208,1.0003253920405604,-55.1521883287651
6.543396352,1.0001919112251116,-55.7525896174437
6.558490624,1.0000498014130204,-56.35172173213467
6.573584896,0.999905163252133,-56.949541150460306
6.588679168,0.9997639021725426,-57.54599567135535
6.60377344,0.999632127589863,-58.14120819617524
6.618867712,0.999515157201878,-58.73531587832576
6.633962496,0.9994182046434704,-59.32851524602206
6.649056768,0.9993454122857758,-59.92104836353218
6.66415104,0.9992998648717005,-60.513258148066065
6.679245312,0.99928376975217,-61.10543435202176
6.694339584,0.9992975928453738,-61.697954180694
6.709433856,0.9993411324549573,-62.291157320972495
6.724528128,0.9994126955876619,-62.88537685046394
6.7396224,0.9995091467263935,-63.480960769823476
6.754717184,0.999626708551293,-64.07814469278047
6.769811456,0.9997604749189531,-64.67720445701167
6.784905728,0.9999048708480572,-65.27826795936399
6.8,1.000053828263831,-65.88143616576794
6.815094272,1.0002012885703517,-66.48669763703967
6.830188544,1.0003408324725205,-67.09404303085601
6.845282816,1.000466386887625,-67.7032948918913
6.8603776,1.000573197703359,-68.31434028790626
6.875471872,1.0006562258328364,-68.92685052684432
6.890566144,1.0007119531479436,-69.54057825615286
6.905660416,1.0007381026494773,-70.15519641892857
6.920754688,1.0007333419404678,-70.77032956933245
6.93584896,1.0006978241410118,-71.38561049241713
6.950943232,1.0006328095724002,-72.00069843750215
6.966037504,1.0005409415628268,-72.61520634214592
6.981132288,1.0004260364808584,-73.22894094653844
6.99622656,1.000292809701382,-73.84152321912319
7.011320832,1.0001465696031517,-74.45293597733436
7.026415104,0.9999936348293893,-75.06290968759555
7.041509376,0.9998404174408148,-75.67147413099082
7.056603648,0.9996931398381671,-76.27864501204479
7.07169792,0.9995582164493486,-76.88446489153328
7.086792704,0.9994413622060285,-77.48920972119274
7.101886976,0.9993474970652647,-78.09304677139207
7.116981248,0.9992807608010799,-78.69632000138381
7.13207552,0.9992440246447162,-79.29930983122121
7.147169792,0.9992388546555212,-79.90246571336085
7.162264064,0.9992656935457456,-80.5060500929088
7.177358336,0.999323651657766,-81.11053277733187
7.192452608,0.9994101727432844,-81.71623324394837
7.207547392,0.9995220160738664,-82.32343831743506
7.222641664,0.9996544019980064,-82.93247965872162
7.237735936,0.9998018980825777,-83.54352294263978
7.252830208,0.9999583719089691,-84.15674320384178
7.26792448,1.000117321289372,-84.77219783729542
7.283018752,1.0002720861340415,-85.38989224353764
7.298113024,1.0004160914501468,-86.00973089766143
7.313207296,1.0005431089635732,-86.6315683720123
7.32830208,1.0006480264844484,-87.25514844156706
7.343396352,1.0007261737293303,-87.88022768332958
7.358490624,1.0007742944026232,-88.50641181492449
7.373584896,1.000790153873234,-89.13338388548677
7.388679168,1.000772976391885,-89.76074075871435
7.40377344,1.000723201033441,-90.38816913920589
7.418867712,1.0006429530577865,-91.0151518197904
7.433962496,1.0005353912445918,-91.64147655481032
7.449056768,1.0004049753130555,-92.26676229787897
7.46415104,1.0002569347088976,-92.89084197167338
7.479245312,1.0000975016320144,-93.51344703399455
7.494339584,0.9999331009219794,-94.13457992842274
7.509433856,0.9997711027572683,-94.75414899588256
7.524528128,0.999617736995679,-95.37223976084371
7.5396224,0.999479916260871,-95.98897055077167
7.554717184,0.9993633808297534,-96.6045932302345
7.569811456,0.9992730024040481,-97.21932957402134
7.584905728,0.9992127985962532,-97.83358999354351
7.6,0.9991853024588773,-98.4476627978212
7.615094272,0.9991920535841032,-99.06197843605638
7.630188544,0.9992328970301426,-99.67693282768265
7.645282816,0.9993059672219713,-100.29291626658716
7.6603776,0.9994085987618769,-100.91032025248641
7.675471872,0.9995366314231608,-101.52944735180188
7.690566144,0.9996846365449283,-102.15056667070385
7.705660416,0.9998465976351811,-102.77388267547727
7.720754688,1.0000157898458477,-103.39953913852452
7.73584896,1.0001851681993013,-104.02758455361429
7.750943232,1.0003475508367907,-104.65795438250491
7.766037504,1.0004959794884987,-105.2905590320289
7.781132288,1.0006244269174283,-105.92518330469113
7.79622656,1.000727346960063,-106.56157799698032
7.811320832,1.000800216371271,-107.19937013635023
7.826415104,1.0008399350541466,-107.83825403610155
7.841509376,1.0008447681640331,-108.47782648824173
7.856603648,1.0008141707508842,-109.1176321609857
7.87169792,1.000749346409594,-109.75727705124434
7.886792704,1.0006527768503235,-110.39638970668379
7.901886976,1.0005285234685046,-111.03461037294336
7.916981248,1.0003815548300319,-111.6716157127013
7.93207552,1.000217908406074,-112.3071771707458
7.947169792,1.0000444054985356,-112.941166529878
7.962264064,0.9998681776042347,-113.57348574107547
7.977358336,0.9996966132261838,-114.20413753613668
7.992452608,0.999537063440905,-114.83317504700386
8.007547392,0.9993961714715541,-115.46084493422877
8.022641664,0.9992799128193962,-116.08736201873334
8.037735936,0.999193337063087,-116.71301413950005
8.052830208,0.9991402486611312,-117.3382405254762
8.06792448,0.999122969014838,-117.96338266876909
8.083018752,0.9991425276329687,-118.5888830792863
8.098113024,0.9991979908024478,-119.21521051449699
8.113207296,0.9992874612772299,-119.8427301205026
8.12830208,0.9994072973257336,-120.47186283110588
8.143396352,0.9995525775713748,-121.1029053801305
8.158490624,0.9997173591501345,-121.73614805565902
8.173584896,0.9998947293969129,-122.37180739286028
8.188679168,1.0000774619054704,-123.00992519709011
8.20377344,1.0002577869792746,-123.65058137572599
8.218867712,1.0004282724676796,-124.29367666528437
8.233962496,1.0005816551839875,-124.93906460029584
8.249056768,1.000711448185994,-125.58652802386953
8.26415104,1.0008121801529184,-126.23572081612036
8.279245312,1.0008793763526957,-126.88628729872418
8.294339584,1.0009100659417698,-127.53786976289581
8.309433856,1.000903014479938,-128.1899661773844
8.324528128,1.0008580306221442,-128.84218995060786
8.3396224,1.0007770373095233,-129.4940479396238
8.354717184,1.0006631498453817,-130.14516865993795
8.369811456,1.0005208822550424,-130.79516728179152
8.384905728,1.0003561556281257,-131.4437808192966
8.4,1.0001757035149266,-132.09072559352634
8.415094272,0.9999870017406022,-132.735901973645
8.430188544,0.9997978348177918,-133.37920473769242
8.445282816,0.9996162048292919,-134.02070317851843
8.4603776,0.9994497262105516,-134.66049768334167
8.475471872,0.9993055089636631,-135.29884690574798
8.490566144,0.9991895576174822,-135.93600358149402
8.505660416,0.999107125376962,-136.5723363235525
8.520754688,0.9990615614826831,-137.20826013405488
8.53584896,0.9990551393393514,-137.84421398174493
8.550943232,0.9990882133924385,-138.48067973399776
8.566037504,0.9991598430871045,-139.11807719521389
8.581132288,0.9992669084433277,-139.75689876175892
8.596226048,0.9994052519171719,-140.3974924992065
8.611320832,0.9995692404184517,-141.04025016783086
8.626414592,0.9997520218613953,-141.6853652941289
8.641509376,0.9999462711716637,-142.33306959544882
8.65660416,1.0001437277319336,-142.9834681796778
8.67169792,1.0003361528657737,-143.63650448185234
8.686792704,1.0005155936174237,-144.29211322567983
8.701886464,1.000674325584116,-144.9500681147118
8.716981248,1.0008058176805112,-145.61014589486874
8.732075008,1.0009042779099486,-146.27192064605154
8.747169792,1.0009655027134507,-146.93506148569796
8.762264576,1.0009867276477706,-147.59906757160618
8.777358336,1.0009668102421674,-148.2634561977837
8.79245312,1.000906477324628,-148.92776063264728
8.80754688,1.0008079427579433,-149.59154139140128
8.822641664,1.000675068824866,-150.25435336835776
8.837735424,1.0005132738063243,-150.9158050748182
8.852830208,1.0003293199267695,-151.57561034079515
8.867924992,1.0001304150759012,-152.23351037847704
8.883018752,0.9999250637301331,-152.88943587416514
8.898113536,0.9997217806108639,-153.5432904412267
8.913207296,0.9995289680998811,-154.19517534576906
8.92830208,0.9993548234536004,-154.84521770886408
8.94339584,0.9992066868119266,-155.4937074694525
8.958490624,0.9990909482695182,-156.14099101178832
8.973585408,0.9990125995691828,-156.7874304181364
8.988679168,0.9989751192011846,-157.43352541216407
9.003773952,0.9989804556789051,-158.07970302882615
9.018867712,0.9990283726916543,-158.72658871426316
9.033962496,0.9991172128886741,-159.37454919656145
9.049056256,0.9992435283020137,-160.02408641162896
9.06415104,0.9994021251297615,-160.67565164945293
9.0792448,0.9995866209382225,-161.32958072780016
9.094339584,0.9997894291219522,-161.98609159099695
9.109434368,1.00000217585596,-162.64538455538212
9.124528128,1.0002159653068983,-163.3075541926261
9.139622912,1.0004219852956016,-163.9725219346167
9.154716672,1.000611508388117,-164.64017744858404
9.169811456,1.000776578148162,-165.31025900529153
9.184905216,1.0009100574514822,-165.98248434122408
9.2,1.0010065050123917,-166.65641629189543
9.215094784,1.0010613789080374,-167.33160001696143
9.230188544,1.0010723270442952,-168.00756483264465
9.245283328,1.001038518400016,-168.68377384280487
9.260377088,1.000961299531814,-169.35967261585193
9.275471872,1.000843513910932,-170.03481706209803
9.290565632,1.0006897706996531,-170.70875037965197
9.305660416,1.0005064705776996,-171.3810518283887
9.3207552,1.0003008849845128,-172.05142998142549
9.33584896,1.000081571934464,-172.7196240403245
9.350943744,0.9998574985382965,-173.38558739212894
9.366037504,0.9996380866558328,-174.04925840337376
9.381132288,0.9994324862666241,-174.710748212025
9.396226048,0.9992494423971142,-175.37027222353603
9.411320832,0.9990966136382802,-176.02811993773273
9.426414592,0.9989806373172548,-176.6846785563784
9.441509376,0.9989065488300524,-177.34040133472143
9.45660416,0.9988777387397487,-177.99580918086428
9.47169792,0.9988956206626136,-178.65146877280915
9.486792704,0.9989597669910438,-179.3078797212923
9.501886464,0.9990678446356611,-179.96555978916035
9.516981248,0.9992154625136543,179.37491610902788
9.532075008,0.9993966652028415,178.7131663203133
9.547169792,0.9996041032257165,178.04888092828858
9.562264576,0.9998293945744955,177.38171526937512
9.577358336,1.0000630884356376,176.71152926026167
9.59245312,1.0002955945906764,176.03827417025315
9.60754688,1.0005171084513296,175.362053923873
9.622641664,1.0007183519883969,174.6830043817227
9.637735424,1.0008907972953902,174.0014402502135
9.652830208,1.0010271574789065,173.31772402073767
9.667924992,1.001121589164019,172.63228455533934
9.683018752,1.0011697698216868,171.94567895937666
9.698113536,1.0011695495164956,171.25843599227946
9.713207296,1.0011206397126178,170.57113709817477
9.72830208,1.0010246283770972,169.88432197307762
9.74339584,1.0008852872314804,169.19854420756323
9.758490624,1.0007082063343355,168.5142738601611
9.773585408,1.0005004589068593,167.83193773946496
9.788679168,1.00027046858396,167.1518343212994
9.803773952,1.0000277304786354,166.474196195731
9.818867712,0.9997823113432158,165.79913087586837
9.833962496,0.9995443094616595,165.12658404231635
9.849056256,0.9993238313819344,164.45644524198698
9.86415104,0.9991299984709459,163.78850044668008
9.8792448,0.9989714153044714,163.12235048481554
9.894339584,0.9988545533069864,162.45754536772793
9.909434368,0.9987848317578872,161.79359589476644
9.924528128,0.9987653623982984,161.1299134159838
9.939622912,0.9987973643477643,160.46592590852802
9.954716672,0.9988797190964508,159.80100007934547
9.969811456,0.9990092454660451,159.13458404135184
9.984905216,0.9991810565107391,158.46613613938433
10.0,0.9993880837253087,157.79521107643166
10.015094784,0.999621936954696,157.1214267515053
10.030188544,0.9998729973244772,156.44450589667846
10.045283328,1.0001309438696953,155.76433060929944
10.060377088,1.000385101720694,155.08084188733255
10.075471872,1.0006248043986719,154.39416710341226
10.090565632,1.0008400537349045,153.70451832674976
10.105660416,1.0010216073023568,153.01223259833168
10.1207552,1.001161782216412,152.3177511407346
10.13584896,1.001254527095994,151.62157509210763
10.150943744,1.0012956255645606,150.92428479576563
10.166037504,1.0012829168791655,150.22649466562947
10.181132288,1.0012167546476036,149.52885280576663
10.196226048,1.0010995022395974,148.8319433346815
10.211320832,1.0009355026632223,148.13635548614448
10.226414592,1.0007314844223691,147.44262353031064
10.241509376,1.0004955915713667,146.75114614245638
10.25660416,1.0002372187225705,146.06228666184052
10.27169792,0.9999670753191701,145.37622063885615
10.286792704,0.999696618463337,144.6930804652073
10.301886464,0.9994366714509602,144.01277527110358
10.316981248,0.9991983984041739,143.33515576229962
10.332075008,0.9989917954905481,142.6599198121662
10.347169792,0.9988258243433764,141.98664966065667
10.362264576,0.998707592827037,141.31484308011835
10.377358336,0.9986424023097337,140.64387770660866
10.39245312,0.9986333184805133,139.9731650363989
10.40754688,0.9986811865115894,139.3020136279681
10.422641664,0.9987842807941893,138.6297391849392
10.437735424,0.998939026612545,137.95575723129065
10.452830208,0.9991387677919696,137.27946497485573
10.467924992,0.9993758450345004,136.60038888768983
10.483018752,0.999640473533326,135.91812558030463
10.498113536,0.9999220198576265,135.23242504534025
10.513207296,1.0002086308366984,134.5431164696722
10.52830208,1.0004885247550652,133.85023505617093
10.54339584,1.000749995930045,133.15389608029295
10.558490624,1.0009819934617354,132.45439295365054
10.573585408,1.0011747185696678,131.7521074557646
10.588679168,1.0013199443198233,131.04753771524395
10.603773952,1.0014111629102518,130.34127648407897
10.618867712,1.0014442521253306,129.63400288024505
10.633962496,1.0014174205043218,128.92634924055912
10.649056256,1.0013314345466315,128.21904567144043
10.66415104,1.001189173094115,127.51279907019406
10.6792448,1.000996407285196,126.80818893911018
10.694339584,1.0007604742193839,126.10579520837634
10.709434368,1.0004911607156415,125.40606883996
10.724528128,1.000199231658796,124.70938073614752
10.739622912,0.9998966210055364,124.01589864039482
10.754716672,0.9995959394327394,123.32573310778814
10.769811456,0.9993097321199708,122.63877098662081
10.784905216,0.9990499655395618,121.95481091351861
10.8,0.9988277197964068,121.2734752464071
10.815094784,0.9986525380612038,120.5942987218472
10.830188544,0.9985320922423185,119.91668572104902
10.845283328,0.9984718935360669,119.23994275897519
10.860377088,0.9984749013830575,118.56336801376027
10.875471872,0.9985414111148736,117.88622083595357
10.890565632,0.9986692147857708,117.20775492856173
10.905660416,0.9988534502695096,116.52728260833703
10.9207552,0.9990867168170309,115.84416202105074
10.93584896,0.9993597652474704,115.15786963144873
10.950943744,0.9996614963565708,114.46798380134803
10.966037504,0.999979611266669,113.7742512139581
10.981132288,1.0003007800270063,113.07653364057046
10.996226048,1.0006119755700273,112.37486446018005
11.011320832,1.0008998402719445,111.66940513537702
11.026414592,1.0011525396454846,110.96053433115888
11.041509376,1.0013591311121575,110.24867703182697
11.05660416,1.001510646627788,109.53444370480062
11.07169792,1.0016003947993812,108.81848339270915
11.086792704,1.0016242678624456,108.10155781682404
11.101886464,1.0015806846065116,107.38444155546559
11.116981248,1.001470783172954,106.66791488720222
11.132075008,1.0012987547673156,105.9526952228397
11.147169792,1.0010711539461066,105.23956238482432
11.162264576,1.0007969827288004,104.52905984431384
11.177358336,1.0004870783479713,103.8216989884229
11.19245312,1.0001541550894306,103.11784298321882
11.20754688,0.9998119938319817,102.41769391935374
11.222641664,0.9994745772310017,101.72132305273155
11.237735424,0.999155962748502,101.0286038510044
11.252830208,0.9988698224822832,100.33922316163859
11.267924992,0.9986281525506532,99.65278306591091
11.283018752,0.9984414750790978,98.96867568900146
11.298113536,0.9983182173332154,98.28626340084445
11.313207296,0.9982638144975667,97.60472539308712
11.32830208,0.9982812485248448,96.92329224871752
11.34339584,0.9983703845297582,96.24106998802843
11.358490624,0.9985281991207464,95.55722475973351
11.373585408,0.9987484966188511,94.87102129214429
11.388679168,0.999022822609969,94.18171551115121
11.403773952,0.9993399896139497,93.48876559815798
11.418867712,0.999687310911554,92.79170209864026
11.433962496,1.0000504314185108,92.09027127141742
11.449056256,1.0004142900457087,91.38431772623565
11.46415104,1.0007639824909655,90.67394401888576
11.4792448,1.0010848177312193,89.95937715201097
11.494339584,1.0013629206459822,89.24101023575754
11.509434368,1.0015868068148694,88.51941049465088
11.524528128,1.0017463619954,87.79527286311932
11.539622912,1.0018345482720066,87.06933162282795
11.554716672,1.0018471378207314,86.34249623386079
11.569811456,1.00178278907857,85.61560335245056
11.584905216,1.0016436026533821,84.88957790414963
11.6,1.0014345377085538,84.16524840771235
11.615094784,1.0011636801463775,83.44340144425989
11.630188544,1.0008417541609438,82.72469009025146
11.645283328,1.0004815854229525,82.00971058379066
11.660377088,1.0000977749056392,81.29878169806464
11.675471872,0.9997060686627428,80.59215723832307
11.690565632,0.9993227715511143,79.88984110690826
11.705660416,0.998963881268483,79.19168202665416
11.7207552,0.9986444992271273,78.49729964965373
11.73584896,0.998378514940094,77.80620179625669
11.750943744,0.9981774502290282,77.11767366467569
11.766037504,0.9980503807138479,76.43093404618523
11.781132288,0.9980031315782484,75.74507610399127
11.796226048,0.9980387721254416,75.0591389079559
11.811320832,0.9981563875701737,74.37214677993161
11.826414592,0.9983517219973072,73.68315615533528
11.841509376,0.9986176420548111,72.99127961044246
11.85660416,0.9989434552467188,72.295742383757
11.87169792,0.9993163281439787,71.59589613454446
11.886792704,0.9997209054719199,70.89123937474574
11.901886464,1.000140814333173,70.18151381427815
11.916981248,1.0005587470225419,69.46660429008124
11.932075008,1.0009570575167597,68.74659854117088
11.947169792,1.001319246160538,68.02182991045184
11.962264576,1.0016298651603948,67.29279840375023
11.977358336,1.0018754350042964,66.56013545421246
11.99245312,1.0020451954414051,65.82466717603998
12.00754688,1.0021314032754292,65.08730085031823
12.022641664,1.0021295452166827,64.34903752430489
12.037735424,1.0020388464778256,63.610905286474484
