freq,mag,phase
6.0,1.0005693652893897,8.446705220857286
6.004317184,1.0004708880687152,8.309272318080428
6.00863488,1.000344465356212,8.173429402796883
6.012952064,1.0001971878427423,8.039460223148952
6.017269248,1.0000380246892246,7.907701271516944
6.021586432,0.9998764509105018,7.778197714580893
6.025904128,0.9997223761836087,7.65090423363937
6.030221312,0.9995850822250838,7.525659600752375
6.034538496,0.9994730067720671,7.402213626670433
6.03885568,0.9993927630073156,7.28010284523998
6.043173376,0.9993493025403037,7.158815862253453
6.04749056,0.9993452957565392,7.037919523918725
6.051807744,0.9993809915549134,6.916743141234746
6.05612544,0.9994544158127426,6.79479817431237
6.060442624,0.9995608791940241,6.671522513163
6.064759808,0.9996939714399109,6.546588017890586
6.069076992,0.9998456898391663,6.419558785775946
6.073394688,1.000007019720755,6.290335856378958
6.077711872,1.0001679453278103,6.158782596558861
6.082029056,1.000318768734569,6.025012451802624
6.08634624,1.0004503516972605,5.889218853489695
6.090663936,1.000554885052456,5.751748444584481
6.09498112,1.0006258921410112,5.612984157441658
6.099298304,1.0006591331213286,5.473498840266768
6.103616,1.0006526219226253,5.333799523384574
6.107933184,1.0006065750334197,5.194439645509268
6.112250368,1.0005238807956076,5.055982427985688
6.116567552,1.0004094578576825,4.9188951901052915
6.120885248,1.0002703190476996,4.783620456479473
6.125202432,1.0001147936628112,4.650403351348717
6.129519616,0.9999522337778142,4.5193952885867175
6.1338368,0.99979269858194,4.390715845892726
6.138154496,0.9996455176545017,4.264169677224778
6.14247168,0.9995199210094737,4.1396016695490045
6.146788864,0.999423331759288,4.016534047522558
6.15110656,0.9993616153694156,3.894576603232492
6.155423744,0.9993387380279928,3.7732480773009844
6.159740928,0.9993558589917358,3.6519502239643113
6.164058112,0.9994120672037801,3.5300761045356888
6.168375808,0.9995040646812015,3.4071620127013413
6.172692992,0.9996260748570119,3.2827006682225193
6.177010176,0.9997709408972493,3.156340105061911
6.18132736,0.9999297062060536,3.0277816745719166
6.185645056,1.0000927325649052,2.8969733377020193
6.18996224,1.000250469077578,2.7638040399096164
6.194279424,1.0003929894000994,2.628553363073029
6.19859712,1.0005118726113618,2.491411199587658
6.202914304,1.000599818240047,2.352750369020555
6.207231488,1.0006516739696745,2.213119350796169
6.211548672,1.0006641894411152,2.0730113947720987
6.215866368,1.0006365037712914,1.9329675757067952
6.220183552,1.0005703244570001,1.7935984209680966
6.224500736,1.000469758609481,1.6553977699248048
6.22881792,1.0003406466156795,1.5187941940020289
6.233135616,1.0001909344795714,1.3841494013205036
6.2374528,1.0000297026414875,1.25167170727073
6.241769984,0.9998665874391507,1.1215453494280934
6.24608768,0.9997115196892098,0.993635798884183
6.250404864,0.9995739106176003,0.8677805364274315
6.254722048,0.9994621488094406,0.7436513978307936
6.259039232,0.9993828942594869,0.6209579985322802
6.263356928,0.9993410062645969,0.4990262145623868
6.267674112,0.9993390937195942,0.3774616385595777
6.271991296,0.9993772985569834,0.2555734495378323
6.27630848,0.9994533112811467,0.13286601358226133
6.280626176,0.9995625138345337,0.008851189262471595
6.28494336,0.999698217232386,-0.11692665141076121
6.289260544,0.9998524263022827,-0.24481158912865933
6.293577728,1.0000155112003282,-0.3749421491763372
6.297895424,1.0001778536092927,-0.5073604444226961
6.302212608,1.0003294849787123,-0.6420899828308887
6.306529792,1.0004613766003034,-0.7788123610315448
6.310847488,1.0005653511665902,-0.9172372356710043
6.315164672,1.000635283804972,-1.0569327580640053
6.319481856,1.0006668226431998,-1.197300466818388
6.32379904,1.000658085708839,-1.3379129228894984
6.328116736,1.0006095175685141,-1.4781148621292894
6.33243392,1.000524132997404,-1.6173721920408233
6.336751104,1.000407103695773,-1.7552274406590964
6.341068288,1.0002652784428212,-1.891262061289363
6.345385984,1.0001075183676658,-2.025138174761633
6.349703168,0.9999431037127358,-2.156775871989009
6.354020352,0.9997821855351198,-2.286154006710869
6.358338048,0.9996343848238715,-2.4133349991928146
6.362655232,0.9995085997803499,-2.538580559120505
6.366972416,0.9994126876182233,-2.6622817518111894
6.3712896,0.9993522836886005,-2.7848771738904228
6.375607296,0.9993311896011787,-2.906879716253582
6.37992448,0.9993505190006217,-3.028908223899258
6.384241664,0.999409363391452,-3.151491823353316
6.388558848,0.9995039761290454,-3.275166874570054
6.392876544,0.9996287426764597,-3.400432709012135
6.397193728,0.9997760666879603,-3.527651526816342
6.401510912,0.9999370747522449,-3.657114493965617
6.405828608,1.000102029474073,-3.7888422295200126
6.410145792,1.0002607814335105,-3.9229082923582386
6.414462976,1.0004039475205129,-4.059128179716542
6.41878016,1.0005227277282414,-4.197238574910652
6.423097856,1.0006100440078665,-4.3368232130590245
6.42741504,1.0006604184655763,-4.477379345907562
6.431732224,1.000671020157847,-4.6184374299619675
6.436049408,1.0006409816969155,-4.759332049116499
6.440367104,1.0005723228858094,-4.899565912314065
6.444684288,1.0004689181059438,-5.038579571719099
6.449001472,1.0003372317341594,-5.17595728065231
6.453319168,1.0001849573572112,-5.311341313267144
6.457636352,1.0000216624806328,-5.444486064324239
6.461953536,0.9998568756556772,-5.5753497825403695
6.46627072,0.9997006917533049,-5.703902478953187
6.470588416,0.9995627025644223,-5.830398238436577
6.4749056,0.9994511403060183,-5.955138741042786
6.479222784,0.9993727556004001,-6.078565691793186
6.483539968,0.9993323676848956,-6.201106212084657
6.487857664,0.9993326058411526,-6.323414533383388
6.492174848,0.999373117417426,-6.446011024282938
6.496492032,0.9994516678057848,-6.569485370878692
6.500809728,0.9995636235621074,-6.694296848391988
6.505126912,0.9997019696768467,-6.820938918504631
6.509444096,0.9998585374708463,-6.949695184883957
6.51376128,1.0000237755575836,-7.080746698736151
6.518078976,1.0001876685019915,-7.214135353867602
6.52239616,1.0003402637973813,-7.349770770788552
6.526713344,1.0004724502095117,-7.487493804212546
6.531030528,1.0005760953654947,-7.626858932195273
6.535348224,1.0006450157812863,-7.767491712146321
6.539665408,1.000674879635041,-7.908843578750972
6.543982592,1.000664071548422,-8.050361476046458
6.548300288,1.0006130885754418,-8.191413940199844
6.552617472,1.0005250604610996,-8.331522848002647
6.556934656,1.0004052332449016,-8.470196114834652
6.56125184,1.0002608386610852,-8.606991082842352
6.565569536,1.0001006379439725,-8.741652880345086
6.56988672,0.999934380276412,-8.873988325556272
6.574203904,0.9997720759809808,-9.004033908489372
6.578521088,0.9996233371042659,-9.131890377021756
6.582838784,0.9994975817572076,-9.257790702147451
6.587155968,0.9994020734904283,-9.3821452361051
6.591473152,0.9993428485455309,-9.505415077985015
6.595790848,0.9993233085812645,-9.628124842413715
6.600108032,0.9993449451952757,-9.750900471171583
6.604425216,0.999406298448828,-9.874240580602352
6.6087424,0.99950358392449,-9.99869023369445
6.613060096,0.9996311041807661,-10.124815550341216
6.61737728,0.9997810356008958,-10.252924178353156
6.621694464,0.9999443469887473,-10.383255516883032
6.626011648,1.000111020663792,-10.515960123477775
6.630329344,1.0002709543911714,-10.650992619467056
6.634646528,1.0004148662533787,-10.788195662035854
6.638963712,1.0005336407721812,-10.927257088063351
6.643281408,1.0006203941217213,-11.067844732567561
6.647598592,1.0006694747091713,-11.209388278180388
6.651915776,1.0006781315801874,-11.351361390038235
6.65623296,1.0006460165203308,-11.493171269755798
6.660550656,1.0005746395607409,-11.634297096277043
6.66486784,1.000468531263739,-11.774168453911836
6.669185024,1.0003341054511647,-11.912336256250317
6.673502208,1.0001793811411117,-12.04848737585317
6.677819904,1.0000138390817621,-12.182348874634691
6.682137088,0.9998473200213979,-12.31393970474838
6.686454272,0.9996900202476662,-12.443189526645083
6.690771968,0.999551461900846,-12.570369032475405
6.695089152,0.9994399171721456,-12.695803117415654
6.699406336,0.9993624319770366,-12.819890896146443
6.70372352,0.999323536563953,-12.943163122639332
6.708041216,0.9993255993521166,-13.066168776678458
6.7123584,0.9993684122906069,-13.189538868357008
6.716675584,0.9994497001837856,-13.313780953547614
6.720992768,0.9995641747631843,-13.439470330448934
6.725310464,0.9997054774286321,-13.566937827476428
6.729627648,0.9998644238331974,-13.696589829630714
6.733944832,1.0000316547035168,-13.828580213884337
6.738262528,1.0001972687624012,-13.962964048961693
6.742579712,1.000350912897207,-14.099597254041273
6.746896896,1.0004834412411365,-14.238299218962782
6.75121408,1.000586886639147,-14.378669231005828
6.755531776,1.0006548409958271,-14.5203033369181
6.75984896,1.000683292428433,-14.66261304441364
6.764166144,1.0006702870399167,-14.805039773898681
6.768483328,1.0006170747827938,-14.947072800834935
6.772801024,1.000526333429482,-15.08806398186852
6.777118208,1.000403732192121,-15.227548351236232
6.781435392,1.0002567519904995,-15.365154961759842
6.785753088,1.0000942675118076,-15.50059140530637
6.790070272,0.9999259539357253,-15.633707795764384
6.794387456,0.9997620007504032,-15.764457285188248
6.79870464,0.9996124280973513,-15.892978591599848
6.803022336,0.9994862554606919,-16.01959653307276
6.80733952,0.9993912811958221,-16.144661752730816
6.811656704,0.9993330514534059,-16.268604476441336
6.815973888,0.9993152827247781,-16.39205191061036
6.820291584,0.9993389041300084,-16.51552890376921
6.824608768,0.9994027331075149,-16.63968831081112
6.828925952,0.999502786398628,-16.765010355264735
6.833243136,0.9996330005639458,-16.89196974621495
6.837560832,0.9997854800238776,-17.02096651707553
6.841878016,0.9999511754751406,-17.15222394416881
6.8461952,1.0001197846233418,-17.285869445905593
6.850512896,1.0002813883458936,-17.421918504784113
6.85483008,1.0004258905035337,-17.560132311472792
6.859147264,1.0005447764965283,-17.70025385999004
6.863464448,1.000630926408401,-17.84180773541849
6.867782144,1.0006789282281854,-17.984340069309518
6.872099328,1.0006859009529476,-18.127308454232
6.876416512,1.0006514650065057,-18.27006753490831
6.880733696,1.0005776235615538,-18.412098987472696
6.885051392,1.000468737926557,-18.552850392214467
6.889368576,1.000331580774107,-18.691881790851415
6.89368576,1.0001743418707612,-18.8288406270459
6.898003456,1.0000065080230542,-18.96352141817803
6.90232064,0.9998381633362927,-19.095785681611353
6.906637824,0.9996795794546769,-19.225792806219623
6.910955008,0.9995402511245282,-19.353709572676944
6.915272704,0.9994288121679962,-19.479799568311744
6.919589888,0.999351887953287,-19.60459281868374
6.923907072,0.9993143489061936,-19.728616103498204
6.928224256,0.9993182293153012,-19.85238357789164
6.932541952,0.999363391213064,-19.976513547025892
6.936859136,0.9994471726768963,-20.101591834853718
6.94117632,0.9995646565611124,-20.228087292630196
6.945494016,0.9997084029872059,-20.356511461356835
6.9498112,0.9998699528808465,-20.48709284505089
6.954128384,1.0000394540153932,-20.620020144993457
6.958445568,1.000206751731846,-20.755368464430237
6.962763264,1.0003616328954814,-20.893015456097466
6.967080448,1.000494802131502,-21.0327363608635
6.971397632,1.0005979316067362,-21.174167215850638
6.975714816,1.0006651793970964,-21.316797151559264
6.980032512,1.0006921549924785,-21.460110129516757
6.984349696,1.0006773455486884,-21.60355866061115
6.98866688,1.0006215664727909,-21.74651140858213
6.992984576,1.000528190967151,-21.888405546428373
6.99730176,1.0004029168324138,-22.02881862663516
7.001618944,1.0002532220317237,-22.167259140540917
7.005936128,1.0000880642182048,-22.303520777393803
7.010253824,0.9999176556491318,-22.437400288106666
7.014571008,0.9997522178412003,-22.568898576155657
7.018888192,0.9996015368267709,-22.69818091701827
7.023205376,0.9994748829179589,-22.825500594381193
7.027523072,0.9993802281171239,-22.951257810146743
7.031840256,0.9993228653771266,-23.075968161918556
7.03615744,0.9993066773213181,-23.200127655411396
7.040475136,0.9993323633998475,-23.32443578565407
7.04479232,0.999398571104862,-23.44934919800672
7.049109504,0.9995013141568467,-23.575524980906973
7.053426688,0.9996343080860255,-23.703376222544886
7.057744384,0.9997896372017256,-23.833275864453256
7.062061568,0.9999575912929574,-23.965520741192314
7.066378752,1.0001282251663106,-24.100174846144462
7.070695936,1.0002913298279243,-24.237213607555613
7.075013632,1.0004368784860538,-24.376467353525058
7.079330816,1.0005561333338149,-24.51759176805487
7.083648,1.0006417045270506,-24.66021858983662
7.087965696,1.0006886940469748,-24.803771940488424
7.09228288,1.0006940010640661,-24.9477509435893
7.096600064,1.0006573688776388,-25.091508344006186
7.100917248,1.0005810696774085,-25.234518042583844
7.105234944,1.0004696377087647,-25.376154365801273
7.109552128,1.0003295848245133,-25.516102222785534
7.113869312,1.0001697575104034,-25.65389334584651
7.118186496,0.9999994260625447,-25.789364422942533
7.122504192,0.9998291656704745,-25.922440789404
7.126821376,0.9996690658684254,-26.05320367938219
7.13113856,0.9995291437124746,-26.181819233894778
7.135456256,0.9994174852246154,-26.308652949311597
7.13977344,0.9993412058541727,-26.43418567096979
7.144090624,0.9993046717446853,-26.558945461059885
7.148407808,0.999310346422749,-26.683490781007038
7.152725504,0.9993578243575161,-26.808430074048193
7.157042688,0.9994442438076571,-26.93433302079425
7.161359872,0.9995643867944469,-27.061728800239933
7.165677056,0.9997109237765011,-27.19102331018989
7.169994752,0.9998750685429373,-27.322545932862315
7.174311936,1.0000469598026955,-27.456483107108472
7.17862912,1.0002160836848348,-27.592869748232946
7.182946816,1.0003721699408625,-27.731573726183825
7.187264,1.000505889832919,-27.87233176118956
7.191581184,1.0006091296144233,-28.01483255982793
7.195898368,1.0006756385947826,-28.15851193026566
7.200216064,1.000701227849777,-28.30290985017936
7.204533248,1.000684625920965,-28.447334314758255
7.208850432,1.0006265633800466,-28.59127460235085
7.213167616,1.000530602250174,-28.734141247353463
7.217485312,1.0004025436142052,-28.875486631147616
7.221802496,1.0002500227932956,-29.014810311569263
7.22611968,1.0000824524408733,-29.151868121476134
7.230437376,0.9999097129951626,-29.286552628088625
7.23475456,0.9997423490661752,-29.418854410934877
7.239071744,0.9995906049890391,-29.54889395389202
7.243388928,0.9994634447931482,-29.676945202546683
7.247706624,0.9993688924329981,-29.80346778694191
7.252023808,0.9993123850432256,-29.928926648029687
7.256340992,0.9992975729183166,-30.05389340558777
7.260658176,0.9993253650256723,-30.17895132407755
7.264975872,0.9993941479271756,-30.30471132070102
7.269293056,0.9994993573552142,-30.431750685628536
7.27361024,0.9996352200274414,-30.560502139837954
7.277927936,0.999793247312274,-30.69135266312755
7.28224512,0.9999636937382594,-30.824559465308386
7.286562304,1.0001366671970777,-30.96022007038116
7.290879488,1.0003013125906155,-31.098343744624973
7.295197184,1.0004479820645633,-31.238624750621415
7.299514368,1.0005675637575981,-31.380850788836895
7.303831552,1.0006530237513995,-31.524548872334712
7.308148736,1.0006988702397008,-31.669193265443877
7.312466432,1.0007027513861462,-31.81419117038432
7.316783616,1.0006639844800735,-31.95897240460423
7.3211008,1.000585145568326,-32.102959180878734
7.325418496,1.0004709967596275,-32.24559414615322
7.32973568,1.000328238746093,-32.3864367945496
7.334052864,1.0001655101947302,-32.52510237321539
7.338370048,0.9999928762728805,-32.661409748374076
7.342687744,0.9998204105863174,-32.79528848562253
7.347004928,0.9996588525065888,-32.926828921237174
7.351322112,0.9995178477547677,-33.05623073063822
7.355639296,0.9994060616911844,-33.18384946366883
7.359956992,0.9993300414056949,-33.3101391155963
7.364274176,0.9992946967352022,-33.43564414890145
7.36859136,0.9993019441726038,-33.56099930555993
7.372908544,0.9993517320770737,-33.6867777425809
7.37722624,0.9994407406963999,-33.81351686114772
7.381543424,0.9995635898099697,-33.94180518996552
7.385860608,0.9997129891262584,-34.07205137181245
7.390178304,0.9998798094623914,-34.20451863727882
7.394495488,1.000054148251234,-34.33950267914886
7.398812672,1.0002252528769553,-34.47690908876663
7.403129856,1.0003828246094855,-34.61665191988415
7.407447552,1.0005173408138397,-34.758524491084785
7.411764736,1.000620694530074,-34.902080897346416
7.41608192,1.0006866317731813,-35.04686553877679
7.420399104,1.0007111513309743,-35.19232020652774
7.4247168,1.0006925330755616,-35.33782196588857
7.429033984,1.0006322418633347,-35.48281973598309
7.433351168,1.0005337195714743,-35.6266635890968
7.437668864,1.0004028522254695,-35.76892793069303
7.441986048,1.0002476398936695,-35.90916419359052
7.446303232,1.0000772144998837,-36.047147135866865
7.450620416,0.9999021248314874,-36.18266135806697
7.454938112,0.999732971227746,-36.31577445242327
7.459255296,0.9995798509850874,-36.44660007301907
7.46357248,0.9994520448274005,-36.57543990787021
7.467889664,0.9993575073184279,-36.70273109165283
7.47220736,0.9993016767894929,-36.828954168396066
7.476524544,0.9992882469402157,-36.95470429332524
7.480841728,0.9993177989114455,-37.08059815113239
7.485159424,0.9993889068370607,-37.20720629148343
7.489476608,0.999496958642258,-37.33511830056575
7.493793792,0.9996356016459106,-37.46479963046154
7.498110976,0.9997962443252023,-37.596596514361806
7.502428672,0.9999694268218134,-37.73081837826196
7.506745856,1.0001447217545827,-37.86750922254983
7.51106304,1.0003111442434334,-38.00668794808958
7.515380224,1.0004589279756815,-38.14808658463984
7.51969792,1.0005791369446784,-38.29139069124633
7.524015104,1.0006643449698165,-38.43619002153978
7.528332288,1.0007095533220958,-38.58193012104496
7.532649984,1.000711851990746,-38.72804692715833
7.536967168,1.0006711631629388,-38.87386037967407
7.541284352,1.000589904512941,-39.018880780930935
7.545601536,1.0004729766954683,-39.16250559819847
7.549919232,1.0003273518013602,-39.304265081154334
7.554236416,1.000161890568251,-39.44389720738877
7.5585536,0.9999865223965885,-39.58107745759193
7.562870784,0.9998120187698746,-39.7157881600673
7.56718848,0.9996485903001121,-39.84812163795695
7.571505664,0.9995065381305478,-39.97833987174767
7.575822848,0.9993943669920426,-40.10674408459062
7.580140544,0.9993187005797205,-40.23379685552376
7.584457728,0.999284252284051,-40.360135232042985
7.588774912,0.99929314968509,-40.486287441495236
7.593092096,0.9993449849438754,-40.61290488480108
7.597409792,0.999436384271979,-40.74056044219438
7.601726976,0.9995620454933138,-40.86972064276026
7.60604416,0.9997143665782592,-41.00093190888861
7.610361344,0.9998839864637746,-41.13441492996057
7.61467904,1.0000608394031905,-41.270382573598994
7.618996224,1.0002341027471844,-41.40885655976518
7.623313408,1.0003931210496835,-41.54971527998593
7.627631104,1.000528740219994,-41.69267923489764
7.631948288,1.0006324226648238,-41.837358322314685
7.636265472,1.0006978994108522,-41.98326141057144
7.640582656,1.0007213322647204,-42.12982176717544
7.644900352,1.0007010743846634,-42.27640657502859
7.649217536,1.0006385149312982,-42.422454955438724
7.65353472,1.0005374339929276,-42.56734342154744
7.657851904,1.0004036872738853,-42.710576435599634
7.6621696,1.000245601521336,-42.85180736355926
7.666486784,1.0000725092127036,-42.99066951163901
7.670803968,0.9998949597277677,-43.127068296235784
7.675121664,0.9997237264343345,-43.26101710083179
7.679438848,0.9995691437409937,-43.392660539665975
7.683756032,0.9994403965172988,-43.522319922833866
7.688073216,0.9993456819444264,-43.65038810236674
7.692390912,0.9992905040716245,-43.77741511880546
7.696708096,0.9992782535516443,-43.90397514504624
7.70102528,0.9993097784172494,-44.03070590815243
7.705342464,0.9993829692271289,-44.15816712504111
7.70966016,0.9994938090744493,-44.28698793417619
7.713977344,0.9996352535978154,-44.41761600441815
7.718294528,0.999798870622668,-44.55041211815306
7.722612224,0.9999748676227597,-44.685644005544084
7.726929408,1.0001523742477756,-44.823398240879534
