freq,mag,phase
6.0,1.0002308417592218,-151.95001213898706
6.020460544,1.0002416529417368,-153.12148989486465
6.040920576,1.0002446999761245,-154.29270188018535
6.06138112,1.000239966753609,-155.4635416442922
6.081841664,1.0002276132565968,-156.6339453479784
6.102301696,1.0002079589575334,-157.80383067818698
6.12276224,1.000181694729155,-158.9730971325114
6.143222272,1.000149665782709,-160.1416829575763
6.163682816,1.000112917039782,-161.3095468085179
6.18414336,1.0000725749661983,-162.47660411832754
6.204603392,1.000029929798261,-163.64280536392636
6.225063936,0.9999865097513174,-164.80819830998865
6.24552448,0.99994350749564,-165.9727182224154
6.265984512,0.9999025455356941,-167.13641000274436
6.286445056,0.9998646970901456,-168.2992629013968
6.3069056,0.9998315379546682,-169.46131017772962
6.327365632,0.9998038918094488,-170.62262883714502
6.347826176,0.9997827734230289,-171.7832664557944
6.368286208,0.9997687837015629,-172.9432479047268
6.388746752,0.9997623782227874,-174.10270879857782
6.409207296,0.9997639936737678,-175.2616567407657
6.429667328,0.9997734158800218,-176.42023701865153
6.450127872,0.9997903238482312,-177.57849364850674
6.470588416,0.9998142468768718,-178.73648238679905
6.491048448,0.9998444052774883,-179.89428345220716
6.511508992,0.9998797976293594,178.94804099194616
6.531969536,0.9999192872014453,177.79044297778302
6.552429568,0.9999615261249877,176.6329336410625
6.572890112,1.0000053855576303,175.4754515967857
6.593350144,1.0000491376165306,174.3179919385514
6.613810688,1.000091593357517,173.16058310666
6.634271232,1.0001312187532363,172.00325531157046
6.654731264,1.0001667443519344,170.8460339485341
6.675191808,1.0001971443884985,169.68894858914194
6.695652352,1.0002212448503545,168.53210736843042
6.716112384,1.0002381955558481,167.37557042552083
6.736572928,1.0002476863053182,166.2193922016952
6.757033472,1.0002492234533689,165.06367572654375
6.777493504,1.0002427718419202,163.90848894069782
6.797954048,1.0002285522278458,162.75395095589937
6.81841408,1.0002070443851032,161.6001098234073
6.838874624,1.000178894335352,160.44706173964778
6.859335168,1.0001449102009117,159.29485368452106
6.8797952,1.0001063940509336,158.14356967600716
6.900255744,1.0000644329613586,156.99322918859434
6.920716288,1.0000204498175416,155.8438649661008
6.94117632,0.9999759414321796,154.69551483349446
6.961636864,0.9999322607688031,153.54814762472634
6.982097408,0.9998908120604686,152.40178808915127
7.00255744,0.9998530612175538,151.25636455394374
7.023017984,0.9998201564235275,150.11187456509066
7.043478016,0.9997931097013077,148.96821566462316
7.06393856,0.9997731051450782,147.82539125974935
7.084399104,0.999760446333755,146.6832453607466
7.104859136,0.9997557888608174,145.5417831177548
7.12531968,0.9997592059282255,144.40087851644503
7.145780224,0.9997706292969392,143.26043802768885
7.166240256,0.9997896685830548,142.12041979135972
7.1867008,0.9998157793387565,140.9806939630114
7.207161344,0.9998480416327846,139.84124733236558
7.227621376,0.999885440128339,138.70197317851054
7.24808192,0.9999266760341158,137.56287488616772
7.268541952,0.9999706926227316,136.42387689844793
7.289002496,1.0000157236081264,135.2849715541759
7.30946304,1.0000604463914304,134.14617727422984
7.329923072,1.000103496815726,133.0074895855149
7.350383616,1.00014326785984,131.86890701369418
7.37084416,1.000178619384134,130.7304934620592
7.391304192,1.000208251671267,129.5923030434023
7.411764736,1.000231322004564,128.45439574881297
7.43222528,1.000246977413503,127.31685157932598
7.452685312,1.0002546442338573,126.17974450286843
7.473145856,1.0002543380648874,125.04315742554796
7.493605888,1.0002456191162057,123.90715974500905
7.514066432,1.0002290781263408,122.77184075987667
7.534526976,1.0002051711704354,121.63729566642795
7.554987008,1.0001745869201402,120.50358102521386
7.575447552,1.000138421516797,119.37076226612182
7.595908096,1.0000977630513308,118.2389094518303
7.616368128,1.0000540477876194,117.10801043527582
7.636828672,1.000008590084726,115.97814252623655
7.657289216,0.9999629144077,114.84929544367259
7.677749248,0.9999184573074175,113.72146656255259
7.698209792,0.9998767291849945,112.59462139675209
7.718669824,0.9998390945740306,111.46873722673833
7.739130368,0.9998068872276142,110.34376313874864
7.759590912,0.9997809386333304,109.21962683053597
7.780050944,0.999762240024375,108.09626329326706
7.800511488,0.999751484478979,106.9735662846782
7.820972032,0.9997490658720376,105.85148370643142
7.841432064,0.9997547993562483,104.72993371241284
7.861892608,0.9997688104702709,103.60879598757573
7.882353152,0.9997905001845147,102.48800778265229
7.902813184,0.9998192888002453,101.36748707497343
7.923273728,0.999854103140858,100.2471330185339
7.94373376,0.9998938979580927,99.12691190668963
7.964194304,0.9999374388662432,98.00679226639596
7.984654848,0.999983090708024,96.88670393682393
8.00511488,1.0000296083862854,95.7666436522659
8.025575424,1.0000753539164715,94.64663171094219
8.046035968,1.0001188247872415,93.52663195403905
8.066496,1.0001586126660202,92.40669945084633
8.086956544,1.0001933828437433,91.2868842805583
8.107417088,1.0002220547860745,90.16721086805016
8.12787712,1.0002436324391997,89.04778016598901
8.148337664,1.0002572681299715,87.92864467594814
8.168798208,1.0002627444161862,86.80988628914967
8.18925824,1.0002597396059691,85.69159237831907
8.209718784,1.000248381405303,84.57384088029173
8.230178816,1.0002288856092016,83.45671140517528
8.25063936,1.0002019855575355,82.34030742259776
8.271099904,1.0001685920279209,81.22466973914403
8.291559936,1.000129806677517,80.1098694502385
8.31202048,1.0000866286141197,78.99593874729747
8.332481024,1.000040779770566,77.88292987691418
8.352941056,0.9999935451588041,76.77085160199063
8.3734016,0.9999467033288053,75.6597113296105
8.393862144,0.9999014605549834,74.5494842107346
8.414322176,0.9998596752063144,73.44013797869023
8.43478272,0.9998223765137829,72.33163615283507
8.455242752,0.999791085395577,71.22393634464325
8.475703296,0.9997666862189915,70.11693298049153
8.49616384,0.9997499999280263,69.010566355803
8.516623872,0.9997416191120054,67.90473505260297
8.537084416,0.9997418921178779,66.79937603180524
8.55754496,0.9997508002450605,65.69435458898897
8.578004992,0.9997680009132337,64.58961517577069
8.598465536,0.9997928930997688,63.485041662350504
8.61892608,0.9998249230525962,62.3805661089858
8.639386624,0.9998628519229621,61.27610153602483
8.659846144,0.999905487331614,60.17159845960372
8.680306688,0.9999514417209904,59.06701503812056
8.700767232,0.999999260595031,57.96230905260989
8.721227776,1.000047258092343,56.857470273832256
8.74168832,1.0000939913545495,55.75249242494288
8.76214784,1.00013794605574,54.647381221592966
8.782608384,1.0001774648019945,53.54216912629579
8.803068928,1.0002114412972325,52.436943215341344
8.823529472,1.0002386631478362,51.331713533435966
8.843990016,1.000258236316828,50.22657394224763
8.86445056,1.000269473883508,49.12159736150412
8.88491008,1.0002720338708884,48.01686132129782
8.905370624,1.0002657512814774,46.91246994757549
8.925831168,1.0002509088851004,45.80847304958014
8.946291712,1.0002278944902818,44.70499946340003
8.966752256,1.0001975237094642,43.60208228212028
8.987211776,1.0001606634991074,42.49981528236964
9.00767232,1.0001185686641227,41.398226815752004
9.028132864,1.0000726365153558,40.29738501053753
9.048593408,1.0000243688360138,39.19731399097193
9.069053952,0.9999752601053049,38.098025195683604
9.089514496,0.9999270383400045,36.99948272979923
9.109974016,0.999881290681863,35.9017082741792
9.13043456,0.9998394222295305,34.80462863144494
9.150895104,0.9998028220875703,33.70822280264738
9.171355648,0.999772886854072,32.612404343509766
9.191816192,0.9997504193922169,31.517078734329274
9.212275712,0.9997362644770266,30.422186566229392
9.232736256,0.9997310044150179,29.327629266644074
9.2531968,0.9997345875468848,28.233292792830206
9.273657344,0.9997472042598362,27.139086231257508
9.294117888,0.999768162101201,26.04490099021251
9.314578432,0.9997970897406854,24.95066115661097
9.335037952,0.9998328279934747,23.85628997108181
9.355498496,0.9998744138176396,22.76169838563567
9.37595904,0.9999202096979154,21.66681535491084
9.396419584,0.9999689835600548,20.57162746500181
9.416880128,1.0000189950238947,19.476090515051684
9.437339648,1.0000687479990316,18.38019436910204
9.457800192,1.0001164563161564,17.283935050669733
9.478260736,1.0001604809717268,16.187353697663735
9.49872128,1.0001995779326343,15.090463373302713
9.519181824,1.0002324053573903,13.993355044910274
9.539642368,1.000257681147894,12.896040963972963
9.560101888,1.0002746808734593,11.79865777369369
9.580562432,1.000282968784968,10.701232250985468
9.601022976,1.000281999210627,9.60389704582469
9.62148352,1.0002718086890898,8.506692936855735
9.641944064,1.0002528590128632,7.409754966442336
9.662403584,1.0002256751275025,6.313147150125882
9.682864128,1.0001910778519352,5.216934122746864
9.703324672,1.0001503116515567,4.121189076083252
9.723785216,1.000104650415332,3.0259696559907208
9.74424576,1.0000555455927491,1.9313151508188307
9.764706304,1.0000046595062146,0.8372388397378807
9.785165824,0.999953555012021,-0.2562485030052634
9.805626368,0.9999040196264611,-1.3491756491183333
9.826086912,0.9998576676024699,-2.4415393106062755
9.846547456,0.9998160725335219,-3.5334154457707316
9.867008,0.9997805812834598,-4.624856657363616
9.88746752,0.9997523532106842,-5.715934561968186
9.907928064,0.9997323652413219,-6.806754302452581
9.928388608,0.9997213346414846,-7.897398760449654
9.948849152,0.9997196067822821,-8.987967065853121
9.969309696,0.9997272192356719,-10.078568203733532
9.98977024,0.9997441314507366,-11.169296156495621
10.01022976,0.999769473075745,-12.260247981129535
10.030690304,0.9998028570495281,-13.351533598159964
10.051150848,0.9998428878931982,-14.443225120049139
10.071611392,0.9998883714173258,-15.535395580259662
10.092071936,0.999937851232534,-16.628113379244816
10.11253248,0.9999895493411384,-17.721379314522718
10.132992,1.0000419281765855,-18.815264102268117
10.153452544,1.0000932840934895,-19.90973507242341
10.173913088,1.0001417771475618,-21.004802722770776
10.194373632,1.000185941507083,-22.100429737101386
10.214834176,1.0002242063678974,-23.19654593491485
10.235293696,1.0002554302609175,-24.29313247381541
10.25575424,1.0002783470494379,-25.39008695417574
10.276214784,1.0002923113468551,-26.487349226433604
10.296675328,1.0002969437511071,-27.58479245823784
10.317135872,1.0002919378757824,-28.682348312935915
10.337596416,1.0002773326794459,-29.779941044620944
10.358055936,1.00025390265613,-30.877457390968413
10.37851648,1.000221931297327,-31.974783680634804
10.398977024,1.0001828815279366,-33.071904596835594
10.419437568,1.0001377151666653,-34.16871602397125
10.439898112,1.0000882278919283,-35.26517687670873
10.460357632,1.0000357332888286,-36.36126222056123
10.480818176,0.9999820132659005,-37.45695547731948
10.50127872,0.9999289645310363,-38.55224075799483
10.521739264,0.9998782144896954,-39.64716055217316
10.542199808,0.99983155832139,-40.74172391560543
10.562660352,0.9997905008918374,-41.8360228232162
10.583119872,0.9997561970268521,-42.93009056290321
10.603580416,0.9997301996585903,-44.02405691138321
10.62404096,0.9997130591950321,-45.117979382707304
10.644501504,0.9997055222955817,-46.211977991405945
10.664962048,0.9997078524610231,-47.30613690611668
10.685421568,0.9997199823418004,-48.40058658233532
10.705882112,0.9997415704670638,-49.495428281087584
10.726342656,0.9997718719301131,-50.59076310889864
10.7468032,0.999809855470077,-51.686669373485394
10.767263744,0.9998545159995725,-52.783245552582606
10.787724288,0.9999041259222714,-53.880543945841325
10.808183808,0.9999573990119539,-54.97864577326734
10.828644352,1.000012232700304,-56.07755526614407
10.849104896,1.0000670804089575,-57.17727227851306
10.86956544,1.0001199651422268,-58.27782706582753
10.890025984,1.0001692600255594,-59.379184454349094
10.910485504,1.000213174282536,-60.48129585596371
10.930946048,1.0002504715830836,-61.58412116790813
10.951406592,1.000279766913295,-62.6875775181745
10.971867136,1.0003000667898925,-63.79158388310094
10.99232768,1.0003106381041156,-64.89604183572695
11.012788224,1.000311245726894,-66.00085739921994
11.033247744,1.0003018548692804,-67.10594343214525
11.053708288,1.0002824522543132,-68.21118056588743
11.074168832,1.0002539681855156,-69.31649063817561
11.094629376,1.0002171463169431,-70.42177921437901
11.11508992,1.0001732541432176,-71.52697179501715
11.13554944,1.000123649152873,-72.63201625779024
11.156009984,1.0000698746680288,-73.7368347481523
11.176470528,1.00001394849371,-74.84142289503313
11.196931072,0.9999573792011268,-75.9457638211437
11.217391616,0.9999023410413806,-77.04987007930924
11.23785216,0.9998504266540253,-78.1537527405522
11.25831168,0.9998034040415622,-79.2574726354124
11.278772224,0.9997628870489164,-80.3610970494897
11.299232768,0.9997301770680791,-81.46467581632818
11.319693312,0.9997064951938254,-82.56834239192374
11.340153856,0.9996924055823662,-83.67216060289714
11.360613376,0.9996887460436937,-84.77626322372747
11.38107392,0.9996952540371962,-85.88075359213376
11.401534464,0.9997121660100907,-86.9857409893454
11.421995008,0.9997386278094621,-88.09131714680271
11.442455552,0.9997740856638969,-89.19761085509394
11.462916096,0.9998171458253969,-90.30471224579486
11.483375616,0.9998665194764522,-91.41267349116954
11.50383616,0.9999205858970981,-92.52157459911716
11.524296704,0.9999776530443943,-93.6314533494302
11.544757248,1.0000358619305154,-94.7423352562294
11.565217792,1.0000931728731748,-95.85424256271594
11.585677312,1.0001476923357242,-96.96712964455467
11.606137856,1.000197820928229,-98.08099211460924
11.6265984,1.0002417141062259,-99.19575929006034
11.647058944,1.0002778780912265,-100.31138735198861
11.667519488,1.0003052685140754,-101.42775390617288
11.687980032,1.0003228975578558,-102.54479483253931
11.708439552,1.00033016322278,-103.66239984552473
11.728900096,1.0003266398423305,-104.78046303884467
11.74936064,1.000312568650353,-105.89889196305597
11.769821184,1.0002883878956672,-107.01754668972616
11.790281728,1.0002547448481722,-108.13635319207768
11.810741248,1.0002127657553652,-109.25521323696007
11.831201792,1.000163814041446,-110.37405833802227
11.851662336,1.000109448939926,-111.49280593898207
11.87212288,1.0000514565308194,-112.61142694618027
11.892583424,0.9999917263079466,-113.72988976472416
11.913043968,0.9999321875639657,-114.84818375493542
11.933503488,0.9998748364475638,-115.9663324308975
11.953964032,0.9998214598536356,-117.08433955908002
11.974424576,0.9997740421769661,-118.20230875841746
11.99488512,0.9997339456906617,-119.32025680242178
12.015345664,0.9997026821934979,-120.4383006746796
12.035805184,0.9996810752459241,-121.55653588728174
12.056265728,0.9996701161062139,-122.67506286641486
12.076726272,0.9996701154303039,-123.79398632321211
12.097186816,0.9996810685224878,-124.91343640304902
12.11764736,0.9997026648864749,-126.03352146773163
12.138107904,0.999734372155469,-127.15435066482306
12.158567424,0.9997749535674554,-128.27602247591827
12.179027968,0.9998232160979792,-129.39865028917114
12.199488512,0.9998776192533683,-130.52226123659875
12.219949056,0.999936429978126,-131.64695201962837
12.2404096,0.9999977308693365,-132.77273258998193
12.26086912,1.0000594843398907,-133.89962441319483
12.281329664,1.000119669984458,-135.0276538146286
12.301790208,1.0001762941984376,-136.15676248122577
12.322250752,1.0002274741613877,-137.28690832716967
12.342711296,1.0002715695731228,-138.41805200211627
12.36317184,1.0003071229690788,-139.55008522138206
12.38363136,1.0003328909287847,-140.6829207705066
12.404091904,1.0003479430191813,-141.8164634360174
12.424552448,1.0003517613226058,-142.9505872392052
12.445012992,1.0003442663492919,-144.08517821411888
12.465473536,1.000325633843714,-145.22013570785487
12.485933056,1.0002963648617997,-146.35532289460173
12.5063936,1.0002574318947186,-147.490640798942
12.526854144,1.0002100619193353,-148.6259989340655
12.547314688,1.0001556810516792,-149.7613068382424
12.567775232,1.0000961845593304,-150.89650819290725
12.588235776,1.0000333830265868,-152.03155683253567
12.608695296,0.9999694406249294,-153.16641536653745
12.62915584,0.9999063631495047,-154.30110060039257
12.649616384,0.9998461917021843,-155.43561509299977
12.670076928,0.9997910225170331,-156.56998497918474
12.690537472,0.9997424846574651,-157.70430327821248
12.710996992,0.999702438134375,-158.83860961854978
12.731457536,0.9996720307194547,-159.9730239749285
12.75191808,0.9996523688305858,-161.10764176066286
12.772378624,0.9996442139392064,-162.24257077390203
12.792839168,0.9996478031757036,-163.37793698392773
12.813299712,0.9996631485032742,-164.51384588229305
12.833759232,0.9996896578584009,-165.65043374654462
12.854219776,0.9997266080978127,-166.78781380330733
12.87468032,0.9997728694348855,-167.92607455399536
12.895140864,0.99982685593809,-169.0653015391785
12.915601408,0.9998868701565011,-170.20556288807933
12.936060928,0.9999510799168658,-171.3469276015407
12.956521472,1.0000172491536572,-172.4894240178138
12.976982016,1.0000833740049624,-173.63304475838382
12.99744256,1.0001471845716239,-174.77778693549553
13.017903104,1.0002066049676357,-175.92361859921908
13.038363648,1.0002597498753638,-177.07047896909816
13.058823168,1.0003046794307888,-178.21828690891917
13.079283712,1.0003400055565355,-179.3669623346444
13.099744256,1.000364636519247,179.48363094948283
13.1202048,1.000377362740222,178.33358946624162
13.140665344,1.0003781176897066,177.18303488624088
13.161124864,1.000366668076687,176.0321239529156
13.181585408,1.000343232851382,174.880956457565
13.202045952,1.0003085835709973,173.72967088860545
13.222506496,1.0002639747302446,172.5783694712492
13.24296704,1.0002105455078845,171.42716785613848
13.263427584,1.0001499366592084,170.27616454503885
13.283887104,1.0000844677971423,169.125401744483
13.304347648,1.0000160235890525,167.9749353820915
13.324808192,0.9999468308952193,166.82480414607622
13.345268736,0.9998791462666212,165.67498624044657
13.36572928,0.9998152094353958,164.52547182028763
13.3861888,0.999757046915623,163.37622685323277
13.406649344,0.9997067374616935,162.22717625039158
13.427109888,0.9996657851344316,161.07823819494226
13.447570432,0.9996358382354639,159.92931078063262
13.468030976,0.9996176689850745,158.78027838753124
13.48849152,0.9996121535862512,157.63102693660045
13.50895104,0.9996194052841199,156.4814299904422
13.529411584,0.9996391750591079,155.33134641798995
13.549872128,0.9996710495173313,154.1806682545169
13.570332672,0.9997139165485007,153.02928242681824
13.590793216,0.999766604222081,151.8770567183259
13.611252736,0.9998273033128173,150.72394299069455
13.63171328,0.999894144888698,149.56984108907088
13.652173824,0.9999649406005521,148.41470868586683
13.672634368,1.0000373592981981,147.2585209055231
13.693094912,1.0001090999140898,146.1012879341802
13.713555456,1.0001779143998248,144.94302356792892
13.734014976,1.0002413402121995,143.78374790748146
13.75447552,1.0002974395082382,142.62357546950722
13.774936064,1.0003442141310432,141.4625776507485
13.795396608,1.0003801779647628,140.30086040527397
13.815857152,1.0004040024494645,139.13854464600178
13.836316672,1.0004150443753541,137.97578305321676
13.856777216,1.0004125649805284,136.81268878549795
13.87723776,1.0003967857241354,135.64943901672373
13.897698304,1.0003680754374005,134.48613840923113
13.918158848,1.0003273898915708,133.3229543971672
13.938619392,1.000275751837096,132.16000890629596
13.959078912,1.000215041036803,130.99738983741318
13.979539456,1.0001469135777492,129.83521152338358
14.0,1.0000738800237787,128.67354095498936
