freq,mag,phase
6.0,1.0000963240875638,40.89279388689222
6.005645824,1.0000950164988642,40.75897094145934
6.011291648,1.0000880645994854,40.625199013437175
6.01693696,1.000075816125003,40.491525150172734
6.022582784,1.0000590103796207,40.35810262274257
6.028228608,1.0000386877640914,40.224890399875896
6.033874432,1.0000158347125643,40.09202949401301
6.039520256,0.9999920234070581,39.95945848122612
6.04516608,0.9999683937149024,39.827182380699234
6.050811392,0.9999465934043189,39.695284717266325
6.056457216,0.9999276751401153,39.563562892969955
6.06210304,0.9999129200576814,39.43217264909571
6.067748864,0.9999030714756563,39.30088399697901
6.073394688,0.9998987398580815,39.16975280548871
6.07904,0.9999001725223078,39.03858789355384
6.084685824,0.9999073840333907,38.907407909396674
6.090331648,0.9999197834398269,38.776035823143445
6.095977472,0.9999368258427836,38.644525263345464
6.101623296,0.9999574300289431,38.512661202209514
6.10726912,0.9999803754586509,38.380523499111234
6.112914432,1.000004263620767,38.24802487768288
6.118560256,1.0000279460282426,38.11522732535803
6.12420608,1.0000498170408356,37.982103894510665
6.129851904,1.0000687140205022,37.84869806632233
6.135497728,1.0000833321106253,37.71503708707423
6.14114304,1.0000931072952006,37.581230968163545
6.146788864,1.00009724718449,37.44727819476616
6.152434688,1.0000955424361722,37.313344571274754
6.158080512,1.000088169356056,37.17942354721578
6.163726336,1.0000754695350353,37.04568552802887
6.16937216,1.0000582781852543,36.91207365889323
6.175017472,1.0000374792574622,36.778819765416095
6.180663296,1.0000143236722652,36.6458154379774
6.18630912,0.999990242315116,36.513103266719504
6.191954944,0.9999665580740461,36.38076481770367
6.197600768,0.9999446065702141,36.248745770250004
6.20324608,0.9999257934066067,36.116985729132416
6.208891904,0.999911134327355,35.98549232138271
6.214537728,0.9999015815082885,35.85412881045373
6.220183552,0.9998976378286693,35.72287935018341
6.225829376,0.9998994533607314,35.59160013496451
6.2314752,0.9999071360371035,35.46027171015423
6.237120512,0.999919998159895,35.328798282409046
6.242766336,0.9999374819249051,35.19711669701562
6.24841216,0.9999585219579422,35.06515095874188
6.254057984,0.9999817566207434,34.93288269264127
6.259703808,1.0000060787394323,34.80025368050315
6.26534912,1.0000298129742604,34.667319355151726
6.270994944,1.0000517439892525,34.53402870280772
6.276640768,1.0000705465752764,34.40047126814027
6.282286592,1.0000850514856816,34.2666713597898
6.287932416,1.0000944357928117,34.132676167227565
6.293577728,1.000098306654868,33.99861847330797
6.299223552,1.000096177696439,33.86452666948138
6.304869376,1.0000883521949366,33.73050935352859
6.3105152,1.0000751994972017,33.59662699352949
6.316161024,1.0000574749711155,33.46294982527166
6.321806848,1.000036272323212,33.32952305506271
6.32745216,1.0000127929173177,33.19639633398425
6.333097984,0.9999884354802139,33.063669355088024
6.338743808,0.999964521863335,32.931204758467985
6.344389632,0.9999426399062684,32.799064098700086
6.350035456,0.9999239068520837,32.667249622542435
6.355680768,0.9999094596056806,32.53561354865639
6.361326592,0.9999001126276551,32.40417500907196
6.366972416,0.9998965635293298,32.272796107519305
6.37261824,0.9998988282311584,32.141429197632526
6.378264064,0.999906879848141,32.00999623276029
6.383909888,0.9999203072758683,31.878389058444366
6.3895552,0.999938246172985,31.74654010017338
6.395201024,0.9999595973497444,31.614430110716167
6.400846848,0.9999832649035076,31.482039261863168
6.406492672,1.0000077572702823,31.34925710036448
6.412138496,1.0000317784460364,31.216153899566347
6.417783808,1.0000536707174976,31.082719615500643
6.423429632,1.0000723706785033,30.94900656493587
6.429075456,1.0000867156977733,30.81503776600868
6.43472128,1.0000958783000096,30.680935250710704
6.440367104,1.0000992735217618,30.54668482863295
6.446012928,1.0000967801584402,30.41250591698629
6.45165824,1.0000884321150678,30.278338627272415
6.457304064,1.0000747552350007,30.144320281840326
6.462949888,1.00005671501516,30.010545591109697
6.468595712,1.0000350573216625,29.877000331065947
6.474241536,1.0000112251137971,29.74378166873585
6.479886848,0.9999865517477228,29.610929726729584
6.485532672,0.9999625569058255,29.478386914924
6.491178496,0.999940579505787,29.346139801516795
6.49682432,0.9999219064452857,29.214191103305538
6.502470144,0.9999076270426385,29.082495793274532
6.508115968,0.9998986526549034,28.950919665152583
6.51376128,0.9998954138746353,28.819432543090233
6.519407104,0.9998982120743037,28.68796196575772
6.525052928,0.9999067193061805,28.5563681352053
6.530698752,0.999920593359908,28.42465786627262
6.536344576,0.9999389908615637,28.292698075744326
6.541989888,0.9999608259039028,28.1604427619298
6.547635712,0.9999847987419526,28.027886926083735
6.553281536,1.0000096524938136,27.894963713313725
6.55892736,1.0000336361374507,27.76171924453369
6.564573184,1.0000557132963013,27.628123077205036
6.570219008,1.0000742947882544,27.494245528591186
6.57586432,1.0000884170692508,27.360144844614677
6.581510144,1.0000973143938272,27.22584958081261
6.587155968,1.0001003678569618,27.09150232590148
6.592801792,1.0000973454609667,26.957110771623636
6.598447616,1.000088587529077,26.822861011107037
6.604092928,1.0000744617215154,26.688710243743692
6.609738752,1.0000559017212876,26.554786923921377
6.615384576,1.0000338094832513,26.421157404718315
6.6210304,1.000009667755673,26.287826085630698
6.626676224,0.9999847378085107,26.154857647159524
6.632322048,0.9999605571832296,26.022195421729023
6.63796736,0.9999385287937449,25.889899555374036
6.643613184,0.9999199226460682,25.757827683798617
6.649259008,0.9999059192505251,25.625998406766005
6.654904832,0.9998971467798348,25.49431731041654
6.660550656,0.9998943352612132,25.36270874931957
6.666195968,0.999897513352268,25.231114845748657
6.671841792,0.9999065913120623,25.09940573991037
6.677487616,0.9999208880343725,24.967586546436653
6.68313344,0.9999397467784288,24.83543743820373
6.688779264,0.9999620645243295,24.703070500639523
6.694425088,0.999986442904411,24.57037354518409
6.7000704,1.0000113759795726,24.437283816747197
6.705716224,1.0000356415064728,24.30386370527055
6.711362048,1.0000577077270065,24.170128355141046
6.717007872,1.0000762339466027,24.036083393517824
6.722653696,1.0000902098425692,23.90181867846929
6.728299008,1.000098823009564,23.767408809024793
6.733944832,1.000101400488439,23.632862624785382
6.739590656,1.0000980448212822,23.498342381114025
6.74523648,1.0000887301811157,23.363936640644546
6.750882304,1.0000741118132028,23.229653674700447
6.756528128,1.0000550046055772,23.09560212446424
6.76217344,1.0000325431912551,22.961875470136746
6.767819264,1.0000080177016488,22.828406224602823
6.773465088,0.9999828457244743,22.695311745551898
6.779110912,0.9999584717413682,22.56257408494114
6.784756736,0.9999364883042794,22.43012460656279
6.790402048,0.9999179926875125,22.29798678626416
6.796047872,0.9999041418951004,22.16605781370607
6.801693696,0.9998956254627903,22.03427619253272
6.80733952,0.9998931868415285,21.902568735153697
6.812985344,0.9998968180763392,21.770817593267093
6.818630656,0.9999063815135615,21.63900383544734
6.82427648,0.9999212409371668,21.507026179382432
6.829922304,0.9999405798919904,21.374763588498205
6.835568128,0.9999632911329391,21.2422279362971
6.841213952,0.9999880158519188,21.10935549419109
6.846859776,1.0000132805690165,20.9761394252543
6.852505088,1.0000377246250534,20.842531298355677
6.858150912,1.000059839317335,20.708651438198736
6.863796736,1.0000782348106287,20.57442668751742
6.86944256,1.0000919964277717,20.44000100806303
6.875088384,1.0001002939720909,20.305426345154313
6.880733696,1.000102547774186,20.170745090467065
6.88637952,1.0000986967020955,20.036071929458593
6.892025344,1.0000888238872887,19.901507228264137
6.897671168,1.0000737565306326,19.76712122565221
6.903316992,1.000054119861034,19.632954061451034
6.908962816,1.0000312627962062,19.499031406880462
6.914608128,1.0000063683095182,19.36550781044234
6.920253952,0.9999809795167233,19.232301095725145
6.925899776,0.9999563833605817,19.099441882469545
6.9315456,0.999934399187426,18.96690395729024
6.937191424,0.9999158465751578,18.834620355611243
6.942836736,0.9999022778893503,18.702593478514892
6.94848256,0.9998941555222803,18.570683587889018
6.954128384,0.9998921153872007,18.438852715169908
6.959774208,0.999896208204805,18.307004288777122
6.965420032,0.9999061791821935,18.17505140556178
6.971065856,0.999921592540629,18.04288373666326
6.976711168,0.9999414408725175,17.910541631964335
6.982356992,0.9999645582683397,17.777836370932768
6.988002816,0.9999896736568161,17.644790759010615
6.99364864,1.0000151895026457,17.511402316122382
6.999294464,1.0000397932588954,17.377662601261562
7.004939776,1.000061928496957,17.24356324775602
7.0105856,1.000080228897669,17.109211405527226
7.016231424,1.0000938311790095,16.97462402752778
7.021877248,1.000101803172352,16.839875814645268
7.027523072,1.0001036969714898,16.70502884388988
7.033168896,1.000099339480902,16.570223801829453
7.038814208,1.000089061093723,16.435510489455368
7.044460032,1.0000734153186348,16.30095991733791
7.050105856,1.0000532640752133,16.166657641214602
7.05575168,1.0000299374329311,16.032662213783507
7.061397504,1.0000046909999707,15.898982488837127
7.067042816,0.9999790062943851,15.765661589210243
7.07268864,0.9999543224149361,15.632685495665228
7.078334464,0.9999321575266008,15.500018479103831
7.083980288,0.9999138364995288,15.367687200694606
7.089626112,0.9999004146909269,15.235507238487306
7.095271936,0.9998925919572369,15.103488181120118
7.100917248,0.9998908656065069,14.971517559581285
7.106563072,0.9998955039681433,14.839536389434011
7.112208896,0.9999060269111072,14.707454860001313
7.11785472,0.9999219441318602,14.575163874399287
7.123500544,0.999942309727133,14.442613092154517
7.129145856,0.9999658297265817,14.309768339949441
7.13479168,0.9999913454704439,14.176582315539536
7.140437504,1.0000172219391816,14.043036920727975
7.146083328,1.0000419578178903,13.909100769640068
7.151729152,1.0000640598446242,13.774842707992333
7.157374976,1.0000823324449122,13.640316797923287
7.163020288,1.0000956637828744,13.505540043907299
7.168666112,1.000103312484037,13.370648350899657
7.174311936,1.0001048049804262,13.235639114963679
7.17995776,1.0001000079898,13.100698641207694
7.185603584,1.0000891413038009,12.965789087932913
7.191248896,1.0000730251160617,12.831114517053788
7.19689472,1.0000524297075573,12.696688880846647
7.202540544,1.0000285693769224,12.562562846451316
7.208186368,1.0000029521256497,12.428739349148724
7.213832192,0.9999769134963111,12.295321288351111
7.219478016,0.9999521381270954,12.162233970042545
7.225123328,0.9999300583266221,12.029463577278463
7.230769152,0.9999117464151683,11.896964784340959
7.236414976,0.9998985240537555,11.7647091367046
7.2420608,0.9998910514426455,11.63255120310122
7.247706624,0.9998897868019847,11.500487949102563
7.253351936,0.999894835594678,11.36836388246791
7.25899776,0.9999059343222968,11.236137749873743
7.264643584,0.9999222956821268,11.10370190891726
7.270289408,0.9999432239549232,10.971024023741908
7.275935232,0.9999672052701092,10.838006535329747
7.281581056,0.9999930600941549,10.704647564173372
7.287226368,1.000019168809616,10.570902407411083
7.292872192,1.000044047668642,10.436803133293003
7.298518016,1.0000662877837019,10.302368015654011
7.30416384,1.0000844320516178,10.16767746526328
7.309809664,1.0000976086013018,10.032730460887494
7.315454976,1.0001049134960358,9.897634139028444
7.3211008,1.000105925263862,9.762500592485567
7.326746624,1.0001006084464452,9.627353753415905
7.332392448,1.000089314134215,9.492351412311319
7.338038272,1.000072596757013,9.357521337054573
7.343683584,1.0000515109535044,9.222920640064338
7.349329408,1.0000272877666467,9.088673616860586
7.354975232,1.0000011820589942,8.954745816735159
7.360621056,0.9999749412312007,8.821194186059007
7.36626688,0.9999499424905601,8.687986499730666
7.371912704,0.999927752728953,8.555115588282018
7.377558016,0.9999095668136967,8.422477298561084
7.38320384,0.999896647563822,8.290106607860652
7.388849664,0.9998894075265231,8.157821827925739
7.394495488,0.9998886213345338,8.025650068894274
7.400141312,0.9998942318386499,7.893376296913845
7.405786624,0.9999057909517518,7.761011115738265
7.411432448,0.9999227513387859,7.628445898030654
7.417078272,0.9999441009232677,7.495571068784747
7.422724096,0.9999686114583736,7.362412560251121
7.42836992,0.9999947863122587,7.228876218118463
7.434015744,1.0000212922852298,7.094962828477112
7.439661056,1.0000463156784536,6.960672373627845
7.44530688,1.000068469903332,6.826064545024675
7.450952704,1.000086639861852,6.69118906792313
7.456598528,1.0000994808875647,6.556044514533274
7.462244352,1.00010649141754,6.420813563307561
7.467889664,1.0001070532693888,6.285477745968357
7.473535488,1.0001012923949157,6.150189266683768
7.479181312,1.0000894113871786,6.014992906536685
7.484827136,1.000072222528049,5.880043635075186
7.49047296,1.000050527000138,5.745334624853631
7.496118784,1.0000258155644826,5.610911808690178
7.501764096,0.9999993621355535,5.476875835768175
7.50740992,0.9999728452330221,5.343182598907417
7.513055744,0.999947720939612,5.2098702615078505
7.518701568,0.9999254861582338,5.076853671711489
7.524347392,0.9999074555909963,4.9441167252925595
7.529992704,0.9998946778453992,4.811623892973386
7.535638528,0.9998879123463726,4.679217360316298
7.541284352,0.9998874825005083,4.546881011268984
7.546930176,0.9998934671619035,4.41450407782422
7.552576,0.9999056127148426,4.28198205317043
7.558221824,0.9999232032494212,4.149209301381788
7.563867136,0.999945054674098,4.016220002020959
7.56951296,0.9999700786406416,3.8828808606071634
7.575158784,0.9999966737788568,3.749164836355417
7.580804608,1.0000233310172741,3.615069374646038
7.586450432,1.0000485665288266,3.4806143219407986
7.592095744,1.0000708442847512,3.3458291363463375
7.597741568,1.0000888132691321,3.2107533611099943
7.603387392,1.0001014532996573,3.075467282041602
7.609033216,1.0001080963269475,2.9399922638391423
7.61467904,1.0001082504389027,2.8044898161718907
7.620324864,1.0001019511253815,2.6690690545851266
7.625970176,1.0000895430230166,2.53372228330556
7.631616,1.0000717599769349,2.3985649637158613
7.637261824,1.0000496168882986,2.2637159193852128
7.642907648,1.0000244549229738,2.1291842378890045
7.648553472,0.9999975652442039,1.9949982100668981
7.654198784,0.9999707127524474,1.8611891500887188
7.659844608,0.9999454525849493,1.7277403556339628
7.665490432,0.9999231635164436,1.5946353947674579
7.671136256,0.9999051799722668,1.4617527314801955
7.67678208,0.9998927363382654,1.329117319534536
7.682427904,0.9998862407348393,1.196624868692724
7.688073216,0.9998862846581983,1.0641328041742142
7.69371904,0.999892856257775,0.9316018235220362
7.699364864,0.9999055790214111,0.7989370376167563
7.705010688,0.9999236103374106,0.666019884407791
7.710656512,0.9999460287630965,0.5328605111676942
7.716301824,0.9999714810116154,0.3993603624274317
7.721947648,0.9999985716293283,0.26543485946305906
7.727593472,1.0000255103918891,0.13120965065180765
7.733239296,1.0000509041928993,-0.003462645438037075
7.73888512,1.000073252794436,-0.138440195898003
7.744530944,1.0000910429331848,-0.27370489112962415
7.750176256,1.0001034671573643,-0.4091877631660536
7.75582208,1.0001098240542987,-0.544810230056534
7.761467904,1.0001095178460429,-0.6804920779000831
7.767113728,1.000102645706617,-0.8161176569715577
7.772759552,1.000089721735251,-0.9516368063457784
7.778404864,1.000071341941219,-1.0869121533786918
7.784050688,1.0000486607898689,-1.2219261578235028
7.789696512,1.0000228669035738,-1.3566064135581601
7.795342336,0.9999957492965371,-1.4909153437068479
7.80098816,0.9999685696806206,-1.6248457740450815
7.806633984,0.9999431344912405,-1.7584069256195556
7.812279296,0.9999208154390733,-1.8916778172639854
7.81792512,0.9999029545967879,-2.024667722963393
7.823570944,0.999890689538508,-2.1574345641092867
7.829216768,0.9998845519838827,-2.2900941101469106
7.834862592,0.9998850517460595,-2.4227066090338942
7.840507904,0.9998922002026053,-2.5553688072326652
7.846153728,0.9999054510037908,-2.688205694541996
7.851799552,0.9999240742776019,-2.821244163974693
7.857445376,0.9999470682167307,-2.9546020818592083
7.8630912,0.9999730476392676,-3.088287070675726
7.868736512,1.0000003978710332,-3.2223762239467426
7.874382336,1.0000278081453025,-3.3568235827500894
7.88002816,1.0000532470309476,-3.491643068928343
7.885673984,1.0000755638827543,-3.626833905751949
7.891319808,1.0000933826892513,-3.7623037663269123
7.896965632,1.0001055654870379,-3.8979731567933915
7.902610944,1.0001114689405421,-4.033787485937191
7.908256768,1.000110793779022,-4.169641406263322
7.913902592,1.0001034220643534,-4.305444721152899
7.919548416,1.0000897866672065,-4.441127897769475
7.92519424,1.000070874879157,-4.57655561487947
7.930839552,1.0000476654102646,-4.711726421436244
7.936485376,1.0000214474113394,-4.846524996478896
7.9421312,0.9999938136733497,-4.981008089224719
7.947777024,0.9999664252702735,-5.115077836826293
7.953422848,0.9999407204105625,-5.248767739287831
7.959068672,0.9999184696261731,-5.382127194573213
7.964713984,0.9999007026267883,-5.515257693527808
7.970359808,0.9998886222417253,-5.6481773509485365
7.976005632,0.9998829104087376,-5.780946160755667
7.981651456,0.9998838727437488,-5.913708457377333
7.98729728,0.9998915130232882,-6.046529670439642
7.992942592,0.9999053662096166,-6.179506969864856
7.998588416,0.9999245611398276,-6.312736573508376
8.00423424,0.9999481929824819,-6.446259622074858
8.009880064,0.9999745553505339,-6.580133392518918
8.015525888,1.0000023945161056,-6.7143980391764275
8.021171712,1.0000300124945527,-6.849051062231818
8.026817024,1.0000556673117922,-6.984098506879991
8.032462848,1.0000780017987008,-7.119447840909326
8.038108672,1.0000957820154432,-7.255096646146326
8.043754496,1.000107643232209,-7.3909856237058715
8.04940032,1.0001131857098753,-7.526957582314407
8.055045632,1.0001120065554663,-7.66301904882215
8.060691456,1.000104126054157,-7.799001130635545
8.06633728,1.000089932020486,-7.934848125748198
8.071983104,1.0000704570174601,-8.070452235405973
8.077628928,1.0000465631058295,-8.205764133808852
8.083274752,1.0000199102516403,-8.340719470612239
8.088920064,0.9999918518121832,-8.475324560087042
8.094565888,0.9999641552643177,-8.609513169519385
8.100211712,0.9999382984845016,-8.743361365829156
8.105857536,0.9999158938442091,-8.876878514142804
8.11150336,0.9998984720953761,-9.010108451350723
8.117148672,0.9998865340127433,-9.143154790941052
8.122794496,0.9998811891729472,-9.276095442800369
8.12844032,0.9998826048024287,-9.408990830282614
8.134086144,0.999890773388336,-9.541961942690888
8.139731968,0.9999052795414227,-9.675107957841126
8.145377792,0.9999251426144722,-9.808495899852232
8.151023104,0.9999492272487123,-9.94219844127173
8.156668928,0.9999761911151289,-10.076257264719995
8.162314752,1.000004402983433,-10.210716957914608
8.167960576,1.0000322917258668,-10.345563424043576
8.1736064,1.0000581597443599,-10.480801241940245
8.179251712,1.0000805145125793,-10.61636858877679
8.184897536,1.000098106842378,-10.752226049072972
8.19054336,1.0001098165835696,-10.888302987354646
8.196189184,1.0001149455944294,-11.024514120719353
8.201835008,1.0001132544593012,-11.160717877986638
8.207480832,1.0001047541978771,-11.296903752255735
8.213126144,1.00009007286767,-11.432892055053294
8.218771968,1.000069991428879,-11.56867313725315
8.224417792,1.0000455622682214,-11.704127301033273
8.230063616,1.0000183164447367,-11.839253878337233
8.23570944,0.9999898630387513,-11.973990184122428
8.241354752,0.9999618126234856,-12.108357203552268
8.247000576,0.999935898499276,-12.2423421092035
8.2526464,0.9999133904032449,-12.375985891125945
8.258292224,0.9998959883581452,-12.509327846925476
8.263938048,0.9998844205543975,-12.642530953525437
8.269583872,0.999879496793468,-12.775586354795392
8.275229184,0.9998813766037921,-12.908658854467074
8.280875008,0.999890198937873,-13.041795471069197
