freq,mag,phase
6.0,1.000328617268907,31.66485031638135
6.004186112,1.000346585116908,31.554463431495954
6.008372736,1.0003434798812991,31.443964598010368
6.012558848,1.00031931585559,31.333642103499653
6.01674496,1.0002756869880856,31.22383186763404
6.020931584,1.0002149837221777,31.114725856917808
6.025117696,1.0001410338823207,31.006610253589383
6.029303808,1.0000582858599953,30.89958336117285
6.033490432,0.9999717795060021,30.793736822355843
6.037676544,0.9998868834946124,30.689137067466557
6.041862656,0.9998086020834717,30.585670499215624
6.04604928,0.9997418585931132,30.48325655209298
6.050235392,0.9996906902741988,30.381688368238688
6.054422016,0.9996581266584772,30.28072008315784
6.058608128,0.9996462777753077,30.18002009167563
6.06279424,0.999655810028582,30.079342413464467
6.066980864,0.9996861376572888,29.978389097139868
6.071166976,0.9997354847676763,29.876863024611826
6.075353088,0.9998008197991574,29.774550180988154
6.079539712,0.9998781198516543,29.67117434966904
6.083725824,0.9999627081191547,29.566637285501127
6.087911936,1.000049516477576,29.46090884669262
6.09209856,1.0001331607680743,29.353924024759436
6.096284672,1.0002085224786936,29.245830346064075
6.100470784,1.0002711118031036,29.136713264226525
6.104657408,1.000317031900682,29.026838055843797
6.10884352,1.0003435046380216,28.916495982801795
6.113029632,1.00034897415754,28.80583204659861
6.117216256,1.0003330100741397,28.695316542664287
6.121402368,1.000296600109296,28.58509729573562
6.12558848,1.0002420047693685,28.47557375728253
6.129775104,1.0001724901192581,28.36691392066815
6.133961216,1.0000923072036692,28.25930090784409
6.138147328,1.0000062891013217,28.152876075636623
6.142333952,0.9999197325090413,28.047696682070722
6.146520064,0.9998379089994801,27.94368172797187
6.150706688,0.9997657774757621,27.840775720539334
6.1548928,0.9997076785484962,27.738776149671807
6.159078912,0.9996672724288992,27.637522667710403
6.163265536,0.9996469910901049,27.536645141322477
6.167451648,0.9996479812527278,27.435931363291626
6.17163776,0.9996704134981445,27.335043523875463
6.175824384,0.999712689089776,27.233651248360577
6.180010496,0.9997723616427795,27.13160133253863
6.184196608,0.9998458290438467,27.028532464024284
6.188383232,0.9999285821722975,26.924381736305953
6.192569344,1.0000154910448393,26.819035721614952
6.196755456,1.0001014028906012,26.712404856236546
6.20094208,1.0001810340199393,26.604602014713002
6.205128192,1.0002494336382424,26.49574688357365
6.209314304,1.0003025901247231,26.386059341595058
6.213500928,1.0003372819462049,26.275690420837467
6.21768704,1.0003511874561224,26.165005259216294
6.221873152,1.0003436359605067,26.05423285911314
6.226059776,1.0003150061285522,25.94373694057349
6.230245888,1.0002670441517525,25.833743526888206
6.234432,1.000202607842718,25.724599584093987
6.238618624,1.0001257314041394,25.616436255507526
6.242804736,1.00004113998306,25.509423971125635
6.24699136,0.9999536599544742,25.403614778307713
6.251177472,0.999868948835234,25.299036399420487
6.255363584,0.9997920624765604,25.195621864124007
6.259550208,0.9997276067630801,25.093201660993593
6.26373632,0.9996795746290376,24.991570398368957
6.267922432,0.9996510346231638,24.89047982283543
6.272109056,0.999643529224055,24.789603647916557
6.276295168,0.9996575887485414,24.688754829294776
6.28048128,0.9996924056442072,24.58752677824044
6.284667904,0.9997458287078732,24.485650405401714
6.288854016,0.9998146499871885,24.38289169550284
6.293040128,0.9998946712842928,24.279101774205614
6.297226752,0.9999809021778368,24.17410984229818
6.301412864,1.0000683075097563,24.067885089532567
6.305598976,1.0001513856010753,23.960417801717504
6.3097856,1.0002251356841987,23.851819503419193
6.313971712,1.0002851314111938,23.74227600121841
6.318157824,1.0003276255215645,23.63202047482023
6.322344448,1.0003499829124307,23.521289324341524
6.32653056,1.0003509710164582,23.410352790758346
6.330716672,1.0003304512117817,23.299605024513344
6.334903296,1.0002896679038251,23.189250755755737
6.339089408,1.0002311011885132,23.07961295050499
6.34327552,1.0001583359149973,22.970882238061446
6.347462144,1.0000757792200172,22.863269397855696
6.351648256,0.999988332317609,22.75683771408018
6.35583488,0.9999015707455394,22.651719621509102
6.360020992,0.9998205429671575,22.54774778159768
6.364207104,0.9997503367639571,22.44478607132474
6.368393728,0.9996951541804374,22.342790013302313
6.37257984,0.9996584334570037,22.241419262675365
6.376765952,0.9996423157553205,22.14043608932664
6.380952576,0.9996479576824246,22.039505481593473
6.385138688,0.9996748557898049,21.938361636855745
6.3893248,0.9997214767958293,21.836696766787558
6.393511424,0.9997849649414509,21.734191373198456
6.397697536,0.9998614100054006,21.630728029951303
6.401883648,0.9999462256982413,21.526124496880968
6.406070272,1.0000342149969743,21.420234846655465
6.410256384,1.000120050724949,21.313104981207214
6.414442496,1.0001984219320825,21.204847601624238
6.41862912,1.0002646169136171,21.095502744708327
6.422815232,1.0003146942090293,20.985376475759292
6.427001344,1.000345397909698,20.87467123678726
6.431187968,1.0003550608400809,20.763658702373633
6.43537408,1.0003428930640332,20.652622830688443
6.439560192,1.0003097501592233,20.541929556841282
6.443746816,1.0002576804111218,20.43183313287936
6.447932928,1.0001896955624296,20.32258586683291
6.452119552,1.0001100809317736,20.214417605974255
6.456305664,1.0000234778461603,20.107392114385892
6.460491776,0.9999353555336712,20.001606888896188
6.4646784,0.9998510479302443,19.8970318079605
6.468864512,0.9997756339019027,19.793647980220783
6.473050624,0.9997137678614907,19.691157105756393
6.477237248,0.9996691277758187,19.589486435224924
6.48142336,0.9996446008357146,19.48830183808174
6.485609472,0.99964154540316,19.387282031324407
6.489796096,0.9996602036562806,19.286154778160007
6.493982208,0.99969947119259,19.1846284756365
6.49816832,0.9997569371095647,19.08238717888242
6.502354944,0.9998291140695403,18.979201114775616
6.506541056,0.9999116085699644,18.87495680649292
6.510727168,0.9999994397852435,18.769447981058757
6.514913792,1.000087135365792,18.662719711131814
6.519099904,1.0001695091117948,18.554767699757463
6.523286016,1.0002414243555675,18.445712223372173
6.52747264,1.0002985294363418,18.335711762903923
6.531658752,1.00033749161272,18.225027143374394
6.535844864,1.000355728936247,18.113978282210734
6.540031488,1.0003521593184388,18.0027582077643
6.5442176,1.0003270345133215,17.891767460609646
6.548404224,1.0002819010419697,17.78125646046858
6.552590336,1.0002195403746401,17.671490873591495
6.556776448,1.0001435327873585,17.56271902210714
6.560963072,1.0000587230872757,17.45510852350388
6.565149184,0.9999701110882796,17.34872410042736
6.569335296,0.9998831859335977,17.24356306143083
6.57352192,0.9998033154361126,17.139602201638798
6.577708032,0.9997352563613008,17.03669378308285
6.581894144,0.9996831355454828,16.93462829077929
6.586080768,0.9996501475362145,16.833193014875285
6.59026688,0.9996384134035309,16.732025969137126
6.594452992,0.9996485840240203,16.630881054579323
6.598639616,0.9996800599284408,16.529445142798153
6.602825728,0.9997309321348682,16.42742059383017
6.60701184,0.9997980639176334,16.324541020160442
6.611198464,0.9998774746354822,16.22061043818379
6.615384576,0.9999642140093189,16.11549225594909
6.619570688,1.0000530246348196,16.009118973887407
6.623757312,1.0001385354836712,15.901508118898109
6.627943424,1.0002156424175808,15.79272907348634
6.632129536,1.0002794459376703,15.682955416933599
6.63631616,1.0003261297246933,15.572356736315127
6.640502272,1.0003529190650569,15.46126989590913
6.644688896,1.0003581330536981,15.349932834947293
6.648875008,1.0003413699656252,15.238650675774077
6.65306112,1.00030369008017,15.127772277199412
6.657247744,1.0002474589985226,15.017553797944379
6.661433856,1.0001760407607103,14.90822268127106
6.665619968,1.0000936913140073,14.799994041241101
6.669806592,1.0000055094723277,14.692992481612084
6.673992704,0.9999168835188312,14.587222138646183
6.678178816,0.9998331651905693,14.482681204588845
6.68236544,0.9997594295665391,14.379266645259854
6.686551552,0.9997002499576094,14.276788935031897
6.690737664,0.999659124647035,14.175033963551414
6.694924288,0.9996387287453782,14.073678780157127
6.6991104,0.9996401900986637,13.972460177142132
6.703296512,0.9996634999450635,13.871086192915666
6.707483136,0.9997072197108089,13.769252082057854
6.711669248,0.9997686234212014,13.666614837579727
6.71585536,0.9998440549750819,13.562992399612556
6.720041984,0.999928923216189,13.458250465604051
6.724228096,1.0000180652536073,13.35225830105966
6.728414208,1.0001059511784083,13.245012784186613
6.732600832,1.0001874304152472,13.136555949656318
6.736786944,1.0002574014701215,13.027001286878038
6.740973568,1.0003116136693808,12.916584293001046
6.74515968,1.0003467112382125,12.805479113586829
6.749345792,1.0003606692568785,12.694047271683063
6.753532416,1.000352543460187,12.582563142686892
6.757718528,1.0003228609570323,12.471327873152298
6.76190464,1.0002734059769345,12.360663296176055
6.766091264,1.000207186010772,12.25085630788626
6.770277376,1.0001281749771538,12.142008268115829
6.774463488,1.0000412365323639,12.034366748625184
6.778650112,0.9999517313628166,11.927977964254664
6.782836224,0.9998648752792161,11.822835460177213
6.787022336,0.9997862178450041,11.718875234600727
6.79120896,0.9997204489799235,11.61592896308603
6.795395072,0.9996715462574096,11.513811719565464
6.799581184,0.9996425318678863,11.412234681920467
6.803767808,0.9996351610506056,11.310885045941733
6.80795392,0.9996500382111797,11.209563454894555
6.812140032,0.9996860150799516,11.10780011047592
6.816326656,0.9997410430073734,11.005414812382135
6.820512768,0.9998118860304349,10.902137364571972
6.82469888,0.9998939770724576,10.797723479690003
6.828885504,0.9999825923820912,10.692109009517623
6.833071616,1.0000720926280275,10.585223011139993
6.837257728,1.000157168084549,10.477072114680348
6.841444352,1.000232626851728,10.36779214169835
6.845630464,1.000293816961081,10.257539373593346
6.849817088,1.0003370678792676,10.146536533591192
6.8540032,1.0003597336514178,10.03505195669588
6.858189312,1.0003603603218794,9.923378501194783
6.862375936,1.000338977227852,9.811852132755714
6.866562048,1.000296863608392,9.700777116082461
6.87074816,1.0002366386563881,9.590455396763325
6.874934784,1.0001617204151516,9.481063630325371
6.879120896,1.0000769387686308,9.372795965770027
6.883307008,0.9999872032675244,9.265779482030041
6.887493632,0.9998982954958795,9.160029758871472
6.891679744,0.9998153310465354,9.055477550213142
6.895865856,0.9997434945869911,8.952055191276044
6.90005248,0.9996871573188798,8.84952726249299
6.904238592,0.9996497307581154,8.747650613684893
6.908424704,0.9996336399345842,8.646186211120405
6.912611328,0.9996396970172533,8.544752042278128
6.91679744,0.9996675483183357,8.443102805846852
6.920983552,0.9997157355997962,8.340902518827146
6.925170176,0.999780951917604,8.23785284415261
6.929356288,0.9998596528314236,8.133809165519795
6.9335424,0.9999467054581783,8.02855917065419
6.937729024,1.0000370313784328,7.922047768184947
6.941915136,1.0001249880985599,7.814279971554488
6.94610176,1.0002052302589144,7.7052818762459925
6.950287872,1.0002729500962455,7.59523148846201
6.954473984,1.0003240544117011,7.484337739234898
6.958660608,1.0003552578545534,7.372858200797201
6.96284672,1.0003648516428427,7.261043976142047
6.967032832,1.000352090772917,7.149299435605414
6.971219456,1.0003177180386638,7.037853018077494
6.975405568,1.0002640304091461,6.927058371022337
6.97959168,1.0001940961599984,6.817087596906339
6.983778304,1.0001121679595653,6.708234657070584
6.987964416,1.0000233241849792,6.600569808950609
6.992150528,0.9999328777517628,6.494167029755674
6.996337152,0.9998464342857568,6.389041844546161
7.000523264,0.9997693006286703,6.285088170442038
7.004709376,0.9997059388183364,6.1820961655578275
7.008896,0.9996605118738195,6.0799078148089025
7.013082112,0.9996355272348679,5.978203734029836
7.017268224,0.9996327124120123,5.8766758960523635
7.021454848,0.9996520993853152,5.775052752528682
7.02564096,0.9996927171796105,5.67298287501903
7.029827072,0.999751940332915,5.570207262309929
7.034013696,0.9998262201576742,5.466466915785507
7.038199808,0.9999109718882561,5.361579305802198
7.042386432,1.0000011668607776,5.255441020258391
7.046572544,1.000091092013912,5.148034617933437
7.050758656,1.0001756198833314,5.039407098345103
7.05494528,1.0002492899547433,4.929583795569604
7.059131392,1.0003077728530454,4.818829185863294
7.063317504,1.000347329594642,4.707383009647843
7.067504128,1.0003657697195605,4.595544419234726
7.07169024,1.000361854529824,4.483550527850289
7.075876352,1.0003358646004892,4.371770584706493
7.080062976,1.0002892541409447,4.260550381717239
7.084249088,1.0002249201525464,4.150044572493003
7.0884352,1.000146762598372,4.040609603210731
7.092621824,1.000059574150428,3.9322916416520597
7.096807936,0.9999686714869294,3.825285478809963
7.100994048,0.9998795044158557,3.7195057825795304
7.105180672,0.9997976048002494,3.6149869255683815
7.109366784,0.9997277937490272,3.511494924296338
7.113552896,0.9996744424424077,3.4089096941854025
7.11773952,0.999640931613246,3.3069435911571734
7.121925632,0.9996290995478886,3.2052828142431946
7.126111744,0.9996398837510632,3.10363001008742
7.130298368,0.9996724327061114,3.0016492301575175
7.13448448,0.9997248735283721,2.899083871338993
7.138671104,0.9997940292393576,2.795648565613789
7.142857216,0.999875737412649,2.691119800026803
7.147043328,0.9999649390327648,2.585384043917474
7.151229952,1.00005612760737,2.478343736736734
7.155416064,1.000143952118624,2.370011658146818
7.159602176,1.0002228261686699,2.26048952136753
7.1637888,1.0002882203229646,2.149960662577416
7.167974912,1.0003360017756864,2.0386109590135826
7.172161024,1.0003632427013895,1.9266872609365484
7.176347648,1.0003683001710675,1.8145546983175969
7.18053376,1.0003508054361756,1.7024868638041057
7.184719872,1.0003118977757948,1.590871069727549
7.188906496,1.0002539270621085,1.4798565326705948
7.193092608,1.0001803379203729,1.3698370462572569
7.19727872,1.0000956551557687,1.260897698278094
7.201465344,1.0000050277643027,1.1532357444106889
7.205651456,0.9999140480420532,1.046836177862215
7.209837568,0.9998280702410623,0.9416763899927971
7.214024192,0.9997525641374909,0.8377046458925885
7.218210304,0.999691835148222,0.7346937873291829
7.222396416,0.9996499106266833,0.6323678533086061
7.22658304,0.999629078212341,0.5305345634871871
7.230769152,0.9996309690101032,0.4288084022982172
7.234955776,0.9996550663303273,0.32689876898771336
7.239141888,0.9997001735374231,0.22449728179959777
7.243328,0.9997635246584812,0.12132080008022443
7.247514624,0.9998411385177325,0.017094467226190922
7.251700736,0.9999284101366053,-0.08829847072715588
7.255886848,1.0000200926087377,-0.19493003163115472
7.260073472,1.0001104135969798,-0.3028749594265255
7.264259584,1.0001940734336001,-0.4120854743641411
7.268445696,1.0002658087316716,-0.522399890881919
7.27263232,1.000321167726101,-0.6336470198954786
7.276818432,1.0003570760405218,-0.7455225943641659
7.281004544,1.000371143508214,-0.8577628839350866
7.285191168,1.0003625967795577,-0.9700510597298315
7.28937728,1.0003319324504152,-1.0820774554828798
7.293563392,1.000280901696694,-1.193493015157893
7.297750016,1.0002125803317738,-1.3041004639946954
7.301936128,1.000131307871276,-1.4136512689645784
7.30612224,1.000041847485986,-1.521978884427925
7.310308864,0.9999497765446036,-1.6290355492899622
7.314494976,0.9998606093299519,-1.734773914103018
7.318681088,0.9997798414058867,-1.839331935933562
7.322867712,0.9997123833654998,-1.942832518301755
7.327053824,0.9996622366890646,-2.045537918788567
7.331239936,0.999632781192696,-2.1476187143065446
7.33542656,0.9996254725552761,-2.2494509277245496
7.339612672,0.9996408860790547,-2.351364347513339
7.343799296,0.9996780451588625,-2.4536321513066115
7.347985408,0.9997349516398887,-2.5566273552111363
7.35217152,0.999807801232479,-2.660497983601467
7.356358144,0.9998923798271684,-2.7655210218207147
7.360544256,0.9999834436274462,-2.8717793756249095
7.364730368,1.0000754713304663,-2.9793675258353054
7.368916992,1.0001629664271086,-3.0882668567619618
7.373103104,1.0002403470966075,-3.198313361632519
7.377289216,1.000303111811676,-3.309371691484154
7.38147584,1.0003474365049128,-3.421173520833377
7.385661952,1.0003705505754878,-3.533466066125292
7.389848064,1.0003709839413555,-3.645963308589771
7.394034688,1.000348816310652,-3.7583074634244924
7.3982208,1.000305310758976,-3.8701729029122296
7.402406912,1.0002430917317462,-3.981308793939866
7.406593536,1.0001660267077577,-4.0914329384508985
7.410779648,1.0000786885494348,-4.2004211893597105
7.41496576,0.9999864401862485,-4.308123665369563
7.419152384,0.9998949633945746,-4.414549699549652
7.423338496,0.9998097366947626,-4.5196869754382405
7.427524608,0.9997360107066581,-4.623698429683079
7.431711232,0.9996780979915256,-4.726784159433003
7.435897344,0.9996398816627197,-4.829158082193073
7.440083968,0.9996234673948285,-4.931224575940882
7.44427008,0.9996298966587697,-5.03316778637094
7.448456192,0.9996588087277315,-5.135369156081776
7.452642816,0.9997084680085535,-5.238143930690874
7.456828928,0.9997757860241937,-5.341761380455312
7.46101504,0.9998567816605425,-5.446438220228157
7.465201664,0.999946451881441,-5.552338064336987
7.469387776,1.0000393147787705,-5.659509704043575
7.473573888,1.0001297431598202,-5.768053185334619
7.477760512,1.0002123851825602,-5.877782420885876
7.481946624,1.0002818562126667,-5.988639592874721
7.486132736,1.0003343027715559,-6.1003655606019365
7.49031936,1.0003661760929818,-6.212692374385934
7.494505472,1.0003758302008945,-6.325333343431846
7.498691584,1.0003624993789908,-6.437921500809007
7.502878208,1.0003271004429282,-6.550176761915195
7.50706432,1.0002716461774965,-6.661786476944838
7.511250432,1.0001995047513608,-6.772532316553636
7.515437056,1.0001152239697926,-6.882141226699054
7.519623168,1.0000236000643514,-6.990526921548343
7.52380928,0.9999306471970042,-7.097585699498986
7.527995904,0.9998416871932329,-7.203365882101096
7.532182016,0.9997623831203082,-7.307928312681767
7.53636864,0.9996972847220982,-7.41147251299488
7.540554752,0.9996506035869134,-7.514246795324786
7.544740864,0.9996250905594581,-7.616502398170472
7.548927488,0.9996223551223378,-7.718552930875773
7.5531136,0.9996425375367497,-7.820709461243156
7.557299712,0.9996844856413428,-7.923378955020843
7.561486336,0.9997455336129232,-8.026748523291367
7.565672448,0.9998221696956573,-8.131091888655464
7.56985856,0.9999093939971243,-8.236605269999398
7.574045184,1.0000022020876218,-8.34342758825658
7.578231296,1.0000949687143357,-8.451592211911137
7.582417408,1.0001817588954782,-8.56099178080382
7.586604032,1.00025752294001,-8.67158717338008
7.590790144,1.000317549714569,-8.783177941196918
7.594976256,1.0003582950593026,-8.89545067850473
7.59916288,1.000377074608442,-9.00815812238065
7.603348992,1.0003728832177459,-9.120997939230357
7.607535104,1.0003458833939702,-9.233605143153197
7.611721728,1.0002978083430805,-9.345695358196979
7.61590784,1.0002314936255203,-9.45698108029688
7.620093952,1.000150890987235,-9.567216760732444
7.624280576,1.0000611602786715,-9.67624672898167
7.628466688,0.9999674886730393,-9.783968762561386
7.632653312,0.9998757184825954,-9.890398177505793
7.636839424,0.9997914027437751,-9.995570679415556
7.641025536,0.9997196669662817,-10.099633390135445
7.64521216,0.999664740066297,-10.202805926598865
7.649398272,0.9996304158461187,-10.305331940369078
7.653584384,0.9996183708857094,-10.407539634264959
7.657771008,0.999629669196822,-10.509741819133815
7.66195712,0.9996632776633978,-10.612265117625936
7.666143232,0.9997174545791385,-10.715429858301965
7.670329856,0.9997886805352648,-10.819484717415678
7.674515968,0.9998729262795062,-10.924644815081775
7.67870208,0.999964806097868,-11.03109445350379
7.682888704,1.0000587465511785,-11.138851977307583
7.687074816,1.0001491347939542,-11.2479255636435
7.691260928,1.0002304357864498,-11.358260586381748
