freq,mag,phase
6.0,1.000480234228971,-136.39224234595898
6.004217344,1.0004499623500618,-136.64733646073577
6.008434176,1.000393077312582,-136.90183131553562
6.01265152,1.0003131548110513,-137.15543737946538
6.016868864,1.0002149178630948,-137.40776883420753
6.021085696,1.0001042188346327,-137.65867552974882
6.02530304,0.999987478236712,-137.9080283405875
6.029520384,0.9998719443815858,-138.15575884953438
6.033737728,0.9997644116996082,-138.4019016016985
6.03795456,0.9996711424924037,-138.64671627408097
6.042171904,0.9995978206182248,-138.8903645509412
6.046389248,0.9995488614694357,-139.13316308512537
6.05060608,0.9995270886086854,-139.3755213471655
6.054823424,0.9995339825489713,-139.61776561800463
6.059040768,0.9995690334816474,-139.86035212362452
6.0632576,0.9996300633099642,-140.10363756347917
6.067474944,0.9997136272695067,-140.34794188554622
6.071692288,0.99981455329529,-140.59363488415804
6.07590912,0.9999269800010244,-140.8408070692124
6.080126464,1.0000442428755905,-141.08963026308805
6.084343808,1.000159202600198,-141.34014055263583
6.08856064,1.0002650379423716,-141.5922165080059
6.092777984,1.0003554750462145,-141.84571800468902
6.096995328,1.0004251190203193,-142.10034938389322
6.101212672,1.00046984194849,-142.35582056750707
6.105429504,1.0004868911378115,-142.6117641758515
6.109646848,1.0004753067401908,-142.86777883461272
6.113864192,1.0004358239615068,-143.1234615233686
6.118081024,1.0003706124038516,-143.37843668761803
6.122298368,1.0002836181934296,-143.63233427206995
6.126515712,1.0001800680433393,-143.88494820403662
6.130732544,1.0000661169616807,-144.13604051962193
6.134949888,0.9999484724203626,-144.38556884668677
6.139167232,0.9998342215913343,-144.63342860806202
6.143384064,0.9997301610755237,-144.87980235588245
6.147601408,0.9996424612733578,-145.1248802471562
6.151818752,0.9995764244674016,-145.36885120844616
6.156036096,0.9995359302752244,-145.61210174465975
6.160252928,0.9995234853081831,-145.85503101159375
6.164470272,0.9995397874704167,-146.09796140366987
6.168687616,0.9995838655338878,-146.3413852042914
6.172904448,0.9996530300989316,-146.58561028448722
6.177121792,0.9997433551550631,-146.83099505887682
6.181339136,0.9998493009429381,-147.0778091341167
6.185555968,0.9999646683885526,-147.32616620999713
6.189773312,1.000082465116749,-147.57621656524117
6.193990656,1.000195771011089,-147.82791665722308
6.198207488,1.0002976853381285,-148.08116283242734
6.202424832,1.0003823453036356,-148.3357400551128
6.206642176,1.000444516501935,-148.59136794885575
6.210859008,1.0004806174527046,-148.84771248517913
6.215076352,1.0004883393961794,-149.1044113268409
6.219293696,1.0004673458499038,-149.36103669617845
6.22351104,1.0004188312521392,-149.61717369499786
6.227727872,1.0003456680196674,-149.8725333777068
6.231945216,1.0002522142810166,-150.12671415084887
6.23616256,1.00014393433378,-150.37946173545657
6.240379392,1.0000273876275092,-150.63070274007774
6.244596736,0.9999096389591683,-150.8802955519325
6.24881408,0.9997972817235865,-151.12828440360352
6.253030912,0.9996974994198895,-151.37485325893016
6.257248256,0.9996159907587738,-151.62009820621594
6.2614656,0.9995575860941983,-151.86440180424918
6.265682432,0.9995258982175166,-152.1081111416244
6.269899776,0.9995228490808912,-152.3515602285186
6.27411712,0.9995485222483421,-152.59521403541694
6.278334464,0.9996014383740331,-152.83945076759096
6.282551296,0.9996784916656456,-153.0846126507544
6.28676864,0.999775056800141,-153.33101711499532
6.290985984,0.9998854049734279,-153.5789174132393
6.295202816,1.0000028840440787,-153.82842613906817
6.29942016,1.0001206510228189,-154.07965047954733
6.303637504,1.0002314884366588,-154.33246979570472
6.307854336,1.0003288334126719,-154.58675956344194
6.31207168,1.0004070945300314,-154.84239169310698
6.316289024,1.0004613690992263,-155.09891919151158
6.320505856,1.000488547169961,-155.3560602250292
6.3247232,1.0004867792056427,-155.61338223862882
6.328940544,1.0004564286282287,-155.8704963623275
6.333157376,1.000399205189754,-156.1270674443245
6.33737472,1.0003184793569568,-156.3826630026411
6.341592064,1.0002189739116285,-156.63701942882088
6.345809408,1.0001066939881862,-156.88988465278007
6.35002624,0.9999883743576478,-157.14117163357744
6.354243584,0.9998709961970511,-157.39080203119062
6.358460928,0.999761431624665,-157.63887294636518
6.36267776,0.9996664347049059,-157.8855319238421
6.366895104,0.9995915655424078,-158.13096858838426
6.371112448,0.9995413263433293,-158.37558431720453
6.37532928,0.9995187574742501,-158.61968004756176
6.379546624,0.9995251688214503,-158.86368188424976
6.383763968,0.9995600926884031,-159.10800397003518
6.3879808,0.9996216783257414,-159.3530190670564
6.392198144,0.9997061133611627,-159.59908831655804
6.396415488,0.9998082958528705,-159.84649782550122
6.400632832,0.9999223057164563,-160.09546163422726
6.404849664,1.0000413455931636,-160.34605694977148
6.409067008,1.000158215889844,-160.59838634353193
6.413284352,1.0002659035655852,-160.8522953583686
6.417501184,1.000358243613639,-161.10758234889863
6.421718528,1.0004294215801457,-161.36408913286056
6.425935872,1.0004753977709335,-161.62144678504066
6.430152704,1.0004933868598649,-161.87924837749642
6.434370048,1.0004822240889817,-162.1371349733787
6.438587392,1.0004426363077001,-162.39471379339633
6.442804224,1.0003769582096371,-162.6515364532752
6.447021568,1.0002890462709468,-162.90730629304647
6.451238912,1.000184188114431,-163.1617399370178
6.455455744,1.0000685930120825,-163.41465280898845
6.459673088,0.9999491085723048,-163.66592410876993
6.463890432,0.9998329339131764,-163.91554602563883
6.468107776,0.9997268777722887,-164.16360711485981
6.472324608,0.9996373494113694,-164.41031524534398
6.476541952,0.999569798780948,-164.6559568288483
6.480759296,0.9995280117497561,-164.900844261241
6.484976128,0.9995146919835739,-165.1453143161433
6.489193472,0.999530638038832,-165.38985826057896
6.493410816,0.999574797616943,-165.63483574332722
6.497627648,0.9996446266330361,-165.88065027458913
6.501844992,0.9997358642398072,-166.12760772860744
6.506062336,0.9998432938263349,-166.375962117998
6.510279168,0.9999603000610414,-166.62593041234075
6.514496512,1.0000800799011849,-166.87758893149154
6.518713856,1.0001952994268482,-167.13091556895938
6.522930688,1.000299234313431,-167.3858014085554
6.527148032,1.0003856218673357,-167.64206354539226
6.531365376,1.00044943572003,-167.89937592680874
6.53558272,1.000486811586738,-168.1574550702108
6.539799552,1.0004952875013717,-168.41584245913862
6.544016896,1.0004747226687005,-168.67419332515934
6.54823424,1.0004260177427595,-168.93203861695054
6.552451072,1.0003522517640273,-169.18906490332603
6.556668416,1.000257748744756,-169.44491414227113
6.56088576,1.0001479555397796,-169.69934917964324
6.565102592,1.0000298280330941,-169.95220198516057
6.569319936,0.9999099071396572,-170.2033975418548
6.57353728,0.9997956135829452,-170.4529380298545
6.577754112,0.9996937207800939,-170.70100321624716
6.581971456,0.9996103240733197,-170.94774815939718
6.5861888,0.9995504201114549,-171.19352348166143
6.590406144,0.9995174470394689,-171.43862083888172
6.594622976,0.9995135602364318,-171.68348884061749
6.59884032,0.9995390597538135,-171.92855173139193
6.603057664,0.9995921166404843,-172.17417160440684
6.607274496,0.9996698435494032,-172.4206981164432
6.61149184,0.9997675947035226,-172.66848532425877
6.615709184,0.9998794606804884,-172.91780532940354
6.619926016,0.9999987819481077,-173.16873334327659
6.62414336,1.0001185846428091,-173.421371823644
6.628360704,1.0002314981217024,-173.67568164267556
6.632577536,1.0003309751386746,-173.9314734268371
6.63679488,1.0004110144023872,-174.18856239785111
6.641012224,1.0004668597066149,-174.44663783185356
6.645229056,1.0004952286675988,-174.705310090539
6.6494464,1.0004942487681152,-174.96416756453402
6.653663744,1.000464155483594,-175.22286326427985
6.657881088,1.0004066665881697,-175.48093346373972
6.66209792,1.0003251367227541,-175.7380553319659
6.666315264,1.0002244319692766,-175.99390022047035
6.670532608,1.000110603234142,-176.24826002300432
6.67474944,0.9999902998355411,-176.50096948119003
6.678966784,0.9998707336780543,-176.7520207755118
6.683184128,0.9997592266728946,-177.00147293212095
6.68740096,0.9996621410919466,-177.24940713436445
6.691618304,0.9995854767968364,-177.4961742362587
6.695835648,0.9995336097838897,-177.74203559983397
6.70005248,0.9995097828410731,-177.9873805038495
6.704269824,0.9995155466085075,-178.23263630210687
6.708487168,0.9995503013805739,-178.47813249329155
6.712704512,0.9996121692124905,-178.724374369637
6.716921344,0.9996974660493769,-178.9716583196911
6.721138688,0.9998010563163332,-179.2202615470686
6.725356032,0.9999167632531767,-179.47044485095174
6.729572864,1.0000377325329775,-179.72231356249952
6.733790208,1.0001567298513054,-179.97584985753485
6.738007552,1.0002666988891897,179.76893694785412
6.742224384,1.0003609651538186,179.5123042516845
6.746441728,1.000434211554339,179.25447488020473
6.750659072,1.0004816185916015,178.9957574962689
6.754875904,1.0005006050494036,178.73657845310262
6.759093248,1.000490125789035,178.47735187345822
6.763310592,1.0004507077386284,178.21842261449717
6.767527424,1.0003846707442523,177.96023653162334
6.771744768,1.0002957181741816,177.7031052058503
6.775962112,1.0001894689940047,177.44736028806636
6.780179456,1.0000720607382538,177.1931685650731
6.784396288,0.999950657386596,176.9406349007571
6.788613632,0.999832206983638,176.68981762032874
6.792830976,0.9997240134322304,176.44054953853527
6.797047808,0.9996323876967795,176.19269699881036
6.801265152,0.9995628613050256,175.94597620985988
6.805482496,0.9995195694428882,175.70001009170574
6.809699328,0.9995052764723308,175.4544627231168
6.813916672,0.9995204984473707,175.20889101607162
6.818134016,0.999564566701633,174.96289380697866
6.822350848,0.9996348869904098,174.71607784680504
6.826568192,0.9997273379222555,174.4681018540346
6.830785536,0.9998362025703652,174.218702610202
6.83500288,0.9999550629695403,173.9676795559378
6.839219712,1.000076895796729,173.71495634942363
6.843437056,1.0001944725674368,173.46056563776546
6.8476544,1.000300703545948,173.20454894645326
6.851871232,1.0003891994299239,172.94713919531122
6.856088576,1.0004547707591513,172.68866500317867
6.86030592,1.000493602319339,172.42940795053073
6.864522752,1.0005032163761682,172.16985212710307
6.868740096,1.0004831017805327,171.91030261389483
6.87295744,1.0004344010450554,171.65127273387017
6.877174272,1.0003599513607584,171.39307487586774
6.881391616,1.0002643971069072,171.1360546283231
6.88560896,1.0001531555034897,170.88046277097436
6.889825792,1.0000329060152768,170.6265306226015
6.894043136,0.9999109003025805,170.37425869910365
6.89826048,0.9997943677532948,170.1236825819825
6.902477824,0.999690217108974,169.87465383189988
6.906694656,0.9996047187503939,169.62694212290245
6.910912,0.9995428660169362,169.38027231402438
6.915129344,0.9995084081678114,169.134245566199
6.919346176,0.9995036188183449,168.8885253048546
6.92356352,0.9995285799445439,168.64265145136002
6.927780864,0.999581916609143,168.3962194173463
6.931997696,0.9996603431266761,168.14881377171045
6.93621504,0.9997593546473437,167.90016455242278
6.940432384,0.9998727464169302,167.65003363767505
6.944649216,0.9999942408478397,167.39821513748225
6.94886656,1.0001162044206289,167.14470067458385
6.953083904,1.0002316005577716,166.88947922072362
6.957301248,1.0003333300122939,166.63272613985086
6.96151808,1.0004154831176244,166.37466325232955
6.965735424,1.0004730609796575,166.11560589379982
6.969952768,1.0005028587917304,165.8559360544929
6.9741696,1.0005028812226204,165.59603672416804
6.978386944,1.000473107066591,165.33636863515983
6.982604288,1.0004153844473713,165.077263476862
6.98682112,1.0003329998933514,164.81915865633857
6.991038464,1.0002311466356457,164.5623142762163
6.995255808,1.000115452557599,164.30702931081274
6.99947264,0.9999931137315814,164.05338748161753
7.003689984,0.9998713430923739,163.80145949135752
7.007907328,0.9997572548139694,163.5511940106697
7.01212416,0.9996580093673151,163.30242261776752
7.016341504,0.9995790994321068,163.05490932854062
7.020558848,0.9995254590538167,162.80832113723537
7.024776192,0.9995003646483586,162.5622748689407
7.028993024,0.9995053074572314,162.3163952188545
7.033210368,0.9995398224401194,162.07019813837883
7.037427712,0.9996020375973456,161.82331741670373
7.041644544,0.999688139938247,161.57540354473386
7.045861888,0.9997931890850447,161.3261317547692
7.050079232,0.9999107605716462,161.0752587066071
7.054296064,1.0000338551891907,160.8227151286865
7.058513408,1.000155303978315,160.56841523412206
7.062730752,1.000267504648589,160.31249200286965
7.066947584,1.0003643128961093,160.05505419561536
7.071164928,1.0004394851972847,159.7964316420952
7.075382272,1.0004886995477484,159.53691951360796
7.079599616,1.0005091629694909,159.27689989375074
7.083816448,1.000499335153082,159.01681301372196
7.088033792,1.0004601354879772,158.7570436495858
7.092251136,1.0003935017899468,158.49802543612702
7.096467968,1.000303753594241,158.24009936839417
7.100685312,1.0001958892180383,157.98356322181525
7.104902656,1.000076677262796,157.72860354503308
7.109119488,0.9999528533455749,157.47534821859864
7.113336832,0.9998320895214402,157.22381680691365
7.117554176,0.9997212917081949,156.97391245947125
7.121771008,0.9996274542702642,156.72546861376568
7.125988352,0.9995557649146287,156.4781767879859
7.130205696,0.9995108996474399,156.23169396825367
7.134422528,0.9994951778178048,155.98563751010775
7.138639872,0.9995099265390367,155.7395852532895
7.142857216,0.9995539631627722,155.49311878678577
7.14707456,0.9996248559791725,155.24583492664237
7.151291392,0.9997182496006549,154.99739414067625
7.155508736,0.9998288222252824,154.74750306701915
7.15972608,0.9999497321574866,154.49598557916693
7.163942912,1.0000739630479445,154.2427413733487
7.168160256,1.000193950413803,153.98776254076014
7.1723776,1.000302641451858,153.73117508711735
7.176594432,1.0003935067747398,153.47317831874832
7.180811776,1.0004612697449828,153.2140349063058
7.18502912,1.0005017594737688,152.9541609755951
7.189245952,1.00051250434466,152.69393573053267
7.193463296,1.0004929724113212,152.4337010202822
7.19768064,1.0004441979081948,152.1739742764728
7.201897984,1.0003691759282802,151.91513992292525
7.206114816,1.0002722716638348,151.65748454931926
7.21033216,1.000159375068431,151.401315116515
7.214549504,1.000037058023111,151.14676493687907
7.218766336,0.9999125713914812,150.8939914843214
7.22298368,0.9997935309278723,150.6428949128102
7.227201024,0.9996867662492658,150.39343115905834
7.231417856,0.9995988871847875,150.1453189452649
7.2356352,0.9995351759598043,149.898246350442
7.239852544,0.9994992187095009,149.65188603336853
7.244069376,0.9994932696387167,149.40585167801743
7.24828672,0.9995178179949857,149.15968676777504
7.252504064,0.999571152362534,148.91292628573413
7.256720896,0.9996504290430276,148.66526318218217
7.26093824,0.9997506938946888,148.4163260482687
7.265155584,0.9998660544530832,148.16586203423125
7.269372928,0.999989692545377,147.9137174131536
7.27358976,1.0001141283669552,147.65984717920023
7.277807104,1.0002319944521723,147.40423448026968
7.282024448,1.000336296834147,147.1470551435629
7.28624128,1.000420878146773,146.88855547720658
7.290458624,1.000480535531907,146.62904661625834
7.294675968,1.0005118019471952,146.3688669201179
7.2988928,1.0005127950367196,146.10848181779025
7.303110144,1.0004833234143766,145.8483024413534
7.307327488,1.0004253866089308,145.5886902873125
7.31154432,1.0003421970270745,145.33009089678572
7.315761664,1.0002386909612,145.07282412045572
7.319979008,1.0001212045151375,144.81707542660098
7.324196352,0.9999964800067475,144.5630644924674
7.328413184,0.9998722147953825,144.3107785608764
7.332630528,0.9997555770979817,144.06022019738472
7.336847872,0.9996536812214568,143.8111895675728
7.341064704,0.9995724934479585,143.56343842910655
7.345282048,0.9995170418943288,143.31667676324062
7.349499392,0.9994903972326882,143.07046284098732
7.353716224,0.9994944344830479,142.82444157418243
7.357933568,0.9995287126517423,142.57814906797103
7.362150912,0.9995913660419895,142.33114241569422
7.366367744,0.9996784055760378,142.08310999871077
7.370585088,0.9997850430116514,141.83371339084366
7.374802432,0.9999046485479323,141.58269540425238
7.379019264,1.0000302373839844,141.32998217057627
7.383236608,1.000154152530629,141.07550424309227
7.387453952,1.0002691948212874,140.81933215777102
7.391671296,1.000368488034075,140.5616553987087
7.395888128,1.0004459855439247,140.30273365328196
7.400105472,1.0004970513890643,140.0428826402493
7.404322816,1.0005189296768022,139.7825535465746
7.408539648,1.0005098656996707,139.5221068944285
7.412756992,1.0004707614264725,139.26202013121826
7.416974336,1.000403686817402,139.00267930113534
7.421191168,1.000312757170645,138.74441388818906
7.425408512,1.0002032753018908,138.48762359639534
7.429625856,1.000081770702034,138.23241701091408
7.433842688,0.9999555399424379,137.9789557156682
7.438060032,0.9998320267731169,137.72723923527735
7.442277376,0.9997186586110083,137.47725066314746
7.44649472,0.9996221247741317,137.228689777304
7.450711552,0.999548308011637,136.98137837525567
7.454928896,0.999501531644633,136.73487853571217
7.45914624,0.9994846075500219,136.4888459943385
7.463363072,0.9994986564912866,136.2428689738903
7.467580416,0.999542699088398,135.9964230944384
7.47179776,0.9996141556940538,135.74920918737118
7.476014592,0.9997089635877379,135.5008129453386
7.480231936,0.9998213047763166,135.25097372989347
7.48444928,0.9999444333831671,134.99946387649769
7.488666112,1.0000712030749477,134.7461913583139
7.492883456,1.0001940180983182,134.49117489046816
7.4971008,1.0003053858621236,134.23451461905026
7.501317632,1.000398770451511,133.97638574694943
7.505534976,1.0004686878581612,133.7171460502095
7.50975232,1.0005109156400818,133.4570913415318
7.513969664,1.0005228170699398,133.1966751071123
7.518186496,1.0005038783171505,132.9362921604604
7.52240384,1.000455015364566,132.67639833000052
7.526621184,1.0003791540190914,132.4173884469975
7.530838016,1.0002809224106821,132.15959334989645
7.53505536,1.0001659419384985,131.9033016619388
7.539272704,1.0000412417636042,131.64870437451984
7.543489536,0.9999142659644162,131.39587590460653
7.54770688,0.9997924041780385,131.14481847270335
7.551924224,0.9996829492973184,130.8953840825849
7.556141056,0.9995926850497324,130.64737391211546
7.5603584,0.999526669559371,130.40045428856502
7.564575744,0.9994890251253178,130.15428413914512
7.568792576,0.999482038163586,129.90844128947325
7.57300992,0.9995060956590694,129.66247796921004
7.577227264,0.9995598351261118,129.4159605818029
7.581444608,0.9996400833517681,129.16852310853957
7.58566144,0.9997417980025155,128.91979177055944
7.589878784,0.9998592167545401,128.6695138904542
7.594096128,0.9999853108504656,128.4175316343969
7.59831296,1.0001125589048097,128.16377849119232
7.602530304,1.0002332405022802,127.90830267553707
7.606747648,1.0003401909867762,127.65117520572966
7.61096448,1.0004273245441242,127.39269913519372
7.615181824,1.0004889741006684,127.13318700488651
7.619399168,1.000521863993951,126.87302151017747
7.623616,1.0005238303348571,126.61263108493932
7.627833344,1.0004947243603373,126.35238482491275
7.632050688,1.0004362593945322,126.0927843085798
7.636268032,1.0003520585078074,125.83418841552457
7.640484864,1.000246875227978,125.57694258625686
7.644702208,1.0001273016952454,125.32125985487853
7.648919552,0.9999999498651851,125.06733185818698
7.653136384,0.9998729240903301,124.81520398497607
7.657353728,0.9997534272011945,124.56481997263394
7.661571072,0.9996487612784383,124.31602852098244
7.665787904,0.9995651361860052,124.06854012390995
7.670005248,0.9995076794986144,123.82209994959719
7.674222592,0.9994795562838555,123.57623237975989
7.678439424,0.999482694280222,123.33056198492292
7.682656768,0.999516948966829,123.08465422685668
7.686874112,0.9995801553049963,122.83802816409589
7.691090944,0.9996685417911895,122.5903544173051
