freq,mag,phase
6.0,0.9990964239015931,139.30717875407368
6.002287104,0.998856315140785,139.18039020977702
6.004574208,0.998688463678595,139.05666356982948
6.006861312,0.9986039484967911,138.93484707931978
6.009147904,0.9986079651917446,138.81366593718184
6.011435008,0.9987006190973907,138.69184514974128
6.013722112,0.9988758633114794,138.56814034926148
6.016009216,0.9991227771133174,138.44142736462308
6.01829632,0.999425511248739,138.31074331620036
6.020583424,0.9997646716152673,138.1754699254058
6.022870016,1.0001189142649562,138.03520416289132
6.02515712,1.0004660396611644,137.88989251252934
6.027444224,1.000783607278198,137.7397953413988
6.029731328,1.0010516587969267,137.5855020517428
6.032018432,1.0012531574464016,137.42789912390944
6.034305536,1.0013754742436796,137.26799938843538
6.036592128,1.0014106622645287,137.10697649858602
6.038879232,1.0013566680452817,136.94615736154185
6.041166336,1.0012165781090958,136.78680250512662
6.04345344,1.000999480692841,136.63010996941048
6.045740544,1.0007190557868977,136.47703472747668
6.048027648,1.0003928726656393,136.32847204270564
6.05031424,1.000041593896998,136.1848505678157
6.052601344,0.9996877480625728,136.046424476165
6.054888448,0.9993534867794477,135.9130845904051
6.057175552,0.9990601968880037,135.78435433746793
6.059462656,0.9988265338390732,135.6595365812658
6.06174976,0.9986673516187429,135.53765362851027
6.064036352,0.9985928324880586,135.41754658491
6.066323456,0.9986079692118538,135.2979190851067
6.06861056,0.9987114987915621,135.17749005583792
6.070897664,0.9988970389918972,135.05502237562055
6.073184768,0.999152746959556,134.9293931255918
6.075471872,0.9994624806506655,134.7996923144621
6.077758464,0.9998064362183989,134.66527801421873
6.080045568,1.0001627805715692,134.52583168335084
6.082332672,1.0005091090349814,134.38134169460957
6.084619776,1.000823264841212,134.23209952334136
6.08690688,1.0010853160829032,134.07875576345984
6.089193984,1.0012786626018422,133.92213619239035
6.091481088,1.0013912887558671,133.76336139978568
6.09376768,1.001415731679859,133.6036360255339
6.096054784,1.0013505136776584,133.44428690856188
6.098341888,1.001199726078577,133.28653676380773
6.100628992,1.0009729433981382,133.1315625736522
6.102916096,1.0006844536965644,132.98041215806782
6.1052032,1.000352473645699,132.8337912091312
6.107489792,0.9999978688391656,132.69221214611773
6.109776896,0.9996433837533594,132.55585270890847
6.112064,0.9993115097750087,132.42457409858122
6.114351104,0.999023005980887,132.2978471957095
6.116638208,0.9987967837491887,132.17496729708395
6.118925312,0.9986469779922614,132.05486434314267
6.121211904,0.9985829970136355,131.93638069469296
6.123499008,0.9986091735496182,131.81824594464848
6.125786112,0.9987238520125978,131.6991178075015
6.128073216,0.99891975054866,131.57781336934846
6.13036032,0.9991844939741958,131.45318250523752
6.132647424,0.9995011667572531,131.32436868962503
6.134934016,0.999849679657051,131.19078920757562
6.13722112,1.0002076948565057,131.05209710363425
6.139508224,1.0005528882729888,130.90836187500807
6.141795328,1.0008630666276541,130.7599402598432
6.144082432,1.0011187420445886,130.60742599912518
6.146369536,1.0013035673124362,130.45177897726245
6.148656128,1.0014058941643986,130.29411722612093
6.150943232,1.001419154320208,130.13566019458978
6.153230336,1.0013426905324114,129.97772350818266
6.15551744,1.0011810368631682,129.82154930756587
6.157804544,1.00094442171563,129.66830187663837
6.160091648,1.0006479032950037,129.51897332951313
6.162378752,1.0003101910677656,129.3743391535163
6.164665344,0.9999526779167164,129.2347747040871
6.166952448,0.9995981681393179,129.1004733888514
6.169239552,0.9992687843800261,128.97120240400412
6.171526656,0.9989859581415197,128.84644088972644
6.17381376,0.9987674083807653,128.72538798995888
6.176100864,0.998627259027072,128.60703086428381
6.178387456,0.9985742359666889,128.490125632667
6.18067456,0.9986120173810464,128.37341600071548
6.182961664,0.9987380448576965,128.25552828961506
6.185248768,0.9989445152355187,128.13531650366716
6.187535872,0.9992180848891273,128.0116242658249
6.189822976,0.999541519132628,127.88364175634874
6.192109568,0.9998942364368824,127.75078523407113
6.194396672,1.0002537092946493,127.61282860791141
6.196683776,1.0005974555535098,127.46976265405758
6.19897088,1.0009032913417606,127.32206360641744
6.201257984,1.0011519070775012,127.17038652259224
6.203545088,1.0013278232023815,127.0156769880311
6.20583168,1.0014196694077597,126.85906463561386
6.208118784,1.0014215276145464,126.70183703107139
6.210405888,1.0013333113568128,126.5452656960884
6.212692992,1.0011605215989339,126.39067317526461
6.214980096,1.000914247683896,126.23915058343188
6.2172672,1.0006098347122099,126.09166711378037
6.219553792,1.0002666370642668,125.94894597863899
6.221840896,0.9999063432739154,125.81135745312602
6.224128,0.9995519636055035,125.67904827332043
6.226415104,0.9992259674021983,125.55174633412109
6.228702208,0.9989488906114641,125.42891096708655
6.230989312,0.9987386151014023,125.30968620423745
6.233275904,0.9986085384058525,125.19298289210089
6.235563008,0.9985669560710683,125.07761933347602
6.237850112,0.9986165107831037,124.96223718379828
6.240137216,0.9987542013723594,124.84552504747936
6.24242432,0.9989711106245626,124.72631422307134
6.244711424,0.999253565617446,124.60347525416948
6.246998528,0.9995835830091507,124.47624196706612
6.24928512,0.9999402691982844,124.34406397871705
6.251572224,1.0003009466762238,124.20673186496025
6.253859328,1.0006425371061132,124.06432637868237
6.256146432,1.0009435364311206,123.91728604204864
6.258433536,1.0011850362355703,123.76637261771394
6.26072064,1.0013512873199364,123.61256151389351
6.263007232,1.0014321058535565,123.45699167691316
6.265294336,1.0014221695305394,123.300925733136
6.26758144,1.0013220401078766,123.14576012251949
6.269868544,1.0011381605510155,122.99266390817178
6.272155648,1.0008821732987043,122.84282683101685
6.274442752,1.0005699408975222,122.69716760072365
6.276729344,1.000221573230598,122.55632632147685
6.279016448,0.9998588789340472,122.42072961072624
6.281303552,0.999505187559214,122.29039677992724
6.283590656,0.9991826098158931,122.16504085553741
6.28587776,0.9989120257466776,122.04407271168652
6.288164864,0.9987104503830344,121.92657820606038
6.290451456,0.9985909203085335,121.81151424512905
6.29273856,0.9985610165437331,121.69757460274093
6.295025664,0.9986227305199733,121.583458620531
6.297312768,0.9987720122064481,121.4678728464314
6.299599872,0.9989996136223294,121.34955526140203
6.301886976,0.999290979397415,121.22753269173418
6.304173568,0.9996274246720187,121.10097554020972
6.306460672,0.9999876419566484,120.96939322349323
6.308747776,1.0003490737602603,120.83262188701767
6.31103488,1.0006882621669506,120.69076812070793
6.313321984,1.0009841395630934,120.54439062721718
6.315609088,1.0012175263894614,120.39418538887648
6.317896192,1.0013740492144392,120.24124301717782
6.320182784,1.0014434114954718,120.08664340168255
6.322469888,1.0014212914423606,119.93179228978859
6.324756992,1.0013091597257058,119.77795683276246
6.327044096,1.0011140209219715,119.62637298875475
6.3293312,1.0008480097375685,119.4782015650502
6.331618304,1.0005282843208638,119.33430988922866
6.333904896,1.0001749365955994,119.19536793424258
6.336192,0.9998102412768227,119.06170323362194
6.338479104,0.999457473140339,118.93329001842562
6.340766208,0.999139044866699,118.8098441976541
6.343053312,0.9988752661243482,118.69066489785659
6.345340416,0.9986829978651343,118.57486885843505
6.347627008,0.9985743829885181,118.46136597650846
6.349914112,0.9985565844421912,118.34879000669753
6.352201216,0.9986305674871108,118.23590415358274
6.35448832,0.9987919099062357,118.1213036238752
6.356775424,0.9990301211276597,118.00388274805323
6.359062528,0.9993300271491066,117.88254104011828
6.36134912,0.9996727633850448,117.75657369710576
6.363636224,1.0000364465878822,117.62551323439287
6.365923328,1.000398010366571,117.48925123271773
6.368210432,1.0007344141323666,117.347924835514
6.370497536,1.0010244007291509,117.20211694078796
6.37278464,1.0012495087159603,117.05257623385064
6.375071232,1.0013955798209129,116.90043929586709
6.377358336,1.001453156905056,116.74685090328333
6.37964544,1.0014186343882443,116.59313156152676
6.381932544,1.00129427320165,116.44060621844763
6.384219648,1.0010876483768583,116.29053053303682
6.386506752,1.0008121685669316,116.14396790636167
6.388793344,1.0004850266132037,116.00185859069796
6.391080448,1.0001267879613962,115.86476534730254
6.393367552,0.9997603885050759,115.73298060251774
6.395654656,0.9994092607553617,115.6064925570714
6.39794176,0.9990952862866567,115.4848729157087
6.400228864,0.9988390674810063,115.36746561118247
6.402515968,0.9986561569372463,115.25333108096135
6.40480256,0.998559121669755,115.14128100559522
6.407089664,0.9985536531224791,115.03005757059832
6.409376768,0.9986402823518145,114.9182736686294
6.411663872,0.9988133755033376,114.80463428741064
6.413950976,0.999062142500122,114.68794664146847
6.41623808,0.9993708760179166,114.56728036337377
6.418524672,0.999719538598324,114.44184488188328
6.420811776,1.000086213201928,114.31124073658036
6.42309888,1.0004475554818575,114.17538157926477
6.425385984,1.0007807240941686,114.03453773846917
6.427673088,1.001064428817822,113.88926145540471
6.429960192,1.0012807375228479,113.74037676598894
6.432246784,1.0014158764521042,113.58897629741682
6.434533888,1.0014613788802995,113.43631987355478
6.436820992,1.0014142508990838,113.28374688332113
6.439108096,1.0012773290657904,113.13249809285892
6.4413952,1.001059548014208,112.9839024873511
6.443682304,1.0007742105945419,112.83895596552766
6.445968896,1.0004397637159401,112.6986226122565
6.448256,1.0000772781475777,112.5633366196121
6.450543104,0.999709741292245,112.43341568889592
6.452830208,0.9993603821478357,112.30876867516956
6.455117312,0.9990515984757647,112.18896694368148
6.457404416,0.9988029940910109,112.073292981396
6.459691008,0.998630614940286,111.96074168329083
6.461978112,0.9985452753213687,111.85011271776297
6.464265216,0.998552525662812,111.7401014075654
6.46655232,0.9986519876344498,111.62934716163997
6.468839424,0.9988372067954975,111.51658562054199
6.471126528,0.9990967222986269,111.40058886093382
6.473413632,0.9994136349867747,111.28046623548404
6.475700224,0.9997681325421843,111.15551201125852
6.477987328,1.0001374987726357,111.0252934412116
6.480274432,1.0004980455484096,110.88981973945818
6.482561536,1.0008275149068249,110.7493667818051
6.48484864,1.0011042973931517,110.60454123265937
6.487135744,1.001311251228505,110.45627293131497
6.489422336,1.001435238521095,110.3056311095276
6.49170944,1.0014680679283554,110.15387238265727
6.493996544,1.0014078999741702,110.00239505842528
6.496283648,1.0012585167966823,109.85242417378716
6.498570752,1.0010291604469685,109.70526745890719
6.500857856,1.0007344233931579,109.56194763130391
6.503144448,1.0003930467948263,109.42328642123711
6.505431552,1.0000263039257944,109.28981930022204
6.507718656,0.9996579845684059,109.16175064163632
6.51000576,0.9993110217833896,109.03892597665035
6.512292864,0.9990078780200913,108.92087216278851
6.514579968,0.9987677222769279,108.80686261448432
6.51686656,0.9986059987250167,108.69583512993836
6.519153664,0.9985328706062668,108.58655579973961
6.521440768,0.9985531009446373,108.47772210831666
6.523727872,0.9986655136842083,108.36794258748645
6.526014976,0.998863034802315,108.25596833023275
6.52830208,0.9991328910878773,108.14058579882402
6.530588672,0.9994581091561806,108.02094376319307
6.532875776,0.9998179670336514,107.89633987019174
6.53516288,1.0001895246739847,107.76648306458699
6.537449984,1.0005491968733478,107.63126877047283
6.539737088,1.0008741336634959,107.49119313387655
6.542024192,1.0011437638660554,107.3467889747362
6.544310784,1.001340861386012,107.19910369448509
6.546597888,1.0014530276017666,107.04912886739884
6.548884992,1.0014730971494112,106.89829091898922
6.551172096,1.0013997843734463,106.74785360479358
6.5534592,1.0012377171710318,106.59916217880688
6.555746304,1.0009969054898762,106.45342838007208
6.558033408,1.0006927290078733,106.31171291999009
6.56032,1.0003444796630323,106.17474296086853
6.562607104,0.9999742448586274,106.04304570814328
6.564894208,0.9996054618423169,105.91677283212896
6.567181312,0.999261619774042,105.79573425008638
6.569468416,0.9989645395798006,105.67938599820248
6.57175552,0.9987332839513419,105.56698629573931
6.574042112,0.9985825647021903,105.45741132080089
6.576329216,0.9985220863249146,105.34941740103739
6.57861632,0.9985557738138925,105.24166893931842
6.580903424,0.9986814221837815,105.13277742017064
6.583190528,0.9988910543113252,105.02149219593255
6.585477632,0.999171346444192,104.90667370411035
6.587764224,0.9995046531792987,104.78744830418965
6.590051328,0.9998694368277311,104.6631452735805
6.592338432,1.0002427239484775,104.53351572644726
6.594625536,1.0006007800432533,104.39859542762602
6.59691264,1.0009208355840555,104.25878569514467
6.599199744,1.001182653367306,104.1147802587588
6.601486336,1.0013694849774688,103.96757682261408
6.60377344,1.001469476256286,103.81832491541445
6.606060544,1.001476402102065,103.66834021103995
6.608347648,1.0013895781117241,103.51895341834098
6.610634752,1.0012146674674767,103.37148978839896
6.612921856,1.0009624726387438,103.22717308560429
6.615208448,1.0006491546402867,103.08701022341053
6.617495552,1.0002944197379757,102.9517093525593
6.619782656,0.9999208824999273,102.82174849987898
6.62206976,0.9995521991375087,102.69726003403903
6.624356864,0.999211777516478,102.5779619838859
6.626643968,0.9989215177068975,102.46330067546405
6.628931072,0.9986995890171522,102.3524305836505
6.631217664,0.9985605531622613,102.24423320406187
6.633504768,0.9985130322480559,102.13746412409053
6.635791872,0.998560184026565,102.03071081025978
6.638078976,0.9986991919919658,101.92264285654164
6.64036608,0.9989210769835309,101.81199457514559
6.642653184,0.9992117358765491,101.69764869762017
6.644939776,0.9995526678416367,101.57872179050948
6.64722688,0.9999222778544505,101.45464581521551
6.649513984,1.0002969469250358,101.32520689533298
6.651801088,1.0006529391821701,101.190497252967
6.654088192,1.0009675975506391,101.05092618111621
6.656375296,1.0012209380103292,100.90728157946704
6.658661888,1.0013968966834026,100.76054957075517
6.660948992,1.0014844603892619,100.61194611708622
6.663236096,1.0014777579797252,100.46278095992095
6.6655232,1.0013772619634715,100.31442983696093
6.667810304,1.0011894410314364,100.16819580945786
6.670097408,1.0009260137525167,100.0252619532848
6.672384,1.000603717113809,99.88662744792536
6.674671104,1.00024286616614,99.75301659018706
6.676958208,0.9998664821308224,99.62476647034381
6.679245312,0.9994983269631952,99.50199395936093
6.681532416,0.9991620233147855,99.38439889735349
6.68381952,0.9988787913936444,99.27135325217372
6.686106112,0.998666980728794,99.16197159939212
6.688393216,0.998539860415489,99.05512682736699
6.69068032,0.9985057453994772,98.94946049842149
6.692967424,0.9985668440475165,98.84367887488698
6.695254528,0.998719296157703,98.73634452632199
6.697541632,0.9989533347870824,98.62622158165622
6.699828224,0.9992541284662408,98.51228215280797
6.702115328,0.9996025502907541,98.39359060494294
6.704402432,0.9999764719007517,98.26969359159978
6.706689536,1.0003520304712203,98.1403605908733
6.70897664,1.0007052248657369,98.00580578869624
6.711263744,1.001014009247008,97.86641979996654
6.713550848,1.001258429834443,97.72309959710766
6.71583744,1.001423108349897,97.57679124451276
6.718124544,1.0014977055959162,97.42881205385864
6.720411648,1.0014771422395272,97.28045723253629
6.722698752,1.0013628982367193,97.13313229218788
6.724985856,1.0011621202812573,96.98809387677584
6.72727296,1.0008875107421844,96.84655476442086
6.729559552,1.00055644171369,96.70945146532269
6.731846656,1.0001897913779256,96.57742952414141
6.73413376,0.9998109844189562,96.45086953847625
6.736420864,0.9994439096538056,96.3298024765458
6.738707968,0.9991122414502639,96.21386157008335
6.740995072,0.9988366962431122,96.10237965757602
6.743281664,0.9986353114579832,95.99441623729628
6.745568768,0.9985206708447135,95.8888253919757
6.747855872,0.9985003294398483,95.78424263305713
6.750142976,0.9985755255259817,95.67932566509863
6.75243008,0.9987414565272227,95.5726355976053
6.754717184,0.9989876699315877,95.46300086095091
6.757003776,0.9992984987101325,95.34932634305328
6.75929088,0.9996540209339937,95.23085487013152
6.761577984,1.0000317257719828,95.10703540712689
6.763865088,1.0004076757901121,94.9777922124762
6.766152192,1.0007578136832127,94.84329283474543
6.768439296,1.00105995494612,94.70407874905537
6.770725888,1.0012949699997797,94.56098829248957
6.773012992,1.0014478394571549,94.41510985212003
6.775300096,1.0015089905161978,94.26771517408314
6.7775872,1.00147438646585,94.1201853401374
6.779874304,1.001346128909792,93.973846941189
6.782161408,1.0011325129574775,93.83001319965493
6.784448512,1.0008467984254272,93.68984368412038
6.786735104,1.000507124372229,93.55422776636051
6.789022208,1.000135196325938,93.42383589227447
6.791309312,0.9997543610192453,93.29893135624444
6.793596416,0.9993889842659651,93.17950072729703
6.79588352,0.9990623512912234,93.06518395753372
6.798170624,0.9987953444718526,92.95519690421293
6.800457216,0.9986048385977883,92.84860693176782
6.80274432,0.9985032514931795,92.74420374272668
6.805031424,0.9984968339542256,92.64062693301527
6.807318528,0.998586260488265,92.5364872658492
6.809605632,0.998765977804785,92.43036576366747
6.811892736,0.9990241917101444,92.32111596646774
6.814179328,0.9993446848391482,92.20768951095496
6.816466432,0.9997070967903324,92.08930014754725
6.818753536,1.000088314076694,91.96550879343597
6.82104064,1.0004640559162437,91.83627716026534
6.823327744,1.0008103922927019,91.70181876351542
6.825614848,1.0011055744380188,91.562673418533
6.82790144,1.0013304943370278,91.41984311068883
6.830188544,1.0014712684317102,91.27436575862879
6.832475648,1.0015185843820291,91.12755692869925
6.834762752,1.0014694627758263,90.98076182794752
6.837049856,1.0013271437799545,90.83542458573196
6.83933696,1.0011006419317348,90.69276972389027
6.841623552,1.0008039904563164,90.55393990033289
6.843910656,1.0004562443650966,90.41978986392954
6.84619776,1.0000791774542006,90.29098242334803
6.848484864,0.9996970213006652,90.16772199451728
6.850771968,0.9993338205594371,90.04992003656658
6.853059072,0.9990128928235876,89.93713180569263
6.855345664,0.9987547962845007,89.82863216836225
6.857632768,0.9985757039882585,89.72336033685345
6.859919872,0.998487430135684,89.62007195144216
6.862206976,0.9984954776748857,89.51737453559063
6.86449408,0.9985994928998123,89.41395282132274
6.866781184,0.9987927044882292,89.30834386962033
6.869068288,0.9990629087466186,89.19941890325381
6.87135488,0.9993929745207121,89.08611941299925
6.873641984,0.9997618207292219,88.9677603593503
6.875929088,1.000145940127242,88.84394489094986
6.878216192,1.0005210566090545,88.71462626432411
6.880503296,1.0008630530932916,88.58015067317022
6.8827904,1.0011505228775341,88.4411051160001
6.885076992,1.0013649414161447,88.29844691169157
6.887364096,1.0014928677800294,88.15335138427264
6.8896512,1.001526205227727,88.00708156929478
6.891938304,1.0014624774583227,87.86107582597788
6.894225408,1.0013060566678014,87.71667216023589
6.896512512,1.001066580503112,87.57519240864582
6.898799104,1.00075918522752,87.43766555525896
6.901086208,1.000403576623869,87.305036293993
6.903373312,1.0000219689520011,87.17775624856219
6.905660416,0.9996389261070795,87.05608113629062
6.90794752,0.9992784882956413,86.93987001205456
6.910234624,0.9989637977161864,86.82861274097635
6.912521216,0.9987150494786227,86.72150543024968
6.91480832,0.9985481287432174,86.61747606034834
6.917095424,0.9984735344530131,86.51521412468786
6.919382528,0.9984962681425429,86.4134059057427
6.921669632,0.9986148864992084,86.31056264471961
6.923956736,0.9988217447013361,86.20540150812221
6.926243328,0.9991038254831252,86.09667699821641
6.928530432,0.999443153309709,85.98347894600522
