freq,mag,phase
6.0,1.0005804081490586,-84.63921930107514
6.002285568,1.0005688868697862,-84.78158987967454
6.004571648,1.0005204164876869,-84.92360469880809
6.006857216,1.0004387448744707,-85.06466864536526
6.009142784,1.000329090775508,-85.20437542080315
6.011428352,1.0001983856282113,-85.34236609661345
6.013714432,1.000054755102432,-85.47836578629075
6.016,0.9999076144407278,-85.61226036316182
6.018285568,0.9997659946629323,-85.744076585749
6.020571648,0.9996390553189531,-85.87397821305068
6.022857216,0.9995349501053149,-86.00218960115699
6.025142784,0.9994601660511182,-86.12911034376745
6.027428352,0.9994196170998223,-86.25521093345176
6.029714432,0.9994158459219293,-86.38101065634588
6.032,0.9994492753656237,-86.50701925527237
6.034285568,0.9995176011671332,-86.63380451736862
6.036571648,0.9996166947179972,-86.76181727640052
6.038857216,0.9997402477253314,-86.89149305607528
6.041142784,0.999880349049326,-87.02307692044457
6.043428352,1.0000281603550178,-87.15676695695645
6.045714432,1.0001743374595469,-87.29262801657194
6.048,1.000309439535195,-87.43056848874578
6.050285568,1.0004250444801912,-87.5703199795455
6.052571648,1.0005136087906752,-87.71158137068879
6.054857216,1.000569633994342,-87.85395375925967
6.057142784,1.0005894143397513,-87.99692359660334
6.059428352,1.0005719777950763,-88.1398376813737
6.061714432,1.0005178738321623,-88.28233432769679
6.064,1.000430759088217,-88.42378010456257
6.066285568,1.0003162714090672,-88.56380166510432
6.068571648,1.0001814735723054,-88.70202752890079
6.070857216,1.000034920216433,-88.83824225948345
6.073142784,0.9998858845330636,-88.9723001554092
6.075428352,0.9997439221972649,-89.10425215677317
6.077714432,0.9996179766221882,-89.23426599306664
6.08,0.9995160307327318,-89.3626965885889
6.082285568,0.9994450659604629,-89.48981298790548
6.084571648,0.9994089133029107,-89.6161844912072
6.086857216,0.9994105455511111,-89.74230077975342
6.089142784,0.9994494906723462,-89.86876336688024
6.091428352,0.9995233440657859,-89.99602117704785
6.093714432,0.999627689386988,-90.1246118140267
6.096,0.9997556200987017,-90.25489794404746
6.098285568,0.9998993308416837,-90.38719444310223
6.100571648,1.0000494293895006,-90.52161572269432
6.102857216,1.000196416543217,-90.65822525118536
6.105142784,1.0003311308588096,-90.79694670078904
6.107428352,1.000444917593093,-90.93742617179147
6.109714432,1.0005304179049284,-91.07944253161224
6.112,1.0005823735820214,-91.22243478792002
6.114285568,1.0005972668630034,-91.36596361451645
6.116571648,1.0005742915320455,-91.50943363696862
6.118857216,1.00051460463946,-91.65233200580887
6.121142784,1.000422060939907,-91.79411854933662
6.123428352,1.0003026485254163,-91.93438668244396
6.125714432,1.000163799609312,-92.07285525700341
6.128,1.0000143603540483,-92.20919177854022
6.130285568,0.9998637710161865,-92.34337875220689
6.132571648,0.9997216704855744,-92.47541820365704
6.134857216,0.9995969863362338,-92.60553272730428
6.137142784,0.9994977345430944,-92.73408846210526
6.139428352,0.9994301665915419,-92.86140805491728
6.141714432,0.9993988634119928,-92.98801657073314
6.144,0.9994057963532267,-93.11443059831363
6.146285568,0.9994501807327572,-93.24125540669723
6.148571648,0.9995296300421433,-93.3690143035979
6.150857216,0.9996391769699241,-93.49814135678051
6.153142784,0.9997715932808774,-93.62907058216754
6.155428352,0.9999185858386623,-93.76197665394487
6.157714432,1.00007080042985,-93.89712354019919
6.16,1.000218726687946,-94.03446833997475
6.162285568,1.0003529082950045,-94.17387698417522
6.164571648,1.0004647063828171,-94.31508426614056
6.166857216,1.0005469923494106,-94.45778524909745
6.169142784,1.0005945485109369,-94.60137383313531
6.171428352,1.000604352525671,-94.74543200509177
6.173714432,1.0005757601421517,-94.88934325924114
6.176,1.0005104484131666,-95.03263250889842
6.178285568,1.000412586657519,-95.17474970405212
6.180571648,1.0002885478447356,-95.31526775298065
6.182857216,1.0001457297256893,-95.45380308300128
6.185142784,0.9999936200348691,-95.590281003066
6.187428352,0.9998415961322686,-95.72456360014762
6.189714432,0.9996992820707628,-95.85665598292616
6.192,0.999576061816969,-95.98684994409544
6.194285568,0.9994795373916306,-96.11547869225868
6.196571648,0.9994159885183208,-96.24296683477868
6.198857216,0.9993893782721972,-96.36977410774972
6.201142784,0.9994016012833461,-96.4964583799726
6.203428352,0.9994517744967392,-96.6236433766279
6.205714432,0.9995367817637247,-96.75184158984521
6.208,0.9996514146226576,-96.88147513209721
6.210285568,0.9997881294550648,-97.0129113660969
6.212571648,0.9999383924381854,-97.14650683545074
6.214857216,1.0000927710508694,-97.28232595047903
6.217142784,1.0002412423665823,-97.42035662456067
6.219428352,1.000374628593645,-97.56046290234136
6.221714432,1.0004841812038106,-97.70237301911547
6.224,1.000562938541466,-97.84560632331156
6.226285568,1.0006061904928603,-97.98980399920403
6.228571648,1.0006108915444698,-98.13433756354932
6.230857216,1.0005766235275615,-98.27866284487597
6.233142784,1.0005056181428904,-98.42229623575054
6.235428352,1.0004025373832552,-98.56460919549303
6.237714432,1.0002735724070422,-98.70531228326188
6.24,1.000127109479517,-98.84398327035126
6.242285568,0.9999722273390339,-98.98051459511908
6.244571648,0.999819028527064,-99.11479774818679
6.246857216,0.9996769221177385,-99.24692572485331
6.249142784,0.9995553541467452,-99.37716047005695
6.251428352,0.9994617376037113,-99.50585456965142
6.253714432,0.9994020684133302,-99.63338966545413
6.256,0.9993804200732765,-99.7603904368658
6.258285568,0.9993981496539603,-99.88733002220214
6.260571648,0.9994539870597857,-100.01484527295005
6.262857216,0.9995446314765128,-100.14343391231037
6.265142784,0.9996641912652923,-100.27357413833991
6.267428352,0.9998051966062318,-100.4056079187378
6.269714432,0.9999587307613548,-100.53977176123048
6.272,1.0001148436458216,-100.67623752186202
6.274285568,1.0002636753525576,-100.81494452177162
6.276571648,1.0003961053681785,-100.95568081724555
6.278857216,1.000503274932545,-101.0981662145092
6.281142784,1.000578590188831,-101.24202140705029
6.283428352,1.0006171185961943,-101.38672260068428
6.285714432,1.0006165359013706,-101.53167062810381
6.288,1.0005765992380564,-101.67636825159859
6.290285568,1.0004999186851387,-101.82025687414001
6.292571648,1.0003914549573543,-101.96277950750076
6.294857216,1.000257844833704,-102.10358888549935
6.297142784,1.0001077026065668,-102.24233965174636
6.299428352,0.9999504584778969,-102.37884504523689
6.301714432,0.9997960510865785,-102.51309846098181
6.304,0.9996544122345798,-102.6452569313126
6.306285568,0.9995343944142382,-102.77547014050772
6.308571648,0.9994439919626971,-102.90413602523707
6.310857216,0.9993886810938781,-103.03181193786445
6.313142784,0.9993720681562411,-103.15890264121536
6.315428352,0.9993953665920633,-103.28607709176522
6.317714432,0.9994569920964572,-103.41390977185429
6.32,0.9995533052918237,-103.54287356305221
6.322285568,0.9996779064567854,-103.67343933465222
6.324571648,0.9998230427939597,-103.80597612138718
6.326857216,0.9999794786294351,-103.94072645664943
6.329142784,1.0001374539235068,-104.07779350157934
6.331428352,1.0002867317760287,-104.21707547601054
6.333714432,1.0004178722985533,-104.3584373382022
6.336,1.0005223749302756,-104.50152574948586
6.338285568,1.0005938874579914,-104.64590942047694
6.340571648,1.0006277423050343,-104.79104809973785
6.342857216,1.0006217484478492,-104.93642709464848
6.345142784,1.0005760946933127,-105.08144193192291
6.347428352,1.0004937258641193,-105.22553169083707
6.349714432,1.0003798928566507,-105.36823537464076
6.352,1.0002417048337102,-105.50904175045001
6.354285568,1.0000879681646577,-105.64781240585376
6.356571648,0.9999283319508064,-105.7843275727956
6.358857216,0.9997730500253786,-105.91850243084569
6.361142784,0.9996319505319602,-106.05053424729945
6.363428352,0.9995139892170005,-106.18073000100055
6.365714432,0.9994268322004746,-106.30939702125895
6.368,0.9993757937460023,-106.43708451920247
6.370285568,0.9993644528009757,-106.5643115452983
6.372571648,0.9993935013395501,-106.69164649729139
6.374857216,0.9994608533194874,-106.8197748668435
6.377142784,0.9995626334396095,-106.94901422964497
6.379428352,0.9996922422678405,-107.0800150587256
6.381714432,0.9998414534078417,-107.21307530452418
6.384,1.0000008917293595,-107.3483681482921
6.386285568,1.0001602747747127,-107.48596868079625
6.388571648,1.000309637018435,-107.6258536803733
6.390857216,1.000439343947701,-107.76777380265301
6.393142784,1.0005411536081958,-107.91137300109506
6.395428352,1.0006087433520905,-108.05621863401763
6.397714432,1.000637663392589,-108.20178441150465
6.4,1.000626075992069,-108.34750455059782
6.402285568,1.000574641798349,-108.49276462951177
6.404571648,1.0004865546070965,-108.63702469605711
6.406857216,1.0003673790049454,-108.77980811489445
6.409142784,1.0002246088228177,-108.9206654323734
6.411428352,1.0000675304382685,-109.05939987211593
6.413714432,0.9999056593306508,-109.19578945993779
6.416,0.9997497626571464,-109.32985781919325
6.418285568,0.9996094073102167,-109.4617958123169
6.420571648,0.9994935968324952,-109.59185605558172
6.422857216,0.9994098293760515,-109.72049467188114
6.425142784,0.9993633907479876,-109.848173467702
6.427428352,0.999357353898001,-109.97548128668394
6.429714432,0.9993921901037299,-110.10299109759782
6.432,0.9994654597353999,-110.23125335744164
6.434285568,0.9995727333365307,-110.3609110485464
6.436571648,0.999707337490651,-110.49227813988068
6.438857216,0.9998604605162907,-110.62576459375445
6.441142784,1.0000225143565988,-110.7615601681381
6.443428352,1.0001833513951957,-110.89969356578699
6.445714432,1.000332633185748,-111.04011211121023
6.448,1.0004607422240408,-111.18256453610442
6.450285568,1.0005597138202447,-111.3266595591719
6.452571648,1.0006231182234213,-111.47193642411852
6.454857216,1.0006470282119768,-111.61785791035828
6.457142784,1.000629811492451,-111.76385492767663
6.459428352,1.0005723775282531,-111.90933344113638
6.461714432,1.0004785044258924,-112.05367384665287
6.464,1.0003541382998558,-112.1965103949881
6.466285568,1.0002070425406944,-112.33733136603153
6.468571648,1.0000465181527818,-112.47592525567728
6.470857216,0.9998827024550613,-112.61218560112388
6.473142784,0.9997261679367243,-112.74609681856693
6.475428352,0.9995867930247835,-112.87787696002097
6.477714432,0.9994733358302006,-113.0078360040272
6.48,0.9993932165541771,-113.13637137684225
6.482285568,0.9993516530357895,-113.26398128849533
6.484571648,0.9993509857213332,-113.39132052336788
6.486857216,0.999391592280668,-113.5189675874451
6.489142784,0.9994708849435331,-113.64744123437777
6.491428352,0.9995838312002653,-113.77733066515303
6.493714432,0.9997231970328612,-113.9090819162379
6.496,0.9998801683519328,-114.0430071387777
6.498285568,1.0000449283044976,-114.17924603393477
6.500571648,1.0002068824173398,-114.31787443025452
6.502857216,1.0003557818347786,-114.45877612809382
6.505142784,1.00048217435579,-114.60168831031115
6.507428352,1.0005779573861493,-114.74622521351729
6.509714432,1.000637136066215,-114.89190149470323
6.512,1.0006557951614772,-115.03813828631752
6.514285568,1.0006327197670855,-115.18437994368063
6.516571648,1.0005694710962594,-115.32997281500238
6.518857216,1.0004698023120762,-115.47441270069176
6.521142784,1.0003401715453026,-115.61716337551704
6.523428352,1.0001887278216566,-115.75791178187318
6.525714432,1.0000248545253436,-115.89637421081794
6.528,0.9998593033951491,-116.03242702796032
6.530285568,0.9997024380806651,-116.16615272297476
6.532571648,0.999564193197356,-116.29772289498032
6.534857216,0.9994534358514403,-116.42746901449621
6.537142784,0.9993771032449807,-116.55588027686815
6.539428352,0.9993403056729301,-116.68343068363475
6.541714432,0.9993453761249426,-116.8107606930266
6.544,0.9993918675882694,-116.93849389989268
6.546285568,0.9994770838842083,-117.06715580091365
6.548571648,0.999595456712266,-117.19728702458347
6.550857216,0.9997396655730384,-117.32936783735857
6.553142784,0.9999004933787634,-117.46361933840899
6.555428352,1.0000675932057623,-117.60031581121945
6.557714432,1.0002306272733918,-117.7393948941656
6.56,1.000379043981439,-117.8807774763798
6.562285568,1.000503532444393,-118.02408194770801
6.564571648,1.0005958826966657,-118.16904979967168
6.566857216,1.0006506027262412,-118.31503048853399
6.569142784,1.0006638374109755,-118.4615479172079
6.571428352,1.0006350184578552,-118.60795512034652
6.573714432,1.0005656927358944,-118.75363263965397
6.576,1.0004602725976324,-118.89805676825279
6.578285568,1.000325372906314,-119.04075468476678
6.580571648,1.0001696155263748,-119.18135838084297
6.582857216,1.000002830314652,-119.3195750332824
6.585142784,0.9998356031358283,-119.45540949919207
6.587428352,0.9996784736797104,-119.58886243144305
6.589714432,0.9995415563012071,-119.72017507592481
6.592,0.9994335046073579,-119.84970797598326
6.594285568,0.9993613261994433,-119.97793516132384
6.596571648,0.999329575901387,-120.10538387356927
6.598857216,0.9993402700037753,-120.23269457755588
6.601142784,0.999392886568904,-120.36043100882809
6.603428352,0.999484058778266,-120.48922825289186
6.605714432,0.999608012157541,-120.61957360291169
6.608,0.9997569063989667,-120.7519505508674
6.610285568,0.9999213642430936,-120.88659127383455
6.612571648,1.0000908035026337,-121.02366012290071
6.614857216,1.0002546229766944,-121.1631373888235
6.617142784,1.0004023464021619,-121.30490924613807
6.619428352,1.0005245469746418,-121.44866682937047
6.621714432,1.0006135093198003,-121.59391292776047
6.624,1.0006634876665685,-121.7402029422036
6.626285568,1.0006712855411999,-121.88691801216478
6.628571648,1.000636437871114,-122.03344418799561
6.630857216,1.0005610097660427,-122.17917740720941
6.633142784,1.000449762040686,-122.32356799506496
6.635428352,1.0003097949514534,-122.46609155647789
6.637714432,1.0001498750922642,-122.60645865162519
6.64,0.9999802410206323,-122.74444024208019
6.642285568,0.999811448806546,-122.87998342327269
6.644571648,0.9996542603978168,-123.01313567844896
6.646857216,0.9995190014760321,-123.14415559047615
6.649142784,0.9994139446648476,-123.27342464912898
6.651428352,0.9993459633658349,-123.40141671192184
6.653714432,0.9993194239451741,-123.52870063705579
6.656,0.9993359550866742,-123.65592659668138
6.658285568,0.9993947403967717,-123.78369773043278
6.660571648,0.9994919008502416,-123.91261142773297
6.662857216,0.9996213602856056,-124.04315752912193
6.665142784,0.999774983253026,-124.17577556259971
6.667428352,0.9999428863029834,-124.31070725519643
6.669714432,1.00011452043699,-124.44812789251972
6.672,1.0002790070327143,-124.58797156219688
6.674285568,1.000425816177684,-124.73014794579865
6.676571648,1.0005456078384656,-124.87418815019822
6.678857216,1.000630834311258,-125.01975838446825
6.681142784,1.0006759677834294,-125.16629565340173
6.683428352,1.0006780671461546,-125.31315672831893
6.685714432,1.0006371433031909,-125.45974695086508
6.688,1.0005555581925458,-125.60543370075426
6.690285568,1.0004386093273236,-125.74969663961886
6.692571648,1.0002934632359042,-125.89207384005513
6.694857216,1.0001294997057513,-126.03218049503855
6.697142784,0.999956930772002,-126.1698465298751
6.699428352,0.9997868208970108,-126.30499885329534
6.701714432,0.9996300857518055,-126.43782329441524
6.704,0.9994964998564086,-126.56846074004831
6.706285568,0.9993946749901897,-126.69746460283868
6.708571648,0.9993310991670651,-126.82518053433051
6.710857216,0.9993099530995145,-126.95228836000715
6.713142784,0.9993324692004342,-127.07940990412452
6.715428352,0.9993974491529751,-127.2071562507792
6.717714432,0.9995007002091864,-127.33611498111941
6.72,0.9996355999766104,-127.46682699696744
6.722285568,0.9997938549569477,-127.59963787438618
6.724571648,0.999965053813969,-127.7348641660995
6.726857216,1.0001387231749135,-127.87262972207337
6.729142784,1.0003036114255994,-128.01280546853982
6.731428352,1.0004492710227073,-128.15526236796927
6.733714432,1.0005664723239607,-128.29964787820447
6.736,1.0006477148630442,-128.4454643549905
6.738285568,1.0006878982213623,-128.5921403701387
6.740571648,1.0006842219116365,-128.73913754202246
6.742857216,1.0006370772506044,-128.88570161542071
6.745142784,1.0005492902221922,-129.03134085322023
6.747428352,1.0004264716547888,-129.17542300268707
6.749714432,1.0002763377487967,-129.31754777949214
6.752,1.0001083368463208,-129.45732232699422
6.754285568,0.9999331794516082,-129.59462192230674
6.756571648,0.9997619165246516,-129.72940969383043
6.758857216,0.9996056007738872,-129.8617761187674
6.761142784,0.9994740313065608,-129.99208574910946
6.763428352,0.9993755796925555,-130.1206765678138
6.765714432,0.9993167536065277,-130.24812809587212
6.768,0.9993010514210859,-130.3749976708325
6.770285568,0.9993297403451612,-130.50199055892205
6.772571648,0.9994009513947016,-130.62967833761454
6.774857216,0.9995102657298791,-130.7587140812017
6.777142784,0.9996507532860218,-130.88948026631266
6.779428352,0.9998134273842886,-131.0225089976074
6.781714432,0.9999880275883686,-131.1579876192563
6.784,1.000163491212018,-131.29599192885047
6.786285568,1.0003285192855962,-131.43648919902083
6.788571648,1.0004729206533303,-131.5792418474131
6.790857216,1.0005872651059655,-131.7238543911179
6.793142784,1.0006643408821028,-131.86984303290046
6.795428352,1.0006992653923945,-132.0166731040508
6.797714432,1.0006896457709533,-132.16370212601987
6.8,1.0006362117459586,-132.3102495444255
6.802285568,1.0005421494520093,-132.45573496716835
6.804571648,1.0004135553085842,-132.59960710070487
6.806857216,1.0002583605374213,-132.74138494677564
6.809142784,1.0000865432412396,-132.8808139631175
6.811428352,0.9999088204491207,-133.0176713165097
6.813714432,0.9997366163831515,-133.15198788369756
6.816,0.9995809099833163,-133.2839350086138
6.818285568,0.9994515186596572,-133.4137949832376
6.820571648,0.9993567778945821,-133.54197123729364
6.822857216,0.9993027677441141,-133.66908022032746
6.825142784,0.9992928079892256,-133.7957128736597
6.827428352,0.9993277685526073,-133.9224993747787
6.829714432,0.9994053943063018,-134.0501387991405
6.832,0.9995207646988693,-134.17913783223295
6.834285568,0.999666630634916,-134.310044612122
6.836571648,0.9998337608141085,-134.44321124017645
6.838857216,1.0000114803514073,-134.57890667732255
6.841142784,1.0001885112978142,-134.7171685564829
6.843428352,1.0003537217210845,-134.85788869501638
6.845714432,1.0004965150174059,-135.00084718698432
6.848,1.000607730279322,-135.14569770893166
6.850285568,1.0006804440592485,-135.29184576472446
6.852571648,1.0007099952991345,-135.43875352812387
6.854857216,1.0006942974376705,-135.5857399014487
6.857142784,1.0006343647624696,-135.73221927018506
6.859428352,1.000534061862438,-135.87746985977296
6.861714432,1.0003996559430084,-136.02104457839428
6.864,1.0002395259986594,-136.16248475132477
6.866285568,1.0000638483479063,-136.30148083377807
6.868571648,0.9998839226028388,-136.43788932629795
6.870857216,0.9997109694266426,-136.57169808608535
6.873142784,0.9995560835700636,-136.70312600096906
6.875428352,0.9994291500011357,-136.83248778830102
6.877714432,0.9993382106361949,-136.96023498619778
6.88,0.9992891584679334,-137.0869676167861
6.882285568,0.9992851647058085,-137.21329655963592
6.884571648,0.9993264349287356,-137.33991578515008
6.886857216,0.999410504734955,-137.46741462256082
6.889142784,0.99953208072302,-137.59636911582103
6.891428352,0.9996833125716896,-137.72731635532375
6.893714432,0.9998547899599475,-137.86064687193712
6.896,1.0000354719930435,-137.99646578968088
6.898285568,1.0002140770166434,-138.13491630536902
6.900571648,1.0003790641344443,-138.275899727963
6.902857216,1.0005200457868983,-138.41906390061183
6.905142784,1.0006281052274069,-138.56403113900134
6.907428352,1.0006961889529264,-138.71030386920185
6.909714432,1.0007200245641963,-138.85724266470308
6.912,1.000698120376075,-139.0041606396042
6.914285568,1.0006317686444648,-139.15046619432354
6.916571648,1.0005250605494145,-139.29546223869187
6.918857216,1.0003848956070187,-139.43874076405882
6.921142784,1.0002199107307024,-139.57973073640065
