freq,mag,phase
6.0,0.9996017688308758,72.0293168196395
6.002287616,0.9997656204824937,71.86913942226316
6.004575232,0.9999441188119552,71.70648161926061
6.006862848,1.0001259227172679,71.54122566984543
6.009150464,1.00029970418925,71.37338838075883
6.011438592,1.0004542767325528,71.20317796292531
6.013726208,1.0005799539517435,71.03095833130271
6.016013824,1.000668769106287,70.85716507155038
6.01830144,1.0007151481525571,70.68242030261254
6.020589056,1.0007160555511334,70.50732893126072
6.022876672,1.0006713614572378,70.332564736686
6.025164288,1.0005840475662158,70.15876723552051
6.027451904,1.0004594591215523,69.98649437881895
6.029740032,1.0003054840028058,69.81626987878484
6.032027648,1.0001318317812218,69.64840416211516
6.034315264,0.999949493910601,69.48316518217895
6.03660288,0.9997698561787145,69.32053885640259
6.038890496,0.9996045433995318,69.16043594351298
6.041178112,0.9994639110203783,69.00255762734756
6.043465728,0.999356795835,68.84650475726211
6.045753344,0.9992901861080605,68.69171542251262
6.04804096,0.9992681640622426,68.53758571502784
6.050329088,0.9992921795498371,68.38345711221672
6.052616704,0.9993608970726338,68.22867528950533
6.05490432,0.9994697421336175,68.07257958447639
6.057191936,0.9996120502863416,67.91469322266694
6.059479552,0.9997786578620852,67.75457459525049
6.061767168,0.9999591059423303,67.59191578616638
6.064054784,1.0001420509583174,67.42664046297878
6.0663424,1.0003157848460502,67.25877954320772
6.068630016,1.0004694541048065,67.0885469956667
6.070918144,1.0005931775401167,66.91630899659971
6.07320576,1.0006793149227533,66.7425480869031
6.075493376,1.0007222450716466,66.56786414267222
6.077780992,1.0007192612434155,66.39289712724897
6.080068608,1.0006705928224442,66.21829164396743
6.082356224,1.0005792464988421,66.0447201231082
6.08464384,1.0004508869372128,65.87273305772825
6.086931456,1.000293750673888,65.70281827084398
6.089219584,1.0001176820699533,65.53534561308189
6.0915072,0.9999338174176985,65.37047254560983
6.093794816,0.9997536373664349,65.20826122842828
6.096082432,0.9995888782371867,65.04855480638273
6.098370048,0.9994497485370053,64.89107307055234
6.100657664,0.9993449681773271,64.73536965364218
6.10294528,0.9992814460770101,64.58090600095893
6.105232896,0.9992631499756081,64.42703735898836
6.107520512,0.999291273880327,64.27310378404404
6.10980864,0.9993639504195638,64.11843914626782
6.112096256,0.9994768129365825,63.962451234671846
6.114383872,0.9996224670460327,63.8045636043277
6.116671488,0.9997919683033116,63.6444115219949
6.118959104,0.9999744113618498,63.481706074327256
6.12124672,1.0001583356652899,63.31632866371537
6.123534336,1.0003321054808558,63.148380593102914
6.125821952,1.0004846445071265,62.97804843302862
6.128109568,1.0006064256581981,62.80573761593396
6.130397696,1.0006896303905597,62.63193782851205
6.132685312,1.0007291110801642,62.45726362100426
6.134972928,1.0007221840727876,62.282336112827906
6.137260544,1.0006694567688863,62.10784151696048
6.13954816,1.0005740070217042,61.93442476377829
6.141835776,1.0004419863605627,61.76265782556943
6.144123392,1.0002816896543663,61.593028568040985
6.146411008,1.0001032225325144,61.42583031925064
6.148699136,0.9999177925013905,61.26130668881604
6.150986752,0.9997372682871323,61.099430978444175
6.153274368,0.9995730091775813,60.9400621561711
6.155561984,0.9994353997363604,60.78291062827148
6.1578496,0.9993331835787382,60.62748315439335
6.160137216,0.9992729963468804,60.473251265069
6.162424832,0.9992584243185603,60.31956558524214
6.164712448,0.9992906198073518,60.1657734545994
6.167000064,0.9993674688142653,60.01118382297641
6.169288192,0.9994842445249306,59.85518518987608
6.171575808,0.9996334228029737,59.69727369512311
6.173863424,0.9998055987690313,59.53701320853061
6.17615104,0.9999899808942787,59.37415210411182
6.178438656,1.0001749257250367,59.2086394943387
6.180726272,1.0003484804417258,59.04050107748087
6.183013888,1.000499978422053,58.8700219870706
6.185301504,1.0006196206038418,58.69756352105238
6.18758912,1.0006998891209546,58.52365811359215
6.189877248,1.0007358162206348,58.34891024691347
6.192164864,1.0007248923661962,58.173992375043
6.19445248,1.000667968824825,57.999543569482874
6.196740096,1.0005684355908182,57.82623561610651
6.199027712,1.0004326423560392,57.65460925300312
6.201315328,1.0002692302696796,57.48518470702302
6.203602944,1.0000884463314546,57.3182474700046
6.20589056,0.9999016115626687,57.15397774664593
6.208178688,0.9997206550110264,56.99237555003938
6.210466304,0.9995570739257305,56.83329352694281
6.21275392,0.9994212029605448,56.67637866860542
6.215041536,0.9993215414301144,56.52117072458503
6.217329152,0.9992645791112434,56.367130038538804
6.219616768,0.9992539062427729,56.21356011150894
6.221904384,0.999290233194983,56.05981503069611
6.224192,0.9993713383191661,55.905221658584
6.226479616,0.9994920272532064,55.7491666808285
6.228767744,0.9996446254823188,55.59113079476553
6.23105536,0.9998195692838074,55.430690098352635
6.233342976,1.0000058398154485,55.26764464395423
6.235630592,1.0001914911411363,55.1018735292617
6.237918208,1.0003649545307107,54.933528768622125
6.240205824,1.0005152580636787,54.762804422302594
6.24249344,1.0006327283672236,54.59015019158358
6.244781056,1.0007099970480005,54.41606880267578
6.247068672,1.0007421435742907,54.241204573414954
6.2493568,1.0007272419142155,54.06618887713913
6.251644416,1.0006660491297137,53.8917313904106
6.253932032,1.0005625276643832,53.71845934507923
6.256219648,1.0004229917322107,53.546959883164575
6.258507264,1.000256468793928,53.377652434586764
6.26079488,1.000073318667547,53.21090032689481
6.263082496,0.9998853034804533,53.04684301460183
6.265370112,0.9997039972328785,52.88545378050673
6.26765824,0.9995411106135952,52.726568632109405
6.269945856,0.9994070179503879,52.569841422771916
6.272233472,0.999309978182996,52.41479246781146
6.274521088,0.9992564384824296,52.26085349190309
6.276808704,0.9992497256380275,52.10734167815011
6.27909632,0.9992902739055912,51.95359238428849
6.281383936,0.9993755478928665,51.79890170317582
6.283671552,0.999500135527191,51.64271117993619
6.285959168,0.9996561753683392,51.48447378458938
6.288247296,0.9998338120091359,51.32379976566482
6.290534912,1.000021931514505,51.16048159377511
6.292822528,1.0002083960931492,50.99441315225789
6.295110144,1.0003816601243332,50.825748725538865
6.29739776,1.0005305625149497,50.654724259517884
6.299685376,1.0006457513745626,50.48181429025787
6.301972992,1.0007199608161161,50.307501213115216
6.304260608,1.0007483613287909,50.13242313319699
6.306548224,1.0007293776349808,49.957275022700415
6.308836352,1.0006639471842351,49.7827500116045
6.311123968,1.0005561688097286,49.60946149275851
6.313411584,1.000413015992014,49.4379983658223
6.3156992,1.0002434155238797,49.268764619289044
6.317986816,1.0000580204420537,49.10212969531253
6.320274432,0.9998685806924072,48.93821200689865
6.322562048,0.999687093835694,48.77696513538111
6.324849664,0.9995251428971832,48.61822854025009
6.327137792,0.999392747635237,48.461612307118635
6.329425408,0.9992985834984918,48.306659629951426
6.331713024,0.9992485118549241,48.15275112540329
6.33400064,0.9992457710493028,47.99922566730823
6.336288256,0.9992904883927771,47.84538967586564
6.338575872,0.9993799840867202,47.690567418263115
6.340863488,0.9995085680030282,47.53416730214567
6.343151104,0.9996680537704776,47.3756565997906
6.34543872,0.9998484120131893,47.21466915166464
6.347726848,1.0000382346152406,47.05099773178292
6.350014464,1.0002254466282396,46.88457659565184
6.35230208,1.0003982762296653,46.71554876654951
6.354589696,1.0005459080447703,46.54415845810573
6.356877312,1.000658683185079,46.37089610564916
6.359164928,1.0007297178898356,46.196270242194686
6.361452544,1.0007544345077815,46.02095528254584
6.36374016,1.0007312320700346,45.84563387754236
6.366027776,1.0006614709388892,45.67094197538413
6.368315904,1.0005497120838234,45.49757543548092
6.37060352,1.000402879827623,45.326064100969084
6.372891136,1.0002301444525947,45.15686568356145
6.375178752,1.0000425655554326,44.99029277025859
6.377466368,0.9998518726105965,44.82643179645779
6.379753984,0.9996702564115783,44.66528797679808
6.3820416,0.9995091096363499,44.506613107046554
6.384329216,0.9993787610717711,44.350066137014835
6.386617344,0.999287335449903,44.19513380913146
6.38890496,0.9992407796841166,44.041172315682225
6.391192576,0.9992421238384477,43.88755712645889
6.393480192,0.9992911421444857,43.733562095821085
6.395767808,0.999384850659931,43.578529538036605
6.398055424,0.9995172901240903,43.421851067792716
6.40034304,0.9996802111616271,43.263007677368854
6.402630656,0.9998631738935037,43.10165507226785
6.404918272,1.0000546918686426,42.93754912958664
6.4072064,1.0002426561852282,42.77069304399525
6.409494016,1.0004150453410658,42.60120279111787
6.411781632,1.0005611185497385,42.42941381141004
6.414069248,1.0006715287484875,42.25572515652343
6.416356864,1.000739383432702,42.08076079976588
6.41864448,1.00076015625418,41.90513007495349
6.420932096,1.000732765459874,41.72953506687855
6.423219712,1.0006587783894694,41.55466255343355
6.425507328,1.0005429347421773,41.381137798076615
6.427795456,1.0003923072356518,41.20953884474416
6.430083072,1.0002165512933634,41.04031005680321
6.432370688,1.0000268150497562,40.873720810438485
6.434658304,0.9998350182995414,40.70987280605977
6.43694592,0.9996533081120474,40.54872914242171
6.439233536,0.9994931197497687,40.39008531189397
6.441521152,0.9993647306875479,40.23352466602509
6.443808768,0.9992761741274151,40.078525586070064
6.446096896,0.9992333468065191,39.92448678394817
6.448384512,0.9992386143935147,39.77070863433109
6.450672128,0.9992920341439355,39.61648455901491
6.452959744,0.9993899438360547,39.46118392655104
6.45524736,0.9995264044018644,39.30414116196675
6.457534976,0.9996926304987216,39.14488383262706
6.459822592,0.9998781889621432,38.98307700402564
6.462110208,1.0000713388662206,38.81850448362319
6.464397824,1.0002598967701317,38.65113133441357
6.466685952,1.0004317278877406,38.481152656911576
6.468973568,1.000576328822394,38.30885348944176
6.471261184,1.0006841775015245,38.134724734283466
6.4735488,1.000748673172714,37.95930533860725
6.475836416,1.0007656986130513,37.783298651130636
6.478124032,1.000734076253981,37.60737177110851
6.480411648,1.0006557445296522,37.432232820945266
6.482699264,1.0005357221749318,37.258519393943146
6.48498688,1.0003814834940161,37.086769559643315
6.487275008,1.000202785255067,36.91741998391746
6.489562624,1.0000109237463894,36.7507598717291
6.49185024,0.9998180422575337,36.586869575529356
6.494137856,0.9996362219782711,36.425695544571255
6.496425472,0.9994771119710595,36.26697782553847
6.498713088,0.9993508503174248,36.1103345404139
6.501000704,0.9992652991292464,35.955238529044195
6.50328832,0.9992259803799343,35.80101949357335
6.505576448,0.9992354546990838,35.647015335560866
6.507864064,0.9992931047148967,35.49251170387146
6.51015168,0.9993953369945687,35.336820115518464
6.512439296,0.9995356711737843,35.179372424725194
6.514726912,0.9997051673764359,35.01965449411324
6.517014528,0.9998932704215225,34.857328232311836
6.519302144,1.0000880705590693,34.692188903827386
6.52158976,1.000277122257669,34.52425851805273
6.523877376,1.0004484767569994,34.35370076019475
6.526165504,1.0005913392514254,34.18083104212788
6.52845312,1.0006966915021873,34.00616145055389
6.530740736,1.0007578747198915,33.83026671465435
6.533028352,1.000770899398413,33.65382711372717
6.535315968,1.0007349677123987,33.477511972764695
6.537603584,1.0006524169437727,33.30205855805778
6.5398912,1.0005281606677083,33.12805908577422
6.542178816,1.000370294134107,32.95610091002191
6.544466432,1.0001886603305044,32.78659100187898
6.54675456,0.9999947843372397,32.61981019237099
6.549042176,0.9998008261333172,32.45580396626092
6.551329792,0.9996190723244831,32.2945162642691
6.553617408,0.9994611810887527,32.13569219418789
6.555905024,0.999336947295957,31.978894806974193
6.55819264,0.9992544334148213,31.823608798679757
6.560480256,0.9992188562686665,31.66916664232441
6.562767872,0.9992325052216128,31.51484680303662
6.565056,0.999294480732029,31.359977352021872
6.567343616,0.9994008534354681,31.203883908437927
6.569631232,0.9995451787625022,31.045929657287083
6.571918848,0.9997180372084236,30.885676300457956
6.574206464,0.9999085832423233,30.72274771032827
6.57649408,1.0001048484669077,30.557000232121965
6.578781696,1.0002943330955638,30.38843609247168
6.581069312,1.0004650531879915,30.217241316305003
6.583356928,1.0006063027123062,30.043770625449994
6.585645056,1.0007090177119373,29.868493357238034
6.587932672,1.000766776224051,29.69204353817173
6.590220288,1.0007759147544044,29.515093469328164
6.592507904,1.00073559835716,29.338344027020458
6.59479552,1.0006487660024277,29.16248535653659
6.597083136,1.0005204963723686,28.98818620866967
6.599370752,1.000359025459877,28.815953263080583
6.601658368,1.0001744713223575,28.64621608665276
6.603945984,0.9999785480703014,28.47923141872392
6.606234112,0.9997836142119747,28.315035464050617
6.608521728,0.9996019831889031,28.15358113016728
6.610809344,0.9994452474691291,27.994575013502622
6.61309696,0.9993232715362033,27.837580136724043
6.615384576,0.9992438274107537,27.682022437732847
6.617672192,0.9992120318455264,27.527256929452985
6.619959808,0.9992297985890879,27.37260751598045
6.622247424,0.9992961389450428,27.217300382469862
6.624535552,0.9994068475838607,27.060694535769798
6.626823168,0.9995549451036212,26.90220442014381
6.629110784,0.9997311087784052,26.74132520619674
6.6313984,0.9999240829716203,26.577756029523016
6.633686016,1.000121874464341,26.411311144928284
6.635973632,1.0003117791630882,26.242041036001606
6.638261248,1.000481759095427,26.070151018417878
6.640548864,1.0006212560206942,25.895985142099267
6.64283648,1.0007213155663723,25.720062431218235
6.645124608,1.000775613543627,25.54300144227851
6.647412224,1.0007807087777003,25.36547728362951
6.64969984,1.000736209417329,25.18823085085442
6.651987456,1.0006448861660642,25.01193473527625
6.654275072,1.0005125926222542,24.837232861860794
6.656562688,1.0003475207172012,24.664665642313075
6.658850304,1.000160115270934,24.494624444222964
6.66113792,0.9999622425623964,24.327383470949282
6.663426048,0.9997664843239834,24.162981118382802
6.665713664,0.9995850136208699,24.00126898237963
6.66800128,0.9994295350547395,23.842007119245743
6.670288896,0.9993097975159061,23.684742667463468
6.672576512,0.9992334611981504,23.528861048765574
6.674864128,0.9992053319835187,23.37373635971306
6.677151744,0.9992273541774576,23.21863283471495
6.67943936,0.9992980238679473,23.062838570189868
6.681726976,0.999413060842552,22.905667138161427
6.684015104,0.9995649799029676,22.746556600454834
6.68630272,0.9997443528358383,22.584995534196747
6.688590336,0.9999397901536876,22.42070814528772
6.690877952,1.0001389427198069,22.25353885078418
6.693165568,1.0003291284985123,22.083489188099406
6.695453184,1.0004984682347562,21.910820508165415
6.6977408,1.0006360723894319,21.73590679137524
6.700028416,1.0007335433540527,21.559272068937734
6.702316032,1.000784297440798,21.38152796056958
6.70460416,1.0007853200254526,21.203374294356237
6.706891776,1.00073656386349,21.02555495183458
6.709179392,1.000640886436429,20.848767077689644
6.711467008,1.0005045543189333,20.67362242485913
6.713754624,1.0003358387147987,20.50065568625926
6.71604224,1.000145782870084,20.330274103976887
6.718329856,0.9999459696580512,20.162692806579244
6.720617472,0.9997492721100717,19.997974826593225
6.7229056,0.9995680931128508,19.83598720533729
6.725193216,0.9994137971924933,19.676412749072632
6.727480832,0.9992964544223337,19.51878208416241
6.729768448,0.9992231448586036,19.362519960156654
6.732056064,0.9991990051275056,19.206965892344304
6.73434368,0.9992251621457051,19.051361674434478
6.736631296,0.9993002301401094,18.895011070012547
6.738918912,0.9994193666567485,18.737206004201123
6.741206528,0.9995751617447635,18.577396275321128
6.743494656,0.9997577161342097,18.415120497886367
6.745782272,0.9999554503606877,18.25002783335162
6.748069888,1.00015595838022,18.082030435043908
6.750357504,1.000346404874811,17.911173362330718
6.75264512,1.000514924882614,17.737666554730207
6.754932736,1.0006506923614489,17.56195115384411
6.757220352,1.0007453572861766,17.384540842626627
6.759507968,1.0007926682073927,17.206062450271638
6.761795584,1.00078962209787,17.02722295580011
6.764083712,1.0007365043315686,16.848777752947786
6.766371328,1.0006366705627623,16.671423526757454
6.768658944,1.000496270118753,16.49575650235662
6.77094656,1.0003240794331805,16.322345996817575
6.773234176,1.0001311573481344,16.151543618379286
6.775521792,0.9999295727729413,15.983590314664038
6.777809408,0.9997320475757626,15.818513121176958
6.780097024,0.9995512000029316,15.656148863405294
6.782385152,0.9993983427987337,15.496179375758874
6.784672768,0.9992832123038801,15.338156176385429
6.786960384,0.9992132306281382,15.181454296526026
6.789248,0.9991927197130281,15.02538402356788
6.791535616,0.9992232028188728,14.869210818454462
6.793823232,0.9993025967246946,14.712216980649103
6.796110848,0.9994260554378012,14.553750055332845
6.798398464,0.9995855443765566,14.393183680661432
6.80068608,0.9997711944420579,14.23006892451488
6.802974208,0.9999712759081549,14.064149922839476
6.805261824,1.000173012692177,13.895262629021783
6.80754944,1.0003637745875638,13.723517668678785
6.809837056,1.000531382227694,13.549141873112228
6.812124672,1.000665343217646,13.372562715561315
6.814412288,1.0007570246831359,13.194301256912807
6.816699904,1.0008008225079517,13.015013086519842
6.81898752,1.0007937978041674,12.835456060057123
6.821275136,1.0007363765484805,12.656305313864229
6.823563264,1.000632185187517,12.47831372954907
6.82585088,1.0004877881846814,12.302091159467459
6.828138496,1.0003121143625615,12.12817065427656
6.830426112,1.0001164818645392,11.956878787096818
6.832713728,0.9999130737157321,11.78848804630839
6.835001344,0.9997148930761613,11.622962521148624
6.83728896,0.9995343694220825,11.460194703203488
6.839576576,0.9993829449063378,11.299793491975175
6.841864704,0.9992701501800749,11.141289206394632
6.84415232,0.9992033743654557,10.98405893648347
6.846439936,0.9991867802531885,10.82742588072226
6.848727552,0.9992214253226174,10.670634968272788
6.851015168,0.9993051186879376,10.512950649418492
6.853302784,0.9994326183330049,10.353698556731377
6.8555904,0.9995959471634817,10.192329297128591
6.857878016,0.999784731886477,10.028338780909268
6.860165632,0.9999869811537464,9.86150525706325
6.86245376,1.000190100817763,9.69170359262092
6.864741376,1.0003809741533363,9.519001940917857
6.867028992,1.0005476223209109,9.343667928579183
6.869316608,1.0006796424045472,9.166151642199436
6.871604224,1.000768503824427,8.98697303717863
6.87389184,1.0008087965711134,8.806859103513272
6.876179456,1.0007976704732446,8.626489769482378
6.878467072,1.0007359494929262,8.44660075713006
6.880754688,1.000627593096092,8.267923563279611
6.883042816,1.0004791316563777,8.091081230253243
6.885330432,1.0003001284513626,7.916569308420758
6.887618048,1.000101794337938,7.7447669848514025
6.889905664,0.999896733505574,7.575865540888196
6.89219328,0.9996977459736474,7.4098482479340975
6.894480896,0.9995176083377241,7.246583245723837
6.896768512,0.999367518798948,7.085674229923274
6.899056128,0.9992572755907045,6.926626201602438
6.901344256,0.9991937238882551,6.768837278902091
6.903631872,0.9991808954402938,6.6115646597270485
6.905919488,0.9992198594798561,6.454073857463051
6.908207104,0.9993078107762621,6.295631258899556
6.91049472,0.9994394826736054,6.135582867770236
6.912782336,0.9996065184657198,5.973312791642028
6.915069952,0.9997983457558515,5.808399150093357
6.917357568,1.0000027528285351,5.640590398316217
6.919645184,1.0002069970031613,5.469774883679171
6.921933312,1.000398023803404,5.296063364779639
6.924220928,1.0005638080871928,5.1197274000801345
6.926508544,1.000693922332916,4.9412104763533
6.92879616,1.000779975418202,4.761095599023872
6.931083776,1.0008166270457854,4.580050503081863
6.933371392,1.0008014500417677,4.39883712902454
