freq,mag,phase
6.0,0.9998512260765648,-70.9165996425823
6.006211072,0.9997518104311637,-71.21554193714843
6.012422144,0.999666760495165,-71.51334548136381
6.018633728,0.9996004349551199,-71.81015274039552
6.0248448,0.9995567110167113,-72.10634056688727
6.031055872,0.9995383658189223,-72.40215472471347
6.037266944,0.9995460182066369,-72.69801041137308
6.043478016,0.9995793596598445,-72.99424412026006
6.0496896,0.9996367364719491,-73.29121190396299
6.055900672,0.9997148892176685,-73.5891746438644
6.062111744,0.9998094026467576,-73.88843668425221
6.068322816,0.9999147576989182,-74.18912804287031
6.0745344,1.000025281583124,-74.49144063276646
6.080745472,1.0001347977994877,-74.79536968541836
6.086956544,1.0002367498958071,-75.10080110358409
6.093167616,1.0003254537909354,-75.40765866579893
6.099378688,1.0003958732743283,-75.71567993942246
6.105590272,1.000444416896763,-76.02467777915294
6.111801344,1.0004677561914248,-76.33424619733648
6.118012416,1.000464772426092,-76.64403338628257
6.124223488,1.0004354375673503,-76.95368787983026
6.13043456,1.0003813870398892,-77.262943711525
6.136646144,1.000306026669513,-77.57136243868372
6.142857216,1.000213004016706,-77.87871661937521
6.149068288,1.0001079973712503,-78.18484388297895
6.15527936,0.9999965682922212,-78.48953821996696
6.161490432,0.99988531158594,-78.7927923425777
6.167702016,0.9997804519824388,-79.09471796107826
6.173913088,0.999687775131169,-79.39534355563814
6.18012416,0.9996127162296035,-79.69491938539447
6.186335232,0.9995597163996981,-79.99368855051269
6.192546816,0.9995313864818715,-80.29196529342683
6.198757888,0.9995298191367877,-80.59015510753873
6.20496896,0.9995548730289673,-80.88860699236844
6.211180032,0.9996052237140864,-81.18764279246071
6.217391104,0.9996779824335554,-81.48765426679371
6.223602688,0.9997694033631086,-81.7888374953143
6.22981376,0.9998738063967074,-82.09145287709944
6.236024832,0.999985889934836,-82.39564831629018
6.242235904,1.0000989337796902,-82.70148650617412
6.248446976,1.0002066007659398,-83.00895636016355
6.25465856,1.0003028309003923,-83.31788920341722
6.260869632,1.0003821490987814,-83.62813058049299
6.267080704,1.0004400466427457,-83.93940047482607
6.273291776,1.0004732953555013,-84.25138447869105
6.27950336,1.0004797643538226,-84.5637586516252
6.285714432,1.0004593775156636,-84.87614547231443
6.291925504,1.0004128121338514,-85.1881231365828
6.298136576,1.000342960139578,-85.49945086131262
6.304347648,1.0002537420377113,-85.80975184365839
6.310559232,1.0001499976319679,-86.11885356795106
6.316770304,1.0000376942310683,-86.42652115431902
6.322981376,0.99992309318921,-86.73272577185953
6.329192448,0.9998125512703264,-87.03751067119869
6.33540352,0.999712735659018,-87.34091661434229
6.341615104,0.99962901607939,-87.6431443990125
6.347826176,0.9995661938660566,-87.94446513273259
6.354037248,0.9995278020053072,-88.24514212030758
6.36024832,0.9995163319085034,-88.54558749184
6.366459392,0.9995322493408509,-88.84613615051398
6.372670976,0.9995747122936791,-89.14713533822332
6.378882048,0.9996415050403726,-89.4490212470852
6.38509312,0.9997286822706315,-89.75205953491903
6.391304192,0.9998315059642069,-90.05644224310848
6.397515776,0.9999440650127507,-90.36239311694341
6.403726848,1.0000600942755302,-90.67002259479855
6.40993792,1.0001730197716752,-90.97926099801235
6.416148992,1.0002764548400171,-91.2901281573055
6.422360064,1.0003644139614962,-91.60235601524502
6.428571648,1.00043204463468,-91.91575690688109
6.43478272,1.000475450474411,-92.22999709175079
6.440993792,1.0004921856819122,-92.54478747165713
6.447204864,1.0004810172744918,-92.85965481637895
6.453415936,1.000442780696192,-93.17429928022976
6.45962752,1.0003795619269462,-93.48830591638179
6.465838592,1.0002948592931618,-93.8014318810747
6.472049664,1.000193334209923,-94.11333909857362
6.478260736,1.0000809158471053,-94.42387893901508
6.484471808,0.9999636010248958,-94.73294112197422
6.490683392,0.9998482884269179,-95.04047698025087
6.496894464,0.9997414155072628,-95.34656096820466
6.503105536,0.9996490880982116,-95.65136278946093
6.509316608,0.9995764450285753,-95.95510315570866
6.515528192,0.9995279417128248,-96.25806532683418
6.521739264,0.9995059627624886,-96.56066745992806
6.527950336,0.9995120468416933,-96.86321856665195
6.534161408,0.9995457849747784,-97.16612498294131
6.54037248,0.9996054369294702,-97.46972231198824
6.546584064,0.9996876421617849,-97.77442216027906
6.552795136,0.9997876732111292,-98.08041353888902
6.559006208,0.999899922993531,-98.38794156524838
6.56521728,1.0000183024499087,-98.6971544772372
6.571428352,1.000135863780414,-99.00805055050041
6.577639936,1.0002460821706713,-99.32055172459727
6.583851008,1.00034257896052,-99.63458592780684
6.59006208,1.0004199934926326,-99.9499170047476
6.596273152,1.000473879164066,-100.26623191781023
6.602484224,1.000501235809071,-100.58312879319857
6.608695808,1.0005003027875061,-100.90035525836382
6.61490688,1.0004711926990817,-101.2174249025086
6.621117952,1.00041546221555,-101.53400365262536
6.627329024,1.0003363777285041,-101.84977675799092
6.633540608,1.0002381159118796,-102.16434416072495
6.63975168,1.0001262265000255,-102.47760160704223
6.645962752,1.000007120287248,-102.78934170759355
6.652173824,0.9998875797158464,-103.09955042026267
6.658384896,0.9997741117325765,-103.40819901266951
6.66459648,0.9996733560034566,-103.71545682695104
6.670807552,0.9995910342066013,-104.02154124576369
6.677018624,0.9995317843716631,-104.32670435342396
6.683229696,0.9994988259614555,-104.63134675825651
6.689440768,0.999494470611215,-104.93574340174852
6.695652352,0.9995188423243538,-105.2403597642389
6.701863424,0.9995703185032669,-105.54562167797715
6.708074496,0.9996464620986208,-105.851772051084
6.714285568,0.9997428186770488,-106.15917889091784
6.72049664,0.9998540025725121,-106.46810371852246
6.726708224,0.9999736946077444,-106.7786649201597
6.732919296,1.000095186906733,-107.09097690420344
6.739130368,1.0002116559943757,-107.40496161829203
6.74534144,1.0003164327344458,-107.72058248263886
6.751553024,1.0004036482543972,-108.03755784276292
6.757764096,1.0004682281953832,-108.35565080692072
6.763975168,1.000506497596274,-108.67456467383172
6.77018624,1.0005164823771089,-108.99384922488477
6.776397312,1.0004972831883836,-109.31316929923992
6.782608896,1.0004501561439252,-109.63209160103975
6.788819968,1.0003774753423125,-109.95024506101286
6.79503104,1.0002833903540855,-110.26737656560725
6.801242112,1.000173276557563,-110.58319698113226
6.807453184,1.0000532518229632,-110.89747161657417
6.813664768,0.99993004457009,-111.21017465667101
6.81987584,0.999810706172116,-111.52125480914951
6.826086912,0.9997019167270119,-111.83084012798388
6.832297984,0.9996097738966366,-112.13914242971505
6.838509568,0.9995397357768814,-112.44635528626323
6.84472064,0.9994956569083515,-112.75286890697575
6.850931712,0.9994800939373002,-113.05904835672668
6.857142784,0.9994940282978686,-113.36523471987363
6.863353856,0.9995366799976761,-113.67188623963263
6.86956544,0.9996057556391523,-113.97937040788374
6.875776512,0.9996972871447377,-114.28804253623811
6.881987584,0.9998062405292396,-114.59813650230875
6.888198656,0.9999264540635617,-114.90985520172198
6.894409728,1.0000510829565832,-115.22332418713098
6.900621312,1.0001732245594814,-115.53856156203632
6.906832384,1.000285886377812,-115.85544167558972
6.913043456,1.0003826309175736,-116.17383316648795
6.919254528,1.0004580389750684,-116.49348367886182
6.9254656,1.0005079311871943,-116.8140655501011
6.931677184,1.0005292003749826,-117.13520436089973
6.937888256,1.0005207158071734,-117.4565128649368
6.944099328,1.0004829152966905,-117.77755143437477
6.9503104,1.0004177871583055,-118.0979566178167
6.956521984,1.0003292348967607,-118.417379774206
6.962733056,1.0002217235580115,-118.73556166961582
6.968944128,1.0001018654444556,-119.05218092153963
6.9751552,0.9999758433952206,-119.3672246635995
6.981366272,0.9998510920250107,-119.68061898840264
6.987577856,0.9997347223090796,-119.99238082472807
6.993788928,0.9996331307449845,-120.30270443203844
7.0,0.9995521352707339,-120.6118736361943
7.006211072,0.9994964068841121,-120.92012453267505
7.012422144,0.9994692510386248,-121.22786595735035
7.018633728,0.9994720958098174,-121.5355020431046
7.0248448,0.9995048586535457,-121.84339787494103
7.031055872,0.9995658465140486,-122.1520219972224
7.037266944,0.9996515179469097,-122.46170019709554
7.043478016,0.9997571737445773,-122.77274900259852
7.0496896,0.9998768363541672,-123.08539223552552
7.055900672,1.0000037826891726,-123.3997823139737
7.062111744,1.0001309055949745,-123.71594953402548
7.068322816,1.0002508961145278,-124.0339089076311
7.0745344,1.0003570537868696,-124.35346313836655
7.080745472,1.0004434621358194,-124.67436921822475
7.086956544,1.0005049386505238,-124.99635900360786
7.093167616,1.000538160248909,-125.31907077617079
7.099378688,1.000541173069084,-125.64211046327985
7.105590272,1.0005136914604569,-125.96498123040674
7.111801344,1.0004572614132972,-126.28741450919985
7.118012416,1.000374909055019,-126.60890173234891
7.124223488,1.0002715104229447,-126.92920038202799
7.13043456,1.0001525669232727,-127.24804256776096
7.136646144,1.0000247406833611,-127.5652305761549
7.142857216,0.9998955777745104,-127.88070095572745
7.149068288,0.9997720151619799,-128.19449798379242
7.15527936,0.9996612170211958,-128.50676530166882
7.161490432,0.999569473398989,-128.8176365243421
7.167702016,0.9995019710964527,-129.12748069414064
7.173913088,0.9994625243954537,-129.43663009191448
7.18012416,0.9994535708855828,-129.74553291448336
7.186335232,0.9994756205432526,-130.0545123051737
7.192546816,0.9995273565181046,-130.36407552418976
7.198757888,0.9996060702375491,-130.67455721680867
7.20496896,0.999707233155041,-130.98630191620626
7.211180032,0.9998253365037862,-131.29963856288876
7.217391104,0.9999535883523041,-131.61467795041614
7.223602688,1.000084837330705,-131.93152377312913
7.22981376,1.0002116122802371,-132.25022030150748
7.236024832,1.0003268475808365,-132.57064379560077
7.242235904,1.00042391714114,-132.8925144363379
7.248446976,1.0004973369421424,-133.21566277396207
7.25465856,1.0005429404042248,-133.53965374998694
7.260869632,1.0005580604449005,-133.86408908383535
7.267080704,1.000541794486509,-134.1886192833059
7.273291776,1.0004950615688237,-134.51270884248592
7.27950336,1.000420319763135,-134.83607229924553
7.285714432,1.0003218810728276,-135.1582586998377
7.291925504,1.0002051305055992,-135.4790398639841
7.298136576,1.0000765871839161,-135.79820098110974
7.304347648,0.9999435896402733,-136.11557780131477
7.310559232,0.9998136449389965,-136.4312399910405
7.316770304,0.9996940398436841,-136.745177787978
7.322981376,0.9995916574596136,-137.05767261952022
7.329192448,0.9995121927521824,-137.36895194027255
7.33540352,0.999460185654326,-137.67936518396488
7.341615104,0.9994386815954008,-137.98927310613803
7.347826176,0.9994490278370005,-138.29913553042368
7.354037248,0.9994906229988719,-138.609435144759
7.36024832,0.9995611969818657,-138.9204808873042
7.366459392,0.9996568037385318,-139.2327300752422
7.372670976,0.9997720917774574,-139.54647748799212
7.378882048,0.9999005406771146,-139.8619265577929
7.38509312,1.0000350580484065,-140.17919537096535
7.391304192,1.0001679155397591,-140.49833005794974
7.397515776,1.0002915371886727,-140.81926967508474
7.403726848,1.0003991898568572,-141.14183674468768
7.40993792,1.000484644719053,-141.4657670150331
7.416148992,1.0005429541927888,-141.7907371048494
7.422360064,1.000570790592419,-142.11631835561084
7.428571648,1.000566598706287,-142.44212096118352
7.43478272,1.0005305656618548,-142.76768157916314
7.440993792,1.000464594275421,-143.09258447748053
7.447204864,1.0003723394906585,-143.4164632533321
7.453415936,1.0002589876384167,-143.7389535557575
7.45962752,1.0001309090024886,-144.0598403736547
7.465838592,0.9999951756418298,-144.37893659330587
7.472049664,0.9998596169496917,-144.69623835062936
7.478260736,0.9997318169696693,-145.0117216824891
7.484471808,0.9996189431428225,-145.32561486636942
7.490683392,0.9995274476829871,-145.63811376717587
7.496894464,0.9994626846639464,-145.94957912134313
7.503105536,0.999428197952583,-146.26038478514516
7.509316608,0.9994260295151378,-146.57096885064092
7.515528192,0.9994564531795536,-146.8817432662048
7.521739264,0.9995176743901039,-147.19319161616832
7.527950336,0.9996064148392676,-147.50570199759
7.534161408,0.9997177091275385,-147.8195838869484
7.54037248,0.9998452809476056,-148.13512987790776
7.546584064,0.9999819511347483,-148.45252031402077
7.552795136,1.000120003131403,-148.77181162986014
7.559006208,1.00025172558539,-149.09300597056753
7.56521728,1.0003695074098053,-149.41588507074192
7.571428352,1.0004668329138289,-149.74030817264256
7.577639936,1.000538111712571,-150.06591594925075
7.583851008,1.0005793299668586,-150.39234233634232
7.59006208,1.0005879407643823,-150.71911066130298
7.596273152,1.0005636232962334,-151.0458285319415
7.602484224,1.0005075300402788,-151.37200355630586
7.608695808,1.000422634749501,-151.69727196808472
7.61490688,1.0003139470646472,-152.02123375428226
7.621117952,1.000187352368104,-152.34360369940163
7.627329024,1.0000500776868295,-152.66423924701456
7.633540608,0.999909775449845,-152.9829638441144
7.63975168,0.9997743538287805,-153.29980461253834
7.645962752,0.9996514863743231,-153.61489906866728
7.652173824,0.999548103119268,-153.92846847141251
7.658384896,0.9994702469531974,-154.24082542341952
7.66459648,0.9994221412644155,-154.5522862983224
7.670807552,0.9994068652295893,-154.8633413325917
7.677018624,0.9994249370968212,-155.17444344270936
7.683229696,0.9994758433623687,-155.4860319760119
7.689440768,0.9995564673322799,-155.79850896132876
7.695652352,0.9996625200857086,-156.1123005098927
7.701863424,0.9997878930163208,-156.42770616995358
7.708074496,0.9999255838179991,-156.74490027473294
7.714285568,1.0000679816745566,-157.06405325618292
7.72049664,1.0002068479668473,-157.38513082737697
7.726708224,1.0003343617428582,-157.70806804560064
7.732919296,1.0004435062513437,-158.032647481313
7.739130368,1.0005279163222527,-158.35857353902537
7.74534144,1.000582900390474,-158.68548420572228
7.751553024,1.0006050714998933,-159.01290253946476
7.757764096,1.0005933120924502,-159.34047532576741
7.763975168,1.0005481702624113,-159.66764922974218
7.77018624,1.000472118766414,-159.99402036767847
7.776397312,1.000369284726143,-160.31917334230474
7.782608896,1.0002455782805668,-160.64281127153305
7.788819968,1.0001078135984032,-160.96468907672792
7.79503104,0.9999637262223244,-161.28463523727808
7.801242112,0.9998215420483638,-161.60263142773582
7.807453184,0.999689152602831,-161.91875013593784
7.813664768,0.9995741427348427,-162.23320348811043
7.81987584,0.9994831420608883,-162.5462468471273
7.826086912,0.9994211018093097,-162.85817979702384
7.832297984,0.9993918840214389,-163.16958360676395
7.838509568,0.9993970075457572,-163.4807379670116
7.84472064,0.9994362731041438,-163.79226912143272
7.850931712,0.9995075992895717,-164.10450753927088
7.857142784,0.9996069831444443,-164.417953705035
7.863353856,0.9997289494356595,-164.73291852590765
7.86956544,0.9998664330194909,-165.04962446179752
7.875776512,1.0000119945325716,-165.36832414665557
7.881987584,1.0001572741932978,-165.68899871065204
7.888198656,1.0002940393720852,-166.01159646912092
7.894409728,1.0004146714865465,-166.3360004249682
7.900621312,1.0005121821482947,-166.66189659675635
7.906832384,1.0005811460005603,-166.9889716193004
7.913043456,1.000617600582288,-167.31676366749696
7.919254528,1.000619374498868,-167.6448091335984
7.9254656,1.000586229778025,-167.97268217972302
7.931677184,1.0005201458053927,-168.29986719164046
7.937888256,1.0004246685671778,-168.62597940308015
7.944099328,1.0003050191937601,-168.9506251709498
7.9503104,1.0001679995696624,-169.27351883661677
7.956521984,1.0000213636190762,-169.5944859481539
7.962733056,0.9998732324028227,-169.9134153683826
7.968944128,0.9997320989260683,-170.23038938944217
7.9751552,0.9996059120392567,-170.54551181779186
7.981366272,0.9995016421318696,-170.8590251600945
7.987577856,0.9994256073525007,-171.17130600810992
7.993788928,0.9993817656219055,-171.4827602714891
8.0,0.9993728729974174,-171.793851042275
8.006211072,0.999399577086272,-172.10506371250668
8.012422144,0.9994603573282606,-172.41686215086685
8.018633728,0.999551788012414,-172.7296777081817
8.0248448,0.9996688389645528,-173.04393336635638
8.031055872,0.9998050262198059,-173.3599115242291
8.037266944,0.9999526587746339,-173.67784229401326
8.043478016,1.0001032229569555,-173.99778021523872
8.0496896,1.0002485916330428,-174.3197908853976
8.055900672,1.0003801186365624,-174.64366448589163
8.062111744,1.0004908162530335,-174.96920067134764
8.068322816,1.0005740637086664,-175.2960645457642
8.0745344,1.000625118103622,-175.6238550759274
8.080745472,1.0006412885936273,-175.9521245526316
8.086956544,1.000621322689729,-176.280366386007
8.093167616,1.0005664344645444,-176.6080852645559
8.099378688,1.000479458522909,-176.93487348370058
8.105590272,1.0003654457779978,-177.26024868989256
8.111801344,1.0002305255473474,-177.58393312977475
8.118012416,1.0000826032905816,-177.90566986393705
8.124223488,0.999929518740133,-178.2253430512857
8.13043456,0.9997803880434494,-178.54293873741378
8.136646144,0.9996432695388885,-178.85854799885584
8.142857216,0.9995262194391538,-179.17241201721512
8.149068288,0.9994355886639703,-179.4848470208771
8.15527936,0.999376896517482,-179.79620873953738
8.161490432,0.999353303637142,179.89300265750762
8.167702016,0.9993662558973485,179.5823054337202
8.173913088,0.9994152520218655,179.27116935391388
8.18012416,0.9994974545171721,178.95918693622667
8.186335232,0.9996083543865965,178.64590925060148
8.192546816,0.9997416169143131,178.33095255133128
8.198757888,0.9998899580005833,178.01407372119604
8.20496896,1.0000449689797128,177.69515145197198
8.211180032,1.0001977516772016,177.3741356495196
8.217391104,1.0003399131957063,177.0510938508705
8.223602688,1.0004633337496176,176.72626375549075
8.22981376,1.0005609633650854,176.3999005854593
8.236024832,1.0006272778661247,176.07243589074173
8.242235904,1.0006585203083758,175.74426952183967
8.248446976,1.0006525877568475,175.4159906752476
8.25465856,1.000609994307644,175.08803348830682
8.260869632,1.0005331252261662,174.76089631048086
8.267080704,1.000425933539165,174.43502352048063
8.273291776,1.0002945699858665,174.11077413561173
8.27950336,1.00014642333906,173.78848106703327
8.285714432,0.9999897326606222,173.46826531631422
8.291925504,0.9998333351783175,173.1502372354683
8.298136576,0.9996862087967038,172.83429900651774
8.304347648,0.9995564179851473,172.52028231272521
8.310559232,0.999451463472815,172.20791594384494
8.316770304,0.9993774384646877,171.8967725523292
8.322981376,0.9993383977273728,171.58646977790178
8.329192448,0.9993368066577015,171.27644644116393
8.33540352,0.9993727148853883,170.96622344167864
8.341615104,0.9994443252460153,170.65531483537418
8.347826176,0.9995475652963208,170.34320777635338
8.354037248,0.9996766239255996,170.029543736613
8.36024832,0.9998243924151149,169.71401069242697
8.366459392,0.9999826056955595,169.39642081713
8.372670976,1.0001420457261765,169.0766660311589
8.378882048,1.0002939928153673,168.75477666742205
8.38509312,1.000429936701136,168.43094898076492
8.391304192,1.0005418688699546,168.1054590684616
8.397515776,1.0006235615123857,167.77863634603875
8.403726848,1.0006704099688286,167.45096189823676
8.40993792,1.0006796771244704,167.12291359291976
8.416148992,1.0006507588956748,166.7950089644988
8.422360064,1.0005851021167418,166.46776521094512
8.428571648,1.0004862791638889,166.14167143817895
8.43478272,1.0003600177998309,165.8171195757068
8.440993792,1.0002131118540571,165.49449695494033
8.447204864,1.000053941842323,165.17394336149962
8.453415936,0.9998914089051173,164.85565782504153
8.45962752,0.9997346721552015,164.53956419973633
8.465838592,0.9995927156759349,164.22555231664856
8.472049664,0.9994735612396843,163.91336635988242
8.478260736,0.9993839152632654,163.60264939784201
