freq,mag,phase
6.0,1.000183619481234,-75.10197523309189
6.007366656,1.0002059294487438,-75.42232416265702
6.0147328,1.000216463998468,-75.74297962666637
6.022099456,1.0002153646423075,-76.0636258955533
6.029466112,1.0002025929080258,-76.38423535723463
6.036832256,1.000178969213734,-76.70462823947409
6.044198912,1.0001456316426895,-77.02464813136396
6.051565568,1.0001045854061286,-77.34413332440772
6.058931712,1.0000577710530336,-77.66304704039149
6.066298368,1.0000081136436072,-77.98134290636631
6.073665024,0.9999581328741273,-78.29899315313479
6.081031168,0.9999105382147438,-78.61596117497632
6.088397824,0.9998678975207367,-78.93235069231892
6.09576448,0.9998328402126185,-79.24821885392502
6.103130624,0.9998070760774165,-79.5637049775355
6.11049728,0.9997917811398089,-79.87892105688063
6.117863936,0.9997882676713254,-80.19400706432695
6.12523008,0.999796452000763,-80.50914278666005
6.132596736,0.9998159236335782,-80.82447758534892
6.139963392,0.9998457096478857,-81.14016786901419
6.147329536,0.999884121509829,-81.4562998156566
6.154696192,0.9999290481074927,-81.77302354299074
6.162062848,0.9999780196400736,-82.09039113573489
6.169428992,1.0000284572924258,-82.40846206775471
6.176795648,1.0000775263958135,-82.72718182214453
6.184162304,1.000122356815364,-83.04656275339278
6.191528448,1.0001608101858122,-83.36649910215927
6.198895104,1.0001907695114352,-83.68694810638942
6.20626176,1.0002103138635008,-84.00772008781976
6.213627904,1.0002185224392897,-84.32869800937036
6.22099456,1.0002149260154825,-84.64971649279452
6.228360704,1.0001997920718562,-84.97063243981007
6.23572736,1.000173955278727,-85.29124113153591
6.243094016,1.0001384694304425,-85.61151272354742
6.25046016,1.0000957832429518,-85.93124324193575
6.257826816,1.0000478596660083,-86.25036940445703
6.265193472,0.9999975837704577,-86.56883154613801
6.272559616,0.9999474473571645,-86.88663986387722
6.279926272,0.9999003027929465,-87.20380162109299
6.287292928,0.999858845974456,-87.52037230531376
6.294659072,0.999825212938033,-87.83647099700998
6.302025728,0.9998013743017552,-88.15216597264235
6.309392384,0.9997884378891647,-88.4676404426021
6.316758528,0.9997872436158938,-88.78302620661192
6.324125184,0.9997978964607945,-89.09849638540443
6.33149184,0.9998198039753726,-89.4141694152594
6.338857984,0.9998517578366849,-89.73025045309895
6.34622464,0.9998919125103826,-90.04678615507036
6.353591296,0.9999382206094503,-90.3639821033102
6.36095744,0.999987999620417,-90.68175793625053
6.368324096,1.0000387807853448,-91.00025106736807
6.375690752,1.0000874396626445,-91.31946905068698
6.383056896,1.000131676203044,-91.6392775457106
6.390423552,1.000168679118145,-91.95967702352763
6.397790208,1.0001968430635464,-92.28052018723452
6.405156352,1.0002142865232555,-92.60168976359572
6.412523008,1.0002201240258322,-92.92303740943615
6.419889664,1.0002141897493066,-93.2443602553281
6.427255808,1.0001964538729047,-93.56554685181281
6.434622464,1.0001683429853119,-93.88644356353446
6.44198912,1.0001310357294857,-94.20689073288946
6.449355264,1.0000866844186564,-94.52682986363627
6.45672192,1.0000376471288288,-94.8461537005288
6.464088576,0.9999867988384804,-95.16480380866663
6.47145472,0.9999367704538765,-95.48276548133738
6.478821376,0.9998902017827568,-95.80013073259664
6.486188032,0.9998498607157235,-96.116877620161
6.493554176,0.9998179111674416,-96.43316576797747
6.500920832,0.9997960792645388,-96.74908442669862
6.508287488,0.9997853693858239,-97.0648150402978
6.515653632,0.9997866836151994,-97.38048777739179
6.523020288,0.9997997546861337,-97.69624969940004
6.530386944,0.9998239757804447,-98.01228242480919
6.537753088,0.9998579787910132,-98.32874897537468
6.545119744,0.9998999895856965,-98.6457050553653
6.5524864,0.9999474972883332,-98.96330542032845
6.559852544,0.9999982544049961,-99.28154610653678
6.5672192,1.0000491526262003,-99.60048293876642
6.574585856,1.0000974826208464,-99.92012089897547
6.581952,1.0001406661489607,-100.24039436343853
6.589318656,1.0001764389226415,-100.56119672934769
6.596685312,1.00020252728262,-100.8824345239978
6.604051456,1.0002177831260832,-101.20398498536433
6.611418112,1.0002212403430855,-101.52562143571079
6.618784768,1.0002128459371138,-101.84727652767769
6.626150912,1.0001927798731811,-102.16875838267329
6.633517568,1.000162336598116,-102.48986761659417
6.640884224,1.0001231959614796,-102.8105668807028
6.648250368,1.000077376465687,-103.13067856902916
6.655617024,1.0000273274268963,-103.45014276812697
6.66298368,0.9999760153559173,-103.7689801013693
6.670349824,0.9999260754829526,-104.08710209866388
6.67771648,0.9998803805093344,-104.40456002104618
6.685082624,0.9998411307031877,-104.72153273963346
6.69244928,0.9998108617248588,-105.03800292402718
6.699815936,0.9997910781018811,-105.35416180010064
6.70718208,0.9997828012669346,-105.67011002387265
6.714548736,0.9997865127085814,-105.9860790187965
6.721915392,0.9998020576896807,-106.30216936807462
6.729281536,0.9998286428769224,-106.61856651575124
6.736648192,0.9998647542252577,-106.93537790099921
6.744014848,0.9999084042990636,-107.25273280866874
6.751380992,0.9999571388119503,-107.57072589709887
6.758747648,1.0000084531751978,-107.88941715492169
6.766114304,1.0000595035238133,-108.20880659773184
6.773480448,1.0001074171767856,-108.52887154980219
6.780847104,1.0001495269033365,-108.84957633391524
6.78821376,1.00018376766043,-109.17078257218543
6.795579904,1.0002079728706497,-109.49238823889804
6.80294656,1.0002209891813558,-109.81427063634581
6.810313216,1.0002220321201096,-110.1362452993155
6.81767936,1.000210979362913,-110.45819326190212
6.825046016,1.0001886366211017,-110.77991239534168
6.832412672,1.0001560294311267,-111.10123491933344
6.839778816,1.000114972325216,-111.42213561130417
6.847145472,1.0000676800218942,-111.74239724129203
6.854512128,1.000016852898329,-112.06204424975267
6.861878272,0.999965101615589,-112.38098528985007
6.869244928,0.999915459635074,-112.6992681694407
6.876611584,0.999870437728986,-113.01694244421331
6.883977728,0.9998327168202695,-113.33402273562564
6.891344384,0.9998041314776466,-113.65069817596765
6.89871104,0.9997865351100774,-113.96703913669354
6.906077184,0.9997805639293927,-114.28325445688002
6.91344384,0.9997867972568326,-114.5994937585414
6.920810496,0.9998048063715912,-114.91587968436066
6.92817664,0.9998337138192692,-115.23261113412536
6.935543296,0.9998717947979503,-115.54977715766688
6.942909952,0.9999170791155617,-115.86753755675187
6.950276096,0.999966989783374,-116.18596886847398
6.957642752,1.000018875336447,-116.50507003205763
6.965009408,1.0000698728822701,-116.82486492157489
6.972375552,1.0001172295865688,-117.14534753706184
6.979742208,1.0001582513123222,-117.46644829875163
6.987108864,1.0001908259818804,-117.78805774320281
6.994475008,1.0002130417925343,-118.11002308542214
7.001841664,1.0002237413393669,-118.43222317748734
7.00920832,1.0002223069291518,-118.75454328375501
7.016574464,1.0002087954302255,-119.07673321171467
7.02394112,1.0001840077828543,-119.39865651528525
7.031307776,1.0001492568847612,-119.72023964034959
7.03867392,1.0001063974754527,-120.04129358747167
7.046040576,1.0000577789271925,-120.36171652746368
7.053407232,1.0000061421842297,-120.68147213129512
7.060773376,0.9999541409572582,-121.00054678391571
7.068140032,0.9999048273322846,-121.31898119566472
7.075506688,0.9998607917147105,-121.63678075994264
7.082872832,0.9998243409523381,-121.95401806147369
7.090239488,0.9997977118572376,-122.27087530006638
7.097606144,0.9997822531478282,-122.58743311052712
7.104972288,0.9997788067837692,-122.9038798527271
7.112338944,0.9997875011856444,-123.22035881708365
7.119705088,0.9998080729918051,-123.53705471304848
7.127071744,0.9998391566784792,-123.85413190324802
7.1344384,0.9998792381390146,-124.17165331514889
7.141804544,0.9999260147096733,-124.48980290076385
7.1491712,0.9999769677055254,-124.80860019169467
7.156537856,1.000029388241863,-125.12810526093735
7.163904,1.0000802324230635,-125.44832930830734
7.171270656,1.0001269615472006,-125.76921639612797
7.178637312,1.0001667465841841,-126.09068716496108
7.186003456,1.000197597479124,-126.41265894574349
7.193370112,1.0002177422236855,-126.73500265364822
7.200736768,1.000226055610712,-127.05753140553506
7.208102912,1.0002222077724325,-127.38006899344143
7.215469568,1.0002062253614863,-127.70253289257995
7.222836224,1.000178996302903,-128.02467899450454
7.230202368,1.0001421124928571,-128.34643024179078
7.237569024,1.0000974674150611,-128.66762210988352
7.24493568,1.0000476727123295,-128.9882136647786
7.252301824,0.9999952375946126,-129.3081114740198
7.25966848,0.9999432083943339,-129.62730675014407
7.267035136,0.9998942092902214,-129.9458379043101
7.27440128,0.9998511939017474,-130.2637559221721
7.281767936,0.9998163335518184,-130.5811382959832
7.289134592,0.9997916613596279,-130.89812678753748
7.296500736,0.999778408338076,-131.21490809270244
7.303867392,0.9997774106157427,-131.53159065039313
7.311234048,0.9997886731766006,-131.84831291229946
7.318600192,0.9998116272081942,-132.16530581906034
7.325966848,0.9998450157604083,-132.48266122900347
7.333333504,0.9998869677156197,-132.8005630157618
7.340699648,0.9999352889312925,-133.11907828874297
7.348066304,0.9999871862176319,-133.43826395595121
7.35543296,1.0000399397167667,-133.75815889902927
7.362799104,1.0000906323648433,-134.07881263762266
7.37016576,1.000136531209553,-134.4000685846834
7.377532416,1.000175039924825,-134.72191637051347
7.38489856,1.0002040612880856,-135.04425734179648
7.392265216,1.0002220790229661,-135.36690132108862
7.399631872,1.0002280600796325,-135.6897202072572
7.406998016,1.0002215020433445,-136.01256741054183
7.414364672,1.0002030781319322,-136.3352277651862
7.421731328,1.000173593256136,-136.65758631711836
7.429097472,1.0001346172340406,-136.97947708652495
7.436464128,1.000088335881187,-137.30080531487397
7.443830784,1.0000373107961487,-137.62151814695983
7.451196928,0.9999842856999269,-137.941505506538
7.458563584,0.9999321241468394,-138.26077648876654
7.46593024,0.999883786926835,-138.57942316983315
7.473296384,0.9998417578375984,-138.89745827288226
7.48066304,0.9998085981524161,-139.21498056662622
7.488029696,0.9997859339167932,-139.5321456350864
7.49539584,0.9997750348890693,-139.8490822950561
7.502762496,0.9997765345230362,-140.16593823838093
7.510129152,0.9997903004866098,-140.48294976863843
7.517495296,0.9998156437479968,-140.80022599220658
7.524861952,0.9998512468729173,-141.11790287343297
7.532228608,0.9998950831433717,-141.4361181229485
7.539594752,0.9999447152037061,-141.7550127739211
7.546961408,0.9999975814452685,-142.07454978692172
7.554328064,1.000050647158012,-142.39483042283078
7.561694208,1.000101072698333,-142.71586368540218
7.569060864,1.0001460506345872,-143.03748413222158
7.576427008,1.0001830913270375,-143.3597294521879
7.583793664,1.000210268511486,-143.68236720816768
7.59116032,1.0002260810619266,-144.0053242587084
7.598526464,1.0002295760244573,-144.32841885062945
7.60589312,1.0002205364735015,-144.65147000328741
7.613259776,1.0001995640724273,-144.97433708074084
7.62062592,1.0001676804775554,-145.29688102997477
7.627992576,1.000126750414837,-145.61892226176724
7.635359232,1.0000788169290313,-145.94039148126006
7.642725376,1.0000267370813871,-146.26117500351967
7.650092032,0.9999731315626718,-146.58125863059726
7.657458688,0.999921093788132,-146.90062627797622
7.664824832,0.9998733686042806,-147.21933861728732
7.672191488,0.9998326554235558,-147.53744615797186
7.679558144,0.9998010881092438,-147.85508776302902
7.686924288,0.9997804880071689,-148.17239450074388
7.694290944,0.9997720491689465,-148.48951929998447
7.7016576,0.9997760153987679,-148.80659044468948
7.709023744,0.9997923459325627,-149.12380795587265
7.7163904,0.9998201875497682,-149.4413575806809
7.723757056,0.9998579533181133,-149.75933590866958
7.7311232,0.9999035083276056,-150.07789314375847
7.738489856,0.9999545010477915,-150.39712020764472
7.745856512,1.000008109639356,-150.71703020042082
7.753222656,1.0000613636022428,-151.0377052975096
7.760589312,1.000111364624356,-151.35904218627684
7.767955968,1.000155350559818,-151.68105940933245
7.775322112,1.0001909086306988,-152.00360404336425
7.782688768,1.000216187454194,-152.3265760287131
7.790055424,1.0002296280950302,-152.6498185496361
7.797421568,1.0002305838765426,-152.9731498952049
7.804788224,1.0002191039620238,-153.29644587162744
7.81215488,1.000195567056984,-153.61949971541415
7.819521024,1.0001614498135492,-153.94216768760865
7.82688768,1.0001184873615137,-154.26429769266016
7.834254336,1.0000691103962254,-154.58588257550295
7.84162048,1.0000158906517065,-154.90673296467173
7.848987136,0.9999619318258198,-155.22689027245957
7.856353792,0.9999100639361773,-155.54633738049085
7.863719936,0.9998631003408908,-155.86511307274935
7.871086592,0.9998235746870471,-156.18329912141036
7.878453248,0.999793874223378,-156.50108314056797
7.885819392,0.9997754331839762,-156.8184832487312
7.893186048,0.9997693357591786,-157.13576654347102
7.900552704,0.9997758909238585,-157.45302611051437
7.907918848,0.9997948289089418,-157.77049517106946
7.915285504,0.9998251010010865,-158.08829329334714
7.92265216,0.9998649107657224,-158.40656374003365
7.930018304,0.9999123275593771,-158.72543313850414
7.93738496,0.9999645793944071,-159.0449634974565
7.944751616,1.0000187999830665,-159.3652580050561
7.95211776,1.0000721842403748,-159.6862729208831
7.959484416,1.0001216351100866,-160.00797161579345
7.966851072,1.0001645320323844,-160.3302935913365
7.974217216,1.0001985463652512,-160.65316112670274
7.981583872,1.0002217387242744,-160.97640868014113
7.988950528,1.0002328899466697,-161.2999210918321
7.996316672,1.0002313810506318,-161.623483898232
8.003683328,1.000217290200239,-161.94698794588243
8.011049472,1.000191152476376,-162.27016652161768
8.018416128,1.000154823759106,-162.59298182412394
8.025782784,1.0001099086352994,-162.91523942522127
8.033148928,1.0000590178994369,-163.2368559520462
8.040515584,1.0000050177433943,-163.55777258690074
8.04788224,0.9999506074765134,-163.8779794366834
8.055248384,0.9998989720278308,-164.19745144630934
8.06261504,0.9998529144220414,-164.51631295400836
8.069981696,0.9998148253048168,-164.83457306439473
8.07734784,0.9997870268189886,-165.15241334177662
8.084714496,0.9997708167419872,-165.4699413567485
8.092081152,0.9997671761517404,-165.78735818733617
8.099447296,0.9997764152255619,-166.1048239496229
8.106813952,0.9997978345660103,-166.42247645241366
8.114180608,0.9998304445793806,-166.74050849182734
8.121546752,0.9998724824782917,-167.05908188810514
8.128913408,0.9999215195345172,-167.378234970237
8.136280064,0.9999748236291759,-167.698109229515
8.143646208,1.0000297931897921,-168.01871445728995
8.151012864,1.0000830450358118,-168.34006245720914
8.15837952,1.0001319115510086,-168.66208800828048
8.165745664,1.000173630565578,-168.98474960904855
8.17311232,1.000205943670388,-169.30790654055997
8.180478976,1.000227038683188,-169.6314342687775
8.18784512,1.000235772793058,-169.95519292262685
8.195211776,1.0002316783033316,-170.2789405643936
8.202578432,1.0002148927981362,-170.60261044928288
8.209944576,1.0001864553162658,-170.92593151924774
8.217311232,1.0001477791928925,-171.24885498067874
8.224677888,1.000101104919301,-171.57118803119357
8.232044032,1.0000488523127735,-171.8928490635682
8.239410688,0.9999939111825408,-172.21381920289022
8.246777344,0.9999392957745793,-172.5340173034436
8.254143488,0.9998880066588868,-172.85354164723853
8.261510144,0.9998429251990336,-173.17241797125783
8.2688768,0.9998063735360929,-173.49074315385053
8.276242944,0.9997804705075531,-173.80864345829335
8.2836096,0.99976653599032,-174.12628116154
8.290976256,0.9997654588923508,-174.44382605755237
8.2983424,0.999777247382639,-174.76144049716675
8.305709056,0.9998013148383939,-175.07932724483496
8.313075712,0.9998362492817,-175.39761064076325
8.320441856,0.9998803485565744,-175.7164025215697
8.327808512,0.9999309472915822,-176.03585998558265
8.335175168,0.9999853910145903,-176.35602873748448
8.342541312,1.0000407951842984,-176.67696783698628
8.349907968,1.0000940466671246,-176.99862441986573
8.357274624,1.000142161458798,-177.32098544727498
8.364640768,1.0001826029415803,-177.64390925080738
8.372007424,1.0002130858480527,-177.96733726541876
8.37937408,1.0002320091460537,-178.29111148840116
8.386740224,1.0002383027408264,-178.61507685599355
8.39410688,1.0002315536690474,-178.93906102764365
8.401473536,1.0002122483194953,-179.26281634812054
8.40883968,1.000181401969424,-179.58629709710127
8.416206336,1.0001403715511383,-179.9092577216967
8.423572992,1.0000918594904522,179.76834033876727
8.430939136,1.0000383522627025,179.44665278472146
8.438305792,0.9999826711231846,179.12568734513917
8.445671936,0.9999278693389444,178.80546051538025
8.453038592,0.9998771415050068,178.48592871127158
8.460405248,0.9998330540082653,178.167032255374
8.467771392,0.9997980363786296,177.84868608831658
8.475138048,0.9997741355311968,177.53072695431592
8.482504704,0.9997627436488646,177.21299739705603
8.489870848,0.9997641998663818,176.89532164215896
8.497237504,0.9997787101828199,176.57754679714986
8.50460416,0.9998053259509928,176.25948597332987
8.511970304,0.9998425841550472,175.94099194285164
8.51933696,0.9998885384557634,175.6219185914907
8.526703616,0.9999407199456322,175.30218867473525
8.53406976,0.9999961860441192,174.98173890034138
8.541436416,1.0000519927300426,174.66051869091024
8.548803072,1.0001050559607103,174.3385661670747
8.556169216,1.0001523734028388,174.015927910154
8.563535872,1.0001914350052876,173.69269220333726
8.570902528,1.0002200913392953,173.36901443518445
8.578268672,1.0002367747690046,173.0449978040892
8.585635328,1.0002404989286373,172.72084042627472
8.593001472,1.0002311865592273,172.3967526430347
8.600368128,1.000209163302457,172.0728175667226
8.607734784,1.0001757022015612,171.7493011622189
8.61510144,1.000132672358185,171.42624928170534
8.622468096,1.0000823843248727,171.10385011665417
8.629834752,1.0000275438558195,170.78214973624986
8.637200384,0.9999712193402485,170.46117036363296
8.64456704,0.9999163872717168,170.1409652289372
8.651933696,0.9998661996649678,169.82145127027474
8.659300352,0.9998232765993047,169.50257398369055
8.666667008,0.9997899870209965,169.18420020966482
8.67403264,0.9997683091567606,168.86616965259478
8.681399296,0.9997592148730288,168.54838624764722
8.688765952,0.9997633285060216,168.23061016167281
8.696132608,0.9997804799591115,167.9126770938825
8.703499264,0.9998096148544434,167.5944473130566
8.71086592,0.9998493327505371,167.27574217057295
8.718231552,0.9998971337921704,166.956443713877
8.725598208,0.999950970868961,166.63645120406184
8.732964864,1.000007267072737,166.3157131307937
8.74033152,1.000063385060727,165.9942304134991
8.747698176,1.0001160926639279,165.67198204685369
8.755064832,1.0001625219304724,165.34906715973773
8.762430464,1.0002001219889731,165.02558380188228
8.76979712,1.0002267665019842,164.7016586053506
8.777163776,1.0002410548243965,164.37745876754883
8.784530432,1.0002422705779477,164.05316009211685
8.791897088,1.0002302016949118,163.728897228271
8.799263744,1.0002055697336978,163.40488912670412
8.806629376,1.0001696245892087,163.0812861730394
8.813996032,1.0001245270929597,162.75822201279678
8.821362688,1.0000725798312604,162.4358314134474
8.828729344,1.000016602942671,162.1141282902728
8.836096,0.9999597246168108,161.79319560699798
8.843462656,0.9999049288722404,161.47302112186736
8.850828288,0.9998553604629735,161.15354909377479
8.858194944,0.9998137104303411,160.83466059763768
8.8655616,0.999782226122831,160.5162991421134
8.872928256,0.9997626291118351,160.19825645176482
8.880294912,0.9997561297131957,159.8803795461766
8.887661568,0.9997629177384384,159.56252675709675
8.8950272,0.9997827277449045,159.24447983331734
8.902393856,0.9998145282386919,158.9260709635967
8.909760512,0.9998563972473815,158.6071774169569
8.917127168,0.999906306474036,158.28765022958672
8.924493824,0.999961351134815,157.9674248087021
8.93186048,1.000018610594822,157.6464206908324
8.939226112,1.0000749470816799,157.32465862525734
