freq,mag,phase
6.0,0.9996569425231033,70.57237801486421
6.002285056,0.9996509765556503,70.41455814286641
6.004570112,0.9996678368871592,70.25667000795579
6.006855168,0.999705899794301,70.09836963474561
6.009140224,0.9997626392612452,69.93940455058276
6.01142528,0.9998347140046772,69.77951707860576
6.013710336,0.9999174981668087,69.61850652908234
6.015995392,1.000005657473707,69.45626447466049
6.018280448,1.000093801467173,69.29273940179723
6.020565504,1.0001763760599698,69.12799847919823
6.02285056,1.0002480334246706,68.96213917592063
6.025135616,1.0003044637878593,68.79534466023954
6.027420672,1.000341842997574,68.62789657117028
6.029705728,1.000358035601795,68.46004356198621
6.031990784,1.0003518203320538,68.29213376313389
6.03427584,1.000323652839565,68.12449397001984
6.036560896,1.0002752982534615,67.95738382694977
6.038845952,1.0002097797642424,67.7911060198362
6.041131008,1.000131102385143,67.62588295339457
6.043416064,1.0000443749188515,67.46185256527973
6.04570112,0.9999549920959406,67.29910458111421
6.047986176,0.9998685666520014,67.13765648750126
6.050271232,0.999790567801265,66.97737384467175
6.052556288,0.9997258938223434,66.81815374002636
6.054841344,0.9996786844875818,66.6597412443151
6.0571264,0.9996518775676895,66.50188628926114
6.059411456,0.9996472047846744,66.34424941247961
6.061696512,0.9996650380142575,66.186542040966
6.063981568,0.9997041596031758,66.02840214710567
6.066266624,0.9997622126137766,65.86958007008066
6.06855168,0.9998355158961174,65.70982483369895
6.070836736,0.9999194126217004,65.548905278042
6.073121792,1.0000086976276759,65.38675203582662
6.075406848,1.0000977525990984,65.22328856910727
6.077691904,1.000180922408418,65.05859513499213
6.07997696,1.0002529734487628,64.89279943941798
6.082262016,1.000309309820899,64.72604913445356
6.084547072,1.0003464447291048,64.55862173211672
6.086832128,1.0003619352759898,64.39081866612425
6.089117184,1.0003549586080938,64.22295203006108
6.09140224,1.000325740843299,64.05537386140233
6.093687296,1.0002761790643084,63.88832567582749
6.095972352,1.0002093956313287,63.72215689296606
6.098257408,1.0001295139555884,63.55702666073309
6.100542464,1.0000416645932777,63.39312303410268
6.10282752,0.9999513345746486,63.23052466897076
6.105112576,0.9998640766073722,63.069191738825985
6.107397632,0.9997855487426298,62.90906976100833
6.1096832,0.9997207786409,62.749992846049324
6.111968256,0.9996736947947162,62.59174533731933
6.114253312,0.9996473613611948,62.43402903869347
6.116538368,0.9996435125115678,62.27651545406471
6.118823424,0.9996622237413724,62.1189176856096
6.12110848,0.9997025741288271,61.96088776352068
6.123393536,0.9997618575349602,61.80213075273213
6.125678592,0.9998363954059772,61.64243080616059
6.127963648,0.9999215440792096,61.48156176152962
6.130248704,1.0000119377391676,61.319410636260876
6.13253376,1.000101861819325,61.15595644079697
6.134818816,1.0001855365449352,60.991252180177355
6.137103872,1.0002579318194869,60.82541617094055
6.139388928,1.0003142629162536,60.658640403230656
6.141673984,1.0003510885181022,60.49120928258942
6.14395904,1.0003659282613573,60.32335745163587
6.146244096,1.0003580438999278,60.15550257190605
6.148529152,1.0003277261822077,59.98788972578143
6.150814208,1.0002769975269639,59.82086707135349
6.153099264,1.0002088573672845,59.654708648739145
6.15538432,1.000127763934212,59.4896308406067
6.157669376,1.0000387191740712,59.32578974750455
6.159954432,0.9999474062843603,59.16324994626477
6.162239488,0.999859466818323,59.00200308790486
6.164524544,0.9997805500193989,58.84196484186464
6.1668096,0.9997155635204504,58.682988008531275
6.169094656,0.9996687062216626,58.524814407483
6.171379712,0.999642791255163,58.36716579181436
6.173664768,0.9996396730358845,58.20972963343472
6.175949824,0.9996594913165732,58.05218343258057
6.17823488,0.9997009142603636,57.8941778682439
6.180519936,0.9997615222337971,57.73544224051136
6.182804992,0.9998373678052708,57.57571970607543
6.185090048,0.9999237443972617,57.41479835573477
6.187375104,1.000015221967345,57.25261375662956
6.18966016,1.0001059583537637,57.08911061791855
6.191945216,1.0001902879707574,56.92430924923854
6.194230272,1.0002629274158223,56.75837935373406
6.196515328,1.0003192735515987,56.59151798883835
6.198800384,1.0003557268371583,56.4239709059724
6.20108544,1.000370024648716,56.2560589868175
6.203370496,1.000361127310971,56.08810176071453
6.205655552,1.0003297625085188,55.92042726116047
6.207940608,1.000277733312573,55.753346709964205
6.210225664,1.0002083190331033,55.587158629853356
6.21251072,1.0001260048010034,55.422064642511415
6.214795776,1.0000357825909598,55.2582123174456
6.217080832,0.9999434090275205,55.09566362591727
6.219365888,0.99985476223222,54.93444383313536
6.221650944,0.9997753418936152,54.774428893264236
6.223936,0.9997102705582694,54.615477665188095
6.226221056,0.9996635149269413,54.45732392593742
6.228506112,0.9996382502726445,54.29967752901778
6.230791168,0.9996359155570856,54.14223500143349
6.233076224,0.9996566810684366,53.9846764467306
6.23536128,0.9996993525959438,53.82664348248863
6.237646336,0.9997611732484677,53.667852428044405
6.239931392,0.9998383625988686,53.5080614294584
6.242216448,0.9999259869346128,53.34705598329059
6.244501504,1.000018479115423,53.18473876805051
6.24678656,1.0001101118013391,53.021090812305296
6.249071616,1.0001951821495718,52.85615013083495
6.251356672,1.0002680488114393,52.6900697081577
6.253641728,1.0003243460896856,52.52303011773851
6.255926784,1.0003604716534018,52.35535625307433
6.25821184,1.000374076912449,52.18725624938603
6.260496896,1.0003642578833494,52.01915468326253
6.262781952,1.0003317361633437,51.851361578542075
6.265067008,1.0002784320372102,51.684162010535864
6.267352064,1.0002077631755713,51.51787845745128
6.26963712,1.0001241698456862,51.3526758764818
6.271922176,1.0000327931177075,51.18875178995626
6.274207232,0.9999394381749243,51.02615975442185
6.276492288,0.9998501272947308,50.86487090465425
6.278777344,0.9997702650184944,50.704817756930346
6.2810624,0.9997049911900185,50.54582133656085
6.283347456,0.9996585460579187,50.38762600305493
6.285632512,0.9996336630870986,50.229931091311656
6.287917568,0.9996321196052854,50.07243791296637
6.290202624,0.9996540160614594,49.91479197328961
6.29248768,0.9996978629025077,49.75666134749234
6.294772736,0.9997610023844204,49.59773834434066
6.297057792,0.9998395004014293,49.43778750310213
6.299342848,0.9999283828389076,49.27661196726006
6.301627904,1.0000219305134805,49.11412638599705
6.30391296,1.000114450548934,48.950282832881356
6.306198016,1.0002000420346913,48.78513206950816
6.308483072,1.0002732597022135,48.61883526646073
6.310768128,1.0003295036211255,48.45158061147432
6.313053184,1.000365202658898,48.28364864811099
6.31533824,1.0003781113288777,48.115351707171506
6.317623296,1.000367345060452,47.94703737772305
6.319908352,1.0003337107763532,47.779042886684
6.322193408,1.0002791659370533,47.611649713291364
6.324478976,1.0002071211030088,47.445187834900786
6.326764032,1.000122129295851,47.27984921253541
6.329049088,1.000029647161935,47.1157859449607
6.331334144,0.9999353025881982,46.95306650656172
6.3336192,0.9998451309242443,46.79168265871551
6.335904256,0.9997648987466803,46.63150731330876
6.338189312,0.999699513100453,46.47241593272559
6.340474368,0.9996531983064159,46.31409708422942
6.342759424,0.9996289946262038,46.15629651543826
6.34504448,0.9996282359136482,45.99866936052201
6.347329536,0.999651186044223,45.840874956500905
6.349614592,0.9996962804306254,45.68258140049702
6.351899648,0.9997607576484706,45.52347106234932
6.354184704,0.9998405389377895,45.363319400694415
6.35646976,0.9999306240047507,45.201935814452895
6.358754816,1.000025336301539,45.03918697756434
6.361039872,1.0001187272737069,44.87508316369364
6.363324928,1.0002049732833493,44.7096476144194
6.365609984,1.0002783509349304,44.54306623124295
6.36789504,1.0003346164535034,44.37552667535421
6.370180096,1.0003699324345017,44.20729358570059
6.372465152,1.0003821984840808,44.03870057254964
6.374750208,1.000370454326561,43.87011729203944
6.377035264,1.000335666777602,43.70185496433115
6.37932032,1.0002798265394817,43.53424161416082
6.381605376,1.0002065004499048,43.36752248688315
6.383890432,1.0001202080297629,43.20196169563176
6.386175488,1.0000264928926605,43.03771754019146
6.388460544,0.9999311829861403,42.874790900717265
6.3907456,0.9998402824612089,42.71323771081556
6.393030656,0.9997595635481523,42.55290697102668
6.395315712,0.9996940583668287,42.393613059364455
6.397600768,0.9996479829990461,42.235134845304174
6.399885824,0.9996242352033996,42.07717239685603
6.40217088,0.9996243914757893,41.91932410364757
6.404455936,0.9996483551407549,41.76133851803778
6.406740992,0.9996947241740266,41.60280469439636
6.409026048,0.999760495453346,41.44345982448137
6.411311104,0.9998416587453438,41.283042637369974
6.41359616,0.9999330671898093,41.121330806610004
6.415881216,1.0000287936600432,40.958289114914756
6.418166272,1.0001231112296547,40.79382844387739
6.420451328,1.0002098685091694,40.62806217394891
6.422736384,1.000283679837596,40.461141778787294
6.42502144,1.000339788027326,40.293227737305095
6.427306496,1.0003747270118877,40.1246677272662
6.429591552,1.0003862148055187,39.95573327428933
6.431876608,1.0003736443542042,39.78680268100209
6.434161664,1.0003375691452434,39.6181950372034
6.43644672,1.0002804567704016,39.45026030638335
6.438731776,1.000205738182787,39.28326643567504
6.441016832,1.0001181679822078,39.11742404111295
6.443301888,1.000023215716879,38.952881280271335
6.445586944,0.9999268876736686,38.789737745309225
6.447872,0.9998353127651071,38.62793758407638
6.450157056,0.9997541146409392,38.46736962312527
6.452442112,0.999688521271476,38.307840757114526
6.454727168,0.9996427418430459,38.14913925557237
6.457012224,0.999619579493829,37.990899733328654
6.45929728,0.999620569791015,37.83282677654839
6.461582336,0.999645617363152,37.67454529308333
6.463867392,0.9996931839923917,37.51572968546924
6.466152448,0.9997603555514029,37.356069225519995
6.468437504,0.9998428194827998,37.19531070286358
6.47072256,0.9999354716444484,37.03326467733567
6.473007616,1.0000323772437105,36.86983139515409
6.475292672,1.0001275602506554,36.70498236364128
6.477577728,1.0002148843661678,36.538815470695845
6.479862784,1.0002888946455424,36.37144998774003
6.48214784,1.0003450788446016,36.20311738877854
6.484432896,1.000379583327649,36.03413046996999
6.486717952,1.0003903927636453,35.864775196803514
6.489003008,1.0003768229613312,35.69544695312923
6.491288064,1.0003395899819,35.52644223433256
6.49357312,1.000281178813914,35.3581469264664
6.495858176,1.0002051270542063,35.19078602133212
6.498143232,1.00011620038066,35.02459011171836
6.500428288,1.0000200575682106,34.859739026441034
6.502713344,0.9999227064890106,34.69626833944978
6.5049984,0.9998303820346421,34.53415872249705
6.507283456,0.9997487757940186,34.37330055516225
6.509568512,0.9996830406886333,34.21348580723387
6.511853568,0.9996374586005192,34.05447493279244
6.514138624,0.9996147659446528,33.89593185740434
6.51642368,0.9996165917191229,33.737538343529074
6.518708736,0.9996427445304811,33.578925803893235
6.520993792,0.9996916486838534,33.41974794074239
6.523278848,0.9997601366361741,33.25971181439459
6.525563904,0.999843972929903,33.0985361529471
6.52784896,0.9999378765863643,32.93605943550134
6.530134016,1.000035867574376,32.772196649839735
6.532419072,1.000131986962367,32.60690340649988
6.534704128,1.0002199292613263,32.440245490416594
6.536989184,1.0002942021811947,32.272403905871855
6.53927424,1.0003502387583334,32.10358569844788
6.541559808,1.0003843558620096,31.934118438195064
6.543844864,1.0003945736530209,31.764296311956194
6.54612992,1.000379978631206,31.594484523891268
6.548414976,1.0003416035141681,31.42504084977704
6.550700032,1.0002817815468255,31.256276019574802
6.552985088,1.0002044369580354,31.088501124263992
6.555270144,1.000114177626983,30.921908921356696
6.5575552,1.0000167395295623,30.75666758127118
6.559840256,0.999918454753289,30.592808913274105
6.562125312,0.9998253092346437,30.43032896440948
6.564410368,0.9997432436717668,30.269114606625696
6.566695424,0.9996774773141055,30.108935164851097
6.56898048,0.9996320488120856,29.949564316069587
6.571265536,0.9996100275971306,29.790656017728594
6.573550592,0.9996126956178276,29.631865693986995
6.575835648,0.9996398943629368,29.472849382394074
6.578120704,0.9996899957101016,29.31325966645175
6.58040576,0.9997599272879201,29.15277507564063
6.582690816,0.9998451284408206,28.991137257826768
6.584975872,0.9999403516830211,28.82819221364389
6.587260928,1.0000394695530992,28.663815098531277
6.589545984,1.000136382797536,28.497991669661538
6.59183104,1.0002249781095414,28.330816653053628
6.594116096,1.0002996413711378,28.16242858008436
6.596401152,1.0003556157398146,27.993064585829842
6.598686208,1.0003893133035182,27.82303928616215
6.600971264,1.0003987852131062,27.652659755298895
6.60325632,1.000383231200926,27.482328231730886
6.605541376,1.0003436811909883,27.31236862030386
6.607826432,1.0002826157150497,27.143103206964152
6.610111488,1.0002038443176307,26.974832649746254
6.612396544,1.0001122141685117,26.80777308406618
6.6146816,1.0000136466854859,26.642081405423234
6.616966656,0.9999142760704401,26.47777812424067
6.619251712,0.9998203549534358,26.314871110609058
6.621536768,0.999737808876223,26.153217919608256
6.623821824,0.9996719635667807,25.992621471345764
6.62610688,0.9996267602576279,25.832821274493302
6.628391936,0.9996052802006951,25.673482047365493
6.630676992,0.9996087796320494,25.514265365666656
6.632962048,0.9996371099437673,25.354775278877145
6.635247104,0.9996884746363204,25.194694447270226
6.63753216,0.9997597253395522,25.03370845089892
6.639817216,0.9998463051558182,24.871562698097854
6.642102272,0.9999427257453176,24.708065209608538
6.644387328,1.0000431251810211,24.543108322653392
6.646672384,1.0001409869970075,24.376718113952645
6.64895744,1.0002301123736457,24.20891546512266
6.651242496,1.0003050672982925,24.03991604907021
6.653527552,1.0003610275990829,23.869948677503494
6.655812608,1.000394350601169,23.699314023755708
6.658097664,1.0004030159017623,23.528335076441188
6.66038272,1.000386492483674,23.357419367164574
6.662667776,1.0003457209492455,23.18686155748688
6.664952832,1.0002833639884883,23.01702303421276
6.667237888,1.000203150188638,22.848202565322577
6.669522944,1.0001102483115216,22.680606490644298
6.671808,1.0000104379129895,22.514392369323737
6.674093056,0.9999100683421464,22.349607935397568
6.676378112,0.9998153022362112,22.186198726259054
6.678663168,0.9997323774227816,22.02405944646902
6.680948224,0.9996663352045051,21.863006412274324
6.68323328,0.9996213633192498,21.70268455112525
6.685518336,0.9996003933547698,21.54286505956962
6.687803392,0.9996047571940984,21.38311755894537
6.690088448,0.9996341237880485,21.22313205930427
6.692373504,0.9996868385794656,21.062506361125074
6.69465856,0.9997594825612255,20.900943539533415
6.696943616,0.9998473547778618,20.738221225773636
6.699228672,0.9999451759856293,20.57409655933704
6.701513728,1.0000466733495403,20.408515044460366
6.703798784,1.0001454494781308,20.241475541095074
6.70608384,1.0002353248242504,20.073026211544796
6.708368896,1.0003105562713932,19.903361447299716
6.710653952,1.0003664072167622,19.732717127710902
6.712939008,1.000399381252021,19.56140087639729
6.715224064,1.000407440673931,19.389770252585684
6.71750912,1.0003898815693277,19.218164002388747
6.719794176,1.0003479275843412,19.04698015196591
6.722079232,1.0002842290936043,18.876501476066213
6.724364288,1.0002026640724615,18.707081481146936
6.726649344,1.0001084068199946,18.53888096219372
6.7289344,1.0000073995771364,18.372083358148643
6.731219456,0.9999059442293476,18.206737579164148
6.733504512,0.9998104512705257,18.04278506404383
6.735789568,0.999726932848345,17.88009832823248
6.738074624,0.9996607861707434,17.718472262097453
6.74035968,0.9996160259039584,17.557639613974423
6.742644736,0.999595623934696,17.39722642413529
6.744929792,0.9996009116698815,17.23693578745247
6.747214848,0.9996313699532742,17.076348022343883
6.749499904,0.9996852783615418,16.915129862392646
6.75178496,0.9997591766062975,16.752958617496493
6.754070016,0.9998485749034968,16.589562081177174
6.756355072,0.9999476250766165,16.424788875230867
6.75864064,1.000050260267251,16.258507628202445
6.760925696,1.0001500000558825,16.09075376106696
6.763210752,1.000240465310244,15.92159201925447
6.765495808,1.0003160038138899,15.751194894894644
6.767780864,1.0003718616402317,15.579808046027969
6.77006592,1.0004045193241042,15.40777373685645
6.772350976,1.0004118282685022,15.235384330183729
6.774636032,1.0003933956346256,15.063081094529586
6.776921088,1.0003501911854287,14.891180393708035
6.779206144,1.0002851009903415,14.720015389812934
6.7814912,1.0002022172683633,14.54990418864045
6.783776256,1.0001065703180791,14.381062397842781
6.786061312,1.0000042586501183,14.213627062072998
6.788346368,0.9999018304885551,14.047651689018862
6.790631424,0.9998055263327471,13.883082361715491
6.79291648,0.9997214690244556,13.719795512406085
6.795201536,0.9996551923882605,13.557554397614242
6.797486592,0.9996106226964527,13.396110617103552
6.799771648,0.999590770875986,13.23510224769084
6.802056704,0.9995967644179674,13.074169847630312
6.80434176,0.9996283444653548,12.912926548699174
6.806626816,0.999683522743828,12.751038605860138
6.808911872,0.9997589142270138,12.588187238923076
6.811196928,0.9998496396496817,12.424090562984587
6.813481984,0.9999499892856093,12.258583078118024
6.81576704,1.000053820922037,12.091565963032211
6.818052096,1.0001544756685505,11.923021359951678
6.820337152,1.0002456379535787,11.75308673165988
6.822622208,1.00032146563517,11.581898768386539
6.824907264,1.0003773410365995,11.4097208708752
6.82719232,1.0004095983471355,11.236875514795688
6.829477376,1.0004162314376839,11.063708303811346
6.831762432,1.0003967985273607,10.890617415611294
6.834047488,1.0003524968092654,10.717935118907777
6.836332544,1.0002861938381777,10.546045492852436
6.8386176,1.0002018028646988,10.375194539787365
6.840902656,1.0001047661037152,10.205633080712891
6.843187712,1.0000012517190915,10.037495278306892
6.845472768,0.9998977178043581,9.870824610554992
6.847757824,0.9998005813292123,9.705576604122035
6.85004288,0.9997161504445641,9.541629066783115
6.852327936,0.9996495579786654,9.378719451928172
6.854612992,0.9996052567330728,9.216606524332356
6.856898048,0.9995859372575104,9.054921354037148
6.859183104,0.9995926921373682,8.893303039970535
6.86146816,0.9996253856461854,8.73137864908413
6.863753216,0.9996818362491041,8.568771104596001
6.866038272,0.9997584271839379,8.405146807303202
6.868323328,0.9998505899991896,8.240290610509039
6.870608384,0.9999523138373588,8.07399142544565
6.87289344,1.0000573138004432,7.906175596862813
6.875178496,1.0001589565290694,7.736813766052948
6.877463552,1.0002507477487805,7.566032028938119
6.879748608,1.0003269053584636,7.393985104994344
6.882033664,1.0003827951581834,7.220949148109575
6.88431872,1.0004147985388636,7.047249013895192
6.886603776,1.0004207681902462,6.873254225920424
6.888888832,1.0004004230634935,6.699286525597628
6.891173888,1.000354986158126,6.525794584804751
6.893458944,1.0002872793395805,6.3530819751800385
6.895744,1.0002015529918125,6.181451586955119
6.898029056,1.000103137062936,6.011114168433859
6.900314112,0.9999983028277564,5.8421983237337285
6.902599168,0.9998936574540749,5.674803707302873
6.904884224,0.9997957190933465,5.508814864731158
6.90716928,0.9997107440583779,5.344128210483219
6.909454336,0.9996441242296972,5.180499624147169
6.911739392,0.9995997673057984,5.017663121289092
6.914024448,0.9995809355300712,4.855246276675983
6.916309504,0.999588550280183,4.692862238776471
6.91859456,0.99962225522766,4.530182330310725
6.920879616,0.9996799698458491,4.366790056251756
6.923164672,0.9997580986682465,4.202372085280697
6.925449728,0.9998515337723811,4.036690763574517
6.927734784,0.9999545562447959,3.8695522760455185
6.93001984,1.0000608295452542,3.700862493053914
6.932304896,1.0001633709019366,3.5306233140796683
