freq,mag,phase
6.0,1.000117481902653,-116.95462586826399
6.002287104,1.00011492326208,-117.09655111151956
6.004574208,1.0001053442391437,-117.23833998379106
6.006861312,1.000089497527518,-117.37998502043934
6.009147904,1.000068673012226,-117.52136019559897
6.011435008,1.0000439329788433,-117.66244130009065
6.013722112,1.0000170830540664,-117.80306509550168
6.016009216,0.9999896336953282,-117.9433518220995
6.01829632,0.999963567536873,-118.08321544464462
6.020583424,0.9999402136115385,-118.22270279659061
6.022870016,0.9999212089167645,-118.36192055058417
6.02515712,0.9999077931970197,-118.50088051845322
6.027444224,0.9999008524011253,-118.63968473805292
6.029731328,0.9999007715472302,-118.77843743128604
6.032018432,0.9999074923254111,-118.91719476985449
6.034305536,0.9999207317216294,-119.0561434903072
6.036592128,0.9999395546026105,-119.19531631400997
6.038879232,0.9999628203472212,-119.33478070564084
6.041166336,0.9999890029868883,-119.47457838887928
6.04345344,1.0000166346260644,-119.61477778501124
6.045740544,1.000043667735837,-119.75541637615488
6.048027648,1.0000686079810865,-119.89636118029134
6.05031424,1.0000897248375538,-120.03765677782651
6.052601344,1.000105871065588,-120.17922883558974
6.054888448,1.000115804985567,-120.32100247309201
6.057175552,1.000119012287404,-120.46284095069095
6.059462656,1.0001152748367028,-120.60467236968815
6.06174976,1.0001047398132366,-120.74642796835245
6.064036352,1.0000881880176111,-120.88796105682421
6.066323456,1.0000666424220321,-121.02922285706774
6.06861056,1.000041369888707,-121.17011533101024
6.070897664,1.0000140671043698,-121.31060807012916
6.073184768,0.9999863721627841,-121.45072360156931
6.075471872,0.9999601575249922,-121.59045935996367
6.077758464,0.9999368924154766,-121.72979387106393
6.080045568,0.9999182698054652,-121.86886162218637
6.082332672,0.9999054242467738,-122.00767198413415
6.084619776,0.9998990795077323,-122.14633729765231
6.08690688,0.9998996734471833,-122.28494822608727
6.089193984,0.9999072888890376,-122.42361271997466
6.091481088,0.9999213001922,-122.56243690935248
6.09376768,0.9999409141055591,-122.70148539337225
6.096054784,0.9999647945119934,-122.8408558905495
6.098341888,0.9999916152389814,-122.98060232771341
6.100628992,1.0000194255371575,-123.12071744159422
6.102916096,1.000046714160678,-123.2612397783038
6.1052032,1.000071569166503,-123.40214232636094
6.107489792,1.0000924731664609,-123.54334714216385
6.109776896,1.0001081267470409,-123.68480936882511
6.112064,1.0001174707570013,-123.82648771428794
6.114351104,1.0001199752085126,-123.96823433772016
6.116638208,1.0001154170103126,-124.10991767558227
6.118925312,1.0001041151815222,-124.25152057646244
6.121211904,1.0000867189321319,-124.39288434025526
6.123499008,1.000064529347158,-124.53398475973204
6.125786112,1.0000385872983797,-124.67471566065825
6.128073216,1.0000109320142223,-124.81504205752488
6.13036032,0.9999829416948082,-124.95498736665692
6.132647424,0.9999567142916467,-125.09450783551188
6.134934016,0.9999337221393131,-125.23365044817626
6.13722112,0.9999154787205365,-125.3724935292
6.139508224,0.9999030535403235,-125.51112487274087
6.141795328,0.9998974826747218,-125.64963367091012
6.144082432,0.9998988167129941,-125.78806988164759
6.146369536,0.9999072183752833,-125.9265381849962
6.148656128,0.9999221156966409,-126.06524639512752
6.150943232,0.9999424468682493,-126.20417070121985
6.153230336,0.9999670211649537,-126.34339915991097
6.15551744,0.9999942148085017,-126.48298000872924
6.157804544,1.0000224932935375,-126.6229972439722
6.160091648,1.0000498284890698,-126.7633997514187
6.162378752,1.0000746013272792,-126.90417512716867
6.164665344,1.0000952956873381,-127.04526885414282
6.166952448,1.0001103746146152,-127.18663208103374
6.169239552,1.0001191386316435,-127.32812835994248
6.171526656,1.0001208549202605,-127.46969952638027
6.17381376,1.0001154669524988,-127.61126615875479
6.176100864,1.0001034209133424,-127.75263093327013
6.178387456,1.0000852503057966,-127.89383316190687
6.18067456,1.0000621345892204,-128.03473143872952
6.182961664,1.000035791349068,-128.1752191414195
6.185248768,1.0000076254464751,-128.3153325572073
6.187535872,0.9999795750470419,-128.45501340547503
6.189822976,0.9999532401496963,-128.59432655661732
6.192109568,0.9999304623791939,-128.73323782262634
6.194396672,0.9999126193161194,-128.8718208936715
6.196683776,0.9999007751782982,-129.01023415567425
6.19897088,0.9998958800532185,-129.14850105296506
6.201257984,0.9998980954683241,-129.2867346185781
6.203545088,0.9999073208528415,-129.42503893847524
6.20583168,0.9999229379619579,-129.56353463410818
6.208118784,0.9999441301559064,-129.70226873359505
6.210405888,0.9999692958154777,-129.84133552905178
6.212692992,0.9999970589099427,-129.98074882607943
6.214980096,1.0000256506241016,-130.12061820999946
6.2172672,1.0000530078951742,-130.26083227122365
6.219553792,1.000077679504797,-130.40143388627837
6.221840896,1.000098048716671,-130.54237637694348
6.224128,1.0001127152052758,-130.6835399087954
6.226415104,1.000120817873193,-130.8248634910277
6.228702208,1.0001217549611208,-130.96627320486468
6.230989312,1.0001155364742376,-131.10759627288954
6.233275904,1.0001025539892197,-131.24878002687169
6.235563008,1.0000835974948332,-131.38974642738964
6.237850112,1.0000598257859945,-131.53037475677556
6.240137216,1.000032892416922,-131.67061790233643
6.24242432,1.0000042860592395,-131.81045873992227
6.244711424,0.9999759621341074,-131.94987347089642
6.246998528,0.9999496965573575,-132.0888922927816
6.24928512,0.9999270783298917,-132.2275221128425
6.251572224,0.9999097161286121,-132.36585119798292
6.253859328,0.9998985306085901,-132.50400384722445
6.256146432,0.9998943067326231,-132.64202855054296
6.258433536,0.9998973258970573,-132.7799818947099
6.26072064,0.9999074189978907,-132.91804743320478
6.263007232,0.9999238948190149,-133.05627482038165
6.265294336,0.9999458109929855,-133.19480301616676
6.26758144,0.9999716385357922,-133.33364484045023
6.269868544,0.99999982618698,-133.4728670707413
6.272155648,1.0000287088759405,-133.6125347556772
6.274442752,1.0000561840844313,-133.7525635695712
6.276729344,1.0000807702046726,-133.89298701960485
6.279016448,1.0001006912655832,-134.03371359329208
6.281303552,1.000114873836883,-134.1746461567532
6.283590656,1.0001222085451242,-134.31577995252053
6.28587776,1.0001224189126658,-134.4569109017652
6.288164864,1.000115382232442,-134.59801143757744
6.290451456,1.000101528842498,-134.73892623184432
6.29273856,1.0000817639865918,-134.8796060054319
6.295025664,1.0000573632532133,-135.01995506487805
6.297312768,1.0000297970066365,-135.15988901509849
6.299599872,1.0000008238735436,-135.29940703917242
6.301886976,0.999972284690696,-135.4384927927838
6.304173568,0.9999461588836503,-135.577213337024
6.306460672,0.9999237440667791,-135.71554817795652
6.308747776,0.9999068276432012,-135.853589196098
6.31103488,0.9998962665931913,-135.991365422288
6.313321984,0.9998927762392862,-136.1290915797296
6.315609088,0.9998967432916652,-136.26680128018174
6.317896192,0.9999075594183108,-136.40455348489743
6.320182784,0.9999250179247348,-136.5425228443978
6.322469888,0.9999476358170963,-136.68080415586857
6.324756992,0.9999741482676237,-136.81940084540847
6.327044096,1.0000028376666963,-136.958404916065
6.3293312,1.0000319220194431,-137.09778383602733
6.331618304,1.0000595015015035,-137.23758849724928
6.333904896,1.0000838274762023,-137.37777627290785
6.336192,1.0001034402169484,-137.51825162452067
6.338479104,1.0001170476559471,-137.65893871175666
6.340766208,1.0001237101828764,-137.79979526429264
6.343053312,1.0001230720184358,-137.9406859441298
6.345340416,1.0001151747323607,-138.0814743266552
6.347627008,1.0001004646622254,-138.22207336491735
6.349914112,1.0000798876808403,-138.3624448089689
6.352201216,1.0000546748076966,-138.50242787544605
6.35448832,1.0000265748016406,-138.64204780412328
6.356775424,0.9999973246716649,-138.78124177531947
6.359062528,0.99996865193986,-138.9199822825588
6.36134912,0.999942471031141,-139.05832722198238
6.363636224,0.9999204887761451,-139.1962955940633
6.365923328,0.9999039225530105,-139.33398025298615
6.368210432,0.9998940947234712,-139.471414844661
6.370497536,0.9998914260979261,-139.6087988166237
6.37278464,0.999896102405556,-139.7461751385428
6.375071232,0.9999079614262857,-139.8836320450905
6.377358336,0.9999261430716586,-140.02131720073385
6.37964544,0.9999495612824109,-140.15930000780165
6.381932544,0.9999766677902913,-140.29761902513556
6.384219648,1.0000058531496554,-140.4363237392798
6.386506752,1.00003519422691,-140.57544934844248
6.388793344,1.000062753059294,-140.71499584752766
6.391080448,1.000087001482655,-140.85483813265128
6.393367552,1.0001061840776893,-140.99504017299
6.395654656,1.0001191732933141,-141.13547614537353
6.39794176,1.0001251274278928,-141.27600437847158
6.400228864,1.0001236388369115,-141.41658764828213
6.402515968,1.0001148240605244,-141.55705179568847
6.40480256,1.0000992715254273,-141.6973018747482
6.407089664,1.0000778777963166,-141.83729629753867
6.409376768,1.0000520461216629,-141.97695529244837
6.411663872,1.0000233960518738,-142.11618689896414
6.413950976,0.9999936759504792,-142.25498237345997
6.41623808,0.9999649345547031,-142.39331512611352
6.418524672,0.9999388270023183,-142.53126511244247
6.420811776,0.9999171287948772,-142.6688301313052
6.42309888,0.9999011498487583,-142.8061325387756
6.425385984,0.9998919392295226,-142.9432133158764
6.427673088,0.9998900984044367,-143.08022145850845
6.429960192,0.9998957510863795,-143.21722438579567
6.432246784,0.9999084632471409,-143.35433329061397
6.434533888,0.999927477504883,-143.49169182241326
6.436820992,0.999951623306252,-143.62931104832592
6.439108096,0.9999794060159389,-143.76730329868238
6.4413952,1.0000090580876653,-143.90570612116866
6.443682304,1.00003861606618,-144.04451587859737
6.445968896,1.0000662316951459,-144.18375587303166
6.448256,1.000090177535771,-144.3233123242614
6.450543104,1.000108914740429,-144.46320265077225
6.452830208,1.0001213242995153,-144.60331132028475
6.455117312,1.000126519928004,-144.7434793231398
6.457404416,1.0001241431108685,-144.88371663752946
6.459691008,1.0001144995944828,-145.02377663277207
6.461978112,1.0000979452408858,-145.16371573240372
6.464265216,1.0000757614210476,-145.3032983729841
6.46655232,1.0000491764885586,-145.44252409495004
6.468839424,1.0000200432318063,-145.58133345818644
6.471126528,0.9999900678202245,-145.7196895678601
6.473413632,0.9999611850239154,-145.85765034026048
6.475700224,0.9999352041765087,-145.99513143178527
6.477987328,0.9999138741085072,-146.13229661041095
6.480274432,0.9998983945070163,-146.26915520689016
6.482561536,0.9998899204046412,-146.40582483670565
6.48484864,0.999888814113226,-146.5423876239862
6.487135744,0.9998953462273833,-146.6790155256841
6.489422336,0.999909033589127,-146.8157367467022
6.49170944,0.9999289772511308,-146.9527107511729
6.493996544,0.9999538519599461,-147.0899993102733
6.496283648,0.9999822716624467,-147.22764603466527
6.498570752,1.0000122916506973,-147.36568263068708
6.500857856,1.0000420640517822,-147.5041654562371
6.503144448,1.000069668821008,-147.64303169178248
6.505431552,1.0000933487903811,-147.78227430516299
6.507718656,1.0001116885152308,-147.92181091629735
6.51000576,1.000123352424382,-148.06151905755146
6.512292864,1.0001277387442866,-148.20132393125613
6.514579968,1.000124607302062,-148.34116833407884
6.51686656,1.000113938079865,-148.48084306330884
6.519153664,1.00009655108613,-148.6203255167648
6.521440768,1.000073494494145,-148.75950483685696
6.523727872,1.0000462778714239,-148.89827020921516
6.526014976,1.000016565721507,-149.0366592965995
6.52830208,0.9999862673082704,-149.1745459667324
6.530588672,0.9999573291590668,-149.3120115027906
6.532875776,0.9999315147214419,-149.4490342728389
6.53516288,0.9999104654060704,-149.5857381743527
6.537449984,0.9998956253718381,-149.72213213089685
6.539737088,0.999887835211848,-149.85833842294716
6.542024192,0.9998876521474866,-149.9944885384587
6.544310784,0.9998951093919792,-150.13068584234296
6.546597888,0.9999097103520395,-150.26700593346567
6.548884992,0.9999305213696869,-150.4035493103588
6.551172096,0.9999562141694062,-150.54044483302874
6.5534592,0.9999852064658575,-150.6776898111258
6.555746304,1.0000156636080404,-150.81536432416488
6.558033408,1.0000456109806715,-150.9534527726925
6.56032,1.0000731381366612,-151.09194082055234
6.562607104,1.0000965321094655,-151.23081565085127
6.564894208,1.0001143736497538,-151.3699132235687
6.567181312,1.0001253977105027,-151.50923722090428
6.569468416,1.00012901148499,-151.6486847711766
6.57175552,1.0001248182356828,-151.78807273403245
6.574042112,1.0001132944097262,-151.9273387131883
6.576329216,1.000094954533652,-152.06633456152446
6.57861632,1.000071141244665,-152.20505340500333
6.580903424,1.0000432251262075,-152.34335932779882
6.583190528,1.000012991317397,-152.48121532553296
6.585477632,0.9999824091289642,-152.6186217252666
6.587764224,0.9999533435763441,-152.75556699012978
6.590051328,0.9999277870559858,-152.89214401180482
6.592338432,0.9999072072924338,-153.02828704481058
6.594625536,0.9998929303913234,-153.16422430196909
6.59691264,0.9998859565038107,-153.29995869516222
6.599199744,0.9998866200954086,-153.43562242833255
6.601486336,0.9998950237798511,-153.571330753075
6.60377344,0.9999104916821028,-153.7072219860546
6.606060544,0.9999321729069792,-153.8433417052291
6.608347648,0.9999586714710639,-153.97977748658937
6.610634752,0.9999882778039769,-154.11664079146212
6.612921856,1.000019142797867,-154.25388986703982
6.615208448,1.0000492245386987,-154.39157734163766
6.617495552,1.0000766338392466,-154.52966822614366
6.619782656,1.0000998229036728,-154.66809456675938
6.62206976,1.0001171436872203,-154.80680011028224
6.624356864,1.0001274518472099,-154.94571501950992
6.626643968,1.0001301319558018,-155.08467908830096
6.628931072,1.000125103167374,-155.22360938207922
6.631217664,1.000112569492128,-155.3624102114161
6.633504768,1.0000933555944667,-155.50093860378246
6.635791872,1.000068658252443,-155.63912511916013
6.638078976,1.0000400782098129,-155.77692158228393
6.64036608,1.0000093411647475,-155.91427857853117
6.642653184,0.9999784550727353,-156.0511587186464
6.644939776,0.9999494048304692,-156.18755106299366
6.64722688,0.9999239498289231,-156.32358339158947
6.649513984,0.9999038751641004,-156.45922803074103
6.651801088,0.9998902863421316,-156.59461450711927
6.654088192,0.9998840807968664,-156.7298159002576
6.656375296,0.999885704083812,-156.86498443924515
6.658661888,0.9998950252994285,-157.00022222193556
6.660948992,0.9999115464777294,-157.13558691480313
6.663236096,0.9999340551043613,-157.271270879429
6.6655232,0.9999613186860716,-157.40726981715886
6.667810304,0.9999914153834388,-157.54364877935012
6.670097408,1.000022687500214,-157.6804835043509
6.672384,1.000052882517933,-157.81774608748373
6.674671104,1.0000802671498294,-157.95536308318796
6.676958208,1.0001029928614977,-158.09336822995348
6.679245312,1.000119724297523,-158.2316314241291
6.681532416,1.000129371585857,-158.37005879721815
6.68381952,1.0001311716415942,-158.50855382899303
6.686106112,1.0001251157315194,-158.646991870594
6.688393216,1.0001116663779233,-158.78527937860454
6.69068032,1.0000914904779667,-158.92331826075903
6.692967424,1.0000660170932234,-159.06094118769852
6.695254528,1.000036719854789,-159.19821904331744
6.697541632,1.0000055801134904,-159.33499170950975
6.699828224,0.9999744145696314,-159.47128461924075
6.702115328,0.9999453458204627,-159.60715412782946
6.704402432,0.9999201857421887,-159.74258676968225
6.706689536,0.9999005058261025,-159.87766493533525
6.70897664,0.9998876111648964,-160.01254428513093
6.711263744,0.9998823053498089,-160.1471818571045
6.713550848,0.99988484241035,-160.28181337141697
6.71583744,0.9998951537450452,-160.4165492148117
6.718124544,0.999912676847445,-160.55141880680728
6.720411648,0.9999360332968587,-160.68659642388326
6.722698752,0.9999640522856149,-160.82209248586528
6.724985856,0.9999948065769279,-160.9580439477945
6.72727296,1.000026274584193,-161.09435547145574
6.729559552,1.0000566708287209,-161.23114513126575
6.731846656,1.0000838840726654,-161.36832349507
6.73413376,1.0001062304270913,-161.50584500187512
6.736420864,1.00012233773557,-161.64362074651095
6.738707968,1.0001311664027326,-161.78154579596398
6.740995072,1.0001321250335942,-161.91955506052363
6.743281664,1.0001250959892145,-162.0574869023834
6.745568768,1.0001106101920694,-162.19521549829298
6.747855872,1.0000895370616962,-162.33266249819343
6.750142976,1.000063166368846,-162.46978375894946
6.75243008,1.0000332223429558,-162.60644213747088
6.754717184,1.000001552823206,-162.74264516294608
6.757003776,0.9999702832295485,-162.87835954378315
6.75929088,0.9999412819090888,-163.01362140222918
6.761577984,0.9999163697131923,-163.14845242061872
6.763865088,0.9998973022929871,-163.28295769592694
6.766152192,0.9998850687216448,-163.41718880502282
6.768439296,0.999880548320624,-163.55132833958984
6.770725888,0.9998840812454854,-163.6853780493552
6.773012992,0.999895502748467,-163.81953736617413
6.775300096,0.9999138734011387,-163.95390719326778
6.7775872,0.9999381718782948,-164.0885464735213
6.779874304,0.9999669061702904,-164.2235619185695
6.782161408,0.9999982003006355,-164.358965925119
6.784448512,1.0000300661142116,-164.4948338809652
6.786735104,1.0000604625059228,-164.63110132885112
6.789022208,1.000087578965429,-164.7677971898028
6.791309312,1.0001095279225845,-164.90482456996
6.793596416,1.0001249355448767,-165.0420798494798
6.79588352,1.0001329181516734,-165.17948378021637
6.798170624,1.0001329451816614,-165.31693135234283
6.800457216,1.000124911679179,-165.4543015193994
6.80274432,1.0001093515098398,-165.59149092771065
6.805031424,1.0000874083902473,-165.7283654197404
6.807318528,1.0000602154374172,-165.86487135266105
6.809605632,1.0000296265969904,-166.00094198615523
6.811892736,0.9999975568282443,-166.13650704371543
6.814179328,0.9999660571165073,-166.27160447452127
6.816466432,0.9999370635378065,-166.40625624942908
6.818753536,0.999912524859572,-166.5404518038205
6.82104064,0.9998939849583541,-166.6743363820539
6.823327744,0.9998825977236009,-166.80799096457895
6.825614848,0.9998789338090218,-166.94150727174923
6.82790144,0.9998834347281755,-167.07496693739995
6.830188544,0.9998958776032821,-167.20856074256503
6.832475648,0.9999152479359559,-167.34236221680456
6.834762752,0.9999405015079628,-167.47647200201507
6.837049856,0.9999700074682542,-167.6109417322338
6.83933696,1.0000018556492893,-167.74581945388817
6.841623552,1.000033958681821,-167.88117117226335
6.843910656,1.0000644040846731,-168.01692114153406
6.84619776,1.0000912376914612,-168.15310249243237
6.848484864,1.0001127837792712,-168.28957308152175
6.850771968,1.0001275800979341,-168.42629558030305
6.853059072,1.0001346694772715,-168.56315754001182
6.855345664,1.0001336778908574,-168.70008354746705
6.857632768,1.0001246907899586,-168.836843639912
6.859919872,1.000108069912207,-168.9734365779108
6.862206976,1.0000851549027316,-169.10969608494943
6.86449408,1.0000571586280256,-169.24561307251378
6.866781184,1.0000259641425278,-169.38100952346522
6.869068288,0.9999934267817285,-169.51596859555337
6.87135488,0.9999618736343789,-169.65040971446385
6.873641984,0.9999329316440855,-169.7843732066395
6.875929088,0.9999088005046759,-169.91795024976403
6.878216192,0.9998907792870196,-170.05119390380605
6.880503296,0.999880089532957,-170.18418514548324
6.8827904,0.9998774557042067,-170.3170538858561
6.885076992,0.9998829950696313,-170.4499790075313
6.887364096,0.9998964252814198,-170.5829534851591
6.8896512,0.9999168069592,-170.7161580971687
6.891938304,0.9999429416294793,-170.84972646467452
6.894225408,0.9999731756955189,-170.98361646011358
6.896512512,1.0000055319065566,-171.1179473313608
6.898799104,1.0000380483083868,-171.25275123006844
6.901086208,1.000068467927002,-171.38796983028766
6.903373312,1.0000950322747553,-171.52360562990194
6.905660416,1.0001159688669885,-171.65952652128007
6.90794752,1.0001301640846834,-171.79568981882665
