freq,mag,phase
6.0,0.999416295527339,94.18732596056935
6.002285568,0.9996628136330757,94.0256914563698
6.004571648,0.99993088933682,93.86032242959293
6.006857216,1.0002034747844302,93.69107405216569
6.009142784,1.0004635346586277,93.51798222414898
6.011428352,1.0006946731428852,93.34133946464236
6.013714432,1.0008823414132868,93.16172193978143
6.016,1.0010145194578546,92.97978220016294
6.018285568,1.0010831334604566,92.79640663089414
6.020571648,1.0010837988180534,92.61256120879973
6.022857216,1.0010162650803773,92.42920665900999
6.025142784,1.00088509092567,92.2473292154565
6.027428352,1.0006980845720028,92.06774915659645
6.029714432,1.000467411061289,91.89119744373899
6.032,1.0002072127988098,91.71827096114038
6.034285568,0.9999340703393395,91.54918109332971
6.036571648,0.9996650879150616,91.38405504431137
6.038857216,0.9994173570418418,91.222709346121
6.041142784,0.9992063898897167,91.06472631361231
6.043428352,0.9990457575112947,90.90945615727674
6.045714432,0.9989453114787665,90.75609565562206
6.048,0.9989116465392913,90.60376057654692
6.050285568,0.9989469736833869,90.45141075568876
6.052571648,0.9990488204836748,90.29809847885326
6.054857216,0.9992110206450284,90.14287743598048
6.057142784,0.9994232402233647,89.98497349139012
6.059428352,0.9996720171612952,89.82374037363856
6.061714432,0.9999417967631224,89.65877330110757
6.064,1.000215596686722,89.48987130122833
6.066285568,1.0004760128168708,89.31711750651435
6.068571648,1.0007067623987487,89.14084318757261
6.070857216,1.0008932390475025,88.96153478597131
6.073142784,1.0010235979744613,88.77999318101836
6.075428352,1.001089749181936,88.59702502102492
6.077714432,1.0010876316322321,88.41360331225329
6.08,1.001017108891872,88.23075119219894
6.082285568,1.0008827631141861,88.04939051276904
6.084571648,1.0006929630123491,87.87036008338951
6.086857216,1.0004595162272507,87.69444518557843
6.089142784,1.0001972189982744,87.5221374500823
6.091428352,0.9999225552027919,87.35372769246264
6.093714432,0.9996529487591711,87.18927119867934
6.096,0.9994051991955268,87.02860473594771
6.098285568,0.9991950582506728,86.87128266168317
6.100571648,0.9990359502600717,86.71666674848409
6.102857216,0.9989377368661725,86.56394570968665
6.105142784,0.9989067423453429,86.41219688044065
6.107428352,0.9989450560955349,86.26038675526728
6.109714432,0.9990499985314196,86.10758760630605
6.112,0.9992152304168039,85.95283162260655
6.114285568,0.9994303636621396,85.79532957804263
6.116571648,0.9996815183541524,85.63447068299293
6.118857216,0.9999532353324871,85.4698359764604
6.121142784,1.0002280479959023,85.3012561863549
6.123428352,1.0004888158211007,85.1288074688147
6.125714432,1.0007189706924056,84.9528413652298
6.128,1.000904147623604,84.77385159761678
6.130285568,1.0010327505908272,84.59264937485794
6.132571648,1.0010963972327807,84.41005039855963
6.134857216,1.0010913630066927,84.22704001179606
6.137142784,1.00101772833362,84.04462621942986
6.139428352,1.0008801060941936,83.86374035729196
6.141714432,1.0006872227150088,83.68528496522757
6.144,1.0004512086117696,83.50992836788771
6.146285568,1.0001868110542438,83.33823375610622
6.148571648,0.999910702954946,83.17043426695558
6.150857216,0.9996403298171358,83.0066499642605
6.153142784,0.9993927572302507,82.84663289920177
6.155428352,0.9991834690723803,82.68996726311465
6.157714432,0.9990259544769844,82.53597530740446
6.16,0.9989300225112437,82.38384386011408
6.162285568,0.9989018808761889,82.23265043076006
6.164571648,0.9989431774500542,82.08136813193799
6.166857216,0.9990514919695572,81.92901423131723
6.169142784,0.9992198778624687,81.77468274762957
6.171428352,0.9994378011274073,81.61756924539408
6.173714432,0.9996914607712986,81.45702282434259
6.176,0.9999648584489331,81.29269534470738
6.178285568,1.0002407531515145,81.1243837855457
6.180571648,1.0005018739142892,80.95220908938528
6.182857216,1.0007315452337218,80.77649197508127
6.185142784,1.000915379728562,80.59781593515586
6.187428352,1.0010418861539832,80.41689868969573
6.189714432,1.0011030419122722,80.2346311214431
6.192,1.0010949738886479,80.05199894926965
6.194285568,1.0010180774553317,79.86998126218782
6.196571648,1.0008772499694902,79.68957752452005
6.198857216,1.0006812996038694,79.51161956671923
6.201142784,1.0004425773451635,79.33681082380009
6.203428352,1.0001760045501067,79.16568789725243
6.205714432,0.9998984436609704,78.99850081890153
6.208,0.9996273944451384,78.83533309701697
6.210285568,0.999379940817667,78.67594585645996
6.212571648,0.9991717312746013,78.51988050563422
6.214857216,0.9990157841341666,78.36648146588796
6.217142784,0.9989222788855582,78.21492920365472
6.219428352,0.9988969903114084,78.06424230398834
6.221714432,0.9989414322514196,77.91344108522236
6.224,0.9990530157663483,77.76151896535625
6.226285568,0.9992246167923443,77.6075708761166
6.228571648,0.9994454492805444,77.4507647626251
6.230857216,0.9997015833237513,77.29053037912873
6.233142784,0.9999768719553157,77.12647808132255
6.235428352,1.0002538008423039,76.95838795460658
6.237714432,1.0005151285901581,76.78645476158412
6.24,1.0007442114267582,76.61096135154067
6.242285568,1.0009267366835612,76.4325152003758
6.244571648,1.0010511533800073,76.25185528398426
6.246857216,1.0011095882470107,76.06990243831137
6.249142784,1.0010984364319129,75.88760176321063
6.251428352,1.001018220315222,75.70598423634422
6.253714432,1.000874143102711,75.52598861921265
6.256,1.0006750803414268,75.34850458623181
6.258285568,1.0004336559491478,75.17421748563028
6.260571648,1.0001649292549353,75.00364167602896
6.262857216,0.9998858882531646,74.83704448529993
6.265142784,0.999614208830545,74.67444943548722
6.267428352,0.9993668717647586,74.51565360894867
6.269714432,0.9991596071123932,74.36017375979019
6.272,0.9990055537685782,74.20732836354695
6.274285568,0.9989144417149396,74.05629586588245
6.276571648,0.9988920059164667,73.90611090269792
6.278857216,0.9989398282513681,73.75574758181001
6.281142784,0.9990548544128692,73.60421371460845
6.283428352,0.9992297452548273,73.45061101398264
6.285714432,0.9994535446288246,73.2941082685158
6.288,0.9997121221826752,73.13413565603149
6.290285568,0.9999891520870162,72.97026950637445
6.292571648,1.0002672201999427,72.80240011676743
6.294857216,1.0005286957132369,72.63063586879947
6.297142784,1.0007572788194026,72.45535080513915
6.299428352,1.0009382382141438,72.27710647151345
6.301714432,1.001060525656183,72.09667867151921
6.304,1.0011162117067511,71.91498322149181
6.306285568,1.0011019060666644,71.7329775222472
6.308571648,1.0010183843341922,71.55171606329506
6.310857216,1.0008707828848313,71.37211444424354
6.313142784,1.000668664337669,71.19507695116073
6.315428352,1.0004243780997004,71.02127170761841
6.317714432,1.0001534742889238,70.85120123801327
6.32,0.9998730429651073,70.68515408611547
6.322285568,0.99960062494514,70.52311493519399
6.324571648,0.9993536190623297,70.36487171940837
6.326857216,0.9991473957646312,70.20994927283019
6.329142784,0.9989952295366425,70.05761708195035
6.331428352,0.9989066158447504,69.9070802016642
6.333714432,0.9988871557829062,69.75732809643165
6.336,0.9989383671840416,69.60738426299692
6.338285568,0.999056741090711,69.45620335127533
6.340571648,0.9992350095661483,69.30289419683
6.342857216,0.9994618413829015,69.14665277296393
6.345142784,0.9997228748362826,68.98687909483364
6.347428352,1.0000018416868803,68.82320024789095
6.349714432,1.0002809281381049,68.65549191953563
6.352,1.0005425844575928,68.48388345621372
6.354285568,1.0007704195052125,68.30873855679584
6.356571648,1.0009499638408232,68.13065614382559
6.358857216,1.001069965084876,67.95041490698706
6.361142784,1.0011227687797406,67.76893297380526
6.363428352,1.0011053153014986,67.58720759269876
6.365714432,1.0010182796779974,67.40624838424134
6.368,1.0008673713151879,67.22701846138182
6.370285568,1.0006619034260946,67.05039896834379
6.372571648,1.0004148885437898,66.87702724524897
6.374857216,1.0001418270127553,66.70744478308882
6.377142784,0.999859921895519,66.54189804253896
6.379428352,0.9995869857570628,66.38039900152883
6.381714432,0.9993401248828292,66.22267493320523
6.384,0.9991351245783623,66.0682635164917
6.386285568,0.9989848353986699,65.91643874182851
6.388571648,0.9988987947203255,65.76634704858479
6.390857216,0.9988825782858504,65.61701560197815
6.393142784,0.9989371220118064,65.46742157624452
6.395428352,0.9990590600032387,65.31657128905745
6.397714432,0.9992405951829646,65.16351305082715
6.4,0.9994705130052517,65.0074839090191
6.402285568,0.9997340952539879,64.84788863479402
6.404571648,1.0000148224996959,64.68434168158439
6.406857216,1.000294859207941,64.51674373629457
6.409142784,1.0005567301544929,64.34523670341923
6.411428352,1.0007837740604117,64.17019649553455
6.413714432,1.0009617960774793,63.992233485329784
6.416,1.0010794464791297,63.8121574362071
6.418285568,1.0011294582725987,63.63086843596263
6.420571648,1.001108563108236,63.449367131828495
6.422857216,1.0010180632590133,63.268698134410776
6.425142784,1.0008635981035146,63.089783984761574
6.427428352,1.0006548607887307,62.913518009158125
6.429714432,1.0004050366934274,62.74059385781078
6.432,1.000129814379015,62.57144639965089
6.434285568,0.9998464449504982,62.406386624823476
6.436571648,0.9995728767513765,62.245370367735894
6.438857216,0.9993263700112108,62.08815011467708
6.441142784,0.9991225212677268,61.93420931115656
6.443428352,0.998974219314002,61.78283498775524
6.445714432,0.9988908856741766,61.633164443803686
6.448,0.998877772970375,61.484224174594566
6.450285568,0.99893582018222,61.33495899626293
6.452571648,0.9990613286590124,61.18437863929638
6.454857216,0.9992463894889784,61.03153752754276
6.457142784,0.9994793038316518,60.87567070309813
6.459428352,0.9997454367951073,60.71621156057603
6.461714432,1.0000279502877296,60.55277289760991
6.464,1.0003090536092971,60.38524918313853
6.466285568,1.0005709685776492,60.21380728162721
6.468571648,1.000797242290571,60.038836584558965
6.470857216,1.0009736639742368,59.860968156220004
6.473142784,1.0010890138360435,59.68098914139135
6.475428352,1.0011360286450308,59.49983419280378
6.477714432,1.0011117202037487,59.318554278787076
6.48,1.0010176657251293,59.138103912804844
6.482285568,1.0008596533794472,58.95948820051353
6.484571648,1.0006477081504894,58.78357301258669
6.486857216,1.0003950531430976,58.61100718834941
6.489142784,1.0001175241198768,58.442318429221935
6.491428352,0.9998328120526896,58.27769008004764
6.493714432,0.9995587102477459,58.117125174806816
6.496,0.9993126060453744,57.960361140754046
6.498285568,0.99910996548752,57.8068518886036
6.500571648,0.9989636983697799,57.655918283907944
6.502857216,0.9988831611729364,57.50661535725228
6.505142784,0.9988732573764341,57.357999153570866
6.507428352,0.9989348015163028,57.20901546653809
6.509714432,0.9990638887086717,57.05866861320808
6.512,0.9992524115473511,56.906009614859435
6.514285568,0.9994885386354986,56.750290474041016
6.516571648,0.9997571320180751,56.590908910628
6.518857216,1.000041491118655,56.427517785444984
6.521142784,1.0003234753645576,56.26005038138447
6.523428352,1.0005855232677243,56.08862577119136
6.525714432,1.0008109661580014,55.91368193237675
6.528,1.0009856790652403,55.735853590248794
6.530285568,1.001098569513851,55.55595840270083
6.532571648,1.00114251751799,55.37492306698799
6.534857216,1.001114724742005,55.19377361260938
6.537142784,1.0010170063397565,55.013536366101334
6.539428352,1.0008554672033163,54.83519227271899
6.541714432,1.0006401934939886,54.659571954082466
6.544,1.0003846348664505,54.48736584575245
6.546285568,1.0001049395566624,54.31904312708371
6.548571648,0.9998187681615627,54.15481846547104
6.550857216,0.9995442151376629,53.99468474742503
6.553142784,0.9992984220701236,53.83835191007472
6.555428352,0.9990971475916728,53.68526665546062
6.557714432,0.9989530206997047,53.534670213798734
6.56,0.9988751781245271,53.38575309459289
6.562285568,0.9988686204608622,53.23742844354755
6.564571648,0.9989338859454798,53.08870620324802
6.566857216,0.9990666908806809,52.93855156630706
6.569142784,0.9992586538152822,52.7860373994174
6.571428352,0.9994978505828631,52.63040527553005
6.573714432,0.9997690571633971,52.471053227368515
6.576,1.0000552104822833,52.3076677523523
6.578285568,1.0003382349319754,52.14018328799319
6.580571648,1.0006002883462544,51.96875653533134
6.582857216,1.0008247691674412,51.79380938657584
6.585142784,1.0009977461026316,51.615997307426916
6.587428352,1.0011081453095116,51.43610524214457
6.589714432,1.0011490455829086,51.255151062127474
6.592,1.0011177687835793,51.0741341042366
6.594285568,1.001016408284484,50.894073050991985
6.596571648,1.0008511577259318,50.71594454009563
6.598857216,1.0006324620275777,50.54059217003647
6.601142784,1.0003741119938783,50.368694395790904
6.603428352,1.0000922046230003,50.20071959661708
6.605714432,0.9998047183734685,50.036886223821966
6.608,0.9995295466874684,49.87713212227814
6.610285568,0.9992842459160571,49.721182782499724
6.612571648,0.9990843610262929,49.56846590859711
6.614857216,0.998942393230063,49.41823523904083
6.617142784,0.9988673808219516,49.26960876079088
6.619428352,0.9988642616403871,49.12154239277606
6.621714432,0.998933080709239,48.973017350430965
6.624,0.9990695509378617,48.82301560738811
6.626285568,0.9992651980008367,48.670606330423766
6.628571648,0.9995074628350439,48.51501279975502
6.630857216,0.9997812955125334,48.35566899762382
6.633142784,1.0000691669606399,48.192274917313874
6.635428352,1.000353058108376,48.024729345592164
6.637714432,1.0006151488418302,47.85324954607541
6.64,1.0008387248246058,47.67824201990526
6.642285568,1.0010098282603714,47.50038296921683
6.644571648,1.0011176586149528,47.320525031658825
6.646857216,1.0011553336956807,47.139594677543194
6.649142784,1.0011205721947505,46.9586528027457
6.651428352,1.0010154374106424,46.77873352026456
6.653714432,1.000846524705278,46.600783438386884
6.656,1.000624439098174,46.42565985425097
6.658285568,1.0003631658822305,46.254060549212845
6.660571648,1.0000791079584561,46.086394799742756
6.662857216,0.9997901885190628,45.92290152483122
6.665142784,0.999514601086137,45.763505684948385
6.667428352,0.9992697642860261,45.60789294394977
6.669714432,0.9990711995364789,45.455523149015804
6.672,0.9989314819867627,45.30560438209078
6.674285568,0.9988595412503516,45.157230821561434
6.676571648,0.9988597555014623,45.00940443753881
6.678857216,0.9989322642336035,44.86104427680821
6.681142784,0.9990725509724709,44.71115309070607
6.683428352,0.9992718098010887,44.5587928233169
6.685714432,0.9995172535785409,44.40319784671686
6.688,0.9997935829011161,44.2438356563812
6.690285568,1.000083325279582,44.080368377074414
6.692571648,1.0003681123109716,43.912733633509156
6.694857216,1.0006301743265786,43.7411325396665
6.697142784,1.0008528115726594,43.56604197354182
6.699428352,1.0010220500738791,43.38811611255402
6.701714432,1.001127208897799,43.208206522448464
6.704,1.0011617276632683,43.02728972759001
6.706285568,1.0011233114509408,42.846382554175975
6.708571648,1.0010143650280516,42.666569544049985
6.710857216,1.0008417282757966,42.48878041062258
6.713142784,1.0006162146325892,42.313848754334984
6.715428352,1.0003521116182126,42.14249737041743
6.717714432,1.000065823954325,41.975114421710764
6.72,0.9997755408747316,41.81193205195808
6.722285568,0.9994995616942781,41.65284938711942
6.724571648,0.9992552456781761,41.49754366834479
6.726857216,0.9990581272601864,41.34547484777328
6.729142784,0.9989207123545877,41.19583275077392
6.731428352,0.9988517039112252,41.047698464445496
6.733714432,0.9988553943725952,40.90003675602783
6.736,0.9989317014179118,40.75181462349648
6.738285568,0.9990758446357961,40.60198759854195
6.740571648,0.9992785392748448,40.44963589064242
6.742857216,0.9995272800610028,40.29402314162323
6.745142784,0.9998062037428413,40.134576275295174
6.747428352,1.0000976346101087,39.97101143132895
6.749714432,1.0003834286326256,39.80324183719073
6.752,1.0006452685838507,39.63150183665318
6.754285568,1.0008669300046584,39.456256832186654
6.756571648,1.0010342471503342,39.27823362206376
6.758857216,1.0011367604167751,39.09824048740318
6.761142784,1.0011679734504253,38.91726705276373
6.763428352,1.0011258725213197,38.73638765740956
6.765714432,1.0010131009001217,38.55662186341843
6.768,1.0008366950994119,38.37895216739378
6.770285568,1.000607850338751,38.20418345328419
6.772571648,1.0003407567312335,38.03304041890998
6.774857216,1.0000522848680737,37.86589987445935
6.777142784,0.9997606186032415,37.70299080879981
6.779428352,0.9994843138065194,37.54419227757629
6.781714432,0.9992405352395859,37.38916946443961
6.784,0.9990449728078413,37.237356004552346
6.786285568,0.9989098771593792,37.087958130246705
6.788571648,0.9988438096231937,36.94000318407411
6.790857216,0.9988511497485439,36.79249642266095
6.793142784,0.9989312085134826,36.64434991632983
6.795428352,0.9990792079149585,36.494551471811555
6.797714432,0.9992856206679693,36.34218093205883
6.8,0.999537460672756,36.186491788207235
6.802285568,0.9998189194727325,36.026943704715926
6.804571648,1.0001121682366305,35.86320254063177
6.806857216,1.000398757835443,35.69525896328027
6.809142784,1.0006605833085727,35.52334615094179
6.811428352,1.0008811328599654,35.347956734660094
6.813714432,1.0010465022225057,35.16976606293093
6.816,1.0011462848728396,34.98964622736122
6.818285568,1.0011741790993274,34.80859289448285
6.820571648,1.0011284166890537,34.62769035904713
6.822857216,1.001011779449853,34.44794517256472
6.825142784,1.0008316174629448,34.27035728895038
6.827428352,1.0005992047301817,34.095735728608176
6.829714432,1.000329173809954,33.92475912149877
6.832,1.000038497462746,33.75782596282168
6.834285568,0.9997456226574932,33.595153270541516
6.836571648,0.9994688648640087,33.43660205783482
6.838857216,0.9992257847265588,33.28181314935003
6.841142784,0.9990317319396891,33.130217154046
6.843428352,0.9988989884172893,32.98099644710557
6.845714432,0.9988360864516739,32.8332318844849
6.848,0.9988468936808074,32.68581685156815
6.850285568,0.9989308047810751,32.53772868899106
6.852571648,0.9990826297674936,32.387928244155795
6.854857216,0.9992927619462376,32.23548055239543
6.857142784,0.9995478709128882,32.07968749682756
6.859428352,0.9998318487476753,31.919956524521528
6.861714432,1.0001269490631304,31.756021897823178
6.864,1.0004142607276223,31.587882739279387
6.866285568,1.0006759858509406,31.41575884535956
6.868571648,1.0008954240355035,31.24014092403113
6.870857216,1.0010588047221676,31.06176072093904
6.873142784,1.0011558197778048,30.881485112277467
6.875428352,1.0011803653358258,30.700328403427566
6.877714432,1.0011307962241194,30.519351549627185
6.88,1.0010102185646508,30.33960929652078
6.882285568,1.0008262998144732,30.16202755804202
6.884571648,1.0005904296220485,29.98751195094864
6.886857216,1.000317513087612,29.816675298986443
6.889142784,1.0000247080819036,29.649925444633652
6.891428352,0.9997304301334269,29.487435840063586
6.893714432,0.9994532830197728,29.32909972929428
6.896,0.9992108513387495,29.17451718259358
6.898285568,0.9990184147594252,29.023128225113144
6.900571648,0.9988880979398884,28.87405496348698
6.902857216,0.9988282435739028,28.726382061406017
6.905142784,0.9988427132930267,28.579051644229114
6.907428352,0.9989305120697958,28.430968433187225
6.909714432,0.9990862995287548,28.28111530497175
6.912,0.9993000998800522,28.12858619162635
6.914285568,0.9995583648598552,27.972619465159205
6.916571648,0.9998449422314444,27.812688444743365
6.918857216,1.0001417065971652,27.648543681415102
6.921142784,1.0004299248424178,27.480131078690853
6.923428352,1.0006914115643133,27.307731347027907
6.925714432,1.0009097168964796,27.131877684237804
6.928,1.0010711744268292,26.95326456086599
6.930285568,1.0011652384071021,26.772786480064134
6.932571648,1.00118648679027,26.591479890015886
6.934857216,1.0011331159436765,26.41041380563322
6.937142784,1.0010086974446712,26.230613672575586
6.939428352,1.00082083439073,26.053055642317425
6.941714432,1.0005815427086102,25.878596221401022
6.944,1.000305657461169,25.707852770972803
6.946285568,1.0000107156321008,25.54125422140687
