freq,mag,phase
6.0,0.9999188998585204,-172.95327841734004
6.002287104,0.9998672281590978,-173.1001435013051
6.004574208,0.9998241817261093,-173.24631873728904
6.006861312,0.9997928150214285,-173.39190636896
6.009147904,0.999775012757559,-173.53706190694277
6.011435008,0.9997719801435132,-173.6820577347052
6.013722112,0.9997838812498736,-173.82704411772673
6.016009216,0.9998100316163345,-173.97225607945225
6.01829632,0.9998488774262786,-174.11793606615691
6.020583424,0.9998977048849823,-174.26419386122262
6.022870016,0.9999537198469695,-174.41116468149426
6.02515712,1.000013025109082,-174.55894359710786
6.027444224,1.000072234318905,-174.70754527296316
6.029731328,1.0001274344328606,-174.85690482230797
6.032018432,1.0001752171568326,-175.0070137516383
6.034305536,1.0002123288052924,-175.15763899010662
6.036592128,1.0002367161595795,-175.3087253764934
6.038879232,1.0002466169607553,-175.46000165127865
6.041166336,1.0002414083495794,-175.61124656882754
6.04345344,1.000221489926955,-175.76229471366108
6.045740544,1.0001879707205394,-175.91291368866302
6.048027648,1.0001431674601924,-176.0629232130471
6.05031424,1.0000897832496332,-176.21219188834553
6.052601344,1.0000311194801865,-176.36056407058157
6.054888448,0.9999709829511951,-176.50805414666146
6.057175552,0.9999131561548148,-176.6546424719636
6.059462656,0.9998613111381645,-176.8003561945884
6.06174976,0.9998187653046042,-176.94541482918777
6.064036352,0.9997880876089614,-177.0898477301689
6.066323456,0.9997713827469136,-177.23388646329425
6.06861056,0.9997696616019497,-177.3777631294093
6.070897664,0.9997830795030915,-177.52171172856382
6.073184768,0.9998108114221118,-177.66589325492333
6.075471872,0.9998510870039361,-177.8104988424346
6.077758464,0.9999012125040231,-177.9557261139311
6.080045568,0.999958215924194,-178.101698423294
6.082332672,1.0000184539152097,-178.2485006342314
6.084619776,1.0000781371940535,-178.3960631868349
6.08690688,1.0001334410545197,-178.54450652886882
6.089193984,1.0001808344301384,-178.69357165744637
6.091481088,1.000217420292424,-178.84326916517537
6.09376768,1.000240685435665,-178.99333832006818
6.096054784,1.0002493001331323,-179.1435982962215
6.098341888,1.0002427447233713,-179.29382654600036
6.100628992,1.0002212919141618,-179.44380530793208
6.102916096,1.0001863618268367,-179.59335106596822
6.1052032,1.0001400583704225,-179.74224737644505
6.107489792,1.0000852772003412,-179.89037048513197
6.109776896,1.0000257261950396,179.962393576344
6.112064,0.9999649806109725,179.81603991900872
6.114351104,0.9999070302110686,179.6706063153522
6.116638208,0.9998552781097753,179.52602570460334
6.118925312,0.9998132136226938,179.38215842635148
6.121211904,0.9997834578262899,179.238863665914
6.123499008,0.9997679014743884,179.09593165742314
6.125786112,0.9997675691526859,178.95318210707222
6.128073216,0.9997824777125286,178.81034288354707
6.13036032,0.9998116366978352,178.6672444793383
6.132647424,0.9998533956286608,178.5236605285097
6.134934016,0.9999049570133338,178.3794738616176
6.13722112,0.9999630242558035,178.23453556302886
6.139508224,1.0000241343441272,178.08872000082258
6.141795328,1.0000841678685706,177.94212730126455
6.144082432,1.0001395718605781,177.79469686695955
6.146369536,1.0001865757849164,177.64660208342207
6.148656128,1.0002223603211062,177.4978996239644
6.150943232,1.0002447038284619,177.34885195323716
6.153230336,1.0002519513260055,177.19962934151573
6.15551744,1.0002438617516294,177.0504529456038
6.157804544,1.0002208673993154,176.90154598752338
6.160091648,1.0001843383622064,176.75310801890984
6.162378752,1.0001366619792698,176.6053020091725
6.164665344,1.0000807014323907,176.4583220187209
6.166952448,1.0000201812854137,176.31220444381273
6.169239552,0.9999588668604295,176.16704993450062
6.171526656,0.9999005963345727,176.02278864464847
6.17381376,0.9998490765068994,175.8793726926952
6.176100864,0.9998075697370882,175.73669144452387
6.178387456,0.9997786762089439,175.59456542782712
6.18067456,0.9997643975397057,175.4527537753085
6.182961664,0.9997655541373509,175.31111937268776
6.185248768,0.9997820516182673,175.1693916093746
6.187535872,0.9998129294864634,175.0273891540609
6.189822976,0.9998561429336545,174.88487857778856
6.192109568,0.9999089446756501,174.74167845102704
6.194396672,0.9999682662479649,174.59774756453228
6.196683776,1.0000300453915034,174.45296275903306
6.19897088,1.0000904338968069,174.30736393138983
6.201257984,1.0001458142440207,174.16095661675425
6.203545088,1.0001925487571433,174.01382044975864
6.20583168,1.0002274371159803,173.86614379182754
6.208118784,1.0002486849738788,173.7181126515872
6.210405888,1.0002546050859529,173.56993171041765
6.212692992,1.000244911748416,173.4218050928179
6.214980096,1.0002202887934037,173.27397234828666
6.2172672,1.0001821015407246,173.12667117224214
6.219553792,1.0001329883707821,172.9800027832938
6.221840896,1.000075799247902,172.83415686840274
6.224128,1.000014356996438,172.68922425673603
6.226415104,0.999952479929626,172.54521420331255
6.228702208,0.9998939813189753,172.40216574503785
6.230989312,0.9998427826098649,172.25991980170463
6.233275904,0.9998018718963441,172.11839376945503
6.235563008,0.999774142222808,171.97742906959877
6.237850112,0.9997610611598484,171.83679983426
6.240137216,0.9997636090533072,171.69627486833318
6.24242432,0.9997817775503669,171.55567175510603
6.244711424,0.9998142834924235,171.4147320193588
6.246998528,0.9998590010065039,171.27328028259836
6.24928512,0.9999134266648385,171.13115710733453
6.251572224,0.9999735774219412,170.98824504054156
6.253859328,1.0000361735959091,170.84446095251678
6.256146432,1.0000969822685442,170.69984742885612
6.258433536,1.0001523173233329,170.55442041381423
6.26072064,1.0001985276948313,170.4083039571731
6.263007232,1.0002326639064851,170.2616408532362
6.265294336,1.0002526034804784,170.1146100474146
6.26758144,1.000257095458836,169.96748847267554
6.269868544,1.000245748548682,169.82043589869104
6.272155648,1.0002194450972548,169.67369748111773
6.274442752,1.0001797543912636,169.52749890567185
6.276729344,1.0001290490011354,169.3819942806005
6.279016448,1.0000707333035586,169.23731249083974
6.281303552,1.0000082996529993,169.09353354035085
6.283590656,0.9999458474794449,168.95071775690192
6.28587776,0.9998872414724601,168.80885220221327
6.288164864,0.9998362682906461,168.66781026167072
6.290451456,0.9997960352937594,168.52747670021049
6.29273856,0.9997693923725695,168.3876457995266
6.295025664,0.9997577241442336,168.2481914535033
6.297312768,0.9997618633300858,168.10881294830526
6.299599872,0.9997818334253484,167.96931041538747
6.301886976,0.9998159159100978,167.82943760976823
6.304173568,0.9998623129976333,167.68905947638873
6.306460672,0.9999179073490578,167.54796091904245
6.308747776,0.9999793420345368,167.40605895186872
6.31103488,1.0000426965888098,167.26332248446644
6.313321984,1.000103905816118,167.11967942405911
6.315609088,1.0001590343914917,166.9752689035687
6.317896192,1.0002046126047388,166.83013782323374
6.320182784,1.0002378481562857,166.68450606813826
6.322469888,1.0002564735520103,166.53853019433933
6.324756992,1.0002595048456615,166.39244678728645
6.327044096,1.0002465215025202,166.24647922866214
6.3293312,1.000218481692592,166.10082065684932
6.331618304,1.0001770602451208,165.95573189934433
6.333904896,1.0001248650910757,165.81139217816357
6.336192,1.0000652739711406,165.6678715785875
6.338479104,1.0000019428451021,165.52528706560364
6.340766208,0.9999391445580679,165.38367199315593
6.343053312,0.9998803584472781,165.2429655156458
6.345340416,0.9998297205648378,165.10315570525887
6.347627008,0.9997903404172617,164.96400488133864
6.349914112,0.9997647279037968,164.825373269024
6.352201216,0.9997545743498145,164.68704016485052
6.35448832,0.9997604715181614,164.54879080058237
6.356775424,0.999781963709668,164.4103792183701
6.359062528,0.9998179035861767,164.27160772810007
6.36134912,0.9998658847982141,164.13230137770083
6.363636224,0.999922917857989,163.99225785800982
6.365923328,0.9999853811019446,163.85134395409676
6.368210432,1.0000493067984744,163.70959436590954
6.370497536,1.000110766920589,163.56696039094425
6.37278464,1.0001657398801254,163.42354249967303
6.375071232,1.0002107437249919,163.2794394407436
6.377358336,1.0002429603073941,163.13483104829174
6.37964544,1.0002603759290938,162.9898672441178
6.381932544,1.0002617543369916,162.844825279847
6.384219648,1.0002470267038304,162.69993005953714
6.386506752,1.0002172381387484,162.55538966031983
6.388793344,1.0001740187245443,162.4114133705631
6.391080448,1.0001203193484176,162.2682148701858
6.393367552,1.0000595473664298,162.12586627323793
6.395654656,0.9999952917970818,161.98448483805686
6.39794176,0.9999318666862795,161.84408172734248
6.400228864,0.9998732042074236,161.7045842147552
6.402515968,0.999823004629357,161.56592068890131
6.40480256,0.9997844739539956,161.4279793765457
6.407089664,0.99976014153369,161.2905231227422
6.409376768,0.9997514792908125,161.15335240031533
6.411663872,0.9997591063605249,161.01621667156104
6.413950976,0.9997823243735463,160.87892368853807
6.41623808,0.9998199747926814,160.74121670866705
6.418524672,0.9998695887494274,160.602955939572
6.420811776,0.9999280131459165,160.46392064018545
6.42309888,0.9999916166463527,160.32408272795897
6.425385984,1.0000562290230248,160.1833173695055
6.427673088,1.0001178566541211,160.0416931522559
6.429960192,1.000172694956297,159.89923508667178
6.432246784,1.0002169994254118,159.75612378269994
6.434533888,1.0002480256753956,159.6125158502832
6.436820992,1.000264076370082,159.4685965803157
6.439108096,1.0002637990135406,159.32461859884796
6.4413952,1.0002472812137841,159.1808021468396
6.443682304,1.0002155898316536,159.03736794764694
6.445968896,1.0001707583719917,158.89453035535402
6.448256,1.0001156266926956,158.75245600092714
6.450543104,1.000053536660987,158.61131047753705
6.452830208,0.9999883863932922,158.47110203514552
6.455117312,0.9999244403209615,158.3318899562516
6.457404416,0.9998658651951303,158.19359228902871
6.459691008,0.9998160667717634,158.0561483003394
6.461978112,0.9997786504456014,157.91936342007747
6.464265216,0.9997555290718712,157.7831245329807
6.46655232,0.9997483912550105,157.64705709182
6.468839424,0.9997577985035992,157.51107717562152
6.471126528,0.9997830180641708,157.37489043027819
6.473413632,0.9998225613632116,157.23826798393125
6.475700224,0.9998737173778774,157.10101086522118
6.477987328,0.9999335866715101,156.9630097567734
6.480274432,0.9999982012336295,156.8241605380348
6.482561536,1.0000634422373809,156.68438805969032
6.48484864,1.0001252299850802,156.54374019733655
6.487135744,1.0001796568986403,156.40229863941897
6.489422336,1.0002232100580875,156.2601829075247
6.49170944,1.000253253453078,156.11757986834374
6.493996544,1.0002677294722482,155.9746885258218
6.496283648,1.0002655588023082,155.83176075890694
6.498570752,1.0002473350346568,155.68900420409747
6.500857856,1.0002137849492285,155.54670442600712
6.503144448,1.0001671044738467,155.40499016332154
6.505431552,1.00011037140729,155.26408302989006
6.507718656,1.0000470453349055,155.12408966373724
6.51000576,0.9999811674442947,154.98506127510657
6.512292864,0.999916891350859,154.8470527470328
6.514579968,0.9998583792889488,154.70995932582747
6.51686656,0.9998092739570096,154.57370358730532
6.519153664,0.9997727373256912,154.43811889302302
6.521440768,0.9997509460275246,154.3029876825139
6.523727872,0.9997456631025141,154.16810761486408
6.526014976,0.9997567198710411,154.03324332241291
6.52830208,0.9997839574045111,153.89813951278526
6.530588672,0.999825343797378,153.76257814325987
6.532875776,0.9998782580448452,153.62635094553923
6.53516288,0.999939436593834,153.4893567778462
6.537449984,1.0000050871961608,153.35149423569644
6.539737088,1.0000709246905581,153.21272540828886
6.542024192,1.00013295975598,153.07305285841463
6.544310784,1.000186947646642,152.9325805852025
6.546597888,1.0002296714249197,152.7914504894626
6.548884992,1.0002583299021641,152.64985787716617
6.551172096,1.0002712620560223,152.50799288526284
6.5534592,1.0002675004202948,152.36610498395032
6.555746304,1.000247138849932,152.22441081312002
6.558033408,1.0002117015827925,152.08318711735004
6.56032,1.0001633444982678,151.94262399667656
6.562607104,1.000104907709459,151.80286514603594
6.564894208,1.0000404140475294,151.66404281226787
6.567181312,0.999973726624139,151.52618434203552
6.569468416,0.9999092468184719,151.38936929073918
6.57175552,0.9998507671419006,151.2534934072709
6.574042112,0.9998023825345149,151.11841081069196
6.576329216,0.9997667655183936,150.98398647731307
6.57861632,0.9997466595624395,150.85002573570264
6.580903424,0.9997429252489594,150.71627966560808
6.583190528,0.9997560290284524,150.58250925715473
6.585477632,0.9997851768429852,150.44849635524565
6.587764224,0.999828309017083,150.31398775887044
6.590051328,0.999883029332919,150.17880143454468
6.592338432,0.9999456620105737,150.04278180411814
6.594625536,1.0000122975515524,149.90592650551764
6.59691264,1.0000786086190159,149.76811625521023
6.599199744,1.0001406749936983,149.62941451816164
6.601486336,1.0001942460379663,149.48989349792927
6.60377344,1.000236062155851,149.34974032536428
6.606060544,1.0002634769077996,149.2091582378758
6.608347648,1.0002746259255033,149.0682774378294
6.610634752,1.0002688518490608,148.92744087395718
6.612921856,1.0002466563383934,148.78682980403838
6.615208448,1.000209226014592,148.6467027891231
6.617495552,1.0001589533660138,148.5072348829437
6.619782656,1.0000990518380881,148.36864062363534
6.62206976,1.000033338689545,148.23098643838398
6.624356864,0.9999659364191832,148.0943441690596
6.626643968,0.9999010710313493,147.95868733836852
6.628931072,0.999843005445615,147.82398889304352
6.631217664,0.9997952612359451,147.6901000152229
6.633504768,0.9997609093912551,147.556840211041
6.635791872,0.999742199823025,147.42405616364624
6.638078976,0.9997403643299949,147.29142333661892
6.64036608,0.9997555094424392,147.15872875043178
6.642653184,0.9997866373041733,147.0257660018881
6.644939776,0.999831768143807,146.8922861617238
6.64722688,0.9998880811754333,146.7581164477211
6.649513984,0.9999520925605594,146.6231055834778
6.651801088,1.0000197526188597,146.4871640349213
6.654088192,1.0000867150664823,146.35033174850005
6.656375296,1.0001485969247776,146.21257522288533
6.658661888,1.000201636877976,146.0740385741267
6.660948992,1.0002425129677976,145.934861065713
6.663236096,1.0002684674463624,145.79522766574559
6.6655232,1.0002778116505262,145.65535652684054
6.667810304,1.0002701398598424,145.5155416103835
6.670097408,1.0002458948746602,145.37599603531217
6.672384,1.0002064320094584,145.236962640479
6.674671104,1.0001543427439072,145.09862792214108
6.676958208,1.0000928707255814,144.96116568083724
6.679245312,1.0000259141035868,144.82466641172567
6.681532416,0.9999578184615184,144.68919136025616
6.68381952,0.9998927866209775,144.55474425052907
6.686106112,0.9998349884639687,144.42121634009553
6.688393216,0.9997880785328154,144.2885085431977
6.69068032,0.999755033197525,144.15639798201715
6.692967424,0.9997379418407574,144.02473040525558
6.695254528,0.9997380727783165,143.89319885762077
6.697541632,0.9997551518968227,143.76158687052526
6.699828224,0.9997883695897318,143.62968770315746
6.702115328,0.9998356190525163,143.4972250439627
6.704402432,0.9998935473145965,143.36403251576303
6.706689536,0.9999589384143414,143.23000212153875
6.70897664,1.0000275100923486,143.09503302741427
6.711263744,1.0000948972240715,142.95912044207807
6.713550848,1.0001566726815103,142.8223015431946
6.71583744,1.0002090606312242,142.68469121324944
6.718124544,1.0002488613968823,142.54647557616747
6.720411648,1.0002732369254246,142.4077872669226
6.722698752,1.0002809558008885,142.26895466281866
6.724985856,1.0002712582983257,142.13013861031249
6.72727296,1.0002447934016472,141.99165483699883
6.729559552,1.000203253858192,141.85369520270723
6.731846656,1.0001493462441404,141.7164868547472
6.73413376,1.0000862994580366,141.5801576138517
6.736420864,1.0000182696928888,141.4448018693109
6.738707968,0.999949435678848,141.31046994837044
6.740995072,0.9998842392626575,141.17720065835934
6.743281664,0.9998268062354506,141.04486707699306
6.745568768,0.9997808991613951,140.91329572558385
6.747855872,0.9997491483970122,140.782353354798
6.750142976,0.9997339148736432,140.65178833788548
6.75243008,0.9997359762151952,140.5213665226024
6.754717184,0.9997552072194308,140.3908228506945
6.757003776,0.9997905490069972,140.25991678518218
6.75929088,0.9998396905703751,140.1284745582253
6.761577984,0.9998995365711584,139.99625986905613
6.763865088,0.9999662469770776,139.86316229597145
6.766152192,1.0000357341680317,139.72911914287891
6.768439296,1.0001033692876236,139.59412379230864
6.770725888,1.0001650827615822,139.4582348389382
6.773012992,1.0002167945826055,139.3215715516675
6.775300096,1.000255342391985,139.1842566274523
6.7775872,1.000278193252538,139.0465607693414
6.779874304,1.000283904668729,138.90867857408904
6.782161408,1.000272081399612,138.77093520671042
6.784448512,1.0002435575397397,138.63344290662775
6.786735104,1.0001999301925084,138.4965729077894
6.789022208,1.0001440711081762,138.36043655938522
6.791309312,1.000079547633759,138.22522921492055
6.793596416,1.0000102865444611,138.09102615303937
6.79588352,0.9999409292638481,137.9579147870941
6.798170624,0.9998757001482607,137.82576132933767
6.800457216,0.9998187523726015,137.69457712326113
6.80274432,0.9997737241514535,137.564149731309
6.805031424,0.9997434487758234,137.4343310433139
6.807318528,0.9997299612468858,137.3048844084273
6.809605632,0.9997341168338368,137.17551883316918
6.811892736,0.9997555671444582,137.04603575491842
6.814179328,0.9997930153684652,136.9161465028729
6.816466432,0.999844173495166,136.78566997953172
6.818753536,0.9999057500545662,136.65438218518872
6.82104064,0.9999737805404617,136.52225423734723
6.823327744,1.0000441707374537,136.3891345955113
6.825614848,1.0001122049839988,136.25505152485974
6.82790144,1.0001736713144673,136.12003497872468
6.830188544,1.0002246084858348,135.98425961048034
6.832475648,1.0002617438379482,135.84789961621738
6.834762752,1.000282957929213,135.7111361225123
6.837049856,1.00028670778599,135.5742452397239
6.83933696,1.0002727029852325,135.43744609461407
6.841623552,1.0002417603219425,135.30102733237183
6.843910656,1.000196077626005,135.16521026966518
6.84619776,1.0001383209165828,135.03015472390445
6.848484864,1.000072266949526,134.8960487421842
6.850771968,1.0000020047725502,134.7630053264997
6.853059072,0.9999319592107302,134.63099497796347
6.855345664,0.9998668091081686,134.50001967638252
6.857632768,0.99981041236428,134.3699722382564
6.859919872,0.9997664503082829,134.2406772538287
6.862206976,0.9997377807534968,134.1119942276638
6.86449408,0.9997262025574742,133.98360179752734
6.866781184,0.9997324639739945,133.85531594224295
6.869068288,0.9997561683304792,133.72682830995674
6.87135488,0.9997959398903089,133.59796666403435
6.873641984,0.9998490954166684,133.4684376801756
6.875929088,0.9999123307318604,133.33810026296118
6.878216192,0.9999817568041431,133.20684439527213
6.880503296,1.0000527868125988,133.07462916609438
6.8827904,1.0001210627908688,132.94139478221229
6.885076992,1.0001822576009762,132.80730143765888
6.887364096,1.0002322959732992,132.67241331301528
6.8896512,1.0002681080627243,132.53695670364587
6.891938304,1.000287555028345,132.40110548209262
6.894225408,1.0002891461656815,132.26518156559476
6.896512512,1.000272926305024,132.12937764215144
6.898799104,1.000239714265846,131.99397347935442
6.901086208,1.0001919015999767,131.85918916189794
6.903373312,1.0001321992546053,131.7252279853268
6.905660416,1.0000646368295458,131.5922534735813
6.90794752,0.9999932347036504,131.46029840328558
6.910234624,0.9999227904674883,131.32945385920422
6.912521216,0.999857543267542,131.19959115879468
6.91480832,0.9998018742718482,131.07065932843142
6.917095424,0.9997591547861939,130.94251104862963
6.919382528,0.9997321853761132,130.8149037254638
6.921669632,0.9997226210953848,130.6875643777278
6.923956736,0.9997311433202184,130.56034714538671
