freq,mag,phase
6.0,1.0000431378040056,120.01601926780309
6.002286592,1.00000155221038,119.84406000179342
6.004572672,0.9999604742243738,119.67269566380442
6.006859264,0.9999219158106678,119.50193719243276
6.009145344,0.9998884543050423,119.33169442724027
6.011431936,0.999862134055039,119.16190640016998
6.013718016,0.9998445244152877,118.99244897910332
6.016004608,0.9998369113167445,118.82319520859012
6.018290688,0.9998396600884557,118.65397665819174
6.02057728,0.99985252753258,118.48466460015675
6.022863872,0.9998747564678752,118.31511582131857
6.025149952,0.9999051046167619,118.14519659847062
6.027436544,0.9999415189650445,117.97480565403245
6.029722624,0.9999816215806048,117.80387589108759
6.032009216,1.0000230540145476,117.632353857145
6.034295296,1.0000631159025124,117.46025657241353
6.036581888,1.000099419609842,117.28764169630364
6.03886848,1.0001294543219892,117.11453776208988
6.04115456,1.00015138183597,116.94107815659933
6.043441152,1.0001639607098203,116.76737495459595
6.045727232,1.0001662856317732,116.59358818046348
6.048013824,1.0001582579883352,116.41984373047526
6.050299904,1.0001403068861798,116.24631647299472
6.052586496,1.0001136480107067,116.07310716979678
6.054872576,1.0000798803041882,115.9003574390082
6.057159168,1.0000412284985545,115.72814645538037
6.05944576,0.9999999098334661,115.55652443837354
6.06173184,0.9999589314236518,115.38550440298377
6.064018432,0.9999205680367006,115.21509283317168
6.066304512,0.9998872094468495,115.04519100763281
6.068591104,0.9998610302205821,114.87574575478267
6.070877184,0.9998438349428603,114.70662519984944
6.073163776,0.9998364131836579,114.53772408599896
6.075450368,0.9998395569341527,114.3688275857266
6.077736448,0.9998528151020054,114.19982385964418
6.08002304,0.9998755302216764,114.03060477964625
6.08230912,0.999906125718559,113.86099042951369
6.084595712,0.9999427255279417,113.69092581452115
6.086881792,0.999983153755804,113.52028795189815
6.089168384,1.000024672108812,113.34908968936277
6.091454464,1.000064673480621,113.17729041076547
6.093741056,1.0001007947059164,113.00497551727403
6.096027648,1.0001306751139143,112.83218748197942
6.098313728,1.0001523722801138,112.65903458350824
6.10060032,1.000164568370105,112.4856508406193
6.1028864,1.0001665163431686,112.3121810557088
6.105172992,1.0001580902150382,112.13876165932687
6.107459072,1.0001398108483692,111.96555202511728
6.109745664,1.0001127293421843,111.79270081648701
6.112032256,1.0000787320857032,111.62028818592792
6.114318336,1.0000398407583684,111.44841788354911
6.116604928,0.9999984728265359,111.27714363634595
6.118891008,0.9999573720012777,111.10649510684799
6.1211776,0.9999189898568381,110.93641323546582
6.12346368,0.9998857923002257,110.76686983139243
6.125750272,0.9998599750272834,110.59777683717054
6.128036352,0.999842937477617,110.42901040063694
6.130322944,0.9998359914507743,110.26042999008295
6.132609536,0.9998395093965201,110.09186352862255
6.134895616,0.9998531346140979,109.92319868565792
6.137182208,0.9998761887037453,109.75430823301949
6.139468288,0.9999071449095015,109.58501527784243
6.14175488,0.9999440531954259,109.415241750116
6.14404096,0.9999846157986282,109.24492098113465
6.146327552,1.000026210012132,109.07403301331189
6.148614144,1.0000662629481591,108.90254255718455
6.150900224,1.0001023512099378,108.73052155491354
6.153186816,1.00013201834064,108.55805858571573
6.155472896,1.000153383548018,108.38520217505705
6.157759488,1.0001652720507175,108.2121351718624
6.160045568,1.0001668232541634,108.03900245054743
6.16233216,1.0001579525402804,107.86591363230534
6.16461824,1.0001392817035317,107.6930419934821
6.166904832,1.0001119428943044,107.52052450367289
6.169191424,1.0000776185750513,107.34845638198489
6.171477504,1.0000384005148877,107.1769443169312
6.173764096,0.9999969125498003,107.00601355885452
6.176050176,0.9999558058154218,106.83572096031621
6.178336768,0.9999174582570318,106.66601562267404
6.180622848,0.9998844809319936,106.49680710637591
6.18290944,0.9998588399764414,106.3280712774036
6.18519552,0.9998422598462273,106.1596383000597
6.187482112,0.9998356413032884,105.99139091354682
6.189768704,0.9998394607833022,105.82317182676364
6.192054784,0.9998536099541625,105.65486237206959
6.194341376,0.999876967611274,105.48626992051436
6.196627456,0.9999082399179224,105.31728590220523
6.198914048,0.999945467282618,105.14783810989798
6.201200128,0.999986221461751,104.9778286206203
6.20348672,1.0000278996184595,104.80724913420924
6.205773312,1.0000679512472928,104.6360870374906
6.208059392,1.000103776606568,104.46437102996268
6.210345984,1.000133246159446,104.29220736180935
6.212632064,1.0001543269231323,104.11968583954534
6.214918656,1.0001658983871657,103.94692554014226
6.217204736,1.000167123198402,103.77411685403982
6.219491328,1.0001578998155394,103.60137205784811
6.221777408,1.0001387660787218,103.4288302648908
6.224064,1.0001109502033525,103.25665721828716
6.226350592,1.000076385782946,103.08494570484582
6.228636672,1.0000369880697542,102.91377497970934
6.230923264,0.9999953718893764,102.74320587606243
6.233209344,0.9999541968957526,102.57325308589756
6.235495936,0.9999159463698656,102.40390385806035
6.237782016,0.9998830819402014,102.2350600801929
6.240068608,0.9998577324703061,102.06667766173243
6.2423552,0.9998413298666812,101.89860467013551
6.24464128,0.9998351958100619,101.73070141465334
6.246927872,0.9998394055430944,101.56281267084604
6.249213952,0.999853927008767,101.39481276031857
6.251500544,0.9998777729391549,101.22655582078596
6.253786624,0.9999094072233303,101.05790357484551
6.256073216,0.9999468336896381,100.88876994371807
6.258359296,0.9999877092228657,100.71906712592656
6.260645888,1.0000296060754885,100.5487858627418
6.26293248,1.0000696007495833,100.37792999339015
6.26521856,1.0001052612090056,100.20654222332357
6.267505152,1.0001345491664269,100.03469587202034
6.269791232,1.0001554211422399,99.86246616711851
6.272077824,1.0001666040746549,99.69006900025953
6.274363904,1.0001673592117266,99.5175458502216
6.276650496,1.0001577423763133,99.34513339240684
6.278937088,1.0001382763811133,99.17295200631092
6.281223168,1.000110138377269,99.00112838358753
6.28350976,1.0000751549203064,98.82975035191748
6.28579584,1.0000355181700646,98.65893822936218
6.288082432,0.9999937931685455,98.48873538308646
6.290368512,0.9999525834990804,98.3191348015853
6.292655104,0.9999143510992929,98.15014624864514
6.294941184,0.9998816775984765,97.98165862786017
6.297227776,0.9998566194720514,97.8136099940111
6.299514368,0.9998405876982571,97.64588971234586
6.301800448,0.9998348175500763,97.4783275796686
6.30408704,0.9998395092758613,97.31078619784834
6.30637312,0.9998543352597693,97.14312112005625
6.308659712,0.9998786275074081,96.97518298094015
6.310945792,0.9999105397770848,96.80684659962309
6.313232384,0.9999483390589005,96.6380284021209
6.315518464,0.999989475894204,96.46864649638954
6.317805056,1.000031243031961,96.29868193518683
6.320091648,1.0000713130807573,96.1281223329945
6.322377728,1.0001069001798908,95.95702939953188
6.32466432,1.0001359609558427,95.78548338429248
6.3269504,1.000156513184727,95.6136085293628
6.329236992,1.0001672935891173,95.44150772966567
6.331523072,1.0001676557269885,95.26934517643033
6.333809664,1.0001575974581998,95.09725969606095
6.336096256,1.0001377210343685,94.92541397409256
6.338382336,1.0001091739341168,94.75391740280615
6.340668928,1.0000738704792964,94.58288941949428
6.342955008,1.0000340933359746,94.41243238546063
6.3452416,0.9999922004496525,94.24258651001726
6.34752768,0.9999509157941124,94.07335831256923
6.349814272,0.9999129027602962,93.9047063568849
6.352100352,0.9998803469891216,93.73658343039952
6.354386944,0.9998555028172521,93.56888797922608
6.356673536,0.999839917119339,93.40150832935598
6.358959616,0.999834459323705,93.23428928390375
6.361246208,0.9998395617312413,93.06708515393315
6.363532288,0.9998549100701076,92.8997495978688
6.36581888,0.9998795015030956,92.73213270418759
6.36810496,0.9999117947131934,92.56411849413179
6.370391552,0.9999498049778123,92.39560305801128
6.372678144,0.9999911258540207,92.22653063981646
6.374964224,1.0000330218432978,92.05687061113176
6.377250816,1.0000730818532202,91.88662424980687
6.379536896,1.0001085128344676,91.7158588565355
6.381823488,1.0001373951615191,91.54462462973527
6.384109568,1.000157596384655,91.37305692151435
6.38639616,1.0001679636432994,91.20127490561016
6.38868224,1.0001678628215145,91.02942123008613
6.390968832,1.0001574724460256,90.85767076501651
6.393255424,1.0001370464217534,90.68616694781501
6.395541504,1.0001082324515203,90.5150139457657
6.397828096,1.0000726588188413,90.3443443591107
6.400114176,1.0000326386200113,90.17424492684336
6.402400768,0.999990585907706,90.00475355626341
6.404686848,0.9999492077575995,89.83585290762714
6.40697344,0.9999112110973528,89.6675652695521
6.409260032,0.9998790174350107,89.49980368252909
6.411546112,0.9998543560230108,89.33245861321258
6.413832704,0.9998390967498227,89.16542684139472
6.416118784,0.9998340742763009,88.99855257292742
6.418405376,0.99983956357357,88.83166829903772
6.420691456,0.9998553759045686,88.66465894351339
6.422978048,0.9998803488529472,88.49737423924492
6.425264128,0.9999130542352208,88.32966074704454
6.42755072,0.9999512629940576,88.16146678381395
6.429837312,0.999992714106265,87.99271217347157
6.432123392,1.0000347740009599,87.82336295943358
6.434409984,1.0000747256827538,87.65342706602179
6.436696064,1.0001101122703933,87.48295861718249
6.438982656,1.0001386258878076,87.3120330871202
6.441268736,1.0001585644580049,87.14076434278905
6.443555328,1.0001686447516371,86.9693024910698
6.44584192,1.0001680985628416,86.79778692857445
6.448128,1.0001571335719013,86.62636567407708
6.450414592,1.0001363967460999,86.45519326742155
6.452700672,1.0001071629052964,86.28436878961342
6.454987264,1.0000713250992332,86.11405761325919
6.457273344,1.0000309629211555,85.94429597890078
6.459559936,0.999988877394617,85.77515870490481
6.461846016,0.9999475505294309,85.60663686911913
6.464132608,0.9999095707683189,85.4386911824835
6.4664192,0.9998774748280946,85.2712842571674
6.46870528,0.9998532168311339,85.10429524036556
6.470991872,0.9998382921586817,84.93756912351789
6.473277952,0.9998336659138476,84.7710415540579
6.475564544,0.9998395935224974,84.60450638852721
6.477850624,0.9998558519888134,84.43781739198745
6.480137216,0.9998812112713672,84.27083897014519
6.482423296,0.999914236469722,84.10346425231522
6.484709888,0.9999528289552465,83.93556751140551
6.48699648,0.9999943999105425,83.76710385387669
6.48928256,1.0000365114304102,83.5980464430746
6.491569152,1.0000764413973744,83.42842157602657
6.493855232,1.0001116480300232,83.25825105038051
6.496141824,1.0001398917632518,83.08763698794934
6.498427904,1.0001595559520409,82.91668751889918
6.500714496,1.0001692328037064,82.74554056304297
6.503001088,1.0001682964078336,82.5743464100571
6.505287168,1.0001569613608199,82.40324176048408
6.50757376,1.000135809039049,82.23239929890099
6.50985984,1.0001061618677674,82.06191991054249
6.512146432,1.0000699217119724,81.89195430777707
6.514432512,1.000029349280823,81.72254824089399
6.516719104,0.9999871804528824,81.55374798825804
6.519005184,0.999945789305338,81.3855753468846
6.521291776,0.9999079700662556,81.21798579281223
6.523578368,0.9998760738246333,81.05092569450309
6.525864448,0.9998520703660507,80.88426760940914
6.52815104,0.9998375619356052,80.71789642736732
6.53043712,0.9998333097859606,80.55170457304392
6.532723712,0.9998396734129088,80.38548299691179
6.535009792,0.999856376112252,80.21912797413276
6.537296384,0.9998821661251124,80.05246577734525
6.539582976,0.999915532198727,79.88537783224474
6.541869056,0.9999544149993763,79.71779155398924
6.544155648,0.9999961465821405,79.54963854559064
6.546441728,1.0000383344433126,79.38088008125884
6.54872832,1.0000781957015987,79.21154097413506
6.5510144,1.0001132814970668,79.04166960816691
6.553300992,1.0001413900442024,78.87136165865056
6.555587072,1.000160609391573,78.70070956569143
6.557873664,1.000169849157764,78.52987603325604
6.560160256,1.0001684985036086,78.35899853981293
6.562446336,1.0001567063287273,78.18821486001417
6.564732928,1.0001350727143554,78.0177140958171
6.567019008,1.000105094539536,77.84756635701885
6.5693056,1.0000686047871805,77.67792672635736
6.57159168,1.0000277392171533,77.50886489977694
6.573878272,0.9999854736880905,77.34042106729278
6.576164864,0.999944039683536,77.17259196239267
6.578450944,0.9999063731700615,77.00533783276957
6.580737536,0.999874616455999,76.83862243771401
6.583023616,0.9998509975271237,76.67230321772948
6.585310208,0.9998367640180206,76.50627526440361
6.587596288,0.9998330011802794,76.34040557067249
6.58988288,0.9998397993258801,76.17451401976493
6.59216896,0.9998569355856344,76.0084586905619
6.594455552,0.9998832077469362,75.84210320819183
6.596742144,0.9999169084751826,75.67533346079222
6.599028224,0.9999559203912938,75.50803484807348
6.601314816,0.9999979599132831,75.34016000192786
6.603600896,1.000040152463112,75.17171006681686
6.605887488,1.0000800040969027,75.00266885149767
6.608173568,1.000114877412254,74.83308868928962
6.61046016,1.0001426824248183,74.66307132883726
6.612746752,1.0001616303506302,74.49273987982772
6.615032832,1.0001704703509706,74.32220219413007
6.617319424,1.0001686182440694,74.15162613981505
6.619605504,1.0001564124052729,73.98117360971428
6.621892096,1.0001343305061763,73.81098473183229
6.624178176,1.0001039690965035,73.6411819354439
6.626464768,1.0000671171090387,73.47185864950725
6.628750848,1.0000261433207254,73.30313769498711
6.63103744,0.9999836419556634,73.13503728059764
6.633324032,0.9999422728707379,72.9675411140989
6.635610112,0.9999046905902632,72.80063634581897
6.637896704,0.9998732238180686,72.63425771548127
6.640182784,0.9998497722415925,72.46827440334746
6.642469376,0.9998360063003572,72.30259160458778
6.644755456,0.9998326292360041,72.13702382911701
6.647042048,0.999840003979522,71.97145264069404
6.649328128,0.9998575326122741,71.80569096267583
6.65161472,0.9998841959980074,71.63965236704885
6.653901312,0.999918221930195,71.4731881310772
6.656187392,0.9999576309770907,71.3061780168294
6.658473984,0.9999997407425082,71.13859088901434
6.660760064,1.0000420097673628,70.97043438239224
6.663046656,1.0000818296085823,70.80167330607149
6.665332736,1.0001165656277633,70.63238944400985
6.667619328,1.0001440493626832,70.46265625066498
6.66990592,1.0001626372786612,70.29261114281982
6.672192,1.0001711095959138,70.12236887605779
6.674478592,1.000168898295791,69.95210654095315
6.676764672,1.0001561235671907,69.78196700829336
6.679051264,1.0001335858231066,69.61207193780797
6.681337344,1.000102823547859,69.44260191272264
6.683623936,1.0000656990750096,69.27362596100441
6.685910016,1.0000244682359911,69.1052489330636
6.688196608,0.9999819052338937,68.93746840350198
6.6904832,0.9999405565454601,68.77030807925084
6.69276928,0.9999030344215472,68.6037362925309
6.695055872,0.9998716786500975,68.43768926764014
6.697341952,0.9998486526723174,68.27203979079202
6.699628544,0.9998352497290277,68.10665248279794
6.701914624,0.9998323138074278,67.94140569863627
6.704201216,0.9998400991480071,67.7761381344989
6.706487808,0.9998581034240658,67.6107088177002
6.708773888,0.9998851698019234,67.44496389501845
6.71106048,0.9999195516147884,67.27875422627527
6.71334656,0.9999592707247813,67.11205294131065
6.715633152,1.0000015020884059,66.94474609839854
6.717919232,1.0000439246995203,66.77686159811982
6.720205824,1.000083671197328,66.60837699500262
6.722491904,1.0001182123340087,66.43936933360978
6.724778496,1.00014545703437,66.26991413261571
6.727065088,1.0001636933503233,66.10016081908208
6.729351168,1.0001716875207876,65.93022576227803
6.73163776,1.0001689773881308,65.76025622847855
6.73392384,1.0001557283184759,65.59040690242672
6.736210432,1.0001328768422781,65.42083863226758
6.738496512,1.0001016544631582,65.25170469581506
6.740783104,1.000064169540643,65.08303094847143
6.743069696,1.0000227544223406,64.91496964877386
6.745355776,0.9999801027173195,64.74752292671255
6.747642368,0.9999387232120068,64.58070107853709
6.749928448,0.9999012809886005,64.41446553884148
6.75221504,0.9998702638679725,64.24873079738803
6.75450112,0.9998474948919683,64.0833996907729
6.756787712,0.9998344902458464,63.9183290627291
6.759073792,0.9998320110499521,63.75339839231501
6.761360384,0.9998402676915393,63.588438871293405
6.763646976,0.9998587052324394,63.42328947216893
6.765933056,0.9998861729920594,63.25782995235916
6.768219648,0.9999210016528729,63.09191012102867
6.770505728,0.9999609129310706,62.925465441986596
6.77279232,1.0000033830194004,62.75845871261875
6.7750784,1.000045874653746,62.59083116168728
6.777364992,1.0000854602277418,62.42261811932275
6.779651584,1.000119863233856,62.25387658938899
6.781937664,1.0001468046102975,62.08470476723107
6.784224256,1.0001646334497398,61.91523842250038
6.786510336,1.000172285702365,61.74558263981356
6.788796928,1.0001691067525726,61.57590366348626
6.791083008,1.0001554440660732,61.4063724380405
6.7933696,1.0001320444766904,61.2371076243792
6.79565568,1.000100441073546,61.06825020980778
6.797942272,1.0000626791324152,60.8999145940483
6.800228864,1.0000210529787796,60.732160777039525
6.802514944,0.9999781760227123,60.56503753889059
6.804801536,0.9999368560755656,60.39853336273707
6.807087616,0.9998995635336598,60.232617652884606
6.809374208,0.9998688089664414,60.06718966745914
6.811660288,0.9998463740461854,59.902176753930824
6.81394688,0.9998337273862034,59.73743121501398
6.81623296,0.9998317570340607,59.57279170943491
6.818519552,0.9998404612364865,59.40811979616197
6.820806144,0.9998593847492913,59.24325664242466
6.823092224,0.9998872668516837,59.07807011638528
6.825378816,0.9999224851157313,58.91243777109115
6.827664896,0.9999626327305611,58.74625988608495
6.829951488,1.000005230648277,58.57951593765263
6.832237568,1.000047741758058,58.41213742703689
6.83452416,1.000087308101741,58.24421494219737
6.836810752,1.0001215180449752,58.07571688948397
6.839096832,1.0001481881901433,57.90682756018415
6.841383424,1.0001656802028847,57.737625610018426
6.843669504,1.000172842820414,57.56825137263548
6.845956096,1.000169212332863,57.39886252892909
6.848242176,1.0001550799771537,57.22959676396131
6.850528768,1.000131148991619,57.06064088918266
6.852814848,1.0000992230740262,56.89208211473207
6.85510144,1.00006114511745,56.724072346113125
6.857388032,1.0000192438833424,56.556608378087766
6.859674112,0.9999763141426355,56.38979655213517
6.861960704,0.9999349341562324,56.22361439027477
6.864246784,0.9998978048531326,56.05801276723003
6.866533376,0.9998672791097377,55.89290158162496
6.868819456,0.9998451328572111,55.72819383649497
6.871106048,0.9998329463428848,55.563724908652674
6.87339264,0.9998314261785525,55.399382497253924
6.87567872,0.9998406624715187,55.23498775691442
6.877965312,0.9998600160600992,55.070418767167936
6.880251392,0.9998883520653867,54.905494670857955
6.882537984,0.999923880908011,54.74013135810004
6.884824064,0.9999643027668706,54.57420946599449
6.887110656,1.0000071191503026,54.407708152070846
6.889396736,1.000049669929612,54.24060644762307
6.891683328,1.0000891164254366,54.07290771123016
6.89396992,1.0001231524381997,53.90469900328351
6.896256,1.0001494861183124,53.73604594849221
6.898542592,1.0001666363541633,53.567115333354565
6.900828672,1.0001733551875953,53.397994965686664
6.903115264,1.000169166187468,53.228882330153745
6.905401344,1.000154530611921,53.059905669650156
6.907687936,1.000130307990658,52.89124623783587
6.909974528,1.0000979061118145,52.72297413619581
6.912260608,1.0000595355942548,52.55525654870627
6.9145472,1.0000174181631956,52.38811333063669
6.91683328,0.9999743685044737,52.2216053500738
6.919119872,0.9999330599856885,52.05571600746992
6.921405952,0.9998960454003571,51.890411902527404
6.923692544,0.9998658030379319,51.72560109151358
6.925978624,0.9998440474469776,51.56118383735544
6.928265216,0.9998322055329409,51.3970124696423
6.930551808,0.9998311377174397,51.23296099394805
6.932837888,0.9998407866901895,51.06882958032916
6.93512448,0.9998606468952741,50.90452325337564
