freq,mag,phase
6.0,1.0001702540322839,-4.201823556436302
6.012157952,0.9999002920066036,-4.593953525914687
6.024315904,0.9996358155016688,-4.98279686929185
6.036474368,0.9993886803518097,-5.368550258026477
6.04863232,0.9991707053489063,-5.751449461954011
6.060790272,0.9989922666609327,-6.131965639522727
6.072948224,0.9988619911468972,-6.510675116221854
6.085106176,0.9987863472720686,-6.888153418569372
6.09726464,0.9987687761788419,-7.265155991223251
6.109422592,0.9988104776402831,-7.6424266963435254
6.121580544,0.9989091292299039,-8.020721756595865
6.133738496,0.9990602948285554,-8.400657619980134
6.145896448,0.9992568782580462,-8.78292199097097
6.158054912,0.9994893629997499,-9.167983791377967
6.170212864,0.9997467736079597,-9.55626284083011
6.182370816,1.00001669512432,-9.948010464530505
6.194528768,1.0002863571612821,-10.343266868551456
6.20668672,1.0005429314245253,-10.741918860799608
6.218845184,1.000773811255876,-11.143828550373634
6.231003136,1.0009682985984838,-11.54847725994332
6.243161088,1.001116929277483,-11.955405968728828
6.25531904,1.0012126052753405,-12.364023226181056
6.267476992,1.0012507073097698,-12.773605306373877
6.279635456,1.0012295012007313,-13.183411812291
6.291793408,1.0011495952010758,-13.592786312982868
6.30395136,1.0010148836945192,-14.000833898089228
6.316109312,1.0008318238054539,-14.40709409911872
6.328267264,1.0006089180899154,-14.81092329295202
6.340425728,1.000356857900951,-15.211841748992697
6.35258368,1.000087498496669,-15.609651915570847
6.364741632,0.9998138459159472,-16.004174912111125
6.376899584,0.9995489738710973,-16.395360650471144
6.389057536,0.9993052974876072,-16.783512836973653
6.401216,0.999094683675374,-17.168924358298742
6.413373952,0.9989273571900636,-17.552043761638856
6.425531904,0.998811285841898,-17.933486554451733
6.437689856,0.9987520661207788,-18.31392671551948
6.449847808,0.9987526764531408,-18.694117544982728
6.462006272,0.9988131889653848,-19.07482000225327
6.474164224,0.9989306070937571,-19.456780731433323
6.486322176,0.9990996031933976,-19.840624364803773
6.498480128,0.9993119921984857,-20.227004400507795
6.51063808,0.9995577628235119,-20.61641363296398
6.522796544,0.9998251061944937,-21.009187418735394
6.534954496,1.0001013293613734,-21.405505464346653
6.547112448,1.0003731905975375,-21.805373454190065
6.5592704,1.0006277830663313,-22.208701254917003
6.571428352,1.0008527922178345,-22.615178706062753
6.583586816,1.0010376218508086,-23.024359026401434
6.595744768,1.0011734169603403,-23.435671159353806
6.60790272,1.0012534266358992,-23.848499775747968
6.620060672,1.001274152790428,-24.262106903123115
6.632218624,1.0012340801900594,-24.67573834217229
6.644377088,1.0011353443397626,-25.088615117502105
6.65653504,1.0009824967149825,-25.500024506000088
6.668692992,1.0007827084660788,-25.909387675600893
6.680850944,1.0005453498452723,-26.31612549267053
6.693008896,1.0002819028881031,-26.719893429986097
6.70516736,1.000004787995858,-27.12037655841071
6.717325312,0.9997271300696187,-27.517443941822922
6.729483264,0.9994623461470761,-27.91127990492975
6.741641216,0.999222970080934,-28.30203642499865
6.753799168,0.9990204786200243,-28.690124783956612
6.765957632,0.9988648508892549,-29.076100319588377
6.778115584,0.9987633916950318,-29.46056522173043
6.790273536,0.9987210356222369,-29.844235727812602
6.802431488,0.9987399819256159,-30.22787010951591
6.81458944,0.9988194625227308,-30.61224881137525
6.826747904,0.998955557233723,-30.99812111578529
6.838905856,0.999141997784127,-31.386104457338696
6.851063808,0.9993698643878101,-31.776882216443504
6.86322176,0.9996283440105819,-32.17087645369252
6.875379712,0.9999050022167777,-32.56830976713591
6.887538176,1.000186734376785,-32.969442149706225
6.899696128,1.0004602022558176,-33.37419332318781
6.91185408,1.0007120546077843,-33.782353487397216
6.924012032,1.0009306615597497,-34.19361616223982
6.936169984,1.00110510633149,-34.60753330015356
6.948328448,1.0012274191305264,-35.0234370720332
6.9604864,1.001291652227542,-35.440624272192764
6.972644352,1.0012944236508472,-35.85842031618475
6.984802304,1.0012356201326582,-36.275979121011474
6.996960256,1.0011180181819976,-36.69258035594519
7.00911872,1.0009471082311288,-37.10753528011076
7.021276672,1.0007310454279992,-37.52023096433262
7.033434624,1.0004798719864425,-37.930057594297764
7.045592576,1.0002054899127821,-38.336797798370434
7.057750528,0.999921202847626,-38.740108574542546
7.069908992,0.9996402155251006,-39.14003467203672
7.082066944,0.9993762688987343,-39.53662332558295
7.094224896,0.9991417754144112,-39.93025870489419
7.106382848,0.9989480826495328,-40.32129930506073
7.1185408,0.998804711386881,-40.7102978172484
7.130699264,0.9987182215855595,-41.098026783457094
7.142857216,0.9986929864656119,-41.48515968504043
7.155015168,0.9987305302276206,-41.87246699851002
7.16717312,0.9988289978290907,-42.26076912424235
7.179331072,0.9989836173154513,-42.65081316962318
7.191489536,0.9991870892784392,-43.04326501963573
7.203647488,0.9994300040805467,-43.43862821657082
7.21580544,0.9997005298828482,-43.83738369191857
7.227963392,0.9999860911775705,-44.23979106828719
7.240121344,1.0002727241661724,-44.64591023903663
7.252279808,1.000547016407096,-45.055723273267354
7.26443776,1.0007956899692079,-45.46896523031864
7.276595712,1.00100710736462,-45.88522212522428
7.288753664,1.0011707751924679,-46.30400558746513
7.300911616,1.001279216223643,-46.72465302417946
7.31307008,1.0013270488209989,-47.14639033791922
7.325228032,1.0013117794519364,-47.568525009969726
7.337385984,1.0012341966917095,-47.99021834519685
7.349543936,1.0010978138932327,-48.41076437766465
7.361701888,1.000909179590874,-48.82937691328964
7.373860352,1.000676884676305,-49.24552761518881
7.386018304,1.0004121934602082,-49.658699533900666
7.398176256,1.000127610714451,-50.06856570724162
7.410334208,0.9998364729216718,-50.474943710856934
7.42249216,0.9995529918312865,-50.87785787646901
7.434650624,0.9992904172196113,-51.27746067685764
7.446808576,0.9990613367523992,-51.67414091417949
7.458966528,0.9988770840965581,-52.06830195679923
7.47112448,0.9987462010169261,-52.46065423060014
7.483282432,0.9986751466718107,-52.85180191140558
7.495440896,0.9986675087283285,-53.24261715944498
7.507598848,0.9987235838249208,-53.633881361454506
7.5197568,0.9988408702545657,-54.02636487997676
7.531914752,0.9990139603597666,-54.42081139672965
7.544072704,0.9992345214311688,-54.8178848742915
7.556231168,0.9994920818384911,-55.21811303386891
7.56838912,0.999774385146607,-55.62186785467128
7.580547072,1.000068200568287,-56.02940902479122
7.592705024,1.0003592296334833,-56.4407589063377
7.604862976,1.000633790170055,-56.85581931796138
7.61702144,1.0008786530855882,-57.27432753928848
7.629179392,1.0010823952734313,-57.69576784292625
7.641337344,1.0012349067181119,-58.119629924331534
7.653495296,1.0013289890260546,-58.54519027128289
7.665653248,1.0013601310886178,-58.97169809879804
7.677811712,1.001326775066239,-59.39832723241325
7.689969664,1.0012303619933511,-59.82436949127736
7.702127616,1.0010751566827212,-60.24892251961693
7.714285568,1.0008688490782698,-60.67140118556532
7.72644352,1.0006207821602155,-61.09120590598394
7.738601984,1.000342869298253,-61.50783663140992
7.750759936,1.0000483036728678,-61.921041169847214
7.762917888,0.9997511603252063,-62.33066868520735
7.77507584,0.9994652844364539,-62.73678520808743
7.787233792,0.9992047607834467,-63.139592372780214
7.799392256,0.9989817259068697,-63.53950580401005
7.811550208,0.9988071359329609,-63.93703088861114
7.82370816,0.9986892595904612,-64.33284951800704
7.835866112,0.9986341055115515,-64.72772273593992
7.848024064,0.9986440977383733,-65.1224700060308
7.860182528,0.9987189824615208,-65.51783358517001
7.87234048,0.9988551749883514,-65.91473779299889
7.884498432,0.9990466613227519,-66.3138093867923
7.896656384,0.9992839665551193,-66.71573008379606
7.908814336,0.9995560364882278,-67.12101940868162
7.9209728,0.9998498525682138,-67.52998002262885
7.933130752,1.000151277327955,-67.94290044418366
7.945288704,1.000446365442166,-68.35971901856443
7.957446656,1.0007208039972397,-68.78021512106992
7.969604608,1.000961538541759,-69.20415245887298
7.981763072,1.0011569755636545,-69.63097768577893
7.993921024,1.0012978573250964,-70.06006539999291
8.006078976,1.0013774100090858,-70.4907406123775
8.018236928,1.0013917281497005,-70.92216043550837
8.030395392,1.0013398801479183,-71.35349323094655
8.042553344,1.0012244521048086,-71.78395906017303
8.054711296,1.0010506603704907,-72.21278451890416
8.066869248,1.0008265751073515,-72.63930554278612
8.0790272,1.000563072617326,-73.06289073601076
8.091185664,1.0002722125754184,-73.48317048129913
8.103343616,0.999968094807564,-73.89990010575865
8.115501568,0.9996649977491203,-74.31292458821541
8.12765952,0.9993773335303717,-74.72243554777113
8.139817472,0.9991192240215162,-75.12861895952291
8.151975936,0.9989025276229114,-75.5319448459913
8.164133888,0.9987380487790635,-75.93306307645243
8.17629184,0.9986336346705476,-76.33260093042908
8.188449792,0.9985943798106838,-76.73135480950653
8.200607744,0.9986222350711317,-77.13020502126932
8.212766208,0.9987160313145316,-77.5299394171816
8.22492416,0.9988713375310139,-77.931414076286
8.237082112,0.9990810155680578,-78.33533364036589
8.249240064,0.9993349451448099,-78.74234554691249
8.261398016,0.9996212413363016,-79.15287234444226
8.27355648,0.9999262736296222,-79.56729321987032
8.285714432,1.0002355333475095,-79.98573633671018
8.297872384,1.0005341331628823,-80.40816442105941
8.310030336,1.0008080407611655,-80.83434835196653
8.322188288,1.0010441005265103,-81.26389775342089
8.334346752,1.0012311588691478,-81.69626827005618
8.346504704,1.0013600471298032,-82.13081668460407
8.358662656,1.0014247470052342,-82.56672564773412
8.370820608,1.0014219358251677,-83.00317730820113
8.38297856,1.0013516097496844,-83.43939095610948
8.395137024,1.001217108336515,-83.8744852975541
8.407294976,1.0010245286963844,-84.30773459147808
8.419452928,1.0007829651530284,-84.73840577770656
8.43161088,1.0005038209356332,-85.16597710433047
8.443768832,1.0002002115485478,-85.5900651221045
8.455927296,0.9998866358783193,-86.0104798420146
8.468085248,0.9995779901257819,-86.4271000164991
8.4802432,0.9992889424578212,-86.84014410621036
8.492401152,0.9990333827647351,-87.249881654298
8.504559104,0.9988234025244536,-87.65686293762354
8.516717568,0.9986693797331302,-88.061675247124
8.52887552,0.9985785581645361,-88.46510449821227
8.541033472,0.998555467593681,-88.86797216546411
8.553191424,0.9986014716145869,-89.27113308201184
8.565349376,0.9987142594552708,-89.67542489128682
8.57750784,0.9988887921165759,-90.08167079375642
8.589665792,0.9991167477275357,-90.49059919379165
8.601823232,0.9993874177943491,-90.9028412109177
8.613982208,0.9996879057047371,-91.31883243611615
8.62614016,1.0000039295602023,-91.73887674251353
8.638298112,1.0003205046265145,-92.16304894300423
8.650456064,1.000622607432784,-92.59124978523946
8.662614016,1.0008959134725575,-93.02329783628386
8.674771968,1.0011271753624975,-93.45861300499968
8.68692992,1.001305431699787,-93.89671097582239
8.699087872,1.001422189250936,-94.33684678587527
8.711245824,1.001471704685224,-94.77820735706551
8.723403776,1.0014516409989196,-95.21993858607429
8.735562752,1.001362586646209,-95.66115562194757
8.747720704,1.001208750840063,-96.10103080950165
8.759878656,1.0009972582298443,-96.53880159592583
8.772036608,1.000738114466629,-96.97383611414904
8.78419456,1.0004434574727257,-97.40554539574988
8.796352512,1.000127140450916,-97.83358895403533
8.808510464,0.9998041926629337,-98.25780361554439
8.820668416,0.9994900971917461,-98.6781774895355
8.832826368,0.9991996568831207,-99.09490266582095
8.84498432,0.9989468743393094,-99.50839293447142
8.857143296,0.9987438043584425,-99.9191403658996
8.869301248,0.9986003348599373,-100.3278443188357
8.8814592,0.9985233735295698,-100.73533248796555
8.893617152,0.9985168273372316,-101.1424313743149
8.905775104,0.9985809826739855,-101.55003719094795
8.917933056,0.9987131602757862,-101.95904049657508
8.930091008,0.9989068846546664,-102.3702585809372
8.94224896,0.9991533329342639,-102.78440294237585
8.954406912,0.9994407261674827,-103.20205586430988
8.966564864,0.9997555193049009,-103.62367277445598
8.97872384,1.0000826634225417,-104.04949654266008
8.990881792,1.0004066516246766,-104.47956546787987
9.003039744,1.0007121770565095,-104.91378095479195
9.015197696,1.0009846042940358,-105.35178227936461
9.027355648,1.001210913012411,-105.79309964008223
9.0395136,1.001380389289347,-106.2370721895974
9.051671552,1.001484729677542,-106.68296148425266
9.063829504,1.0015189788054801,-107.12991182894588
9.075987456,1.0014813419213628,-107.5770259967403
9.088145408,1.00137343527434,-108.02341809541947
9.100304384,1.0012000858366956,-108.46824469346703
9.112462336,1.000969548969317,-108.91073806557371
9.124620288,1.0006925383551444,-109.35022572542725
9.13677824,1.0003820765131022,-109.78621988428739
9.148936192,1.0000529356730465,-110.21838341783175
9.161094144,0.9997205688836562,-110.64657931566668
9.173252096,0.9994009223440196,-111.07081128340762
9.185410048,0.9991090156309328,-111.49138453814679
9.197568,0.9988591467659221,-111.90871699929146
9.209725952,0.9986630238761832,-112.3233669564424
9.221884928,0.9985302997709414,-112.73611731305564
9.23404288,0.9984673711321622,-113.14778244265233
9.246200832,0.9984774290635264,-113.55927015576411
9.258358784,0.9985602286649288,-113.9715001193825
9.270516736,0.99871179467099,-114.3853473509659
9.282674688,0.9989251840864376,-114.80164973320379
9.29483264,0.999190377684357,-115.22113923540147
9.306990592,0.9994947712320704,-115.6443728854037
9.319148544,0.9998240115308042,-116.07174104704949
9.331306496,1.000162526769581,-116.50351496892854
9.343465472,1.000494169100474,-116.93965327586966
9.355623424,1.0008031290122248,-117.38000368425323
9.367781376,1.0010748770332736,-117.82416602700833
9.379939328,1.0012962456107266,-118.27161188598323
9.39209728,1.001456770776134,-118.72162678645024
9.404255232,1.0015487297663717,-119.1734134356132
9.416413184,1.001567387800993,-119.62610985914692
9.428571136,1.001511978115941,-120.07877497443204
9.440729088,1.001384815941297,-120.53047953747055
9.45288704,1.0011916806595789,-120.98040642581348
9.465046016,1.000941715459088,-121.42774621622901
9.477203968,1.0006465221254515,-121.87185619693027
9.48936192,1.0003199658701625,-122.3122702166408
9.501519872,0.99997755882893,-122.74865236112782
9.513677824,0.9996355473913675,-123.18092969874759
9.525835776,0.9993100257646669,-123.60918056672257
9.537993728,0.9990165727769935,-124.03371177111899
9.55015168,0.998769360979062,-124.45497321561477
9.562309632,0.9985802184291213,-124.87367381952028
9.574467584,0.9984582179362956,-125.29055066323104
9.58662656,0.9984094677509987,-125.70651494083786
9.598784512,0.9984364382356405,-126.12249194195253
9.610942464,0.9985379712674277,-126.53944556425054
9.623100416,0.9987094359390867,-126.95826459831022
9.635258368,0.9989428324194005,-127.37979794661915
9.64741632,0.9992272129676304,-127.80473838724696
9.659574272,0.9995491257421804,-128.23369635800447
9.671732224,0.9998933265285637,-128.66696548332075
9.683890176,1.0002435588311334,-129.1048249895955
9.696048128,1.0005830969383884,-129.54715796422406
9.708207104,1.0008959770495829,-129.9937692074509
9.720365056,1.0011671574151972,-130.4442522787455
9.732523008,1.0013838363802836,-130.8979555662315
9.74468096,1.0015355010662927,-131.35418375006003
9.756838912,1.0016148002854433,-131.81207195386003
9.768996864,1.001617901809713,-132.27064916075554
9.781154816,1.001544456789945,-132.72900285269483
9.793312768,1.0013976737246886,-133.18620221712405
9.80547072,1.0011843260309745,-133.6413442516955
9.817628672,1.0009144114089688,-134.09365035190024
9.829787648,1.0006005210643567,-134.54253758648468
9.8419456,1.0002572290846636,-134.98745332177475
9.854103552,0.9999011272023751,-135.42818718045655
9.866261504,0.9995487347604447,-135.86464710418278
9.878419456,0.9992169784844336,-136.29699032241945
9.890577408,0.99892160456366,-136.7255612567084
9.90273536,0.9986767957549897,-137.1508864174427
9.914893312,0.9984944109198255,-137.57368318523876
9.927051264,0.9983832463388437,-137.99479757536963
9.939209216,0.9983488606847835,-138.41512451738834
9.951368192,0.9983928399813531,-138.8356805808466
9.963526144,0.9985136100328589,-139.25742706190331
9.975684096,0.9987054514515352,-139.68131979434256
9.987842048,0.9989594898244691,-140.10816473614128
10.0,0.9992636794326214,-140.53869505670755
10.012157952,0.9996037894102837,-140.9734460036428
10.024315904,0.9999636566454853,-141.41276068782642
10.036473856,1.0003263048137385,-141.85680401594863
10.048631808,1.0006744466779482,-142.30548580164344
10.060790784,1.0009917102715769,-142.75853711117654
10.072948736,1.0012628817673335,-143.21545733450833
10.085106688,1.0014749820333795,-143.67559888290094
10.09726464,1.0016179483910355,-144.1381742955212
10.109422592,1.001684555166051,-144.60227564433976
10.121580544,1.0016719127167237,-145.06692674723777
10.133738496,1.0015799736652575,-145.5311312526694
10.145896448,1.0014130979532854,-145.9939133471763
10.1580544,1.001178884870187,-146.45443311779928
10.170212352,1.0008882388638511,-146.91186260803454
10.182371328,1.0005547587785069,-147.36557316493986
10.19452928,1.0001940057052583,-147.81514563691468
10.206687232,0.9998231721806593,-148.2603208117388
10.218845184,0.999459665424904,-148.70106273339138
10.231003136,0.9991209639160872,-149.13756863514945
10.243161088,0.9988230197576089,-149.5702462050968
10.25531904,0.9985802223194185,-149.9996743696988
10.267476992,0.998404324197732,-150.4266237294734
10.279634944,0.9983038193090653,-150.85201324593646
10.291792896,0.9982837780548928,-151.27678812956754
10.303951872,0.9983452986976663,-151.70196581134067
10.316109824,0.9984857175759014,-152.1285754819781
10.328267776,0.9986986963807143,-152.55758336548226
10.340425728,0.9989741074307523,-152.9897966148417
10.35258368,0.999299107223518,-153.425974363803
10.364741632,0.9996583635278329,-153.866641591156
10.376899584,1.0000349280345089,-154.31209954752086
10.389057536,1.0004110021310495,-154.7624631828406
10.401215488,1.0007686851591089,-155.21759574303152
10.41337344,1.0010910601725973,-155.67721449884425
10.425532416,1.0013627855925094,-156.1407302708562
10.437690368,1.0015708331450592,-156.60747670237689
10.44984832,1.0017052106070112,-157.07654449757786
10.462006272,1.0017593195355086,-157.54701923475974
10.474164224,1.0017304847301562,-158.01788561690088
10.486322176,1.0016196921377112,-158.4880989304384
10.498480128,1.0014319824466504,-158.9566553205894
10.51063808,1.0011760615467633,-159.42266466519294
10.522796032,1.000863597236476,-159.88532610907748
10.534953984,1.0005094105815333,-160.34404426909774
10.54711296,1.000130055399623,-160.79832893991656
10.559270912,0.9997433298875082,-161.24802728900576
10.571428864,0.9993676582166114,-161.69312389469712
10.583586816,0.9990209049364143,-162.13384757445704
10.595744768,0.9987195708336525,-162.5706812933119
10.60790272,0.9984781011824856,-163.0042598359869
10.620060672,0.9983082733278261,-163.43539312556803
10.632218624,0.9982182411480133,-163.86506350672428
10.644376576,0.9982128253730069,-164.29427119590625
10.656534528,0.9982922482714788,-164.72411520511596
10.668693504,0.998453110438318,-165.15560616550445
10.680851456,0.9986880338944149,-165.5897692872016
10.693009408,0.9989859699772459,-166.02742986396768
10.70516736,0.9993329324175958,-166.4693383460684
10.717325312,0.9997127645995385,-166.91597706794812
10.729483264,1.0001074217598322,-167.36765123947464
10.741641216,1.0004982205204724,-167.82443744881755
10.753799168,1.000866752807939,-168.28619088549337
10.76595712,1.0011953332537724,-168.75250885060328
10.778115072,1.00146856399743,-169.22280156176396
10.790274048,1.0016731564874248,-169.6962758055294
10.802432,1.00179928758088,-170.1720461992764
10.814589952,1.0018408067823286,-170.64908751325177
10.826747904,1.0017954937730191,-171.1263531432907
10.838905856,1.001665152025505,-171.6027186382725
