freq,mag,phase
6.0,0.9992100123359282,-11.707315600903929
6.002287616,0.9991253496158491,-11.779097139841982
6.004575232,0.9990965146748192,-11.850040459398926
6.006862848,0.9991253308613836,-11.921024502209288
6.009150464,0.9992098062259775,-11.992847539452928
6.011438592,0.9993445730102763,-12.066266323184786
6.013726208,0.9995208702281039,-12.14199283028122
6.016013824,0.9997275637334042,-12.22052981803961
6.01830144,0.9999514296323697,-12.302219783723329
6.020589056,1.0001780517160272,-12.387198067403464
6.022876672,1.0003931115257263,-12.475449907738763
6.025164288,1.0005826415366588,-12.566661556688318
6.027451904,1.0007346137789006,-12.66037207742694
6.029740032,1.0008395206736858,-12.755940438219586
6.032027648,1.0008903070584685,-12.852719001438066
6.034315264,1.000883821120026,-12.949805398459125
6.03660288,1.0008206863057254,-13.046381162297763
6.038890496,1.0007046732227671,-13.14167242673519
6.041178112,1.0005434216474438,-13.234927892977572
6.043465728,1.000346692559792,-13.325644047653595
6.045753344,1.0001276872465006,-13.413312555256297
6.04804096,0.9999000828702154,-13.497778496884806
6.050329088,0.9996782933834305,-13.57891289929253
6.052616704,0.9994768353760607,-13.65698312266143
6.05490432,0.9993083805447933,-13.73237289616227
6.057191936,0.9991836467212417,-13.805641422054313
6.059479552,0.9991108617679016,-13.877438831328961
6.061767168,0.9990948054866785,-13.948638736740595
6.064054784,0.9991362226641951,-14.01997354963198
6.0663424,0.99923258694561,-14.092410146753716
6.068630016,0.9993778816447804,-14.166577821811652
6.070918144,0.9995625613432306,-14.243171385223423
6.07320576,0.9997748392168859,-14.322700120058517
6.075493376,1.0000013780576795,-14.405427411313676
6.077780992,1.0002275409900248,-14.491501864947942
6.080068608,1.0004387825290262,-14.580752348471977
6.082356224,1.0006218054107292,-14.672897434990713
6.08464384,1.0007646815297198,-14.767454978429447
6.086931456,1.00085835564788,-14.863727295026983
6.089219584,1.00089699930941,-14.961002240730183
6.0915072,1.0008778928846986,-15.058422363216948
6.093794816,1.0008025177889537,-15.155179535511216
6.096082432,1.0006754377773062,-15.250457519986764
6.098370048,1.0005047668138074,-15.343566096819798
6.100657664,1.0003014108971238,-15.434008266301685
6.10294528,1.0000784661348838,-15.521310265711225
6.105232896,0.9998499220254419,-15.605362673778297
6.107520512,0.9996306865074812,-15.686112504169978
6.10980864,0.9994347574131343,-15.763907317378726
6.112096256,0.9992743422948499,-15.839033652034281
6.114383872,0.9991600977653264,-15.912204341458482
6.116671488,0.999099154497393,-15.984117876251055
6.118959104,0.9990956966608707,-16.055551208111726
6.12124672,0.9991497654756863,-16.12736795748188
6.123534336,0.9992578397094254,-16.200387132136484
6.125821952,0.9994129923099276,-16.27534219011019
6.128109568,0.999605569115039,-16.352858112772562
6.130397696,0.9998231058143452,-16.43338964548997
6.132685312,1.0000516489669506,-16.517144835052648
6.134972928,1.0002764964770534,-16.604245950337116
6.137260544,1.0004834923950703,-16.694563636988843
6.13954816,1.0006591816376866,-16.78765887379271
6.141835776,1.0007926195745933,-16.88300419243858
6.144123392,1.0008749403139585,-16.979939965496175
6.146411008,1.0009011210352896,-17.077704382339235
6.148699136,1.0008694859764207,-17.1754236613304
6.150986752,1.0007819385484085,-17.272282374438575
6.153274368,1.0006439356618113,-17.367571938170215
6.155561984,1.0004645638023495,-17.460494343234767
6.1578496,1.000254969986486,-17.55060205392515
6.160137216,1.0000286495664281,-17.637569220013155
6.162424832,0.9998000716657623,-17.721232732401344
6.164712448,0.9995839768898914,-17.80164166040635
6.167000064,0.9993940318060317,-17.879092203622726
6.169288192,0.9992424861315679,-17.954085336917743
6.171575808,0.9991389478178113,-18.02718561663219
6.173863424,0.9990902824283018,-18.099212953031106
6.17615104,0.9990993811983329,-18.17093612113968
6.178438656,0.9991658603487737,-18.243240384689425
6.180726272,0.9992853750177285,-18.316920061618962
6.183013888,0.9994504690786188,-18.39268667906831
6.185301504,0.9996502768341642,-18.47111974510048
6.18758912,0.9998721141946396,-18.55267340400022
6.189877248,1.0001019100527826,-18.63751761602283
6.192164864,1.0003249340161022,-18.72573194808042
6.19445248,1.0005269553515443,-18.816995133778423
6.196740096,1.0006948814855705,-18.911028388453126
6.199027712,1.000818133354927,-19.007142215362897
6.201315328,1.0008889989382803,-19.10471112769843
6.203602944,1.0009026296488717,-19.202931973206788
6.20589056,1.0008583799466944,-19.300901416164784
6.208178688,1.0007587337845356,-19.397862611902326
6.210466304,1.0006103699610098,-19.493044571443892
6.21275392,1.0004225714118697,-19.585770150926724
6.215041536,1.0002074447487077,-19.675588431161298
6.217329152,0.9999785631769469,-19.762162732737377
6.219616768,0.9997507281053734,-19.84546095377788
6.221904384,0.9995383894718187,-19.92552966551991
6.224192,0.9993551271415767,-20.002691311374114
6.226479616,0.9992127441079235,-20.07751752848715
6.228767744,0.9991204148346959,-20.150613777830646
6.23105536,0.9990838935435459,-20.222793652394717
6.233342976,0.9991057949583231,-20.294873920768
6.235630592,0.9991845605377124,-20.367682640299567
6.237918208,0.9993153295663345,-20.442047118349137
6.240205824,0.9994894758316948,-20.51868435474087
6.24249344,0.9996959787312544,-20.598063163031263
6.244781056,0.9999217695696535,-20.68064560734548
6.247068672,1.000152184978257,-20.76661904874726
6.2493568,1.0003726049941752,-20.85586110907039
6.251644416,1.000568906829425,-20.948119656449578
6.253932032,1.0007286705389742,-21.043024507281494
6.256219648,1.0008413767594337,-21.13993948803792
6.258507264,1.0009002579889792,-21.238080633940463
6.26079488,1.0009012294384039,-21.336689509035832
6.263082496,1.000844292592608,-21.434965146728373
6.265370112,1.00073318227142,-21.53196483370503
6.26765824,1.000574849688052,-21.62702059429408
6.269945856,1.0003792238564406,-21.719521654389776
6.272233472,1.0001589700622793,-21.809051253980112
6.274521088,0.9999282995231302,-21.895248261359562
6.276808704,0.9997016031705999,-21.978122438281957
6.27909632,0.9994937050670728,-22.057838504803026
6.281383936,0.9993178172320293,-22.1347794693154
6.283671552,0.999185061653301,-22.209432160259244
6.285959168,0.9991041510037516,-22.282567706895158
6.288247296,0.9990802601264971,-22.354946315215805
6.290534912,0.9991148762447482,-22.427423375993445
6.292822528,0.9992058116344031,-22.500807853098397
6.295110144,0.9993472634447601,-22.575898689211737
6.29739776,0.9995302553792528,-22.65343086927314
6.299685376,0.9997428571307577,-22.733806378429303
6.301972992,0.999971742271092,-22.817453847297728
6.304260608,1.000202080317944,-22.904454115266425
6.306548224,1.000419355653873,-22.99473193998118
6.308836352,1.000609417659077,-23.08801394640403
6.311123968,1.0007602822293964,-23.18376187150354
6.313411584,1.0008624279193117,-23.28140691182353
6.3156992,1.000908849677332,-23.38013323571986
6.317986816,1.0008971960913502,-23.47912929892471
6.320274432,1.0008278480410067,-23.577597698953113
6.322562048,1.0007052758815074,-23.67462431823147
6.324849664,1.000537270928845,-23.769543541304344
6.327137792,1.0003344018320979,-23.861835651053326
6.329425408,1.0001097981431455,-23.95095992538451
6.331713024,0.9998778183909516,-24.03676921539964
6.33400064,0.9996532958933826,-24.11928958812437
6.336288256,0.9994504760206565,-24.198690699847393
6.338575872,0.9992822328312037,-24.275401041421894
6.340863488,0.9991598095525857,-24.349981388751225
6.343151104,0.9990906299577772,-24.42314534963296
6.34543872,0.999079212877895,-24.495791610113812
6.347726848,0.9991265537341646,-24.5686699151302
6.350014464,0.9992294893872897,-24.64264072800583
6.35230208,0.9993812971440267,-24.718561156153278
6.354589696,0.9995724207172709,-24.79698455777913
6.356877312,0.9997907692149063,-24.878348833549275
6.359164928,1.0000221461530523,-24.963088434179443
6.361452544,1.0002516648972017,-25.05114743060653
6.36374016,1.000464957733232,-25.142457574552854
6.366027776,1.000648173836206,-25.23670649533836
6.368315904,1.0007899095724195,-25.333352702029483
6.37060352,1.0008807835343605,-25.431665511754716
6.372891136,1.0009149380303277,-25.53093166121472
6.375178752,1.0008904968929613,-25.630247656410663
6.377466368,1.0008088680913803,-25.728886100067974
6.379753984,1.0006750894952734,-25.825884816490355
6.3820416,1.0004977916725726,-25.920684149734893
6.384329216,1.0002884465014088,-26.012656142288755
6.386617344,1.0000602062887762,-26.101456960527326
6.38890496,0.9998275603574628,-26.186911981275074
6.391192576,0.9996056638008892,-26.26905076210633
6.393480192,0.9994085353613027,-26.348149874703292
6.395767808,0.9992488111081097,-26.424617831529098
6.398055424,0.9991367276557941,-26.499153375053712
6.40034304,0.9990796843487799,-26.572440833619794
6.402630656,0.9990810177316024,-26.64537730462092
6.404918272,0.9991410189157128,-26.718700617945395
6.4072064,0.9992554768026363,-26.793380120338426
6.409494016,0.9994174401187714,-26.870050295488117
6.411781632,0.9996163165737806,-26.949358952892847
6.414069248,0.9998395660338992,-27.031834923144473
6.416356864,1.0000726443949528,-27.117614286492454
6.41864448,1.0003007550744185,-27.206784475489126
6.420932096,1.000509521607576,-27.29914017913901
6.423219712,1.0006854055748915,-27.394316339866347
6.425507328,1.000817279578692,-27.491786754620797
6.427795456,1.0008965592335455,-27.5907775162459
6.430083072,1.0009183893378457,-27.690502419335054
6.432370688,1.0008811864502845,-27.790162816406745
6.434658304,1.0007873162946384,-27.888880506889286
6.43694592,1.000642816052421,-27.985848310150544
6.439233536,1.0004569880425946,-28.080485851522393
6.441521152,1.0002413706395474,-28.172193826595542
6.443808768,1.0000100622006363,-28.26063971562446
6.446096896,0.9997775347040303,-28.3457077051723
6.448384512,0.9995589845137214,-28.427475696030882
6.450672128,0.9993681435923016,-28.506261296128198
6.452959744,0.9992174115529314,-28.58259835526016
6.45524736,0.999116334577796,-28.65711871212687
6.457534976,0.9990714595916773,-28.73052303093637
6.459822592,0.999085663710733,-28.803745377108143
6.462110208,0.9991580339472862,-28.877634727961404
6.464397824,0.9992841213038559,-28.95296904150883
6.466685952,0.9994554659445681,-29.030506330755433
6.468973568,0.9996615181876766,-29.11081135182718
6.471261184,0.9998890619578203,-29.194276444818303
6.4735488,1.000123206246279,-29.281149376423024
6.475836416,1.0003493034161017,-29.371362615087676
6.478124032,1.0005529012166408,-29.464769464428414
6.480411648,1.000720779341299,-29.56089073228181
6.482699264,1.0008424150983422,-29.659122455701073
6.48498688,1.0009099013508815,-29.758783801978062
6.487275008,1.0009190121802187,-29.858956162330404
6.489562624,1.0008690946122543,-29.958890826825314
6.49185024,1.000763358272277,-30.05767861524869
6.494137856,1.0006085202513968,-30.1546018817323
6.496425472,1.000414341867559,-30.24903650607446
6.498713088,1.0001933131468799,-30.34040423449527
6.501000704,0.999959576210885,-30.42848348685623
6.50328832,0.9997279345480407,-30.513186853764278
6.505576448,0.9995133850574184,-30.594621615589148
6.507864064,0.9993295175059932,-30.673201244610073
6.51015168,0.9991880978251662,-30.749355777751223
6.512439296,0.9990982548985065,-30.823874951692282
6.514726912,0.9990657595450949,-30.897497107794095
6.517014528,0.9990928425047096,-30.971099469693833
6.519302144,0.9991776011667853,-31.045508538923862
6.52158976,0.999314611008208,-31.121559689539477
6.523877376,0.9994953785815347,-31.199942719421387
6.526165504,0.9997079050484953,-31.28126169646835
6.52845312,0.9999388918153795,-31.365811292736073
6.530740736,1.0001737087818983,-31.453741942755833
6.533028352,1.0003970132920172,-31.54507472294948
6.535315968,1.0005946318461914,-31.63944290246204
6.537603584,1.0007541103069222,-31.736459894704407
6.5398912,1.000865129271744,-31.835498858714118
6.542178816,1.0009206258594807,-31.935714680003155
6.544466432,1.000916961280355,-32.03632460181458
6.54675456,1.0008543985120253,-32.13652064197929
6.549042176,1.0007369402857877,-32.23537602543596
6.551329792,1.0005719778414588,-32.33221445477913
6.553617408,1.0003702806647299,-32.42635540521868
6.555905024,1.000144460587078,-32.51744406757801
6.55819264,0.9999088584974631,-32.60514483106155
6.560480256,0.9996788691155281,-32.68947853804829
6.562767872,0.9994688588339201,-32.77057643746541
6.565056,0.9992924308454549,-32.84892408790727
6.567343616,0.9991608643039765,-32.92499417677862
6.569631232,0.9990827024074627,-32.99953169011399
6.571918848,0.9990627750737049,-33.07335995307195
6.574206464,0.9991027154453875,-33.14739521693963
6.57649408,0.9991996003040791,-33.2223964356544
6.578781696,0.9993474085696538,-33.29921359949768
6.581069312,0.9995365827208069,-33.378506920044984
6.583356928,0.9997553784771643,-33.46081109250496
6.585645056,0.999989428470798,-33.54643785880514
6.587932672,1.0002238663903709,-33.63546552592756
6.590220288,1.0004438271773417,-33.727834597118765
6.592507904,1.0006351013108108,-33.82325273257523
6.59479552,1.0007856006098645,-33.92115782485833
6.597083136,1.000885511665637,-34.02087440228398
6.599370752,1.0009287085885448,-34.12170934686659
6.601658368,1.0009121291783578,-34.222709732960695
6.603945984,1.0008372533161476,-34.32308478862458
6.606234112,1.0007084342253905,-34.42194690840765
6.608521728,1.0005340113027201,-34.51863826076531
6.610809344,1.0003250970767892,-34.61257082826418
6.61309696,1.000094861122449,-34.703320617204454
6.615384576,0.9998583021320169,-34.79065392616082
6.617672192,0.9996303149902889,-34.87463470063208
6.619959808,0.9994257077779307,-34.955438691401724
6.622247424,0.9992573465023913,-35.033516818949195
6.624535552,0.9991361046080873,-35.10952452375277
6.626823168,0.9990697270505104,-35.184181234173025
6.629110784,0.9990625790038878,-35.25825660855394
6.6313984,0.9991152167793266,-35.33273148584678
6.633686016,0.9992240415730758,-35.40834418595477
6.635973632,0.9993823688645339,-35.48599182987367
6.638261248,0.9995798092893765,-35.56621558402821
6.640548864,0.9998038761722922,-35.6495214565052
6.64283648,1.0000402067345422,-35.73625866431727
6.645124608,1.0002737784457705,-35.826380520547474
6.647412224,1.000489518089597,-35.91983549988659
6.64969984,1.0006738572213933,-36.01617385348404
6.651987456,1.0008148005541617,-36.11496884312069
6.654275072,1.000903487564829,-36.21539538821816
6.656562688,1.00093412720104,-36.31672400668775
6.658850304,1.0009049589076078,-36.41808798079856
6.66113792,1.000817488154656,-36.51861842996923
6.663426048,1.0006776616218676,-36.61751546710887
6.665713664,1.000493997088127,-36.71404941961433
6.66800128,1.000278608969516,-36.80771652319516
6.670288896,1.0000447770966723,-36.89811735900084
6.672576512,0.9998077799129231,-36.98505840747483
6.674864128,0.9995827511263012,-37.06867596855581
6.677151744,0.9993838339409944,-37.14922274269422
6.67943936,0.9992241423138964,-37.2271439907422
6.681726976,0.9991136565550688,-37.30305946171772
6.684015104,0.9990594511724515,-37.37781999407516
6.68630272,0.9990650622965406,-37.45224011690256
6.688590336,0.999130259036773,-37.52717771484859
6.690877952,0.9992509428430916,-37.60348785758494
6.693165568,0.9994190879123243,-37.6819186221174
6.695453184,0.9996242378543311,-37.76312339340938
6.6977408,0.9998531137501004,-37.84748873551413
6.700028416,1.0000911504503485,-37.935295630156325
6.702316032,1.000323005140186,-38.02653695306417
6.70460416,1.0005339902871444,-38.12102608644044
6.706891776,1.0007107787427347,-38.2183512402227
6.709179392,1.0008417223671149,-38.31795058982457
6.711467008,1.0009187268167439,-38.419073212634004
6.713754624,1.000936896632875,-38.52089652965418
6.71604224,1.0008947812814268,-38.62256480600921
6.718329856,1.0007952170389112,-38.72323106434359
6.720617472,1.000644706853938,-38.82206997613567
6.7229056,1.0004524280899163,-38.91847103813992
6.725193216,1.000230867525282,-39.011802997637616
6.727480832,0.9999942724478257,-39.101849866409545
6.729768448,0.9997575946917872,-39.18846206923531
6.732056064,0.9995359430957731,-39.27170644772812
6.73434368,0.9993436364634131,-39.35196582454404
6.736631296,0.9991929490755267,-39.42975312451894
6.738918912,0.9990933941069543,-39.50566718423301
6.741206528,0.9990516174027138,-39.580589890154116
6.743494656,0.999070283365251,-39.65532404071311
6.745782272,0.9991480208942658,-39.73083202701663
6.748069888,0.9992800223867754,-39.80784428451081
6.750357504,0.9994577898284444,-39.88714298785256
6.75264512,0.9996700262409841,-39.96932033446406
6.754932736,0.9999029293208075,-40.054769319563725
6.757220352,1.0001419881546834,-40.143628723483
6.759507968,1.0003717552718645,-40.23597702154457
6.761795584,1.0005773136936684,-40.331510984518275
6.764083712,1.0007458821832518,-40.429779037171535
6.766371328,1.0008666407905729,-40.530165439521454
6.768658944,1.0009318459255803,-40.63191865359185
6.77094656,1.0009369759125994,-40.73421325033311
6.773234176,1.0008821276885422,-40.83616824621962
6.775521792,1.0007706118704958,-40.936913524467776
6.777809408,1.0006096475564716,-41.03567995596291
6.780097024,1.0004092814267864,-41.13187033768278
6.782385152,1.0001823376641705,-41.22490775394347
6.784672768,0.9999434596536854,-41.31460595838803
6.786960384,0.9997076895081338,-41.40086150257301
6.789248,0.9994902622941275,-41.48377925774583
6.791535616,0.9993051550464528,-41.563793866038004
6.793823232,0.9991638619107749,-41.64141973928356
6.796110848,0.9990759032087894,-41.71738221963709
6.798398464,0.9990465773176606,-41.79247790086927
6.80068608,0.9990780539165413,-41.8676301628644
6.802974208,0.9991682603911712,-41.94369519589763
6.805261824,0.9993113181850385,-42.021440261515465
6.80754944,0.9994982393355732,-42.1016557609761
6.809837056,0.9997169424808998,-42.18485156008451
6.812124672,0.999953541644971,-42.27134685986085
6.814412288,1.0001927965910853,-42.36136702248674
6.816699904,1.0004195678531838,-42.45478755039643
6.81898752,1.0006193184666456,-42.55130057088233
6.821275136,1.0007792555885544,-42.65048794994629
6.823563264,1.0008891401835274,-42.75165604508654
6.82585088,1.000942009451307,-42.854012465760746
6.828138496,1.000934577141699,-42.95673501589777
6.830426112,1.0008670752799156,-43.058940092747015
6.832713728,1.0007437911119592,-43.15975859982306
6.835001344,1.0005727653297187,-43.25843428542455
6.83728896,1.0003649058581678,-43.35436604409837
6.839576576,1.0001331549915569,-43.44714393477311
6.841864704,0.9998925233420946,-43.53644958896545
6.84415232,0.9996584800925998,-43.62231451613557
6.846439936,0.9994457285313402,-43.70492583131353
6.848727552,0.9992681478605782,-43.784721401833956
6.851015168,0.9991370998041814,-43.862248574927136
6.853302784,0.9990608089265177,-43.93828556510507
6.8555904,0.9990441553851018,-44.0136272115589
6.857878016,0.9990885150461988,-44.089204187911335
6.860165632,0.9991909882490565,-44.165860780162845
6.86245376,0.9993447591253776,-44.24440709920026
6.864741376,0.9995403377867192,-44.32552206587171
6.867028992,0.9997650042790136,-44.409737247201534
6.869316608,1.000004496165772,-44.497337926913744
6.871604224,1.0002433039787841,-44.58846596682485
6.87389184,1.0004665231358456,-44.68296233702674
6.876179456,1.000659758854732,-44.78050523377403
6.878467072,1.000810364473676,-44.88058642166415
6.880754688,1.0009092636843264,-44.98247214970498
6.883042816,1.0009497372573248,-45.08544755952751
6.885330432,1.000929218147113,-45.188527728827424
6.887618048,1.0008491609149666,-45.29090623660575
6.889905664,1.000714625645766,-45.39175973117121
6.89219328,1.000533910077231,-45.49032065858187
6.894480896,1.0003190501368904,-45.58600792017278
6.896768512,1.0000831138848252,-45.67842952680877
6.899056128,0.9998415828199099,-45.76738637142288
6.901344256,0.9996097358972404,-45.85291031392651
6.903631872,0.9994025856146084,-45.93522648166662
6.905919488,0.9992330575577312,-46.01478976952325
6.908207104,0.9991124717580283,-46.0922639233829
6.91049472,0.9990481057096996,-46.168368076365624
