freq,mag,phase
6.0,1.0000225610220095,179.46716052618262
6.002286592,1.0000388019637172,179.32712196202058
6.004572672,1.000052547918722,179.1868646024898
6.006859264,1.0000632662264712,179.0464711008927
6.009145344,1.0000704424116005,178.9059265439519
6.011431936,1.0000735252205426,178.76531995708243
6.013718016,1.0000723702301522,178.6247284043855
6.016004608,1.0000668301286608,178.4842061433787
6.018290688,1.0000575962962326,178.34378089181402
6.02057728,1.000044970452918,178.20352993092695
6.022863872,1.0000299092658176,178.0635099120142
6.025149952,1.0000133420859503,177.9237114678048
6.027436544,0.9999962748908299,177.7841911834965
6.029722624,0.9999797232820561,177.64489624500587
6.032009216,0.9999648754353662,177.50587309992028
6.034295296,0.9999526044193331,177.36703130054158
6.036581888,0.9999437042693992,177.2283926073464
6.03886848,0.9999386204613915,177.0898298895732
6.04115456,0.9999379309112001,176.95135383873918
6.043441152,0.9999415056162585,176.81284216265803
6.045727232,0.9999490558883203,176.67429057267546
6.048013824,0.9999602374062511,176.53557852138755
6.050299904,0.9999743474546366,176.39671266201182
6.052586496,0.9999904328298463,176.25765618067996
6.054872576,1.0000073995439012,176.11834463346364
6.057159168,1.0000243284446988,175.97882296267665
6.05944576,1.0000401387986355,175.83906860389783
6.06173184,1.0000538694697978,175.69910682410767
6.064018432,1.0000644067200697,175.5589835155337
6.066304512,1.000071204603732,175.41875985110704
6.068591104,1.0000740434689281,175.27847044075193
6.070877184,1.0000724543419892,175.13815243507142
6.073163776,1.0000666435975822,174.99794468986667
6.075450368,1.0000570080491846,174.85784970735693
6.077736448,1.0000440286749726,174.71792896943867
6.08002304,1.0000287816625086,174.57820379451374
6.08230912,1.0000120046636232,174.43875214663774
6.084595712,0.9999948213243113,174.29956074565155
6.086881792,0.999978263171938,174.16060266256594
6.089168384,0.9999634018197128,174.02189769072032
6.091454464,0.9999514055953468,173.8834127411171
6.093741056,0.9999426530678833,173.7450923433914
6.096027648,0.9999379648073421,173.60684406543996
6.098313728,0.9999375506394204,173.46867924812884
6.10060032,0.9999414805793994,173.33050053907894
6.1028864,0.9999494047899063,173.19224719934843
6.105172992,0.9999609982070766,173.0538515196771
6.107459072,0.9999753056094923,172.91529223679672
6.109745664,0.9999915997311567,172.77652767043318
6.112032256,1.0000088725303544,172.63751016154774
6.114318336,1.0000258598006981,172.49828034296357
6.116604928,1.0000416103926644,172.35881857040647
6.118891008,1.000055167526411,172.2191588758832
6.1211776,1.0000654690142141,172.0793261927551
6.12346368,1.0000720395308562,171.93939793030145
6.125750272,1.0000744945705873,171.79940981595587
6.128036352,1.0000725100594272,171.6594419207444
6.130322944,1.0000663779327963,171.51951736482954
6.132609536,1.0000564117662356,171.37974082465044
6.134895616,1.000043152127874,171.24014848928894
6.137182208,1.0000275662355558,171.10077296676332
6.139468288,1.0000105470751222,170.9616286363377
6.14175488,0.9999932431015602,170.82276736724188
6.14404096,0.9999767154760857,170.6841847028327
6.146327552,0.9999621190360993,170.5458032318588
6.148614144,0.9999500687788324,170.40765167050515
6.150900224,0.9999416223516081,170.26964999245544
6.153186816,0.9999372560119639,170.13175529411376
6.155472896,0.9999371857271006,169.99391356128461
6.157759488,0.9999414999940248,169.85605648976355
6.160045568,0.9999497549787799,169.71809629016192
6.16233216,0.9999616416890423,169.58002085585494
6.16461824,0.9999763370668494,169.4417715767216
6.166904832,0.9999929473575212,169.30329546804725
6.169191424,1.000010288698103,169.16459227213483
6.171477504,1.0000274408480885,169.0256370361185
6.173764096,1.0000430625037346,168.88647519725154
6.176050176,1.000056470080171,168.7470998262573
6.178336768,1.0000666107008163,168.60759163977562
6.180622848,1.0000729074899921,168.46796154600506
6.18290944,1.0000750646755368,168.3282766492205
6.18519552,1.0000726833977025,168.18862894989306
6.187482112,1.0000660817758937,168.04899432384946
6.189768704,1.0000557371861525,167.9095681328692
6.192054784,1.0000422864803467,167.77028546698247
6.194341376,1.000026337170848,167.63125171137585
6.196627456,1.00000926038101,167.49246535102907
6.198914048,0.9999918158991451,167.35394140705577
6.201200128,0.9999752581005328,167.2156623981181
6.20348672,0.999960652913962,167.077644067931
6.205773312,0.999948823951252,166.93982594426254
6.208059392,0.9999406356691682,166.8021405312128
6.210345984,0.9999365965983343,166.66459479626272
6.212632064,0.999936805427418,166.52708852974703
6.214918656,0.9999416024600472,166.3895264550004
6.217204736,0.9999502137340772,166.25190575830058
6.219491328,0.9999624578885796,166.1141286823663
6.221777408,0.9999774945261697,165.97616779047425
6.224064,0.9999942635729079,165.83800426479942
6.226350592,1.0000117093688121,165.69960461867254
6.228636672,1.0000289219742797,165.56097210690797
6.230923264,1.0000445735777415,165.42212001287044
6.233209344,1.0000577077237307,165.28301971143088
6.235495936,1.000067713850237,165.14378147210732
6.237782016,1.0000737292232076,165.00447273778363
6.240068608,1.000075439560242,164.86510723236924
6.2423552,1.0000726793376107,164.725757504994
6.24464128,1.000065858963926,164.5864893645331
6.246927872,1.000055055437057,164.44734599282748
6.249213952,1.0000412028584125,164.3084341975587
6.251500544,1.0000251138748022,164.16971943095228
6.253786624,1.0000077780672574,164.03126987254532
6.256073216,0.9999902095760976,163.89308554483947
6.258359296,0.9999737431207647,163.75515282904658
6.260645888,0.999959123744824,163.61747735688425
6.26293248,0.9999476018854099,163.47997937933835
6.26521856,0.9999396945699611,163.3426632867298
6.267505152,0.9999359126829338,163.2054284201367
6.269791232,0.9999366302288012,163.06825026281126
6.272077824,0.9999416854066512,162.93100747384335
6.274363904,0.9999507663972362,162.79370252789698
6.276650496,0.9999632781429363,162.65625216185447
6.278937088,0.9999785295484332,162.51861556066888
6.281223168,0.9999955587802992,162.3807339352887
6.28350976,1.0000131708202329,162.24260267237838
6.28579584,1.0000303449487575,162.10429685533975
6.288082432,1.0000460227840242,161.96568581249625
6.290368512,1.0000590510071254,161.82694338799473
6.292655104,1.0000688038325565,161.6880159192284
6.294941184,1.0000744562673531,161.54902540578098
6.297227776,1.000075867117994,161.40994122311065
6.299514368,1.0000726952719134,161.2709161841473
6.301800448,1.0000653749088075,161.13195800852284
6.30408704,1.0000543217703042,160.99317184620008
6.30637312,1.0000401138321624,160.85457087588895
6.308659712,1.0000238007277316,160.71619439035683
6.310945792,1.0000061410389287,160.5780873948996
6.313232384,0.9999887042064411,160.44024493956306
6.315518464,0.9999721123742311,160.30265257025908
6.317805056,0.9999577144255257,160.16532204413502
6.320091648,0.9999463732897378,160.0281921951935
6.322377728,0.9999387083371758,159.8911824605842
6.32466432,0.9999352857983143,159.7542821944787
6.3269504,0.9999363824927735,159.61744753544156
6.329236992,0.9999417933222736,159.48054405517718
6.331523072,0.9999511826694351,159.3435379361287
6.333809664,0.9999641360500794,159.2064079494137
6.336096256,0.9999796950361874,159.06907127626764
6.338382336,0.9999969489347027,158.93149655767297
6.340668928,1.0000147245851845,158.79370092369325
6.342955008,1.000031926415786,158.6556421521597
6.3452416,1.0000474094573877,158.51737889274233
6.34752768,1.0000603483033297,158.37892152734133
6.349814272,1.0000698938861459,158.2403015312935
6.352100352,1.0000752793000471,158.10158319735552
6.354386944,1.0000762133701289,157.96283430161128
6.356673536,1.00007282675224,157.82410676157284
6.358959616,1.0000650769655932,157.6855114581516
6.361246208,1.0000536024180666,157.54703541179168
6.363532288,1.0000390949064137,157.4087744928833
6.36581888,1.0000224464798968,157.27072464102872
6.36810496,1.0000047309992655,157.13297192461437
6.370391552,0.9999870317076005,156.9954774527293
6.372678144,0.999970537154944,156.85825921216681
6.374964224,0.9999562982470319,156.7212414424943
6.377250816,0.9999450508526899,156.5844524841277
6.379536896,0.9999376992189176,156.4478043216261
6.381823488,0.9999347298819428,156.3112489141088
6.384109568,0.9999361757926206,156.1746969391161
6.38639616,0.999941945698038,156.0381190874069
6.38868224,0.9999518459164711,155.90144957619762
6.390968832,0.9999651449104613,155.76460087172148
6.393255424,0.9999808736082729,155.62756660539338
6.395541504,0.9999983827740963,155.49031629562248
6.397828096,1.0000163499133636,155.35282193267412
6.400114176,1.0000335988168232,155.21506980323934
6.402400768,1.0000490151263173,155.07711113698278
6.404686848,1.0000617396055358,154.9389319735218
6.40697344,1.000070867796534,154.8006279203636
6.409260032,1.0000760558223039,154.66223226093
6.411546112,1.0000766413250626,154.52379980505168
6.413832704,1.0000727285538091,154.38539494445297
6.416118784,1.0000647274167827,154.24712310837702
6.418405376,1.000052819460342,154.10897402519075
6.420691456,1.0000379239356711,153.97103793714084
6.422978048,1.000021018998108,153.83335823047315
6.425264128,1.000003191859984,153.6959345215752
6.42755072,0.9999854368513922,153.55877773796092
6.429837312,0.9999688531376192,153.4218871453979
6.432123392,0.9999548079822532,153.2852321125331
6.434409984,0.9999438875887712,153.14878100782587
6.436696064,0.9999368062107699,153.01248119106586
6.438982656,0.9999340650501196,152.87625279589946
6.441268736,0.9999359586462423,152.74004815621512
6.443555328,0.9999422288920492,152.6037704218053
6.44584192,0.9999524438211579,152.46742477022957
6.448128,0.9999661728707837,152.3308908805979
6.450414592,0.9999822874297547,152.19418480393418
6.452700672,0.9999999429635339,152.05721084090683
6.454987264,1.000017882931933,151.9200203801534
6.457273344,1.0000350984941906,151.78257897170096
6.459559936,1.0000505374975983,151.64489277219357
6.461846016,1.0000630585127468,151.50702677111872
6.464132608,1.0000719565103966,151.3690126180354
6.4664192,1.0000767525532481,151.23091416689192
6.46870528,1.000077005126774,151.09283943529528
6.470991872,1.0000727691873232,150.95474461013112
6.473277952,1.0000642270309161,150.81676967681364
6.475564544,1.0000519376874444,150.6790069031762
6.477850624,1.0000367696336834,150.54137702210588
6.480137216,1.000019607428029,150.40402913865094
6.482423296,1.0000015688239334,150.2669698953747
6.484709888,0.9999837571569961,150.13016674004473
6.48699648,0.9999673811224083,149.99363244932687
6.48928256,0.9999533746515415,149.85731215654508
6.491569152,0.99994266773529,149.72118666280699
6.493855232,0.9999358729341202,149.58521461065274
6.496141824,0.9999335954842229,149.44932276841737
6.498427904,0.9999358202749742,149.31345246901702
6.500714496,0.9999424891308015,149.17750346136603
6.503001088,0.9999531620985002,149.04147328433635
6.505287168,0.9999671080176873,148.90524147205596
6.50757376,0.9999835736009423,148.7688294826078
6.50985984,1.0000013911648016,148.63219200780605
6.512146432,1.0000194662553104,148.49525736572352
6.514432512,1.0000367927349865,148.35812845118966
6.516719104,1.0000519815316218,148.22073391897752
6.519005184,1.0000643806115437,148.08318040863162
6.521291776,1.000073062248542,147.9454883820617
6.523578368,1.000077416518984,147.80769340570694
6.525864448,1.0000773278457895,147.6698811784985
6.52815104,1.0000725198017582,147.53214413993723
6.53043712,1.0000636999905252,147.394497711269
6.532723712,1.0000510501762574,147.2570358789324
6.535009792,1.0000355628875934,147.11978576347178
6.537296384,1.000018190977474,146.9827655931852
6.539582976,0.9999999573984448,146.84603766269345
6.541869056,0.9999820292702627,146.70957668676036
6.544155648,0.9999656783923998,146.5733741021724
6.546441728,0.9999518967236457,146.43741545080684
6.54872832,0.9999413812125498,146.30165082160931
6.5510144,0.9999350362761636,146.16601366331184
6.553300992,0.9999330005362649,146.03043675321328
6.555587072,0.9999357327714042,145.89489380675968
6.557873664,0.9999427525288697,145.7592682788994
6.560160256,0.9999538448168892,145.62353163752684
6.562446336,0.9999681579154067,145.48764239257346
6.564732928,0.9999849444082877,145.35150847807682
6.567019008,1.0000029484220418,145.215170428819
6.5693056,1.000021080890021,145.07855840319436
6.57159168,1.0000384185620221,144.9417082849014
6.573878272,1.0000536451622721,144.80459800933295
6.576164864,1.0000656924234268,144.66734446532985
6.578450944,1.0000741284159917,144.5299523440695
6.580737536,1.0000780751004772,144.3925086290527
6.583023616,1.000077560454607,144.25500314241745
6.585310208,1.00007244853259,144.11754951755861
6.587596288,1.000063206469108,143.98027034603265
6.58988288,1.0000502047476474,143.84310343515418
6.59216896,1.000034337448179,143.70619483061284
6.594455552,1.000016749313332,143.56952020515183
6.596742144,0.9999983683535281,143.4331187734498
6.599028224,0.9999804262096933,143.29703499812342
6.601314816,0.9999640622660011,143.16116102503022
6.603600896,0.99995039304387,143.02554603774482
6.605887488,0.9999401798611276,142.89009630428285
6.608173568,0.9999341176829254,142.75480932616495
6.61046016,0.9999326087307789,142.6195755875763
6.612746752,0.9999356673885909,142.48434974377815
6.615032832,0.9999431134260558,142.34903438489374
6.617319424,0.9999545763611208,142.21363087493484
6.619605504,0.9999692220087529,142.0780244354038
6.621892096,0.9999862185942381,141.94221186454658
6.624178176,1.000004578266543,141.80613464199624
6.626464768,1.000022812051612,141.6698368140119
6.628750848,1.000040078979097,141.53326494373277
6.63103744,1.0000551304107461,141.39649901701785
6.633324032,1.0000671346706853,141.2595330239044
6.635610112,1.0000751264583991,141.12242445729552
6.637896704,1.0000787967128628,140.9852699695798
6.640182784,1.0000778417602723,140.8480833792722
6.642469376,1.0000723370831057,140.71097564389493
6.644755456,1.0000624979749724,140.57397681388997
6.647042048,1.0000491638392373,140.4371645702942
6.649328128,1.000032969735368,140.30060352975835
6.65161472,1.0000151512630324,140.1642633674074
6.653901312,0.9999966533643851,140.02822501981115
6.656187392,0.9999787413736052,139.89242531517291
6.658473984,0.9999623827808992,139.75693894860783
6.660760064,0.9999489196888796,139.62163583900454
6.663046656,0.9999390410341111,139.48654227838594
6.665332736,0.9999332391907697,139.3515719395256
6.667619328,0.9999321296928722,139.21665767608766
6.66990592,0.999935594497498,139.0817454060923
6.672192,0.9999435579230462,138.94677359257824
6.674478592,0.9999554218706508,138.81165849194934
6.676764672,0.9999704432137041,138.67636260610055
6.679051264,0.9999877168764336,138.54084863260283
6.681337344,1.0000061166662668,138.40510374460766
6.683623936,1.0000245943810817,138.26906345861727
6.685910016,1.0000417763567702,138.13279678261082
6.688196608,1.000056654348561,137.99632246896564
6.6904832,1.0000684527177213,137.8596386919968
6.69276928,1.0000761072726276,137.7228527604498
6.695055872,1.0000794452706028,137.58599410255712
6.697341952,1.0000780175507922,137.44912412963166
6.699628544,1.0000720889520451,137.3123144106553
6.701914624,1.0000618780690789,137.17564881736268
6.704201216,1.0000481054221664,137.03915955447502
6.706487808,1.0000316333779478,136.90291519101854
6.708773888,1.0000136108307902,136.76691177429794
6.71106048,0.9999949271326924,136.63121647094988
6.71334656,0.9999768656595269,136.49576830522298
6.715633152,0.9999607207471979,136.36061087331075
6.717919232,0.999947487106378,136.22568255523402
6.720205824,0.9999378309407421,136.09091781003858
6.722491904,0.9999323864631963,135.95624908375262
6.724778496,0.9999317744506642,135.82167922849248
6.727065088,0.9999356182157784,135.68707928221136
6.729351168,0.9999439575076792,135.55241405634814
6.73163776,0.9999562405557801,135.4175906751477
6.73392384,0.9999717287782217,135.28261504122653
6.736210432,0.999989213609278,135.1473695667306
6.738496512,1.00000775945776,135.011895392577
6.740783104,1.000026257825163,134.87617033735194
6.743069696,1.0000434338404725,134.7401908863186
6.745355776,1.000058177180176,134.6039915227348
6.747642368,1.000069705813184,134.4676256071012
6.749928448,1.0000770670820134,134.33111214402507
6.75221504,1.000080080294183,134.19457407230067
6.75450112,1.000078198817615,134.05801556344483
6.756787712,1.0000717784193347,133.92151391589098
6.759073792,1.0000611528722227,133.78517076497724
6.761360384,1.0000470920379887,133.64901125596595
6.763646976,1.0000301929208264,133.51306071312322
6.765933056,1.000011852621464,133.37742340711995
6.768219648,0.9999931506619221,133.2420564797994
6.770505728,0.9999751429876915,133.10697076540794
6.77279232,0.9999592039748869,132.97213724794105
6.7750784,0.9999460047738059,132.83751404274955
6.777364992,0.9999366175864975,132.70309920663126
6.779651584,0.9999316256168538,132.56875482301118
6.781937664,0.9999313015964832,132.43449956887878
6.784224256,0.9999356495747067,132.3002137421056
6.786510336,0.9999444857511709,132.1658713592539
6.788796928,0.9999571817560952,132.03133618731434
6.791083008,0.9999729582848204,131.89665492852492
6.7933696,0.9999907553121189,131.7617230124608
6.79565568,1.000009520037387,131.62652719134098
6.797942272,1.0000281160346647,131.4910944691665
6.800228864,1.000045146375932,131.35537770021094
6.802514944,1.0000598066725275,131.21948122535935
6.804801536,1.0000711104354425,131.08339936810242
6.807087616,1.0000781177460232,130.9471914502802
6.809374208,1.00008057175737,130.81093612547528
6.811660288,1.0000783373079702,130.6746737392438
6.81394688,1.000071400484061,130.53850568402115
6.81623296,1.000060458501711,130.4024664502928
6.818519552,1.0000459335330445,130.2666308291867
6.820806144,1.0000287722951515,130.13102558042704
6.823092224,1.0000102013850476,129.99571335322025
6.825378816,0.9999914125623073,129.8606652143294
6.827664896,0.9999733873154525,129.725907524983
6.829951488,0.9999574119422207,129.59140821859427
6.832237568,0.9999445291766503,129.45710785276586
6.83452416,0.9999354947944527,129.32304536032314
6.836810752,0.9999309015394988,129.18903826748206
6.839096832,0.999930965184669,129.0550816707003
6.841383424,0.9999358044506442,128.92110946852995
6.843669504,0.9999450461786317,128.78705249037083
6.845956096,0.9999581331790388,128.652832834686
6.848242176,0.9999742394467637,128.51842880287776
6.850528768,0.9999922757217127,128.38378244332003
6.852814848,1.0000112604339697,128.24886992785187
6.85510144,1.0000299310238907,128.11370140707777
6.857388032,1.000046898459991,127.97830492192513
6.859674112,1.0000613969643473,127.84265385785709
6.861960704,1.000072391267721,127.7068627946391
6.864246784,1.0000790704966038,127.57095745184161
6.866533376,1.000081109655268,127.43497170148645
6.868819456,1.0000783697239142,127.29903818226762
6.871106048,1.000071107874374,127.16316844467693
6.87339264,1.0000595231739398,127.02744931926192
6.87567872,1.0000447178911347,126.89194109619747
6.877965312,1.000027308997295,126.75665681119115
6.880251392,1.0000086113394835,126.62165236639596
6.882537984,0.9999895531026164,126.48694940807938
6.884824064,0.9999715670016703,126.35252322586382
6.887110656,0.9999557437259308,126.21835171111631
6.889396736,0.9999431074253053,126.08440782570224
6.891683328,0.9999342668267005,125.95063190625069
6.89396992,0.9999300607195943,125.81694708640333
6.896256,0.9999306701902616,125.68331714766512
6.898542592,0.9999359633728746,125.5496392740573
6.900828672,0.9999456633359601,125.41588004318791
6.903115264,0.9999591282800853,125.28195814974033
6.905401344,0.9999756144268591,125.14783001886381
6.907687936,0.9999939409378492,125.01345700366669
6.909974528,1.0000130446066104,124.8788328477923
6.912260608,1.000031614514166,124.74394813681849
6.9145472,1.00004866124909,124.60881328698324
6.91683328,1.0000629509604415,124.47346014427694
6.919119872,1.000073614362597,124.33795088989385
6.921405952,1.0000799809547423,124.20231017413583
6.923692544,1.0000816313876457,124.06662658196744
