freq,mag,phase
6.0,0.9993847365941886,-9.313434463072783
6.013266944,0.9993011535386196,-9.73510666301905
6.026533888,0.9992500311531721,-10.155956350428022
6.039800832,0.9992332403809172,-10.576510210522054
6.053067776,0.9992513118395459,-10.99715467017228
6.066335232,0.9993038331404064,-11.418345931384668
6.079602176,0.9993881780844572,-11.840368581143528
6.09286912,0.9995006805277696,-12.263662809170036
6.106136064,0.9996362333718546,-12.688621197740035
6.119403008,0.9997888431041395,-13.115374657677032
6.132669952,0.9999514051267656,-13.544175839140443
6.145936896,1.0001165832270873,-13.975034747047959
6.15920384,1.000276865598922,-14.407987977997873
6.172470784,1.000424967526741,-14.84290352258549
6.185737728,1.0005539956931302,-15.279630117712866
6.199005184,1.0006582015095298,-15.717851065659085
6.212272128,1.0007326637873444,-16.15726279032022
6.225539072,1.0007741592268695,-16.597464553364734
6.238806016,1.0007806836692175,-17.03802949294936
6.25207296,1.000751661042673,-17.478554682345383
6.265339904,1.0006883179678925,-17.918643738327862
6.278606848,1.0005938123414158,-18.357815597675774
6.291873792,1.0004721873629139,-18.79574635403544
6.305140736,1.0003289553383317,-19.23216892901537
6.318408192,1.0001704630612849,-19.666751187578274
6.331675136,1.0000039954900024,-20.099503743084306
6.34494208,0.9998370934002174,-20.53021956624755
6.358209024,0.9996776399058619,-20.95902272945466
6.371475968,0.9995324760599916,-21.386020513295232
6.384742912,0.999408401624339,-21.81146857199037
6.398009856,0.9993111326042098,-22.235593088314896
6.4112768,0.9992452302323698,-22.658807507602173
6.424543744,0.9992138482938061,-23.081490231702627
6.4378112,0.9992182062224552,-23.504058114747416
6.451078144,0.9992582805573887,-23.92702287668743
6.464345088,0.9993324829086693,-24.350713030640847
6.477612032,0.9994372680858445,-24.77558577945611
6.490878976,0.9995680142739656,-25.202015234936724
6.50414592,0.9997189953272717,-25.630203329242207
6.517412864,0.9998830040891395,-26.06042378358576
6.530679808,1.0000527362959384,-26.492773543840116
6.543946752,1.0002206325853016,-26.927304797151468
6.557213696,1.0003789524528144,-27.363918831122554
6.570481152,1.0005202257909103,-27.802463800576696
6.583748096,1.0006383913094528,-28.242694115836386
6.59701504,1.0007277992757122,-28.684234253826222
6.610281984,1.0007843190133074,-29.126799274744243
6.623548928,1.0008054072823103,-29.5699573130743
6.636815872,1.000789976347157,-30.01322530473325
6.650082816,1.0007387072527967,-30.456146582528593
6.66334976,1.0006536459596773,-30.898372508584675
6.676616704,1.0005390909365384,-31.33944685758552
6.68988416,1.0003995564937649,-31.779052985514944
6.703151104,1.0002419305152395,-32.21691856993702
6.716418048,1.0000727596219825,-32.65287468303214
6.729684992,0.9999000236586361,-33.08678082558798
6.742951936,0.9997316614361699,-33.51871394331836
6.75621888,0.9995753028431638,-33.948725322775395
6.769485824,0.9994379118120423,-34.3770122709758
6.782752768,0.9993263496528528,-34.8038263476932
6.796019712,0.9992449327654722,-35.229544930415216
6.809286656,0.9991979712799373,-35.65452116275207
6.822554112,0.9991877108416277,-36.07925407835537
6.835821056,0.9992143740953187,-36.50413600054622
6.849088,0.9992770388728068,-36.929677026312184
6.862354944,0.9993729729497445,-37.35624332970819
6.875621888,0.999497750577384,-37.78425517551089
6.888888832,0.9996458878514908,-38.21402443893898
6.902155776,0.9998104639883504,-38.64582814876491
6.91542272,0.999984144834004,-39.07973115128288
6.928689664,1.00015905771747,-39.51590536003627
6.94195712,1.0003271262824731,-39.9542931029048
6.955224064,1.0004808042007012,-40.394726005228115
6.968491008,1.0006129300570745,-40.83700847506196
6.981757952,1.0007176874290755,-41.28083108396392
6.995024896,1.0007901381250215,-41.72585576523693
7.00829184,1.0008267290366437,-42.17163545128404
7.021558784,1.0008260890504637,-42.61774080336893
7.034825728,1.0007878109268442,-43.06368977732768
7.048092672,1.0007137809376279,-43.50909190735339
7.061359616,1.0006072512560913,-43.95344138427263
7.074627072,1.0004729156969723,-44.39643473135781
7.087894016,1.0003168515353489,-44.8377138171987
7.10116096,1.0001460446207762,-45.27711139951554
7.114427904,0.9999683555096072,-45.71446326961416
7.127694848,0.9997917574408389,-46.149696639568035
7.140961792,0.9996244127813562,-46.58293876331522
7.154228736,0.9994739032743889,-47.01427685548153
7.16749568,0.9993470615558058,-47.444016269754584
7.180762624,0.9992498176293659,-47.87243641102748
7.19403008,0.9991866260879695,-48.29999320998523
7.207297024,0.9991604620276605,-48.727029806092105
7.220563968,0.9991727283637211,-49.15406345919441
7.233830912,0.9992226793492757,-49.58156661751506
7.247097856,0.9993082752895568,-50.01002299662029
7.2603648,0.9994258112554364,-50.439752916774836
7.273631744,0.999569741226077,-50.871209021571836
7.286898688,0.9997338391774181,-51.304657564363254
7.300165632,0.9999105711368156,-51.74024456557023
7.313433088,1.000091591557479,-52.178184715014936
7.326700032,1.0002692789096272,-52.61836462901976
7.339966976,1.0004349281144258,-53.060786257135256
7.35323392,1.0005815688846926,-53.50518461990304
7.366500864,1.0007020014830212,-53.95135550467583
7.379767808,1.000790977902596,-54.398908067736016
7.393034752,1.00084431794484,-54.847422206476004
7.406301696,1.0008593286284315,-55.29650499287359
7.41956864,1.0008353651488462,-55.74558944852613
7.432835584,1.0007736978834465,-56.19424942377868
7.44610304,1.0006766705679713,-56.64207771690455
7.459369984,1.000548562581569,-57.088633373924324
7.472636928,1.0003955597114058,-57.53354590608406
7.485903872,1.0002241442475484,-57.97659218049395
7.499170816,1.0000422843496257,-58.417529430232975
7.51243776,0.999858135660963,-58.856326598907906
7.525704704,0.9996800737464145,-59.293001263755436
7.538971648,0.9995162548819193,-59.72768648676682
7.552238592,0.9993742561451914,-60.16053825542629
7.565506048,0.9992604845496014,-60.59191732553039
7.578772992,0.9991801589330259,-61.02216824050742
7.592039936,0.9991370765945367,-61.45179598333146
7.60530688,0.9991334232947984,-61.88113837519284
7.618573824,0.9991693089343978,-62.31082795425553
7.631840768,0.99924326115378,-62.74126309776018
7.645107712,0.9993519154857832,-63.1729173328247
7.658374656,0.9994905755841331,-63.60615390553352
7.6716416,0.9996527910439537,-64.04135598736616
7.684908544,0.9998313660989165,-64.4787081259557
7.698176,1.0000180570415818,-64.91844461766945
7.711442944,1.0002045785540639,-65.36058278276361
7.724709888,1.0003823323046024,-65.80501407447066
7.737976832,1.000543292975311,-66.25163227752046
7.751243776,1.0006799216424902,-66.70019655859424
7.76451072,1.0007860444732004,-67.15035598043455
7.777777664,1.0008569613353202,-67.6016915084637
7.791044608,1.0008891238647362,-68.05378718256733
7.804311552,1.0008809897151518,-68.50615844289902
7.817579008,1.0008329224826724,-68.95827350996913
7.830845952,1.000746891101189,-69.40969593312165
7.844112896,1.000626934498188,-69.85994887956149
7.85737984,1.0004781940988958,-70.30868106865547
7.870646784,1.0003074075472993,-70.75555635297893
7.883913728,1.0001222445792484,-71.20034311113781
7.897180672,0.9999312058381759,-71.64295373015614
7.910447616,0.9997429881571872,-72.08330716377517
7.92371456,0.999565944008407,-72.52150854589173
7.936981504,0.9994083145647821,-72.95776090505419
7.95024896,0.9992774128967049,-73.39233270353387
7.963515904,0.9991791954045989,-73.82556820813254
7.976782848,0.9991181838120002,-74.25789206510846
7.990049792,0.9990972841847366,-74.68986200060355
8.003316736,0.9991175249981288,-75.12182221536452
8.01658368,0.999178168220244,-75.55445487469689
8.029850624,0.9992766248431939,-75.98812068126705
8.043117568,0.9994082262016715,-76.42330423292704
8.056384512,0.9995671894913569,-76.86035672210197
8.069651968,0.999746537074988,-77.29958989834736
8.082918912,0.9999378690206059,-77.7412031158608
8.096185856,1.0001327071625328,-78.1852978602609
8.1094528,1.0003221776108993,-78.6318276277165
8.122719744,1.0004974210168731,-79.08073445130161
8.135986688,1.0006506306422558,-79.53175456817917
8.149253632,1.0007748162862142,-79.98460174029907
8.162520576,1.000864306965622,-80.4388484374561
8.17578752,1.000914732602578,-80.89408594255639
8.189054976,1.0009237895475103,-81.34981718658656
8.20232192,1.000891116905677,-81.80549856469685
8.215588864,1.0008179207171672,-82.260678678951
8.228855808,1.000707471034017,-82.71482710351029
8.242122752,1.0005644969395004,-83.1675643244559
8.255389696,1.0003958033877904,-83.6184895750825
8.26865664,1.0002086161109383,-84.06735617099353
8.281923584,1.0000115132987732,-84.51393863129425
8.295190528,0.9998134775157361,-84.95823135971187
8.308457472,0.9996236401829498,-85.40022930733538
8.321724928,0.9994503369482712,-85.84011189082784
8.334991872,0.9993017005844899,-86.27809910043717
8.348258816,0.9991845618698058,-86.71456702628036
8.36152576,0.9991043906801248,-87.14989839525545
8.374792704,0.9990648812047295,-87.5845723693923
8.388059648,0.999067982534804,-88.01912825942867
8.401326592,0.9991136222865883,-88.45408470133454
8.414593536,0.9991999426083084,-88.88991591111339
8.42786048,0.9993228936732045,-89.3271568131832
8.441127936,0.9994771848851822,-89.76619054082421
8.45439488,0.9996558916107294,-90.20734417694614
8.467661824,0.9998507242311984,-90.65093865866261
8.480928768,1.0000531363418428,-91.09705707802036
8.494195712,1.0002537296141873,-91.54577163541155
8.507462656,1.0004434494707264,-91.99697422565688
8.5207296,1.0006136246940467,-92.45052333822669
8.533996544,1.0007565281006559,-92.90610187463484
8.547263488,1.000865485528141,-93.3633311431232
8.560530432,1.0009356671342071,-93.82182420238587
8.573797888,1.0009635440330475,-94.28100400024543
8.587064832,1.0009479028137755,-94.74040033519631
8.600331264,1.0008892175083954,-95.19946771078223
8.613598208,1.0007901147593554,-95.65767313648747
8.626866176,1.0006548707498244,-96.11460103309277
8.64013312,1.0004895965341565,-96.56981994523412
8.653400064,1.0003017559333145,-97.02296393334096
8.666667008,1.0000996359326726,-97.47381675794801
8.679933952,0.9998926782137951,-97.9223022316423
8.693200896,0.9996900088804881,-98.36836212775438
8.70646784,0.9995009028739206,-98.81214415231055
8.719734784,0.9993341564418494,-99.25381527340323
8.733001728,0.9991972250815853,-99.6937346409412
8.746268672,0.9990966548667328,-100.13230012404001
8.759535616,0.9990370003635086,-100.56996328061908
8.77280256,0.9990210766853391,-101.00726108726755
8.786069504,0.9990498482656949,-101.44473722573767
8.799336448,0.999122060628729,-101.88291056918321
8.812603392,0.999234516915605,-102.32232460750086
8.825870336,0.9993823170559732,-102.76343769640245
8.83913728,0.999558739781097,-103.2066568779576
8.852404224,0.9997558432466027,-103.65228945023416
8.865671168,0.9999647565598764,-104.10048813352856
8.878939136,1.000176046183348,-104.55139922526486
8.89220608,1.0003799300073302,-105.00498762261212
8.905473024,1.0005673875314507,-105.46109024940787
8.918739968,1.0007296579849698,-105.91945768439338
8.932006912,1.0008593739149951,-106.37976996344675
8.945273856,1.00095060768717,-106.84153531553716
8.9585408,1.0009989833577027,-107.30429146981056
8.971807744,1.0010022874665454,-107.76749572749998
8.985074688,1.000960129073229,-108.23060194837055
8.998341632,1.00087442491619,-108.6930534405808
9.011608576,1.0007487426212789,-109.15436759673862
9.02487552,1.0005888257503934,-109.61402412442028
9.038142464,1.0004017740964968,-110.07171251345163
9.051409408,1.0001959887487195,-110.5271217230207
9.064676352,0.9999807553206842,-110.98003601929466
9.077943296,0.9997658282720472,-111.4304486172055
9.09121024,0.9995610240033183,-111.87839885473616
9.104477184,0.9993755603073948,-112.32403679641155
9.117744128,0.9992181240654577,-112.76769378181899
9.131012096,0.9990958467407743,-113.20973001800968
9.14427904,0.9990144216453463,-113.65062733772034
9.157545984,0.9989776329649044,-114.09087947289176
9.170812928,0.998987518416857,-114.53107319303284
9.184079872,0.9990435498151259,-114.97173479985491
9.197346816,0.9991433452002036,-115.41351412809915
9.21061376,0.9992826570157642,-115.85683242950384
9.223880704,0.9994549954104811,-116.30218484925417
9.237147648,0.9996528127992911,-116.74992533149361
9.250414592,0.9998672403342761,-117.20030320816132
9.263681536,1.000088324897435,-117.65347856181192
9.27694848,1.00030635514168,-118.10944973886119
9.290215424,1.0005111904662636,-118.56815225616475
9.303482368,1.0006934964991088,-119.02936073895228
9.316749312,1.0008451059048098,-119.49276395367518
9.330016256,1.0009588114890262,-119.95789387006342
9.3432832,1.0010294804103297,-120.42429751310111
9.356550144,1.0010538034428487,-120.8914410190854
9.369817088,1.0010303847429518,-121.3587455243557
9.383085056,1.0009603714627429,-121.82560462799299
9.396352,1.0008464997285738,-122.29147208763737
9.409618944,1.0006939629554727,-122.75586771628721
9.422885888,1.0005095580713648,-123.21833572610298
9.436152832,1.0003014440305444,-123.67850408832648
9.449419776,1.000079073349971,-124.1361854546416
9.46268672,0.999852458895682,-124.59121779311133
9.475953664,0.9996319432586809,-125.04364462725837
9.489220608,0.9994274970069866,-125.4935815437692
9.502487552,0.9992484797413946,-125.94124649973857
9.515754496,0.9991031315910732,-126.38703714774647
9.52902144,0.9989982594703076,-126.83140306728745
9.542288384,0.998938703835563,-127.27485694544195
9.555555328,0.9989273366421627,-127.71798118747563
9.568822272,0.9989648257600817,-128.1613451929682
9.582089216,0.9990496639182591,-128.60560055744662
9.59535616,0.9991781250464592,-129.05126176882783
9.608623104,0.9993444880974678,-129.49885154767122
9.621890048,0.9995413503373918,-129.94876153394728
9.635158016,0.9997597251120878,-130.40136402546693
9.64842496,0.9999898474306034,-130.85683534890094
9.661691904,1.0002214477790476,-131.31524213395446
9.674958848,1.0004437423049188,-131.77659886597968
9.688225792,1.0006467791387492,-132.2406728136224
9.701492736,1.0008212651467037,-132.70720970787886
9.71475968,1.0009592090182517,-133.17579350371193
9.728026624,1.0010541307839709,-133.64595243350166
9.741293568,1.001101695148675,-134.11712682623696
9.754560512,1.0010995039113966,-134.58874798614335
9.767827456,1.0010475470342193,-135.06017748464302
9.7810944,1.0009480009438696,-135.53082154654663
9.794361344,1.0008051900361705,-136.00016869192834
9.807628288,1.000625465017856,-136.46765643088375
9.820895232,1.0004166895975477,-136.93292053449284
9.834162176,1.0001885546386189,-137.39561449179874
9.84742912,0.9999510113639278,-137.85561766008072
9.860696064,0.9997150259015717,-138.31282243923079
9.873963008,0.999491247121986,-138.76735518179953
9.887230976,0.999289837466531,-139.2193801050323
9.90049792,0.9991201541832704,-139.66924062627456
9.913764864,0.9989899856911562,-140.11737877828804
9.927031808,0.9989053186251493,-140.56428486134598
9.940298752,0.9988702829832757,-141.0105678564795
9.953565696,0.9988866724236304,-141.45684654258537
9.96683264,0.9989537553726905,-141.9037415591956
9.980099584,0.9990687840860892,-142.3518603244497
9.993366528,0.9992267140400223,-142.80179406296799
10.006633472,0.9994204996471311,-143.25399123054115
10.019900416,0.9996412874119754,-143.7088552627327
10.03316736,0.9998793425177033,-144.16664973193068
10.046434304,1.0001238407584048,-144.62755104972237
10.059701248,1.0003636745585445,-145.09153236068195
10.072968192,1.0005879630410957,-145.55851502568453
10.086235136,1.0007864817952041,-146.0282304476454
10.09950208,1.000950168707166,-146.50032957428866
10.112769024,1.001071470701917,-146.97430614295524
10.126036992,1.0011447332898291,-147.4496372092196
10.139303936,1.0011663641578272,-147.92571636128866
10.15257088,1.001135382957796,-148.40188198123099
10.165837824,1.0010529419057885,-148.87753073996123
10.179104768,1.0009224830311747,-149.35204031801698
10.192371712,1.000749792418237,-149.8248246551503
10.205638656,1.0005425523122105,-150.29545164096362
10.2189056,1.0003100527589766,-150.76354704462128
10.232172544,1.0000626921984541,-151.22883369670234
10.245439488,0.9998116295279265,-151.69120309936588
10.258706432,0.9995683102943035,-152.15068414805245
10.271973376,0.9993437122627007,-152.60741160140574
10.28524032,0.9991481938223516,-153.0616764155662
10.298507264,0.998990767104247,-153.51390168178708
10.311774208,0.9988786570259182,-153.9645454190402
10.325041152,0.9988172710602907,-154.41427008452655
10.338308096,0.9988094698360541,-154.86365896192913
10.35157504,0.9988559451580823,-155.31341397770626
10.364841984,0.9989546176274677,-155.7641647768755
10.378109952,0.9991013253283645,-156.21654041035964
10.391376896,0.9992895977038005,-156.67109225726665
10.40464384,0.9995108754928578,-157.12828022787374
10.417910784,0.9997553814948514,-157.5884557504993
10.431177728,1.0000119999373673,-158.0518439345652
10.444444672,1.0002691345258963,-158.5185302749159
10.457711616,1.0005152518155933,-158.98844202952995
10.47097856,1.0007389555471669,-159.4613675218539
10.484245504,1.0009301183904948,-159.93700041889403
10.497512448,1.0010800658996877,-160.41488436695778
10.510779392,1.0011816412807057,-160.89447278610604
10.524046336,1.0012301738271845,-161.37515046219644
10.53731328,1.001223308520977,-161.85624645972229
10.550580224,1.0011610339575272,-162.3371043389046
10.563847168,1.0010460202637526,-162.81702616458534
10.577114112,1.0008831810176053,-163.29543810875117
10.590381056,1.0006797848028652,-163.77178336649285
10.603648,1.000444790929062,-164.24559186481065
10.616914944,1.0001888890319262,-164.71656039804583
10.630182912,0.9999233275883851,-165.18445643060784
10.643449856,0.9996603528198751,-165.6492802980044
10.6567168,0.9994117810953856,-166.11109369599237
10.669983744,0.9991890052638166,-166.57014963748122
10.683250688,0.9990022830476445,-167.0267862373393
10.696517632,0.9988601615678284,-167.48154767496987
10.709784576,0.9987693024063115,-167.93499657914325
10.72305152,0.9987341719082466,-168.38775833379404
10.736318464,0.9987565284032073,-168.84058257581776
10.749585408,0.9988355221436533,-169.2941432878998
10.762852352,0.9989678784724887,-169.7491054453246
10.776119296,0.9991478195576832,-170.20611516171638
10.78938624,0.9993671993606049,-170.66571262503635
10.802653184,0.99961640402543,-171.12831300486803
10.815920128,0.9998840669885286,-171.59421658486607
10.829187072,1.0001582765501988,-172.06360232630024
10.842454016,1.0004265269120407,-172.53645880800173
10.85572096,1.0006765829855393,-173.01264815441314
10.868987904,1.0008971156495952,-173.4918674586972
10.882255872,1.0010780865323716,-173.97372437897945
10.895522816,1.001211014066332,-174.45767262798307
10.90878976,1.0012898006470616,-174.94308866493847
10.922056704,1.0013104794968475,-175.4293124588092
10.935323648,1.0012721034533416,-175.9156196967573
10.948590592,1.0011759815157217,-176.40126270439706
10.961857536,1.0010263027045836,-176.88560522435634
10.97512448,1.0008296440563884,-177.36801572586603
10.988391424,1.0005945135968386,-177.8479359380331
11.001658368,1.0003315284444327,-178.3250000633175
11.014925312,1.0000524811729725,-178.798895899879
11.028192256,0.9997698805575645,-179.2695067832568
11.0414592,0.9994965098003247,-179.73686842311866
11.054726144,0.9992450050937558,179.79887523909983
11.067993088,0.9990265934652401,179.3373497417042
11.081260032,0.9988516152755319,178.8781306653836
11.094526976,0.9987281337696194,178.42061381876402
11.10779392,0.9986619127143128,177.9641573141804
11.121060864,0.9986562025196735,177.50800274775918
11.134328832,0.9987117418514654,177.05142690839517
11.147595776,0.9988261110616914,176.59370504864012
11.16086272,0.9989943478596857,176.13409151415857
11.174129664,0.9992091029779956,175.67202604228976
11.187396608,0.9994608206661519,175.2069575297391
11.200663552,0.9997382451511866,174.73846683651468
11.213930496,1.000028832516081,174.26638313181465
11.22719744,1.0003193958761698,173.79056515099649
11.240464384,1.000596993578727,173.31109630883287
11.253731328,1.000848852296935,172.82821322463622
