freq,mag,phase
6.0,0.999317526763649,-13.021699020449004
6.008,0.9992398781288542,-13.293721288460441
6.016,0.9992032173089439,-13.56502325541896
6.024,0.9992099517825567,-13.836281076316677
6.032,0.9992597249912651,-14.108004303929778
6.04,0.999349914679138,-14.38073500641296
6.048,0.9994755131136612,-14.655007741563175
6.056,0.9996298475712934,-14.931295811165533
6.064,0.9998045413040698,-15.209880293503488
6.072,0.9999901848901604,-15.490982598689364
6.08,1.0001765291917242,-15.774659797868688
6.088,1.0003536869322396,-16.060936260588427
6.096,1.0005118453728619,-16.349532321090066
6.104,1.0006426134522297,-16.640184783252323
6.112,1.0007387018427114,-16.932443643221426
6.12,1.0007948542408494,-17.225847173719394
6.128,1.0008083077312182,-17.51982259222454
6.136,1.00077791798127,-17.813792221069082
6.144,1.000705499516939,-18.107208388589758
6.152,1.0005948222269145,-18.399460168737168
6.16,1.000452115994134,-18.69015174864821
6.168,1.0002846085797927,-18.978838826884857
6.176,1.000101692161083,-19.265272821790838
6.184,0.9999132696428583,-19.549371788017808
6.192,0.9997294030915839,-19.830990957236423
6.2,0.9995601770863851,-20.11042170442008
6.208,0.9994147562848509,-20.387776347936438
6.216,0.9993010313146442,-20.663508765787892
6.224,0.9992253807356275,-20.93810096067125
6.232,0.9991918025515124,-21.211972958377086
6.24,0.9992021068838618,-21.485863119230025
6.248,0.9992558572911234,-21.760241059171474
6.256,0.9993502896382539,-22.035733990495395
6.264,0.9994801402243841,-22.312871298173665
6.272,0.9996384490772903,-22.5919551095472
6.28,0.9998166435832054,-22.873509063831456
6.288,1.0000052347768555,-23.15756195708763
6.296,1.000193652899644,-23.444257113394098
6.304,1.0003718927549903,-23.73351927182319
6.312,1.000530259503907,-24.025151684765778
6.32,1.0006601836785451,-24.31884710491138
6.328,1.0007546809582861,-24.61415219070178
6.336,1.0008084053924855,-24.910537150481765
6.344,1.0008184990486793,-25.207469123086035
6.352,1.000784371793411,-25.50437434977887
6.36,1.0007080050665154,-25.80061788280094
6.368,1.000593055019261,-26.0957080592071
6.376,1.0004461138575178,-26.389132119415418
6.384,1.000274845165555,-26.680565627648296
6.392,1.000088621869292,-26.96968439615194
6.4,0.999897710979742,-27.25638411335656
6.408,0.9997120759492057,-27.54067369673701
6.416,0.9995422143331695,-27.82267352715328
6.424,0.9993968832369424,-28.102633887355537
6.432,0.9992844200929899,-28.3809568023833
6.44,0.9992106706012054,-28.658150831565347
6.448,0.9991799074031743,-28.934769798034154
6.456,0.9991937453945722,-29.21133674893348
6.464,0.9992514481093286,-29.488525671057356
6.472,0.999350005087267,-29.76683542975521
6.48,0.9994839614069156,-30.046815282276942
6.488,0.9996462862411717,-30.328873672134947
6.496,0.9998280376025386,-30.61338133527608
6.504,1.000019413980575,-30.90049041667333
6.512,1.0002101366980225,-31.190247370999398
6.52,1.000389738988231,-31.482658294414453
6.528,1.0005484997565743,-31.77741478268719
6.536,1.0006779434980093,-32.07422863851528
6.544,1.000770754107512,-32.37264344493467
6.552,1.0008220925679032,-32.67210718167454
6.56,1.000829154330003,-32.97210905548281
6.568,1.0007914064491095,-33.27199636717018
6.576,1.0007109259922407,-33.57120926397338
6.584,1.0005918455041243,-33.86923772218034
6.592,1.0004407104329645,-34.16551859762881
6.6,1.0002657628867484,-34.45977796209781
6.608,1.0000763304775095,-34.751667643200996
6.616,0.9998826950053814,-35.0410764706901
6.624,0.9996952422805365,-35.32806350853615
6.632,0.9995243357368426,-35.6127363610126
6.64,0.9993792169304736,-35.89537822744232
6.648,0.9992675122535404,-36.17643984218464
6.656,0.9991957474438931,-36.45634047273678
6.664,0.9991675718227613,-36.73571125839834
6.672,0.9991846932920923,-37.01508871130907
6.68,0.9992462284757377,-37.29508576121439
6.688,0.999348870684285,-37.57629876196254
6.696,0.9994870261133375,-37.859226616578226
6.704,0.9996532423634953,-38.14431381680348
6.712,0.9998385631595361,-38.43189252062693
6.72,1.0000331490379675,-38.72210180082617
6.728,1.0002260342973934,-39.01506811386447
6.736,1.0004071226134583,-39.31058394856598
6.744,1.0005665090189912,-39.60857948785786
6.752,1.0006954593884798,-39.908557750300446
6.76,1.0007869513830765,-40.210156153131514
6.768,1.0008362049381614,-40.51282880969619
6.776,1.0008402449604132,-40.8159504050001
6.784,1.0007989918776636,-41.118928731427324
6.792,1.000714560339441,-41.42123598798494
6.8,1.0005916156434833,-41.722205506584054
6.808,1.0004363737534183,-42.02150326269113
6.816,1.0002574752477122,-42.31860780782076
6.824,1.000064830903209,-42.61335491214263
6.832,0.9998683461116091,-42.90561639800293
6.84,0.9996789475236098,-43.19538677459373
6.848,0.9995067985276024,-43.48284455525545
6.856,0.999361373421029,-43.76826430935637
6.864,0.9992505991787266,-44.052072660490204
6.872,0.999180386873618,-44.33478506923755
6.88,0.9991547196396398,-44.61694350071577
6.888,0.9991749878728177,-44.8991818655903
6.896,0.9992402330293009,-45.18210142391465
6.904,0.9993467537574134,-45.46626209650195
6.912,0.9994891111679706,-45.752229038148705
6.92,0.999659356301955,-46.040385056593784
6.928,0.999848282688166,-46.331097031910616
6.936,1.0000459121562253,-46.624519096540254
6.944,1.0002414279784448,-46.92064256646952
6.952,1.0004241644988714,-47.21943783733485
6.96,1.0005841273210272,-47.52066953388813
6.968,1.0007130515466007,-47.82396513122923
6.976,1.0008034776907415,-48.12880067644487
6.984,1.0008506704531293,-48.4347102163189
6.992,1.0008521357931908,-48.741060793514784
7.0,1.0008075376232028,-49.04725188039945
7.008,1.0007193137013082,-49.35265575562974
7.016,1.0005921581898398,-49.65676288220453
7.024,1.0004329224004456,-49.95901903539237
7.032,1.0002502991275848,-50.259136099948975
7.04,1.000053983228955,-50.55684490532637
7.048,0.9998545911279622,-50.851959933508496
7.056,0.9996629613738381,-51.144637886298135
7.064,0.999489589713804,-51.43492544246652
7.072,0.9993437865394548,-51.72319844368557
7.08,0.9992333844409926,-52.00984082156626
7.088,0.9991647392845797,-52.29539794855652
7.096,0.9991411800828551,-52.58043025490198
7.104,0.9991645621991949,-52.86555891473491
7.112,0.9992331364334333,-53.151456241135
7.12,0.9993437510733819,-53.43868802905021
7.128,0.9994900383962226,-53.7276920191505
7.136,0.9996642426960326,-54.01895388526794
7.144,0.9998571529801922,-54.31285843323313
7.152,1.000058042510424,-54.609469382958835
7.16,1.0002561478394687,-54.90891062261278
7.168,1.00044086681784,-55.2109993050166
7.176,1.000601902019465,-55.51555982276188
7.184,1.000730751097686,-55.8221762714295
7.192,1.0008203662245303,-56.130337557203866
7.2,1.000865903049706,-56.439575972721656
7.208,1.000864784568148,-56.74920418065505
7.216,1.0008169823910438,-57.058634759441084
7.224,1.000725059026366,-57.36726218897245
7.232,1.0005940664736361,-57.67451156502699
7.24,1.0004306594146752,-57.97991074941822
7.248,1.000244119689175,-58.28308203049569
7.256,1.000044017147624,-58.58377863570392
7.264,0.9998416639951869,-58.88190460976502
7.272,0.9996475488771609,-59.17748596428927
7.28,0.9994725682422935,-59.470652415600625
7.288,0.9993261537585724,-59.76182609209157
7.296,0.9992159289319339,-60.05138100678
7.304,0.9991484692470786,-60.3398365098584
7.312,0.9991270852305737,-60.6278264309877
7.32,0.9991532033442534,-60.915917341964246
7.328,0.9992252320440042,-61.204804499219556
7.336,0.9993396623366424,-61.495041254730666
7.344,0.9994900476671156,-61.787173277842705
7.352,0.999668334234951,-62.08164992406049
7.36,0.9998650027268902,-62.3787552276765
7.368,1.0000694009721434,-62.67863983800038
7.376,1.000270409201567,-62.9813693293175
7.384,1.0004571093122079,-63.28683691848309
7.392,1.0006195392782042,-63.59472842288156
7.4,1.0007486859071781,-63.90471953832435
7.408,1.0008376822295213,-64.21628423385843
7.416,1.0008817545008384,-64.52887603451113
7.424,1.0008783152881988,-64.84189530282244
7.432,1.0008273698133796,-65.15459918152679
7.44,1.0007318254204984,-65.46649330319474
7.448,1.0005967702509748,-65.77700955783426
7.456,1.0004295144905897,-66.08556021658647
7.464,1.0002388845022434,-66.391822207637
7.472,1.0000351789164308,-66.69562838289671
7.48,0.9998293216491988,-66.99676678828796
7.488,0.9996326818873408,-67.29529444935145
7.496,0.9994558537659548,-67.59145546842143
7.504,0.9993083874113129,-67.88557840924818
7.512,0.9991983408822771,-68.17803748498143
7.52,0.9991315859171968,-68.46944265909582
7.528,0.9991120907631912,-68.76039016142369
7.536,0.9991406564953841,-69.05148149685081
7.544,0.9992161399309853,-69.34336526234951
7.552,0.9993341906125021,-69.63671248080756
7.56,0.999488649090763,-69.93199377162959
7.568,0.9996711025579968,-70.22964006643767
7.576,0.9998717123982953,-70.52997086296088
7.584,1.0000797759799482,-70.83315832378243
7.592,1.00028385496689,-71.13923835997356
7.6,1.000472983758282,-71.44806655222672
7.608,1.0006368850888978,-71.75936320483592
7.616,1.0007667747592695,-72.07275747882751
7.624,1.0008554016657516,-72.38780290000298
7.632,1.0008981528123617,-72.70377554031086
7.64,1.0008926488371854,-73.02017513879511
7.648,1.0008389007507716,-73.3362589351636
7.656,1.0007399340340617,-73.6514623964942
7.664,1.0006009297664813,-73.96523641265148
7.672,1.0004294278835175,-74.27699170647146
7.68,1.0002346400249662,-74.58644018017509
7.688,1.0000270839027787,-74.89334755110458
7.696,0.9998177303724173,-75.19753580402764
7.704,0.9996181940040942,-75.4991339092051
7.712,0.9994391772751857,-75.79832185005428
7.72,0.9992904683755601,-76.09536714626418
7.728,0.9991799421334332,-76.39080020687396
7.736,0.9991139469106904,-76.6851742784955
7.744,0.9990959799634933,-76.97906493061767
7.752,0.9991271802229996,-77.27316890875815
7.76,0.9992057246519208,-77.56811361147008
7.768,0.9993274096622817,-77.86454230461732
7.776,0.999485811133138,-78.16294307391969
7.784,0.9996725748343354,-78.46379074914961
7.792,0.9998772821433237,-78.76735957910873
7.8,1.0000891178550333,-79.07385328076924
7.808,1.0002965710438652,-79.38328339607011
7.816,1.0004882807866318,-79.69549982487126
7.824,1.000654181280332,-80.01024504134405
7.832,1.0007849613922497,-80.32709139254196
7.84,1.0008737171521789,-80.64554899395648
7.848,1.0009154645836102,-80.96498512700119
7.856,1.0009079099370704,-81.28480089940216
7.864,1.0008514856783928,-81.60430077878725
7.872,1.0007493071798563,-81.92285578529828
7.88,1.000606416362608,-82.23990203900098
7.888,1.0004307156794114,-82.55496473009534
7.896,1.0002316892539287,-82.86760048750772
7.904,1.0000198315730338,-83.17764961107851
7.912,0.9998068633692495,-83.48492550038928
7.92,0.9996040473391958,-83.78955908222005
7.928,0.9994226368712695,-84.09173559580904
7.936,0.9992722911088103,-84.39176186180163
7.944,0.9991612176028751,-84.69016385008482
7.952,0.9990954414216062,-84.98748887494266
7.96,0.9990787014506628,-85.2843876483332
7.968,0.9991120701634332,-85.58149098912602
7.976,0.9991935433429279,-85.87949595246793
7.984,0.9993189202679744,-86.17895471562844
7.992,0.9994814954245727,-86.48050555875656
8.0,0.9996724351110061,-86.78453528761494
8.008,0.9998815418919793,-87.09133616708455
8.016,1.0000973884824307,-87.40111036544587
8.024,1.0003084663976962,-87.713888789092
8.032,1.000503239244749,-88.02950219890685
8.04,1.0006711944443138,-88.34766224175553
8.048,1.000803307384842,-88.66798228085683
8.056,1.0008923835444037,-88.98985001267826
8.064,1.0009335244313278,-89.31277249388103
8.072,1.000924399813224,-89.63601378233344
8.08,1.0008654783883892,-89.95891111242358
8.088,1.0007598222001968,-90.28084545485454
8.096,1.000613110630917,-90.60124376687254
8.104,1.0004333020321863,-90.91955163031638
8.112,1.000229885500757,-91.23542156676001
8.12,1.000013754974106,-91.54859962186269
8.128,0.9997967110593917,-91.85900830003347
8.136,0.9995904905309486,-92.16667776768314
8.144,0.9994061784352293,-92.47184436214134
8.152,0.9992538282991441,-92.77488077822585
8.16,0.9991418350002038,-93.07626126449519
8.168,0.9990761594333402,-93.37651958016778
8.176,0.9990604198786331,-93.67636313548647
8.184,0.9990956695044871,-93.97642726107489
8.192,0.9991800430276787,-94.27739920995674
8.2,0.9993090345926131,-94.57994622584988
8.208,0.9994756734885414,-94.88460112564502
8.216,0.9996709878163808,-95.19175664303064
8.224,0.9998845102775279,-95.5017939395329
8.232,1.0001048620861375,-95.81484324791224
8.24,1.000319777717287,-96.13092717849975
8.248,1.0005179571302047,-96.44989534736087
8.256,1.0006885505062222,-96.7715070456637
8.264,1.0008223324092693,-97.0951925785625
8.272,1.0009120199667585,-97.42055566666349
8.28,1.000952819445288,-97.74690839439278
8.288,1.0009422536013524,-98.0735979413679
8.296,1.0008810248782074,-98.39991101866129
8.304,1.0007722434553317,-98.72521919027346
8.312,1.0006217375381328,-99.0489184483937
8.32,1.0004375439703783,-99.37053576089087
8.328,1.0002295700889814,-99.68960898012419
8.336,1.0000089394059843,-100.00593934007676
8.344,0.9997875773936249,-100.31943674098733
8.352,0.9995775387495954,-100.63015538536641
8.36,0.999390043955396,-100.93832900047457
8.368,0.9992353073554437,-101.24429800325272
8.376,0.9991219131370745,-101.54859515429432
8.384,0.9990558724236748,-101.85174937120468
8.392,0.9990409635488908,-102.15449436688559
8.4,0.9990780505018946,-102.45749119458507
8.408,0.9991650363055838,-102.7614527543654
8.416,0.9992975421202436,-103.06699207395113
8.424,0.9994682603315639,-103.37465772616966
8.432,0.9996682206254,-103.68493972813498
8.44,0.9998863903946351,-103.99811579323833
8.448,1.0001112441258937,-104.31438139477022
8.456,1.0003306058772896,-104.63374429881144
8.464,1.0005323774277235,-104.95605696531447
8.472,1.000705972055641,-105.28099769463437
8.48,1.0008419179435126,-105.60812037325503
8.488,1.0009326858963001,-105.93688335495814
8.496,1.0009733239751788,-106.26665951145823
8.504,1.0009616680426183,-106.5967574856147
8.512,1.000898281146776,-106.92647050717281
8.52,1.0007864960967967,-107.25513828244944
8.528,1.000632159543011,-107.58217026824413
8.536,1.0004436372386343,-107.907013083806
8.544,1.0002308400035957,-108.22927823470334
8.552,1.000005377807958,-108.54876181721758
8.56,0.9997794332607761,-108.8653216500672
8.568,0.999565035484542,-109.1790528523484
8.576,0.9993740001887988,-109.49014723200294
8.584,0.9992166420268536,-109.79901424539524
8.592,0.9991012934931593,-110.10617223489147
8.600000512,0.9990347132206825,-110.41221851128033
8.608,0.9990200706043235,-110.71781052257894
8.615999488,0.9990586453882909,-111.02367286600858
8.624,0.999148326233302,-111.33048756076678
8.632000512,0.9992842883651425,-111.6389347798795
8.64,0.9994590999675568,-111.94956559752204
8.647999488,0.9996637535072419,-112.2628415634317
8.656,0.999886928110523,-112.5791392772505
8.664000512,1.000116623172936,-112.89856016718171
8.672,1.0003406470673317,-113.22111950333756
8.679999488,1.0005466208327591,-113.54669388212926
8.688,1.0007235293498786,-113.87492866068087
8.696000512,1.000861914701209,-114.20540951364791
8.704,1.000954216260775,-114.53756755601508
8.711999488,1.000995182488871,-114.87072121466528
8.72,1.000982709096589,-115.2041815991049
8.728000512,1.0009173604207708,-115.5372614743264
8.736,1.0008025480317184,-115.86924440015682
8.743999488,1.0006443392836208,-116.1995441942259
8.752,1.0004512082145685,-116.52758718028028
8.760000512,1.0002334537050146,-116.85302802426901
8.768,1.0000028758900297,-117.17558526556095
8.775999488,0.9997719524872793,-117.49515143302224
8.784,0.9995529385421704,-117.81181656751933
8.792000512,0.9993578560951731,-118.12580660192057
8.8,0.999197208663632,-118.4375203764342
8.807999488,0.9990797044114678,-118.74745210572942
8.816,0.99901192801636,-119.05624732237602
8.824000512,0.998997544616901,-119.3645968949916
8.832,0.9990373813455071,-119.67320602793292
8.839999488,0.9991294062842219,-119.98280929422556
8.848,0.9992687194405399,-120.29407082527133
8.856000512,0.9994478717450087,-120.60756895323557
8.864,0.999657276925239,-120.92377692964935
8.871999488,0.9998856819719373,-121.24303661489945
8.88,1.0001207377320671,-121.565503294709
8.888000512,1.0003496689877143,-121.89120539915433
8.896,1.0005603642067256,-122.21993956418521
8.903999488,1.0007411806530504,-122.55143483981176
8.912,1.000882485659173,-122.88517177071364
8.920000512,1.000976537426164,-123.22062343717586
8.928,1.0010183072603436,-123.55708943053341
8.935999488,1.0010052145685389,-123.89387833903749
8.944,1.0009380737667573,-124.23022493258144
8.952000512,1.0008204293535687,-124.56547838705319
8.96,1.0006583707027292,-124.89896963180168
8.967999488,1.0004606050648983,-125.2302082348326
8.976,1.0002377002092788,-125.55871560086354
8.984000512,1.0000017223732733,-125.8842776587825
8.992,0.9997653704139805,-126.2067774856073
8.999999488,0.9995412202027809,-126.52629281413384
9.008,0.9993415854881051,-126.84307285657972
9.016000512,0.9991772295203565,-127.15750886988475
9.024,0.9990571283701588,-127.47015904739973
9.031999488,0.9989878176821076,-127.78160246291145
9.04,0.9989731884775681,-128.09260456076754
9.048000512,0.9990140646794695,-128.40386955280795
9.056,0.9991083811639521,-128.71611443156715
9.063999488,0.999251079132275,-129.03006534675552
9.072,0.9994346556080479,-129.34629532134232
9.080000512,0.9996491429731416,-129.66530138713983
9.088,0.999882970170285,-129.98742119464447
9.095999488,1.000123676227461,-130.312815659222
9.104,1.0003582099918105,-130.64149701039182
9.112000512,1.0005739244537475,-130.97331781643885
9.12,1.0007591666108726,-131.3078960416304
9.127999488,1.000903889188414,-131.644841116498
9.136,1.0010003123540339,-131.98347790071568
9.144000512,1.0010430832922834,-132.32318175877867
9.152,1.001029763657183,-132.66319155746933
9.159999488,1.0009610326960334,-133.0027712676068
9.168,1.000840609962555,-133.34121350340672
9.176000512,1.000674633034907,-133.67784981913607
9.184,1.0004720357949872,-134.01213100012706
9.191999488,1.0002437685840402,-134.3436409343717
9.2,1.0000019838660728,-134.67212925956346
9.208000512,0.9997596625387067,-134.9974589812577
9.216,0.9995299731024717,-135.31974348869088
9.223999488,0.9993252731611505,-135.6391929433088
9.232,0.9991567400013973,-135.95626874372704
9.240000512,0.9990334331523734,-136.2714526938633
9.248,0.9989621402463333,-136.58543458234058
9.255999488,0.9989470136752345,-136.898899000201
9.264,0.9989887231465757,-137.21265219578302
9.272000512,0.9990851093471987,-137.52741289481534
9.28,0.9992312634675822,-137.84390582350386
9.287999488,0.9994192694894614,-138.16272401558552
9.296,0.9996389965448127,-138.48438164849438
9.304000512,0.9998787918822002,-138.8092183240371
9.312,1.0001255517385108,-139.13739182484719
9.319999488,1.000366111436064,-139.4689448106742
9.328,1.000587374985856,-139.8036762951832
9.336000512,1.000777633263604,-140.14128259585416
9.344,1.0009263324988262,-140.4812278467271
9.351999488,1.0010254723667416,-140.82298069909825
9.36,1.0010697977733793,-141.1657998511469
9.368000512,1.0010565265824225,-141.50894852643938
9.376,1.0009864458083946,-141.85162614806495
9.383999488,1.0008632168923393,-142.19314380631863
9.392,1.000693209921625,-142.53278412820694
9.400000512,1.0004857583822915,-142.87006450504884
9.408,1.0002516229255305,-143.2044603268116
9.415999488,1.0000036158621854,-143.53574374674992
9.424,0.9997550116488727,-143.86379342906835
9.432000512,0.9995191591061594,-144.18872321099155
9.44,0.9993088650255146,-144.51068879660096
9.447999488,0.9991354373329169,-144.8302299808333
9.456,0.9990085173473594,-145.14783034558178
9.464000512,0.9989348840217306,-145.46415615887076
9.472,0.9989187570659259,-145.77995772054192
9.479999488,0.9989610134876827,-146.09603327935042
9.488,0.9990594736874887,-146.41314969568555
9.496000512,0.9992089411984043,-146.73194282220362
9.504,0.9994015504865272,-147.05319406374332
9.511999488,0.9996268381641102,-147.37731519631356
9.52,0.9998728375146563,-147.7046661126326
9.528000512,1.000126191351271,-148.03547412074929
9.536,1.0003733038151235,-148.3697235761816
9.543999488,1.0006008716250512,-148.7072200025642
9.552,1.0007965634928144,-149.0476885710774
9.560000512,1.0009497567421746,-149.39056949856842
