freq,mag,phase
6.0,1.0000479603416215,134.56516016098922
6.04060928,1.0000410772147794,131.81134528081733
6.081218048,1.0000346303785177,129.05955063983882
6.121827328,1.0000278983859434,126.30972501853672
6.162436608,1.0000209923225793,123.56188014658815
6.203045888,1.0000139329647677,120.8159663689918
6.243654656,1.0000067423693193,118.07202750828493
6.284263936,0.9999994650094711,115.32995919324759
6.324873216,0.9999922285612564,112.58980347430558
6.365481984,0.999985123177547,109.85147536273278
6.406091264,0.9999780038026412,107.11498973493666
6.446700544,0.9999711760576144,104.38028739188029
6.487309824,0.9999645612359228,101.64734474817448
6.527918592,0.9999582067375513,98.91612974780946
6.568527872,0.9999522425922703,96.18660621481115
6.609137152,0.9999465636889262,93.45870920985051
6.649746432,0.9999413281803803,90.7324141031321
6.6903552,0.9999365969072851,88.00767786747956
6.73096448,0.9999323660323639,85.28444435426161
6.77157376,0.9999285760453188,82.56267797892947
6.812182528,0.999925386908034,79.84231885536576
6.852791808,0.99992280516487,77.12330974632074
6.893401088,0.9999208770591432,74.40562895539799
6.934010368,0.999919510642052,71.68921043901607
6.974619136,0.999918794938417,68.97397311236072
7.015228416,0.9999186729794151,66.25989406082597
7.055837696,0.9999191964925628,63.54689968797574
7.096446464,0.99992027463549,60.83491307129464
7.137055744,0.999922098360691,58.12395521006559
7.177665024,0.9999245240660777,55.41387008695268
7.218274304,0.9999274893556341,52.70466292402779
7.258883072,0.9999310878418167,49.99622545395202
7.299492352,0.9999351264538079,47.28854890029385
7.340101632,0.999939744608098,44.58154267926692
7.380710912,0.9999448469290918,41.87513932370283
7.42131968,0.9999503526191659,39.16929496667476
7.46192896,0.9999562067926331,36.463953548631224
7.50253824,0.9999624946505674,33.75902365403857
7.543147008,0.9999690293247011,31.0544870856103
7.583756288,0.9999758397427958,28.350239656008704
7.624365568,0.9999828999350262,25.646249025825586
7.664974848,0.9999901033251252,22.942437086804688
7.705583616,0.9999974191392205,20.238759286868778
7.746192896,1.0000046609169262,17.535159199527026
7.786802176,1.0000120118447753,14.831553562926533
7.827410944,1.0000192186605639,12.127905789599081
7.868020224,1.0000263940419454,9.424142896224799
7.908629504,1.0000333283064957,6.720220236071362
7.949238784,1.0000400555795523,4.016070635468485
7.989847552,1.0000464499026998,1.3116583926765293
8.030456832,1.0000526346700775,-1.3930822974043555
8.071066112,1.0000583426210325,-4.098222094622782
8.11167488,1.000063589295773,-6.803781629616044
8.15228416,1.000068511895166,-9.509848621848937
8.19289344,1.0000727838832961,-12.216441020508743
8.23350272,1.00007659866844,-14.92362247613341
8.274111488,1.0000797435236288,-17.631424989640234
8.314720768,1.000082353352617,-20.339934757093367
8.355330048,1.0000843310918095,-23.049172410601894
8.395939328,1.0000856192608643,-25.759184800509267
8.436548096,1.0000862289208754,-28.46999174169335
8.477157376,1.0000862455779926,-31.181667139109443
8.517766656,1.0000855092844063,-33.89423908932074
8.558375424,1.000084113468644,-36.60777202121403
8.598984704,1.000082050666449,-39.32225908726181
8.639593472,1.0000793089104747,-42.0377413259
8.680203264,1.0000758966002408,-44.75430103222899
8.720812032,1.0000719172631818,-47.471925528232
8.761421824,1.0000671615175925,-50.19064731678881
8.802030592,1.000062001132059,-52.91052826378314
8.84263936,1.0000561605641323,-55.631583843389016
8.883249152,1.000049871083628,-58.35382074053806
8.92385792,1.0000430658923252,-61.07727623686103
8.964466688,1.0000359276027868,-63.80198550816197
9.00507648,1.0000282944705956,-66.52796707420875
9.045685248,1.0000204731779685,-69.25523843611124
9.086294016,1.0000122369210347,-71.98381841300142
9.126903808,1.000003886439667,-74.71372407209256
9.167512576,0.9999954255667771,-77.4449563170676
9.208121344,0.9999868971537752,-80.17756262640599
9.248731136,0.99997822626956,-82.91153775519872
9.289339904,0.9999697644955047,-85.64687422715954
9.329949696,0.9999613578875708,-88.38360070786224
9.370558464,0.9999531627270788,-91.12175716063845
9.411167232,0.9999452190149726,-93.86127939253738
9.451777024,0.9999376440619386,-96.60223508255338
9.492385792,0.9999304115566385,-99.34457896024286
9.53299456,0.999923656872291,-102.08834801751703
9.573604352,0.9999174362722948,-104.83351678399622
9.61421312,0.9999117689757212,-107.58010625618682
9.654821888,0.9999068022299832,-110.32808509513526
9.69543168,0.9999025215766023,-113.07747457157349
9.736040448,0.9998989510839028,-115.82824546993156
9.77665024,0.9998960602099505,-118.58039394539945
9.817259008,0.9998940875048128,-121.33391363101693
9.857867776,0.9998928457809516,-124.08880387267145
9.898477568,0.9998926389626721,-126.84502488989214
9.939086336,0.9998931166853242,-129.60255803823284
9.979695104,0.9998945912066061,-132.36141361894622
10.020304896,0.9998969077302257,-135.12154409992888
10.060913664,0.9999000061231643,-137.88294058171786
10.101522432,0.9999042234249614,-140.64558542113897
10.142132224,0.999909054516633,-143.4094515015015
10.182740992,0.999914870681635,-146.1744982128988
10.22334976,0.9999213977597523,-148.9407038434499
10.263959552,0.9999286642770824,-151.70804811688868
10.30456832,0.9999366343923144,-154.4764824694902
10.345178112,0.9999452759990596,-157.24596244370787
10.38578688,0.9999544761995336,-160.01648891888496
10.426395648,0.9999641723706698,-162.78800186414415
10.46700544,0.999974368221381,-165.56045645158065
10.507614208,0.9999848171546427,-168.33381153109926
10.548222976,0.999995680953199,-171.10805014143307
10.588832768,1.000006615711042,-173.88309227703684
10.629441536,1.0000176487689316,-176.6589110187856
10.670050304,1.0000287533204932,-179.43546320128317
10.710660096,1.0000397387550213,177.78731502242135
10.751268864,1.0000506092574892,175.00947217047215
10.791878656,1.000061068965877,172.23104576499696
10.832487424,1.0000712335114006,169.45209852635108
10.873096192,1.0000809626372513,166.67268446050838
10.913705984,1.0000899747224268,163.89287533639634
10.954314752,1.0000985085068586,161.11269661356937
10.99492352,1.0001062065872555,158.33221321707094
11.035533312,1.0001130422115816,155.5514940348503
11.07614208,1.0001191167129293,152.77060340179116
11.116750848,1.0001242321620445,149.98959855928643
11.15736064,1.0001282273216818,147.20851840780009
11.197969408,1.0001312377882048,144.42744149413684
11.238578176,1.0001331076271243,141.64643456030788
11.279187968,1.0001338510447981,138.86554714584278
11.319796736,1.0001333955318734,136.0848433849921
11.360406528,1.0001318021760037,133.30438157716836
11.401015296,1.0001290560587037,130.52422481590614
11.441624064,1.0001251438989691,127.74443813288481
11.482233856,1.0001200851359453,124.9650693076043
11.522842624,1.0001138197204056,122.18618411481742
11.563451392,1.00010656897842,119.40784515540663
11.604061184,1.0000981669662947,116.63010373911668
11.644669952,1.0000888595738628,113.85303493294595
11.68527872,1.0000786650190783,111.07666483449457
11.725888512,1.000067620127458,108.30104855648577
11.76649728,1.0000558525375005,105.52627931830891
11.807107072,1.0000434329287624,102.75235950024079
11.84771584,1.0000304035578567,99.97936345943221
11.888324608,1.0000170054765671,97.2073448448913
11.9289344,1.0000032371396017,94.43633133515657
11.969543168,0.9999893248277824,91.66635855696266
12.010151936,0.9999753716278184,88.8975045990372
12.050761728,0.9999613766958024,86.12978142130136
12.091370496,0.9999476132738743,83.36324495314612
12.131979264,0.9999341760629893,80.59791453084135
12.172589056,0.9999210585716984,77.83382290133108
12.213197824,0.9999085826705808,75.07101740486196
12.253807616,0.9998967130704162,72.30952188993373
12.294416384,0.9998856438192874,69.54935153308311
12.335025152,0.9998755348149548,66.79052712617309
12.375634944,0.9998663633496402,64.03310438909357
12.416243712,0.99985831839792,61.27707308963412
12.45685248,0.9998513541576456,58.52244339826158
12.497462272,0.999845703347803,55.76924932770782
12.53807104,0.9998413676205694,53.01750719350161
12.578679808,0.9998383926427996,50.267219670598344
12.6192896,0.999836918268341,47.51838663645823
12.659898368,0.9998367661539548,44.771030681498225
12.700507136,0.9998380778283945,42.025146440583875
12.741116928,0.9998408860559643,39.28073647284638
12.781725696,0.9998451565066964,36.53781247758869
12.822335488,0.9998508134574318,33.79636520872782
12.862944256,0.9998579272163607,31.056395055276823
12.903553024,0.9998662922345561,28.317895145473788
12.944162816,0.9998761295760986,25.58084730882658
12.984771584,0.9998870034246521,22.845265437393312
13.025380352,0.9998990514456689,20.11112440052608
13.065990144,0.9999121842247527,17.37842640316636
13.106598912,0.9999262597907554,14.647152341447573
13.14720768,0.9999410607050497,11.917295868346415
13.187817472,0.9999566236138545,9.188842076496549
13.22842624,0.9999726441860317,6.461773912209001
13.269036032,0.9999892559842203,3.736075367517245
13.3096448,1.000006053222229,1.0117286293116137
13.350253568,1.0000229943378205,-1.7112771377596094
13.39086336,1.0000399550724839,-4.432982675045841
13.431472128,1.000056754598435,-7.153375808853989
13.472080896,1.000073193336264,-9.872486009172201
13.512690688,1.0000892848506548,-12.590340864163169
13.553299456,1.0001047178948286,-15.30695752367977
13.593908224,1.0001193084971631,-18.022366432349926
13.634518016,1.0001332019440488,-20.736572135240884
13.675126784,1.000145975108714,-23.44960456432098
13.715735552,1.0001576481290086,-26.16151025494016
13.756345344,1.0001680029219904,-28.872278372425466
13.796954112,1.0001770636282061,-31.58194446703589
13.837563904,1.0001846896314024,-34.290542129559306
13.878172672,1.000190759396378,-36.998107365242745
13.91878144,1.000195243243367,-39.70463310962115
13.959391232,1.0001980602138745,-42.410184849074966
14.0,1.0001991102055516,-45.11476648048532
