freq,mag,phase
6.0,1.0000087717142927,42.82531337158175
6.007434752,0.9999910907644304,42.65424468826912
6.014870016,0.9999739555439161,42.483467060538686
6.022304768,0.9999582932947063,42.31287307874348
6.029740032,0.9999452368653602,42.142484652339434
6.037174784,0.9999353569254656,41.97219702564131
6.044609536,0.9999292800122221,41.802087355175296
6.0520448,0.9999272852405596,41.63198051272611
6.059479552,0.99992939593236,41.46189410397866
6.066914304,0.9999358643832238,41.29175223094556
6.074349568,0.9999459110650036,41.121436374442986
6.08178432,0.9999593296575636,40.9509991840181
6.089219584,0.9999752033242971,40.7803473343907
6.096654336,0.9999926350189997,40.60948133599777
6.104089088,1.000010805025021,40.43840627544514
6.111524352,1.00002854160436,40.26701838930763
6.118959104,1.000045042312974,40.095432941638244
6.126393856,1.0000592695996666,39.92362778889759
6.13382912,1.0000702889497124,39.75162422826218
6.141263872,1.0000777731604082,39.57953354157473
6.148699136,1.0000811227671427,39.40731494784498
6.156133888,1.000080213537564,39.23509497800906
6.16356864,1.0000750023638245,39.062893892994175
6.171003904,1.0000659026873553,38.89080274897594
6.178438656,1.0000532608547712,38.718849428954925
6.185873408,1.000037817689877,38.54705250902211
6.193308672,1.000020428958574,38.37556072175021
6.200743424,1.0000021121256892,38.20420614248412
6.208178688,0.9999838099787238,38.033151651733284
6.21561344,0.9999665784981946,37.86233794062171
6.223048192,0.9999514280868907,37.69171331267198
6.230483456,0.9999390844724221,37.521300054311226
6.237918208,0.9999302512942067,37.35100142196781
6.24535296,0.9999255048782436,37.18080044132848
6.252788224,0.9999251615713682,37.01064915000251
6.260222976,0.9999291072834752,36.84043763317436
6.26765824,0.999937222298074,36.67013376909908
6.275092992,0.9999490228714781,36.4997168298294
6.282527744,0.999963984520208,36.32915070445666
6.289963008,0.9999812017108712,36.15832214167336
6.29739776,0.9999995675845301,35.98724481760408
6.304832512,1.0000182705280314,35.81593195202142
6.312267776,1.0000362584980296,35.644330320990676
6.319702528,1.0000524542679508,35.472471317330424
6.327137792,1.0000659540575014,35.30048287416564
6.334572544,1.000076092865651,35.12830620402713
6.342007296,1.0000821775663937,34.95599199584681
6.34944256,1.000083942103333,34.78361459496811
6.356877312,1.0000812820849623,34.61123283250127
6.364312064,1.0000743346635215,34.43893274105124
6.371747328,1.000063344195763,34.266762490604115
6.37918208,1.0000490830247921,34.09471243357539
6.386617344,1.0000322332816187,33.9228757771837
6.394052096,1.0000137706788488,33.751305464355966
6.401486848,0.9999947451958306,33.579969887865325
6.408922112,0.9999760936689315,33.40888360651665
6.416356864,0.999959031766319,33.23805533038394
6.423791616,0.9999443598806389,33.067408151912105
6.43122688,0.9999329206760417,32.8969623666789
6.438661632,0.9999254169925078,32.726581455619886
6.446096896,0.9999222705313814,32.5563554715718
6.453531648,0.9999235856317924,32.386086326382554
6.4609664,0.9999294270059549,32.21579288655402
6.468401664,0.9999393167941514,32.04534818747349
6.475836416,0.9999529176499369,31.874777733583905
6.483271168,0.9999693127395104,31.703962537170728
6.490706432,0.9999877070390777,31.532987937806702
6.498141184,1.0000069971699614,31.36164891032155
6.505576448,1.000026159509698,31.190125636467315
6.5130112,1.000044138203593,31.018306487093632
6.520445952,1.0000599249088695,30.846261245974382
6.527881216,1.0000726252489078,30.67399108054719
6.535315968,1.0000815119680566,30.501613734230318
6.54275072,1.0000861607956255,30.329136529570157
6.550185984,1.000086174151543,30.156616880165053
6.557620736,1.0000816563532104,29.98406732028263
6.565056,1.0000728077097134,29.811640856319595
6.572490752,1.0000600809537372,29.639367408064622
6.579925504,1.000044137718952,29.46726435907038
6.587360768,1.0000260047445666,29.295408182456736
6.59479552,1.0000065195933574,29.12377408762773
6.602230272,0.9999868899751252,28.95241801805102
6.609665536,0.999968112736683,28.78131925073686
6.617100288,0.9999513174436649,28.610449853535613
6.624535552,0.9999373490339055,28.439787805910317
6.631970304,0.9999270451879002,28.26928877172379
6.639405056,0.9999210111583425,28.098933810719025
6.64684032,0.9999195701132364,27.928593258626776
6.654275072,0.9999227224882608,27.758202261074665
6.661709824,0.9999304466453885,27.5877952997936
6.669145088,0.9999422528571551,27.41722239965841
6.67657984,0.9999575507244168,27.24646776867057
6.684015104,0.999975425379702,27.07546344451059
6.691449856,0.9999949064214175,26.904238610851994
6.698884608,1.0000149721978937,26.7327179271092
6.706319872,1.0000344168535602,26.56092461737767
6.713754624,1.0000522172140207,26.388864292344046
6.721189376,1.0000674114889936,26.2165800429564
6.72862464,1.0000790810858697,26.044120412329878
6.736059392,1.0000865668083077,25.871518205375605
6.743494656,1.0000895076224148,25.69881060344618
6.750929408,1.0000877004336137,25.526141616486978
6.75836416,1.0000812372008276,25.353495114194978
6.765799424,1.0000704313220943,25.18093782597661
6.773234176,1.000055898542,25.008599833163352
6.780668928,1.0000384321166287,24.836450051459018
6.788104192,1.0000189960094787,24.66451939312402
6.795538944,0.9999987156484765,24.492868834160525
6.802974208,0.9999785578122435,24.321500202942925
6.81040896,0.9999598732331259,24.150364959333043
6.817843712,0.9999435148952273,23.97951815139141
6.825278976,0.9999304861708349,23.808791082969677
6.832713728,0.9999215054062613,23.638254926387855
6.84014848,0.9999170875792964,23.46782779913823
6.847583744,0.9999174507587659,23.29739502139578
6.855018496,0.9999226203076769,23.1269086497859
6.86245376,0.9999323340564467,22.9563242764454
6.869888512,0.9999460848154671,22.785597884193116
6.877323264,0.9999630080218612,22.61463466854763
6.884758528,0.999982229727918,22.44341568055824
6.89219328,1.0000027963340319,22.27195469987086
6.899628032,1.000023403058555,22.10020660073276
6.907063296,1.0000429661116073,21.92815544807654
6.914498048,1.0000603706556213,21.755871736849116
6.921933312,1.000074724552151,21.58334817406808
6.929368064,1.0000852806221114,21.410672644382043
6.936802816,1.0000911745085272,21.237861414946245
6.94423808,1.000092302436065,21.064977316364157
6.951672832,1.0000884892746333,20.892131876001066
6.959107584,1.0000799791599542,20.71936847845031
6.966542848,1.000067261455751,20.546701507399177
6.9739776,1.0000508883243093,20.37427360407475
6.981412864,1.0000318699664443,20.20206650021031
6.988847616,1.000011312321107,20.030097063716845
6.996282368,0.9999902755852467,19.85841648785177
7.003717632,0.9999699007811499,19.68702042439427
7.011152384,0.9999513333454049,19.515916120411884
7.018587136,0.9999357701413168,19.344996535776506
7.0260224,0.9999238158315231,19.174272563662775
7.033457152,0.9999163124873752,19.003669513026054
7.040892416,0.9999137185489423,18.83316257559078
7.048327168,0.999916076660341,18.662634471406527
7.05576192,0.9999233509779982,18.492004144363488
7.063197184,0.9999350951474631,18.321290372020318
7.070631936,0.9999507199261474,18.15037766161144
7.078066688,0.9999692773605102,17.979193152207934
7.085501952,0.999989807214289,17.807758899248565
7.092936704,1.00001119393513,17.63605782444655
7.100371968,1.0000322426050372,17.464034190489603
7.10780672,1.000051803325688,17.291752439085048
7.115241472,1.000068694657653,17.11918003620617
7.122676736,1.0000819981130504,16.946425507827254
7.130111488,1.0000910355892911,16.773504789095703
7.13754624,1.0000952690614393,16.60049679801208
7.144981504,1.0000943891174403,16.427479477742395
7.152416256,1.0000884153968574,16.25446430524119
7.15985152,1.0000778358286044,16.081568714854082
7.167286272,1.0000630813917237,15.908829333215529
7.174721024,1.0000449419212543,15.736307330849138
7.182156288,1.0000245386192372,15.564058941613586
7.18959104,1.0000029278539102,15.392065868303307
7.197025792,0.9999813073445575,15.22039158405701
7.204461056,0.9999608944417504,15.048949593178378
7.211895808,0.9999428031044031,14.877800977795985
7.219331072,0.9999279829530033,14.70686686932604
7.226765824,0.9999174823981971,14.536087240183944
7.234200576,0.9999117338171081,14.36544109698434
7.24163584,0.9999109608167351,14.194831570670706
7.249070592,0.9999154939804015,14.024181832902423
7.256505344,0.9999247897924192,13.85343666054784
7.263940608,0.9999387233541708,13.682520725977747
7.27137536,0.9999562294992567,13.511393737973137
7.278810624,0.9999763981720545,13.340005665171923
7.286245376,0.9999980832394496,13.168350368474377
7.293680128,1.0000202483002578,12.996341497416834
7.301115392,1.0000414640750432,12.824065457185549
7.308550144,1.0000607487846456,12.651523779684018
7.315984896,1.0000768778363962,12.478717752751924
7.32342016,1.0000889237633959,12.305693885939066
7.330854912,1.0000963870025468,12.13256597933513
7.338290176,1.0000986832542997,11.959348719644613
7.345724928,1.0000956179584035,11.786147608534614
7.35315968,1.0000875737304955,11.612980763087918
7.360594944,1.0000747785437214,11.439978930151383
7.368029696,1.0000580154712502,11.267161038724714
7.375464448,1.0000381745188727,11.094543583675236
7.382899712,1.000016498459963,10.922267565684264
7.390334464,0.9999939317999221,10.750283992992198
7.397769728,0.9999718678443144,10.578530293041137
7.40520448,0.9999516117670552,10.407121281712579
7.412639232,0.9999340840008559,10.235962112962804
7.420074496,0.9999205220850975,10.064976369948626
7.427509248,0.9999114857017631,9.89415869573849
7.434944,0.999907630719746,9.72343475119188
7.442379264,0.9999090322914944,9.552692242731403
7.449814016,0.9999157666408753,9.38193684546337
7.45724928,0.9999273460898866,9.21103938821653
7.464684032,0.9999433211257809,9.039917827100137
7.472118784,0.9999624881305608,8.868583125526706
7.479554048,0.9999842139340648,8.69694365931609
7.4869888,1.0000070688684606,8.525010205769123
7.494423552,1.000029652536264,8.352757764303197
7.501858816,1.0000510447292672,8.180205608617399
7.509293568,1.0000698128204968,8.007385936766429
7.516728832,1.0000847760385385,7.834312382987864
7.524163584,1.0000954942847076,7.661058338313478
7.531598336,1.0001010630978249,7.4876847448127535
7.5390336,1.0001012834733427,7.314277601408587
7.546468352,1.0000959672483238,7.140881250350351
7.553903104,1.0000855728188667,6.967594219917632
7.561338368,1.0000706594119744,6.794487446126774
7.56877312,1.0000519535713468,6.621574326290081
7.576208384,1.0000305553675914,6.448938078019395
7.583643136,1.0000075743786792,6.27661442815257
7.591077888,0.9999843847654222,6.104560942254765
7.598513152,0.9999621624001731,5.9328532641872656
7.605947904,0.999942173320905,5.761423939089573
7.613382656,0.999925621869359,5.590232125524568
7.62081792,0.9999133185140073,5.419211699733879
7.628252672,0.9999060329811927,5.248337686381722
7.635687936,0.9999042415697835,5.077508726545513
7.643122688,0.9999079098150948,4.906667974669356
7.65055744,0.9999169239122124,4.73573672352811
7.657992704,0.9999308266156876,4.564635271245508
7.665427456,0.9999487665876696,4.393333800185101
7.672862208,0.9999699558527813,4.221753296175624
7.680297472,0.9999929281188282,4.049880364188201
7.687732224,1.00001664697191,3.8776574312721945
7.695167488,1.000039648229015,3.705112532852585
7.70260224,1.000060769231913,3.5322807793466606
7.710036992,1.0000787806319342,3.3591968666855325
7.717472256,1.0000926528705734,3.185862106470297
7.724907008,1.000101604394855,3.012352624675441
7.73234176,1.0001051582044787,2.83876999377808
7.739777024,1.0001030742074535,2.6651666769087208
7.747211776,1.0000955350051048,2.4916167400700164
7.75464704,1.0000827683520486,2.3181965842147267
7.762081792,1.000065650013594,2.1449956607567358
7.769516544,1.000045041097276,1.9720124182030592
7.776951808,1.000022079411071,1.7993154622388043
7.78438656,0.9999980583781739,1.6269568462508863
7.791821312,0.9999741627433282,1.4549038458234123
7.799256576,0.9999520216122272,1.2831763161253418
7.806691328,0.9999326263007708,1.1116846125516757
7.814126592,0.9999172015696984,0.9404647890734296
7.821561344,0.9999065711264902,0.7694002360882821
7.828996096,0.9999012417939793,0.5984643516614597
7.83643136,0.9999015969446042,0.42755438397008144
7.843866112,0.9999076833199345,0.2565602040882376
7.851300864,0.9999192756081637,0.08547929225410622
7.858736128,0.9999352580747913,-0.08580146081321634
7.86617088,0.9999553105318081,-0.2573552447089049
7.873606144,0.9999781656742457,-0.42918712047829455
7.881040896,1.0000023255455035,-0.6013384286143585
7.888475648,1.0000267758303365,-0.773842642533317
7.895910912,1.0000499596530472,-0.9466881737515832
7.903345664,1.0000706513365272,-1.1197937939649387
7.910780416,1.000087657919504,-1.2932057892783735
7.91821568,1.0001001345265843,-1.4667946620469352
7.925650432,1.000107145873607,-1.6405444745785436
7.933085696,1.0001084707512964,-1.8143359456884676
7.940520448,1.0001039732575991,-1.9881346279352392
7.9479552,1.0000938776204857,-2.1618307313349896
7.955390464,1.0000787820590475,-2.3353700888069917
7.962825216,1.0000595054349461,-2.508690045063308
7.970259968,1.0000370274754071,-2.6817217634169075
7.977695232,1.0000126425060671,-2.854431309320784
7.985129984,0.999987780168487,-3.0268090483456036
7.992565248,0.99996361905504,-3.1988951625877795
8.0,0.9999416253962564,-3.3706521577582267
8.007434752,0.9999231677387429,-3.5421241749165833
8.014870016,0.9999091325435034,-3.7133951658615216
8.022304768,0.9999002545249556,-3.884506336271278
8.029740032,0.9998971096840821,-4.055556202540422
8.037174784,0.9998999341128111,-4.226594963171004
8.044609536,0.9999084939989391,-4.397715446822189
8.0520448,0.9999223939184504,-4.569009323367915
8.059479552,0.999940872779486,-4.740509098300208
8.066914304,0.9999629038030567,-4.912305273465962
8.074349568,0.9999871975743871,-5.0843846295778485
8.08178432,1.0000125413742404,-5.256858748540491
8.089219584,1.0000375538852966,-5.429651996455877
8.096654336,1.000060594811209,-5.602757572004333
8.104089088,1.0000804682411273,-5.776218730748492
8.111524352,1.0000963457991483,-5.9498813114125735
8.118959104,1.0001069476199909,-6.123752318357953
8.126393856,1.0001119233685034,-6.297761219886053
8.13382912,1.00011085370447,-6.4717500335619755
8.141263872,1.0001037958488321,-6.6457235484973145
8.148699136,1.000091262130904,-6.819559160327103
8.156133888,1.0000737351771014,-6.99321649441113
8.16356864,1.0000523035584712,-7.166606513751265
8.171003904,1.0000281337947903,-7.339682589054519
8.178438656,1.0000025424087131,-7.512414565069855
8.185873408,0.9999768604839133,-7.684856912942429
8.193308672,0.999952705143764,-7.856902407743203
8.200743424,0.9999313032084144,-8.028684515129038
8.208178688,0.9999138330515891,-8.20020966842033
8.21561344,0.9999013167245878,-8.371515884228119
8.223048192,0.999894551067608,-8.542712419469384
8.230483456,0.9998937719145934,-8.713847456647306
8.237918208,0.9998991647327911,-8.885035237581091
8.24535296,0.9999103511103695,-9.056330391435853
8.252788224,0.9999267800556463,-9.227829309496949
8.260222976,0.9999475109461536,-9.399549560543111
8.26765824,0.9999714689197625,-9.571626721957863
8.275092992,0.9999972266811371,-9.74400940461028
8.282527744,1.0000234759103805,-9.916768998853515
8.289963008,1.0000485423313732,-10.089855088081011
8.29739776,1.000071270188523,-10.263328344453571
8.304832512,1.0000903673293366,-10.437053047134047
8.312267776,1.0001046827459439,-10.611002024193958
8.319702528,1.0001133689555135,-10.785169012926524
8.327137792,1.0001159833836386,-10.959381248302128
8.334572544,1.0001123706125754,-11.133578356171405
8.342007296,1.00010278570893,-11.307734396105833
8.34944256,1.0000874803177944,-11.481703873207417
8.356877312,1.0000675169687212,-11.655456675329948
8.364312064,1.000044025951469,-11.828915681927029
8.371747328,1.0000182671703814,-12.0020587906715
8.37918208,0.9999915887406934,-12.17483914388309
8.386617344,0.9999654617531711,-12.347259701369307
8.394052096,0.9999415291709828,-12.519335077975182
8.401486848,0.9999208619589098,-12.691150054779657
8.408922112,0.9999047269161134,-12.862695252805494
8.416356864,0.9998941367370094,-13.034064553336135
8.423791616,0.9998896599959948,-13.20532755496918
8.43122688,0.999891424243512,-13.376591268673641
8.438661632,0.9998994364874632,-13.547928576743283
8.446096896,0.9999132904998473,-13.719398133085539
8.453531648,0.9999322786970917,-13.8911284009215
8.4609664,0.9999552424850994,-14.063110829614349
8.468401664,0.9999809305107309,-14.235442058274417
8.475836416,1.0000079811153806,-14.408149228611109
8.483271168,1.000034874435471,-14.58125141292635
8.490706432,1.0000600338471832,-14.754688452250893
8.498141184,1.0000822155832636,-14.928449046730085
8.505576448,1.0000999372938308,-15.102485762111018
8.5130112,1.0001125245837028,-15.276755352067223
8.520445952,1.0001189680809441,-15.451147594938856
8.527881216,1.000119198836591,-15.625573004973699
8.535315968,1.0001128459580828,-15.800035455023771
8.54275072,1.000100298426644,-15.974318837930753
8.550185984,1.0000825010566723,-16.14841185991559
8.557620736,1.0000602408093346,-16.322235766954805
8.565056,1.0000348314213805,-16.495780363184522
8.572490752,1.0000075250075509,-16.66895175992563
8.579925504,0.9999799542877099,-16.841742782144742
8.587360768,0.9999535874954367,-17.01417296031108
8.59479552,0.9999300548883419,-17.18626693326997
8.602230784,0.9999104604268769,-17.358088140626865
8.609665024,0.9998960949751632,-17.529685369395988
8.617100288,0.9998875989052686,-17.70111143009376
8.624535552,0.9998854791405631,-17.872493136206014
8.631969792,0.9998901188216052,-18.043875340542357
8.639405056,0.9999009531894943,-18.2153872042649
8.64684032,0.9999175400440561,-18.387088066993492
8.654275584,0.9999390258963293,-18.55904032073381
8.661709824,0.9999641114239181,-18.731335697300175
8.669145088,0.9999914852087042,-18.90397719479577
8.676580352,1.0000195516564212,-19.077005092477876
8.684014592,1.0000468087160173,-19.250422915558
8.691449856,1.000071858020648,-19.424169809120386
8.69888512,1.0000930905171537,-19.59826607769363
8.70631936,1.0001093754093529,-19.77264720529906
8.713754624,1.0001199353385943,-19.947187371243956
8.721189888,1.0001238722835941,-20.121836025019284
8.728624128,1.000121291790851,-20.296503555933292
8.736059392,1.0001120103455226,-20.47113703447396
8.743494656,1.000096840791419,-20.64555607426684
8.750928896,1.0000763111171633,-20.81977321705129
8.75836416,1.0000516762838574,-20.993689585232346
8.765799424,1.0000245161013548,-21.16724716095434
8.773234688,0.999995757744087,-21.340452462251037
8.780668928,0.9999677402240009,-21.513255621567378
8.788104192,0.9999413483757168,-21.685739097742523
8.795539456,0.999918633139267,-21.857846085010408
8.802973696,0.9999004046609992,-22.029672115752927
8.81040896,0.9998878299992959,-22.201350395661937
8.817844224,0.9998817415288903,-22.372837203033463
8.825278464,0.9998824227014833,-22.54434331397828
8.832713728,0.9998898201638945,-22.715903305635372
8.840148992,0.9999036055466194,-22.887601257832046
8.847583232,0.9999230027611904,-23.059519834035626
8.855018496,0.9999469324679866,-23.23174268334587
8.86245376,0.999974105415395,-23.40434123504394
8.869888,1.0000029079050792,-23.577291972576134
8.877323264,1.000031824134414,-23.750670664351144
8.884758528,1.0000593013783288,-23.92443780800454
8.892193792,1.0000837421506454,-24.098550335475057
8.899628032,1.000103771003994,-24.272979079985546
8.907063296,1.0001182354969709,-24.44765050578948
8.91449856,1.0001264380276895,-24.622485188706158
8.9219328,1.0001277635558965,-24.797392171000375
8.929368064,1.0001223640312786,-24.972280666362632
8.936803328,1.000110130433122,-25.147062499789122
8.944237568,1.000091933871544,-25.321650808410322
8.951672832,1.000068921176005,-25.495953837092998
8.959108096,1.0000420735532685,-25.66992469730637
8.966542336,1.000012969662904,-25.843540666342133
8.9739776,0.999983427375329,-26.016752067301617
8.981412864,0.999954900643968,-26.18956737183321
8.988847104,0.999928961490701,-26.362053618191524
8.996282368,0.9999071303811057,-26.534177463844284
