freq,mag,phase
6.0,1.0014252703286481,27.67941967082706
6.002287616,1.0014857344943495,27.48746798076012
6.004575232,1.001452837239544,27.295210699594662
6.006862848,1.001328664466249,27.103986448001585
6.009150464,1.0011208853858333,26.915108374137862
6.011438592,1.0008426494424147,26.729652406849556
6.013726208,1.0005112652959638,26.54850853662106
6.016013824,1.0001478428722002,26.372320184307053
6.01830144,0.9997750775441603,26.2013895514058
6.020589056,0.9994166263157749,26.0356938150777
6.022876672,0.999094907472575,25.8748565853358
6.025164288,0.9988306133568388,25.718195206840747
6.027451904,0.998640259849303,25.564757021078616
6.029740032,0.9985359636835484,25.413385740503852
6.032027648,0.9985243407111148,25.262771981208285
6.034315264,0.9986061297993376,25.111585546955723
6.03660288,0.9987762554540502,24.958463018445563
6.038890496,0.9990239137342146,24.80224160992563
6.041178112,0.9993334830456911,24.641860665758944
6.043465728,0.9996853102699879,24.47659034446824
6.045753344,1.00005723909523,24.305989630066797
6.04804096,1.0004257666899483,24.12992554807958
6.050329088,1.0007676947933482,23.948641901643587
6.052616704,1.001061505139016,23.762662507314648
6.05490432,1.0012886960880405,23.572824666763157
6.057191936,1.001434897334044,23.380210268805772
6.059479552,1.0014908818282182,23.186045052646303
6.061767168,1.0014532166012475,22.99165952633277
6.064054784,1.0013242828052782,22.798389057235887
6.0663424,1.0011119824630543,22.607469591139132
6.068630016,1.000829789366398,22.42006393798062
6.070918144,1.0004953660434353,22.237024192702656
6.07320576,1.0001298617871306,22.05896355207495
6.075493376,0.9997561503299454,21.886160938872976
6.077780992,0.999397852817968,21.71859094671384
6.080068608,0.999077697847917,21.55585882595452
6.082356224,0.9988157758595392,21.397276045566258
6.08464384,0.998628817281133,21.24186362089316
6.086931456,0.9985285923098378,21.08845361649775
6.089219584,0.9985216071925974,20.935759039377647
6.0915072,0.9986080792561477,20.782395344194963
6.093794816,0.9987826503701311,20.627020802316753
6.096082432,0.9990344695537535,20.468473653937377
6.098370048,0.9993473790876708,20.305723491340824
6.100657664,0.9997016951917458,20.138049166089594
6.10294528,1.0000751236935175,19.96497984560522
6.105232896,1.000444021869618,19.786450953541216
6.107520512,1.0007851829826027,19.602688100320332
6.10980864,1.001077060574319,19.414233578567632
6.112096256,1.0013014169738996,19.221964009390746
6.114383872,1.0014439535728492,19.026964515169446
6.116671488,1.001495808133378,18.830437163663095
6.118959104,1.0014537118974298,18.63377339197046
6.12124672,1.0013203141662679,18.438260430071143
6.123534336,1.0011038794277138,18.245182729138392
6.125821952,1.000818005818556,18.055645515314882
6.128109568,1.0004807285184663,17.870520936610195
6.130397696,1.0001132175171388,17.690394680991044
6.132685312,0.9997385707840812,17.51555898755785
6.134972928,0.9993805347232148,17.345956716644164
6.137260544,0.9990615997599636,17.18115647641967
6.13954816,0.9988019672358999,17.02048944761874
6.141835776,0.9986181892163541,16.86294421275485
6.144123392,0.9985217388482172,16.707351783705764
6.146411008,0.9985188710984656,16.552397381759974
6.148699136,0.9986096792908645,16.396681856629755
6.150986752,0.9987885186844566,16.238919684414984
6.153274368,0.9990440743971426,16.077916129901894
6.155561984,0.999360183487871,15.912643773415127
6.1578496,0.9997168853064404,15.742382414707397
6.160137216,1.0000916443650354,15.566738508637785
6.162424832,1.0004610067866782,15.38559090644724
6.164712448,1.0008014431654821,15.199203062182105
6.167000064,1.0010915767892754,15.008167456076693
6.169288192,1.0013133101943426,14.813325865598252
6.171575808,1.0014526040989695,14.615759005661406
6.173863424,1.0015006853862478,14.416776913903943
6.17615104,1.0014544611730094,14.217633806585386
6.178438656,1.001316880521871,14.019741798817106
6.180726272,1.0010966299250628,13.824318382253745
6.183013888,1.0008074321798506,13.632487050585546
6.185301504,1.0004673783704792,13.445098450513552
6.18758912,1.0000980132296347,13.262757332574045
6.189877248,0.9997224839471968,13.085695243330488
6.192164864,0.9993644954039842,12.913848519103835
6.19445248,0.9990466702273574,12.74683904823367
6.196740096,0.9987891068744711,12.583894888657632
6.199027712,0.9986080976037276,12.42404559341769
6.201315328,0.9985150403780568,12.266078677557987
6.203602944,0.998516034703525,12.10870785690722
6.20589056,0.9986107984023609,11.950520190880537
6.208178688,0.9987935237574427,11.790215604198307
6.210466304,0.99905253126324,11.626597648917993
6.21275392,0.9993716676159827,11.458676583143497
6.215041536,0.9997306359519571,11.285719493081766
6.217329152,1.0001067166673236,11.107338841288978
6.219616768,1.0004764778130426,10.923445292346058
6.221904384,1.0008163087369804,10.734321017803229
6.224192,1.0011050005855082,10.540531712669816
6.226479616,1.0013244454500232,10.342966981222618
6.228767744,1.0014607564484812,10.142713183943767
6.23105536,1.0015053465478254,9.941058409829337
6.233342976,1.001455457958525,9.739336211947434
6.235630592,1.001314211309041,9.538894111410764
6.237918208,1.0010903001174534,9.3409533475799
6.240205824,1.0007979316660764,9.146663902062194
6.24249344,1.0004553514381282,8.956825131641972
6.244781056,1.000084217039952,8.772083929304964
6.247068672,0.9997078584947271,8.592621753882376
6.2493568,0.9993498438690809,8.418409388094936
6.251644416,0.9990329866412938,8.248956092529092
6.253932032,0.9987771221123233,8.083577479731565
6.256219648,0.9985986073217805,7.92124278460777
6.258507264,0.9985087213602385,7.760777172342076
6.26079488,0.9985130492288202,7.600813831697687
6.263082496,0.9986114219232861,7.440009284060145
6.265370112,0.9987976243838377,7.277018732042333
6.26765824,0.9990598683057809,7.110651178936323
6.269945856,0.9993816915296311,6.9399345091725815
6.272233472,0.9997427488062365,6.7641377885741205
6.274521088,1.00012028829218,6.58290069472513
6.276808704,1.0004903139529981,6.39613649419381
6.27909632,1.0008298448677988,6.204122209981452
6.281383936,1.0011173538796923,6.007437800739963
6.283671552,1.0013348363919394,5.807006752423349
6.285959168,1.0014685498555802,5.603935186656394
6.288247296,1.0015100192690645,5.399478496442425
6.290534912,1.0014569347704478,5.195007560539434
6.292822528,1.001312281236156,4.991825393335172
6.295110144,1.0010851938897507,4.791211385857897
6.29739776,1.0007899139000238,4.594270004370719
6.299685376,1.0004450662098539,4.401839572013401
6.301972992,1.000072197054943,4.214495348030644
6.304260608,0.9996949185359194,4.032464241336824
6.306548224,0.9993368973669695,3.855653724653594
6.308836352,0.9990206748093531,3.6836363617905974
6.311123968,0.9987662563891009,3.5156441462164407
6.313411584,0.9985898714072927,3.350674619056679
6.3156992,0.9985025439694395,3.1875005250926085
6.317986816,0.9985098650441651,3.0248192171757005
6.320274432,0.9986113870182595,2.861222070371086
6.322562048,0.9988008214497572,2.6953978106182728
6.324849664,0.9990658634315723,2.526156183728095
6.327137792,0.99939020986253,2.352521130948752
6.329425408,0.9997532423429455,2.173765219026134
6.331713024,1.0001319497064285,1.989520413212554
6.33400064,1.000502716006895,1.7997250408831678
6.336288256,1.0008420449261621,1.604695328845163
6.338575872,1.0011285441988584,1.4050184001647708
6.340863488,1.0013444539681364,1.201583008997656
6.343151104,1.0014758280099323,0.9955474452791551
6.34543872,1.0015147656217542,0.7881148812171425
6.347726848,1.001458704935923,0.5807248042981102
6.350014464,1.001311132702182,0.3746587059206089
6.35230208,1.0010812869391663,0.17120996067724367
6.354589696,1.000783448270548,-0.028525222521820753
6.356877312,1.0004364256849707,-0.2237699374522176
6.359164928,1.0000619729636748,-0.41387596816056177
6.361452544,0.9996837659257581,-0.5986472892022614
6.36374016,0.9993253679101894,-0.7782332592644868
6.366027776,0.9990096408574156,-0.9530249685178149
6.368315904,0.9987564029349135,-1.1237727608734651
6.37060352,0.998581729590703,-1.2915606567235587
6.372891136,0.9984966059639058,-1.45755548256469
6.375178752,0.998506463502839,-1.6231311030527376
6.377466368,0.9986106382640271,-1.7896638585676388
6.379753984,0.9988027966267103,-1.9584464782902522
6.3820416,0.9990705135088644,-2.1307080797084277
6.384329216,0.9993970921502231,-2.30741523355214
6.386617344,0.9997619040116562,-2.489249925753112
6.38890496,1.0001419207142492,-2.6766001389761134
6.391192576,1.0005132740015028,-2.869524458673128
6.393480192,1.0008526794181276,-3.0677194302250332
6.395767808,1.0011384737756328,-3.270538034968529
6.398055424,1.00135313802853,-3.477113083196951
6.40034304,1.0014828412999324,-3.6862869341469464
6.402630656,1.0015196388593604,-3.8967858173599588
6.404918272,1.0014611789216394,-4.107254712766249
6.4072064,1.0013111316362295,-4.3163716736167705
6.409494016,1.0010786683174056,-4.522843421964154
6.411781632,1.000778616889347,-4.7255767930872175
6.414069248,1.0004296386956972,-4.9237629395865525
6.416356864,1.0000537001198049,-5.116816394548791
6.41864448,0.9996743800525397,-5.304535882245768
6.420932096,0.9993156211114391,-5.487038737476031
6.423219712,0.9990000690858435,-5.664753454214278
6.425507328,0.9987476301267462,-5.838474334145846
6.427795456,0.9985741760531989,-6.0092306367384145
6.430083072,0.9984906865627846,-6.178220693577691
6.432370688,0.9985026176899057,-6.346811263085008
6.434658304,0.998609198156604,-6.5164088233965245
6.43694592,0.9988036017927422,-6.688307226725006
6.439233536,0.9990736143232253,-6.8637057410708
6.441521152,0.99940213228733,-7.043589155051144
6.443808768,0.9997686791382825,-7.228651001564992
6.446096896,1.0001499043424027,-7.419231164708869
6.448384512,1.0005220376034965,-7.615408074201959
6.450672128,1.0008615200120294,-7.816869686902122
6.452959744,1.0011471748375458,-8.022967331552284
6.45524736,1.0013609244301627,-8.23280593744077
6.457534976,1.0014894363949784,-8.445237769043711
6.459822592,1.001524614376528,-8.658986577066985
6.462110208,1.0014642441510753,-8.872697786125062
6.464397824,1.0013119590732769,-9.084993910540767
6.466685952,1.0010775796528921,-9.294629593289365
6.468973568,1.0007755091455302,-9.500538017651753
6.471261184,1.0004247227650351,-9.701839586201018
6.4735488,1.0000473711779354,-9.8980308523296
6.475836416,0.9996670486814507,-10.088852468921987
6.478124032,0.9993077789225687,-10.274441395254575
6.480411648,0.9989920486078737,-10.45526930851876
6.482699264,0.9987400193810715,-10.632081127418509
6.48498688,0.9985673707355378,-10.805977276350609
6.487275008,0.998485240418062,-10.978123411920993
6.489562624,0.9984986179161512,-11.149884542942623
6.49185024,0.9986069276388758,-11.322686305089082
6.494137856,0.9988031042633879,-11.49783851211301
6.496425472,0.9990750094873747,-11.67648358712639
6.498713088,0.999405316950896,-11.859661940776157
6.501000704,0.999773426961205,-12.048049651066432
6.50328832,1.0001559376378337,-12.241982916422446
6.505576448,1.0005288797346712,-12.441544120590775
6.507864064,1.000868819965095,-12.64636638403928
6.51015168,1.0011545553807326,-12.855866454570888
6.512439296,1.0013679981594825,-13.06907407864491
6.514726912,1.0014956617728663,-13.284934150355497
6.517014528,1.0015297425392553,-13.502043133708037
6.519302144,1.0014678796921046,-13.719118314161062
6.52158976,1.001314144718589,-13.9347713986217
6.523877376,1.0010779805834782,-14.147755051070872
6.526165504,1.0007743266324645,-14.356971846704942
6.52845312,1.0004219662149936,-14.561579119693016
6.530740736,1.0000432148704632,-14.761044577509512
6.533028352,0.9996617586942279,-14.955146910311889
6.535315968,0.9993016358659756,-15.144000591794219
6.537603584,0.9989855345037776,-15.328106997177967
6.5398912,0.9987333730738203,-15.508195322689437
6.542178816,0.9985611698348245,-15.685325083400194
6.544466432,0.9984796202662458,-15.860786431844623
6.54675456,0.9984941941895142,-16.035865216074928
6.549042176,0.9986036054367179,-16.212010935996876
6.551329792,0.99880129069407,-16.390478680207877
6.553617408,0.9990745740992777,-16.57252838015524
6.555905024,0.9994065949614019,-16.759095152667637
6.55819264,0.9997760086005983,-16.95090471776765
6.560480256,1.00015972576131,-17.148313298156566
6.562767872,1.0005337954229296,-17.351320375349232
6.565056,1.0008745525357219,-17.559663350278893
6.567343616,1.001160580932765,-17.772648820784372
6.569631232,1.0013739739515568,-17.98937828266619
6.571918848,1.0015015356738342,-18.20872783849031
6.574206464,1.0015350221279937,-18.42937782456494
6.57649408,1.0014724123963104,-18.649938713736628
6.578781696,1.001317588460807,-18.869083692114188
6.581069312,1.0010801279496904,-19.085565208614856
6.583356928,1.0007750564362576,-19.29824413656437
6.585645056,1.0004214034916763,-19.506332866730016
6.587932672,1.0000413441368687,-19.709234220355228
6.590220288,0.9996585798713145,-19.906783287941117
6.592507904,0.9992976566284498,-20.09905943654283
6.59479552,0.9989806862320886,-20.286576760211034
6.597083136,0.9987281158611991,-20.470084476057306
6.599370752,0.9985557132465677,-20.650654155851083
6.601658368,0.9984743382745476,-20.829531853746346
6.603945984,0.9984892098583477,-21.00804548396485
6.606234112,0.9985993834857495,-21.187604414143237
6.608521728,0.9987979939962169,-21.369557530816564
6.610809344,0.9990725098863288,-21.555077746081743
6.61309696,0.9994055363034781,-21.745158706388164
6.615384576,0.9997762203994601,-21.94048696523024
6.617672192,1.0001613542476762,-22.141431920184196
6.619959808,1.0005365073967918,-22.34801378134176
6.622247424,1.0008782352806047,-22.559923824832453
6.624535552,1.001165152780388,-22.776528181281968
6.626823168,1.001379177896406,-22.996867248266994
6.629110784,1.0015069356868702,-23.219830390973534
6.6313984,1.0015404068317864,-23.44411593721105
6.633686016,1.0014775409187096,-23.668305592745625
6.635973632,1.0013221764141693,-23.891112712717113
6.638261248,1.0010839949638104,-24.111195485076575
6.640548864,1.0007778994812693,-24.327519006083268
6.64283648,1.0004230119861905,-24.539192854913917
6.645124608,1.0000417006179836,-24.745721715344292
6.647412224,0.9996578571957324,-24.946855185413817
6.64969984,0.9992955962358866,-25.14270815069574
6.651987456,0.998977706662764,-25.333784898554327
6.654275072,0.9987241233972441,-25.52085649003443
6.656562688,0.998550917977925,-25.704961968608384
6.658850304,0.9984691955551614,-25.887399186491844
6.66113792,0.9984837758186437,-26.069449794405624
6.663426048,0.998594167488996,-26.25256784071227
6.665713664,0.9987931777642102,-26.438071244253283
6.66800128,0.9990684276843042,-26.627156188903
6.670288896,0.9994023896871834,-26.820832826319982
6.672576512,0.9997741614901561,-27.019758666834218
6.674864128,1.0001604929965766,-27.224323464092105
6.677151744,1.0005370690010391,-27.434551357256492
6.67943936,1.0008799997733844,-27.650125237338113
6.681726976,1.0011681743704983,-27.870400231934557
6.684015104,1.0013833115955117,-28.094456685143694
6.68630272,1.0015119456569042,-28.32114728401702
6.688590336,1.0015459649840153,-28.549164846551758
6.690877952,1.0014835167359137,-28.77712920935635
6.693165568,1.0013280808515905,-29.00368311616093
6.695453184,1.0010896431232592,-29.227519795195903
6.6977408,1.00078285936468,-29.44760908495633
6.700028416,1.0004271064528998,-29.663034728983902
6.702316032,1.0000446912056593,-29.873292375219496
6.70460416,0.9996594524882417,-30.078155565088636
6.706891776,0.9992957270448907,-30.277727478182236
6.709179392,0.9989763143781877,-30.47249664990035
6.711467008,0.9987212994833593,-30.66324890135166
6.713754624,0.9985469228678395,-30.851034764797877
6.71604224,0.9984640009586757,-31.037102539325716
6.718329856,0.9984779983817688,-31.22280609188734
6.720617472,0.9985878512914425,-31.40955482514653
6.7229056,0.9987867235605146,-31.59872427743159
6.725193216,0.9990622513143468,-31.79146278803467
6.727480832,0.9993968410361684,-31.988780593828622
6.729768448,0.9997696326423903,-32.19135826865118
6.732056064,1.0001571989486182,-32.39960348975347
6.73434368,1.0005351794693338,-32.613523749274876
6.736631296,1.0008798378573696,-32.83285401492896
6.738918912,1.001169587592213,-33.05687532533712
6.741206528,1.0013863744485527,-33.28472294574681
6.743494656,1.0015165460423316,-33.51521647932686
6.745782272,1.001551871306245,-33.74705691743241
6.748069888,1.0014901863674308,-33.978866405401476
6.750357504,1.0013353933808282,-34.20927339235733
6.75264512,1.001097106944088,-34.437000929902844
6.754932736,1.0007901107332595,-34.66094858769476
6.757220352,1.00043373067756,-34.88025998015577
6.759507968,1.000050196052501,-35.094396421943046
6.761795584,0.9996636303066364,-35.303097055126685
6.764083712,0.999298242600134,-35.50651947512287
6.766371328,0.9989769719380456,-35.705105205896395
6.768658944,0.9987200612451853,-35.89964947055791
6.77094656,0.998543831009682,-36.09121225072897
6.773234176,0.9984592415777832,-36.28101611253349
6.775521792,0.9984717186987433,-36.47045144473274
6.777809408,0.9985805891316285,-36.66091915313561
6.780097024,0.9987788477329719,-36.85376005877649
6.782385152,0.9990541094052721,-37.05019696742986
6.784672768,0.9993890612476674,-37.25122861506072
6.786960384,0.9997626976928067,-37.45751810607097
6.789248,1.0001514539867897,-37.669494710524795
6.791535616,1.0005310609498066,-37.887177371233555
6.793823232,1.0008776340950374,-38.11026148949452
6.796110848,1.0011694953318602,-38.33810663173492
6.798398464,1.0013884306021814,-38.569785633017766
6.80068608,1.0015206108952563,-38.804160391559975
6.802974208,1.0015578265600793,-39.03989406028509
6.805261824,1.001497794254663,-39.27563223906942
6.80754944,1.0013441538089816,-39.5099897321081
6.809837056,1.0011065331036963,-39.74168054219942
6.812124672,1.0007996663814396,-39.96961654246313
6.814412288,1.000442920085492,-40.19290582124987
6.816699904,1.0000583361223374,-40.41100558981814
6.81898752,0.9996701865283151,-40.623676817752646
6.821275136,0.9993029844724937,-40.831037767033926
6.823563264,0.9989794677013532,-41.03351357356335
6.82585088,0.9987201722831551,-41.23196129756135
6.828138496,0.9985414086933629,-41.42735791277786
6.830426112,0.998454595878709,-41.62098644138089
6.832713728,0.9984650056014324,-41.814210762100515
6.835001344,0.9985720706803571,-42.008442678419875
6.83728896,0.9987691147500984,-42.205036660428135
6.839576576,0.9990438322768371,-42.40520903391376
6.841864704,0.9993787090601822,-42.60994511733945
6.84415232,0.9997529667893444,-42.81997307415286
6.846439936,1.0001429511215576,-43.03570657281786
6.848727552,1.0005243620730786,-43.2571571507008
6.851015168,1.0008732132495393,-43.484032925297804
6.853302784,1.001167625591744,-43.715720843647354
6.8555904,1.0013892703727094,-43.9512607901987
6.857878016,1.001524186434645,-44.189564724216986
6.860165632,1.001564056354262,-44.42923590233621
6.86245376,1.0015062092736884,-44.668975912915776
6.864741376,1.0013542905539616,-44.90733777194007
6.867028992,1.0011178044174893,-45.14308348338448
6.869316608,1.000811554971963,-45.375082206622636
6.871604224,1.0004545833090757,-45.60243215302536
6.87389184,1.000069157278335,-45.824584992345365
6.876179456,0.9996795020122776,-46.04130391591937
6.878467072,0.9993100699810877,-46.25269452248865
6.880754688,0.9989840809413081,-46.45917251858773
6.883042816,0.9987218449245983,-46.66154459248789
6.885330432,0.9985401209485545,-46.86086881504444
6.887618048,0.998450190200015,-47.05837066379259
6.889905664,0.9984578292340178,-47.255407031833265
6.89219328,0.9985625995355291,-47.45343137852153
6.894480896,0.9987577988553058,-47.65379554224462
6.896768512,0.9990313575076316,-47.857696765051244
6.899056128,0.9993659166557067,-48.066170314914125
6.901344256,0.999740620670417,-48.2799416684232
6.903631872,1.0001318489525965,-48.49940925653879
6.905919488,1.00051518398242,-48.724612582541084
6.908207104,1.0008665085699886,-48.95530056267546
6.91049472,1.0011639237696228,-49.190798809645344
6.912782336,1.0013888354191294,-49.43024496024224
6.915069952,1.0015271520850684,-49.672446209905075
6.917357568,1.0015701742035836,-49.91610582075148
