freq,mag,phase
6.0,1.0002566837963316,-50.38237966462483
6.012718592,1.0003441878574804,-50.90560026605617
6.025437184,1.0004205640076818,-51.43004875924671
6.038155776,1.0004780528764086,-51.95551854433485
6.050874368,1.0005133968486484,-52.48178765977643
6.06359296,1.000525055578664,-53.00855592943686
6.076311552,1.000512549602974,-53.5354916645035
6.089030144,1.0004763040015805,-54.06232015085657
6.101748736,1.0004179059101213,-54.588762538206744
6.114467328,1.000339824290507,-55.11456718488864
6.12718592,1.0002459640563324,-55.63949888271799
6.139904512,1.000140356304313,-56.163399053595235
6.152623104,1.0000279749946348,-56.686107292620726
6.165341696,0.9999142175649547,-57.2076061075731
6.178060288,0.9998042298436828,-57.727906241077164
6.19077888,0.9997031551862722,-58.24705927206769
6.203497472,0.9996159079910119,-58.765248444038775
6.216216064,0.9995462975307179,-59.28261675494726
6.228934656,0.999497951328553,-59.799447989352664
6.241653248,0.9994730510461501,-60.31602985214342
6.25437184,0.9994729775932495,-60.832592247706486
6.267090432,0.9994977895819875,-61.34949508735718
6.279809024,0.9995462778924606,-61.86705592528702
6.292527616,0.9996164183130545,-62.38553718087913
6.305246208,0.9997048985593175,-62.905166603663936
6.3179648,0.9998076899921795,-63.42617140282095
6.330683392,0.9999201692742825,-63.94871915883413
6.343401984,1.0000369770864006,-64.47288309624057
6.356120576,1.0001524980410852,-64.99869689941285
6.36883968,1.0002618318937224,-65.52606179572919
6.381558272,1.0003593635612091,-66.05493174285385
6.394276864,1.0004407736054821,-66.58513170453595
6.406995456,1.0005021552968187,-67.11641529015687
6.419714048,1.0005405150621536,-67.64853770926722
6.43243264,1.0005540794214713,-68.18118117351304
6.445151232,1.000541945667713,-68.71403109463849
6.457869824,1.0005048325304564,-69.24676596115704
6.470588416,1.0004441652242049,-69.77914445357023
6.483307008,1.0003628586905788,-70.31082756185266
6.4960256,1.0002644579904492,-70.84158647711672
6.508744192,1.000153620933382,-71.37123428372709
6.521462784,1.0000354430382672,-71.89965978433177
6.534181376,0.9999153583258066,-72.42684474731405
6.546899968,0.9997989576183997,-72.95271372408898
6.55961856,0.999691781183664,-73.47738204709415
6.572337152,0.999598618971495,-74.00099266654162
6.585055744,0.9995242971505852,-74.52376577798302
6.597774336,0.9994720388136029,-75.04594095056052
6.610492928,0.9994444882438235,-75.56774956070149
6.62321152,0.9994428824223178,-76.08959309296408
6.635930112,0.9994676162141918,-76.61179633320624
6.648648704,0.9995174806581091,-77.13461729124
6.661367296,0.9995902632528275,-77.65835248991168
6.674085888,0.9996826436273805,-78.18334335960863
6.68680448,0.9997904908295403,-78.70978204852375
6.699523072,0.9999086705221522,-79.23782704485382
6.712241664,1.000031969997999,-79.76749535811886
6.724960256,1.0001542639574752,-80.29894357264867
6.737678848,1.0002701518082435,-80.83205643487699
6.75039744,1.00037408284739,-81.36675827288386
6.763116032,1.0004612727931432,-81.90284907205054
6.775834624,1.0005275399413835,-82.44007868003341
6.788553216,1.000569673395118,-82.97823137496555
6.801271808,1.0005858193352468,-83.5169098132023
6.8139904,1.0005746443216368,-84.0558741168862
6.826708992,1.000537146150155,-84.59470927769522
6.839427584,1.0004746428279447,-85.13314777626191
6.852146176,1.0003900941141572,-85.67088431508826
6.864864768,1.0002872202576447,-86.20768761307085
6.87758336,1.0001709316847651,-86.7433302246917
6.890301952,1.0000462519427595,-87.27766915790836
6.903020544,0.9999192914739407,-87.81063779377413
6.915739136,0.9997957781813137,-88.34221499278202
6.928457728,0.9996816422998568,-88.8725830801927
6.94117632,0.9995821192786347,-89.4017631249058
6.953894912,0.9995019142782154,-89.93001832571419
6.966613504,0.9994447736207548,-90.4576297622746
6.979332096,0.9994136021431363,-90.98483296321099
6.992050688,0.999409885835549,-91.51206380812431
7.00476928,0.9994340414034739,-92.03958988709675
7.017487872,0.9994846807530995,-92.5677354992383
7.030206464,0.9995598924067619,-93.09686647156288
7.042925056,0.9996562669850869,-93.62729045284264
7.055643648,0.9997692049019341,-94.15916393610196
7.06836224,0.9998935598714884,-94.6926976207722
7.081080832,1.0000236147386479,-95.22804219977887
7.093799936,1.0001534534351741,-95.76519102174795
7.106518528,1.0002767637207335,-96.30410335048067
7.11923712,1.0003879597807679,-96.84468430168981
7.131955712,1.0004819174751216,-97.38676822655923
7.144674304,1.0005539871882383,-97.9300750922394
7.157392896,1.0006008929231391,-98.47433863221879
7.170111488,1.0006202734497347,-99.01922188321588
7.18283008,1.0006111904616037,-99.56436471020204
7.195548672,1.000573825318135,-100.10948380194803
7.208267264,1.0005098284962448,-100.65416117155993
7.220985856,1.0004221816005805,-101.19809584827009
7.233704448,1.0003148967683806,-101.74104005641054
7.24642304,1.0001927252748128,-102.28278723762271
7.259141632,1.0000613915998164,-102.82318829756267
7.271860224,0.9999268287562275,-103.3621143330552
7.284578816,0.9997955289386534,-103.8995604400803
7.297297408,0.9996734182375603,-104.43564389834131
7.310016,0.9995662722369646,-104.97052679170457
7.322734592,0.999479192980667,-105.50435109548349
7.335453184,0.9994162067617471,-106.03747196895726
7.348171776,0.9993804434520154,-106.57014964858534
7.360890368,0.9993736682991362,-107.1026877656748
7.37360896,0.9993963605779611,-107.63557981986702
7.386327552,0.999447468406328,-108.1691138665307
7.399046144,0.9995248082334734,-108.70360053162312
7.411764736,0.9996248197704419,-109.23941586506142
7.424483328,0.9997429864743481,-109.77675080006902
7.43720192,0.9998738518421106,-110.31582732648694
7.449920512,1.0000114002029261,-110.85677281588046
7.462639104,1.0001492405127477,-111.39962329120563
7.475357696,1.0002810473569628,-111.94435322414611
7.488076288,1.0004006463287747,-112.49086850299074
7.50079488,1.0005024069622563,-113.03895425218639
7.513513472,1.000581446168982,-113.58835688863861
7.526232064,1.0006339480517668,-114.13881946145189
7.538950656,1.0006577201801798,-114.68995278037724
7.551669248,1.0006512868049027,-115.24143879205027
7.56438784,1.0006148584469465,-115.7928303842692
7.577106432,1.0005500034192687,-116.34381340136436
7.589825024,1.0004596028087893,-116.89410167113947
7.602543616,1.0003478038096263,-117.44331398419457
7.615262208,1.0002196740382603,-117.9912394671645
7.6279808,1.0000809753020885,-118.53772394934576
7.640699392,0.9999383960455969,-119.08269347170668
7.653417984,0.9997982516882516,-119.62606874062352
7.666136576,0.9996672086396254,-120.167973282408
7.678855168,0.9995514302419544,-120.70853311412
7.69157376,0.9994562518885601,-121.24799177770974
7.704292352,0.9993863647268215,-121.78657114336623
7.717010944,0.9993448715992076,-122.32468303285277
7.729729536,0.9993339924573132,-122.86260421665364
7.742448128,0.9993544147107731,-123.40081066492473
7.75516672,0.9994051844813999,-123.9396339906807
7.767885312,0.9994840823776164,-124.47945825510165
7.780603904,0.999587651009577,-125.02056151063807
7.793322496,0.9997110878106782,-125.56328830200484
7.806041088,0.9998488278490355,-126.10782846907426
7.818760192,0.9999944651451733,-126.65433244188702
7.831478784,1.000141255924961,-127.20283036017823
7.844197376,1.000282359646672,-127.75332596129574
7.856915968,1.0004114083816718,-128.30569169806463
7.86963456,1.0005220966854915,-128.85975569938694
7.882353152,1.000609372051946,-129.41524790286837
7.895071744,1.0006690813978603,-129.97188483698582
7.907790336,1.000698303747951,-130.52929581157022
7.920508928,1.0006955216885114,-131.08705644711702
7.93322752,1.0006608096121208,-131.64482288877008
7.945946112,1.0005956023163152,-132.20218101375082
7.958664704,1.0005028327784709,-132.7587851286511
7.971383296,1.0003866437536695,-133.31429234567415
7.984101888,1.000252310887524,-133.86847704884636
7.99682048,1.0001059014202642,-134.42112337226345
8.009539072,0.9999543721893983,-134.97209045955867
8.022257664,0.9998046438869234,-135.5214118944329
8.034976256,0.9996635241433659,-136.06910765692535
8.047694848,0.9995378339259388,-136.6153656216147
8.06041344,0.9994333277903817,-137.16034607633824
8.073132032,0.9993549598729017,-137.70442599167043
8.085850624,0.9993064859390832,-138.24786925747458
8.098569216,0.9992904338748148,-138.79106492271626
8.111287808,0.9993075717282132,-139.33446316837166
8.1240064,0.9993571945668396,-139.87845304436354
8.136724992,0.9994373150525057,-140.42340916990136
8.149443584,0.9995441291771687,-140.96971077370247
8.162162176,0.999672985773174,-141.5176992797242
8.174880768,0.99981781221646,-142.0675485548997
8.18759936,0.999972112225823,-142.6194482142053
8.200317952,1.0001287221364108,-143.17343637957998
8.213036544,1.000280327517152,-143.72956482327623
8.225755136,1.0004199509741305,-144.28767981813277
8.238473728,1.0005410465327722,-144.847654004283
8.25119232,1.0006379470700204,-145.40913275466008
8.263910912,1.0007060707025592,-145.97189351489195
8.276629504,1.0007421021838032,-146.53550157702583
8.289348096,1.0007442786870115,-147.09955962369227
8.302066688,1.0007122539605233,-147.66362821422655
8.31478528,1.000647440309192,-148.22733511997515
8.327503872,1.0005527378343164,-148.7902426883574
8.340222464,1.0004322751680348,-149.35205045518353
8.352941056,1.000291596620913,-149.91245531587606
8.365659648,1.0001370844075645,-150.4711990370379
8.37837824,0.999975900563462,-151.02822440797704
8.391096832,0.9998154266692486,-151.58342100229459
8.403815424,0.9996630413367421,-152.13685664654022
8.416534016,0.9995259995394847,-152.68871162834807
8.429252608,0.9994106213582195,-153.23915529657222
8.4419712,0.9993223483086122,-153.7885276672793
8.454689792,0.9992655185102156,-154.33714978079632
8.467408384,0.9992428290107029,-154.88546383666505
8.480126976,0.9992554654372536,-155.43390324774964
8.492845568,0.999303061885059,-155.9828512520247
8.50556416,0.9993835434966944,-156.5327896900085
8.518282752,0.9994932851663076,-157.0840831137336
8.531001344,0.9996274287835379,-157.6370782792529
8.543719936,0.9997796901754896,-158.19200450521652
8.55643904,0.999943332998628,-158.7490552299683
8.569157632,1.0001105446990355,-159.30838237104012
8.581876224,1.0002737995075184,-159.86992010592846
8.594594816,1.000425514224378,-160.43360255834148
8.607312896,1.0005585991375818,-160.99929206783233
8.620032,1.000666660761966,-161.56663386531008
8.63275008,1.0007448182801675,-162.13535256798022
8.645469184,1.0007892192419547,-162.70503763599393
8.658187264,1.0007976051192014,-163.2752696182006
8.670906368,1.0007695300081887,-163.84556918361494
8.683624448,1.000705991671954,-164.41551922421993
8.696343552,1.0006098898030025,-164.9846868016506
8.709061632,1.0004853680926724,-165.5526922367309
8.721780736,1.0003383100131786,-166.11922982634718
8.734498816,1.0001750805354477,-166.6840576935893
8.74721792,1.0000034330250895,-167.2469835069034
8.759936,0.9998311093729083,-167.8079700504497
8.772655104,0.999666054085817,-168.36704721866454
8.785373184,0.9995161376603018,-168.9243582503147
8.798092288,0.9993881790929401,-169.48010085712087
8.810810368,0.9992883971487057,-170.03461768817485
8.823529472,0.9992214239073941,-170.5882612071878
8.836247552,0.9991904711048591,-171.14143086994395
8.848966656,0.9991973826601346,-171.69464471935103
8.861684736,0.9992417515346679,-172.24832526285297
8.87440384,0.9993217595652635,-172.8029349959944
8.88712192,0.9994339975360749,-173.3589090239251
8.899841024,0.9995733649685397,-173.91660481899365
8.912560128,0.9997333973175825,-174.47632244055575
8.925278208,0.9999068554967608,-175.03828070777325
8.937997312,1.0000859670550684,-175.60260799175498
8.950715392,1.0002621887943537,-176.1693226620871
8.963434496,1.0004274326361924,-176.73832125904653
8.976152576,1.0005741227272835,-177.30945895652866
8.98887168,1.00069529027601,-177.88242321381577
9.00158976,1.0007852772694832,-178.45693220060235
9.014308864,1.0008396966183306,-179.03252014645486
9.027026944,1.000856013641878,-179.60873328858807
9.039746048,1.000833132480704,179.81487839714129
9.052464128,1.000771981434292,179.2388095327374
9.065183232,1.0006751597540626,178.66349438627807
9.077901312,1.0005470745975635,178.0893750226293
9.090620416,1.0003933580232112,177.51680620529442
9.103338496,1.0002210579015192,176.94607098926306
9.1160576,1.0000380922617906,176.3773474830648
9.12877568,0.9998526934978116,175.81070986799432
9.141494784,0.9996735851311445,175.2461579014125
9.154212864,0.9995090510096816,174.6835724830693
9.166931968,0.9993667729960259,174.1227325424007
9.179650048,0.9992533005958136,173.563295267099
9.192369152,0.9991743502807668,173.00492869494286
9.205087232,0.9991335028136671,172.44716861557015
9.217806336,0.9991328994210781,171.88949437470623
9.230524416,0.9991727153798836,171.33142845767313
9.24324352,0.9992513236516865,170.77248230758238
9.2559616,0.9993655351100035,170.21217538011152
9.268680704,0.9995097783120419,169.65011481334633
9.281398784,0.9996779353659224,169.08596152060136
9.294117888,0.9998620576435324,168.51946782009563
9.306835968,1.0000539359488618,167.95051896136118
9.319555072,1.0002444497240741,167.37898591957946
9.332273152,1.0004251085006899,166.8049902714489
9.344992256,1.0005872935436098,166.22865631575024
9.357710336,1.0007235779016037,165.65034941232292
9.37042944,1.0008273527027187,165.07035378047883
9.38314752,1.0008940042741419,164.48907889958494
9.395866624,1.0009198477489394,163.9070685880445
9.408584704,1.0009038401037733,163.32475973361338
9.421303808,1.0008462595609506,162.74273903911725
9.434021888,1.0007496671447174,162.161452286377
9.446740992,1.0006183260609154,161.58139795799832
9.459459072,1.0004580504439504,161.00294114834887
9.472178176,1.0002761956472541,160.42643181507398
9.484896256,1.0000809227495657,159.85206999972814
9.49761536,0.9998812068495935,159.27997663382746
9.51033344,0.9996862910889065,158.7101653991337
9.523052544,0.9995052254380948,158.14252299883842
9.535770624,0.9993462606855636,157.5768373998725
9.548489728,0.9992172144265725,157.01277589635586
9.561207808,0.9991239759381261,156.44996646768263
9.573926912,0.9990709317875887,155.88790079805477
9.586644992,0.999061093173291,155.32612555994342
9.599364096,0.9990949125702113,154.76405624165386
9.612082176,0.9991710067296256,154.20117262420595
9.62480128,0.9992861688631821,153.6369902846557
9.637520384,0.9994353322120167,153.07099547469565
9.650238464,0.999611683887534,152.5028443509046
9.662957568,0.9998071262899989,151.93224820252658
9.675675648,1.0000129574685657,151.35901356531116
9.688394752,1.0002194827622124,150.78306353825306
9.701112832,1.0004173242071372,150.20445725327187
9.713831936,1.000597361350107,149.62332934388786
9.726550016,1.0007509447909653,149.03996211086715
9.73926912,1.000871071837334,148.45472895086078
9.7519872,1.0009519336788946,147.86807431721078
9.764706304,1.000989757870456,147.28048643621412
9.777424384,1.0009823315799047,146.6925163437126
9.790143488,1.0009299835785617,146.10473704209454
9.802861568,1.0008346547544704,145.51767065475613
9.815580672,1.0007007880926595,144.9318321020896
9.828298752,1.0005339273699074,144.347662426376
9.841017856,1.0003420780417736,143.7655359114792
9.853735936,1.0001336163823091,143.1857391140484
9.86645504,0.9999180377438911,142.60837209594257
9.87917312,0.9997054894124179,142.033487586882
9.891892224,0.999505675315051,141.46102719345595
9.904610304,0.9993278974222206,140.89075951636778
9.917329408,0.9991804559657969,140.32238463667994
9.930047488,0.9990704262595267,139.75547648319485
9.942766592,0.9990029827557376,139.18952110884294
9.955484672,0.9989816029094064,138.6240219520329
9.968203776,0.9990074699471385,138.05836336523092
9.980921856,0.9990795866371767,137.49198051074433
9.99364096,0.9991950163156762,136.92433049748908
10.00635904,0.9993484772610903,136.35486527962908
10.019078144,0.999533318788316,135.78320744882635
10.031796224,0.9997408950917953,135.2089500378651
10.044515328,0.9999619081704983,134.63190681682968
10.057233408,1.0001861227546094,134.05196693579572
10.069952512,1.0004034786790126,133.46916829079186
10.082670592,1.000603639278036,132.88358806878298
10.095389696,1.00077736568825,132.29556287362936
10.108107776,1.0009163041999303,131.7054064611165
10.12082688,1.0010143513854488,131.1136210009911
10.13354496,1.0010663892701535,130.5207369707395
10.146264064,1.001069890776819,129.9273226707037
10.158982144,1.0010244071442918,129.3339706465536
10.171701248,1.0009317369451465,128.74129142928356
10.184419328,1.0007957621283756,128.14984965910926
10.197138432,1.0006227616535865,127.56014639065812
10.209856512,1.0004202685420012,126.97254645488466
10.222575616,1.000197451614159,126.38744595088147
10.235293696,0.9999646824638995,125.80501663819012
10.2480128,0.9997322775754497,125.22528564275063
10.26073088,0.9995112020553466,124.64825395837819
10.273449984,0.999311786891386,124.07366442184653
10.286168064,0.9991431903279615,123.50125430629853
10.298887168,0.9990133543493385,122.93057037986388
10.311605248,0.9989286879696552,122.3611123427718
10.324324352,0.9988932883932307,121.79229709494618
10.337042432,0.998909073702146,121.2235098836761
10.349761536,0.9989755502661612,120.65407896065814
10.362479616,0.9990900453800857,120.08343627797767
10.37519872,0.9992475087927528,119.5110024469841
10.387917824,0.999440829427368,118.93628894409423
10.400635904,0.9996614071507776,118.35888885321523
10.413355008,0.99989909508543,117.77851768746702
10.426073088,1.0001431448311322,117.19503643507899
10.438792192,1.0003822021636377,116.60844132931287
10.451510272,1.0006053801677,116.01883148252607
10.464229376,1.0008022300692991,115.4264586802044
10.476947456,1.0009633967092397,114.83171443183909
10.48966656,1.0010815814383578,114.23509909804888
10.50238464,1.0011508325400857,113.63713341957505
10.515103744,1.0011676916713161,113.03846059054725
10.527821824,1.001131180040244,112.43972646943556
10.540540928,1.001042701582696,111.84159376262748
10.553259008,1.000905844245195,111.24464811730773
10.565978112,1.0007265119787705,110.64952108224571
10.578696192,1.000513142969967,110.05660917742429
10.591415296,1.0002749236046873,109.46635077461723
10.604133376,1.0000227646215047,108.87896366914981
10.61685248,0.9997684045550174,108.29455212073145
10.62957056,0.9995232026942176,107.7131189295744
10.642289664,0.9992988768226403,107.1344615891997
10.655007744,0.9991056462364234,106.55829334843888
10.667726848,0.9989528393387952,105.98416933294129
10.680444928,0.9988475635388615,105.41154940843442
10.693164032,0.9987951792674964,104.83979439844312
10.705882112,0.9987981532721979,104.2682837643773
10.718601216,0.9988569835332077,103.69626632590663
10.731319296,0.9989692033398762,103.12315277331517
10.7440384,0.9991298719454716,102.54821232531577
10.75675648,0.9993319087955537,101.9709349219591
10.769475584,0.9995661733518211,101.39085979930839
10.782193664,0.9998223148108829,100.80763729970012
10.794912768,1.0000882274020901,100.22107674477569
10.807630848,1.0003520681891827,99.63107596384874
10.820349952,1.0006014503189757,99.0377764103363
10.833068032,1.0008248643936204,98.44143187184508
10.845787136,1.0010119591292062,97.84237656742123
10.858505216,1.0011539112966445,97.24112749919237
10.87122432,1.0012438125916796,96.63828620367418
10.8839424,1.0012771880438427,96.03448658012108
10.896661504,1.0012522485886681,95.43047222365934
10.909379584,1.0011696351992505,94.82692489937092
10.922098688,1.0010329717349795,94.22458177994254
10.934816768,1.0008481026275902,93.62403280642663
10.947535872,1.0006230314016433,93.0258315307262
10.960253952,1.0003679852363447,92.43045017621586
10.972973056,1.0000946051882968,91.83817608376704
10.985691136,0.9998153146449519,91.24917114470249
10.99841024,0.9995427940134912,90.66348546350764
11.01112832,0.9992897937048791,90.08090823854491
11.023847424,0.9990680950412567,89.50117668885376
11.036565504,0.9988880099199758,88.92385523092666
11.049284608,0.998758298690233,88.34834076670839
11.062002688,0.9986852499158088,87.77403470533189
11.074721792,0.9986725926183622,87.20016132659283
