freq,mag,phase
6.0,1.0002326027085595,31.156782107492457
6.007266304,1.0001856708343726,30.972238002797642
6.014532096,1.0001279839813118,30.7884952149294
6.0217984,1.0000628465017913,30.60549689276562
6.029064704,0.9999938621314841,30.42343249134856
6.036330496,0.9999247652642874,30.242267054262708
6.0435968,0.9998594501976431,30.062085691936648
6.050863104,0.999801670013662,29.882683004027808
6.058128896,0.9997544228990457,29.704024018784395
6.0653952,0.9997206549040034,29.525875687878134
6.072660992,0.9997019653015509,29.348136353799905
6.079927296,0.9996996298530711,29.170487693480958
6.0871936,0.9997136333596433,28.992774630530672
6.094459392,0.9997433812912997,28.814763978006773
6.101725696,0.9997870938338447,28.636227795540897
6.108992,0.999842338965056,28.457013156958094
6.116257792,0.9999061555440698,28.277035174511624
6.123524096,0.9999748124504192,28.096085834501
6.1307904,1.0000446751777445,27.914237015643923
6.138056192,1.0001117678898617,27.731426909409794
6.145322496,1.000172377318607,27.547750871445082
6.1525888,1.0002229930256263,27.363289022583675
6.159854592,1.0002609651038576,27.178254141243336
6.167120896,1.0002840905136312,26.992769669962104
6.174386688,1.0002910141404247,26.807094529802242
6.181652992,1.000281452396622,26.62137962543917
6.188919296,1.0002557992846128,26.435949789914876
6.196185088,1.0002155634957304,26.25095954180853
6.203451392,1.000162910444359,26.06656798948941
6.210717696,1.000100890800653,25.88299002039811
6.217983488,1.00003279973004,25.7002415301265
6.225249792,0.9999624710923302,25.518437718729018
6.232516096,0.9998937391590131,25.337627955258384
6.239781888,0.999830630753531,25.15764012039253
6.247048192,0.9997765481803017,24.978490381202448
6.254314496,0.9997345731251396,24.799995045173123
6.261580288,0.9997070243493533,24.62197867646454
6.268846592,0.9996954381707367,24.444196931248527
6.276112384,0.9997004457057826,24.26644256927747
6.283378688,0.9997218896450006,24.088535797716627
6.290644992,0.999758401140842,23.910210834772663
6.297910784,0.999808178482637,23.73130665387214
6.305177088,0.9998683297301846,23.551666772852798
6.312443392,0.9999355636973409,23.37112670489776
6.319709184,1.00000602368827,23.189638457251355
6.326975488,1.0000759550135798,23.00721580883586
6.334241792,1.000141349379066,22.82387951154642
6.341507584,1.0001985729318283,22.639654906898542
6.348773888,1.0002444638815517,22.454737977864482
6.356040192,1.0002764030749103,22.26932322125397
6.363305984,1.000292661955703,22.08353529203912
6.370572288,1.000292205960409,21.897618819387354
6.37783808,1.000275139042211,21.71183262018619
6.385104384,1.000242407336852,21.52637117451639
6.392370688,1.0001958588252198,21.341465344279825
6.39963648,1.0001378965417922,21.15723878036238
6.406902784,1.000071885337565,20.973840978949188
6.414169088,1.0000015146780101,20.79141075085959
6.42143488,0.9999305620249455,20.609884646933224
6.428701184,0.999863124105411,20.429346766905343
6.435967488,0.9998029497843212,20.249645456345345
6.44323328,0.999753319661574,20.070702274964695
6.450499584,0.999717082430021,19.892319670877928
6.457765888,0.999696190937477,19.714334097675444
6.46503168,0.9996919512037338,19.53651390449956
6.472297984,0.9997044040675359,19.358640390690237
6.479564288,0.9997331295161803,19.18049420703727
6.48683008,0.9997763960450694,19.0018392383948
6.494096384,0.9998318706573899,18.822487060638498
6.501362176,0.9998963822267725,18.642333148221333
6.50862848,0.9999663596636018,18.461262635526925
6.515894784,1.0000379355401383,18.279210957013145
6.523160576,1.0001072097753376,18.0962122015619
6.53042688,1.000170078009068,17.912295805034578
6.537693184,1.0002232492290162,17.727578831988524
6.544958976,1.0002636847896182,17.54222624749698
6.55222528,1.0002890926363046,17.356395542244766
6.559491584,1.0002981413693268,17.170346249006688
6.566757376,1.0002901825556398,16.984277434228574
6.57402368,1.0002657327064393,16.798416646039975
6.581289984,1.0002260918588912,16.61299715011908
6.588555776,1.0001734239760982,16.428202156172333
6.59582208,1.0001106892678946,16.244161686513362
6.603087872,1.0000414743946884,16.061039879928003
6.610354176,0.9999694467334446,15.878865015190174
6.61762048,0.9998986792604833,15.697638441458215
6.624886272,0.9998332165114387,15.517333071665648
6.632152576,0.9997766432799925,15.337878966565597
6.63941888,0.9997321378518217,15.159093223572572
6.646684672,0.9997021711054356,14.980833183685581
6.653950976,0.9996883964362608,14.802880690437522
6.66121728,0.9996916978165781,14.624933890217111
6.668483072,0.999711732185497,14.44686941545526
6.675749376,0.9997476936988777,14.268425429520255
6.68301568,0.9997972884683618,14.089393516065849
6.690281472,0.9998578724579933,13.909542923016822
6.697547776,0.9999262250729383,13.728867850005859
6.704813568,0.9999982416498732,13.547222232266359
6.712079872,1.0000702288109067,13.364607217943894
6.719346176,1.0001379312165761,13.181003330576255
6.726611968,1.0001977489235334,12.996549255563774
6.733878272,1.0002461549263293,12.811345401385678
6.741144576,1.00028059724437,12.625557113065454
6.748410368,1.0002990077983505,12.439419787757569
6.755676672,1.0003005768883102,12.25312727510586
6.762942976,1.000284920549286,12.066949924565158
6.770208768,1.0002531612564067,11.881037715259845
6.777475072,1.000206797130637,11.695655183890182
6.784741376,1.00014848995139,11.511018946184354
6.792007168,1.0000816082193467,11.327198859948117
6.799273472,1.00000974351596,11.144336895839361
6.806539264,0.999936876551845,10.962468740658394
6.813805568,0.9998670977753299,10.781504003628786
6.821071872,0.9998043801615655,10.601480128938109
6.828337664,0.9997520854781351,10.422249316987815
6.835603968,0.999713297593219,10.24362512265659
6.842870272,0.9996900399818037,10.065399791454743
6.850136064,0.9996837542255158,9.887399271177179
6.857402368,0.9996947084655147,9.709328118011646
6.864668672,0.9997223583054898,9.530983550909312
6.871934464,0.9997651498900679,9.352194898483827
6.879200768,0.9998208551027432,9.172730419719182
6.886467072,0.9998861305956389,8.992414982922584
6.893732864,0.999957449974723,8.81114479605002
6.900999168,1.0000309393208981,8.628946291294186
6.90826496,1.0001024505796068,8.445692564534593
6.915531264,1.0001679528480367,8.261549647867481
6.922797568,1.0002237794999165,8.076526335688854
6.93006336,1.00026685758065,7.890874636990335
6.937329664,1.0002947146284904,7.704664186120128
6.944595968,1.000305857840836,7.518238388636075
6.95186176,1.0002996891457623,7.331757578913453
6.959128064,1.0002763450231287,7.145459947607189
6.966394368,1.0002372981755578,6.959588699680281
6.97366016,1.0001846159064065,6.774325759399038
6.980926464,1.0001212709625005,6.589848420868595
6.988192768,1.0000506733169985,6.406273951468279
6.99545856,0.999976888837104,6.223671174736564
7.002724864,0.99990398568492,6.042056497897387
7.009991168,0.9998359733946496,5.861418345966274
7.01725696,0.9997767518527113,5.681613987948731
7.024523264,0.9997294746115315,5.502539100720902
7.031789056,0.9996969267642286,5.324034514200517
7.03905536,0.9996809034882422,5.145861707236443
7.046321664,0.9996823296843803,4.967727154885142
7.053587456,0.999701060119405,4.7895028595763085
7.06085376,0.9997361391859725,4.610889408233345
7.068120064,0.9997856814619358,4.431646016967643
7.075385856,0.9998468401403349,4.251715624471248
7.08265216,0.9999162870733768,4.070881094682479
7.089918464,0.9999900975491745,3.8890332938155194
7.097184256,1.0000641217445558,3.706208323876737
7.10445056,1.000134300673652,3.522363366587664
7.111716864,1.0001967611549154,3.3376246926561186
7.118982656,1.000248064154933,3.1520993745727632
7.12624896,1.0002850619702521,2.9659765491275794
7.133514752,1.0003059771587781,2.779420787488523
7.140781056,1.0003093509287875,2.592744680448096
7.14804736,1.0002953702022064,2.406080407413363
7.155313152,1.000264436400234,2.219747229184797
7.162579456,1.0002183974012946,2.0339192437744016
7.16984576,1.0001597090820673,1.8487586438292287
7.177111552,1.0000918442623357,1.6645095771067588
7.184377856,1.0000182927378416,1.481182334298278
7.19164416,0.9999433475478553,1.2988667476261107
7.198909952,0.9998712467738227,1.1175519382285797
7.206176256,0.9998057395282072,0.9371770214571673
7.21344256,0.999750691955212,0.7576125485089605
7.220708352,0.9997091569535358,0.578686574266392
7.227974656,0.99968339534558,0.40026212451103155
7.235240448,0.9996749107686448,0.2220111481309264
7.242506752,0.9996842681495606,0.04379050040003234
7.249773056,0.999710819477205,-0.1347079178064956
7.257038848,0.9997531983308956,-0.3136719358077683
7.264305152,0.9998090061492071,-0.49328190614147066
7.271571456,0.9998752419456504,-0.6737812087032826
7.278837248,0.9999480725355099,-0.8552136061106267
7.286103552,1.0000236249228225,-1.0376532034289863
7.293369856,1.0000974267861826,-1.2211206980253562
7.300635648,1.0001656260661806,-1.4055435197105488
7.307901952,1.0002243561266737,-1.5908539692554338
7.315168256,1.0002702068557854,-1.7768667297619865
7.322434048,1.0003007000603414,-1.963432163628024
7.329700352,1.000314156275118,-2.1503088851677505
7.336966144,1.000309777323571,-2.337232561905012
7.344232448,1.0002877984678333,-2.5239666315309917
7.351498752,1.0002492406515318,-2.7103530176005135
7.358764544,1.0001965666408272,-2.8960828080337118
7.366030848,1.0001324317156488,-3.0810618911802052
7.373297152,1.0000605659665152,-3.26509621405518
7.380562944,0.9999848039080592,-3.44812966516491
7.387829248,0.9999094544852495,-3.630165190985645
7.395095552,0.9998388184151125,-3.81119443866792
7.402361344,0.9997767095982311,-3.9913467320586724
7.409627648,0.9997266513622876,-4.17068512814501
7.416893952,0.9996913401961346,-4.34949181754303
7.424159744,0.9996728090646995,-4.527954440247063
7.431426048,0.9996722900699662,-4.706213903349641
7.438692352,0.9996896684199795,-4.884649277740683
7.445958144,0.9997239511961021,-5.063443498088565
7.453224448,0.9997733321331465,-5.242807377554415
7.46049024,0.9998350818651435,-5.422909340787312
7.467756544,0.9999057635865083,-5.603938920557861
7.475022848,0.9999813335536993,-5.785991443442238
7.48228864,1.0000576660549145,-5.969042189117932
7.489554944,1.0001307028352189,-6.153139478199841
7.496821248,1.00019602162158,-6.338171740181106
7.50408704,1.000250035185918,-6.524010574045637
7.511353344,1.0002899727083514,-6.710562072799658
7.518619648,1.0003135350300585,-6.89748479345854
7.52588544,1.0003191171661359,-7.084656828677569
7.533151744,1.0003066101464,-7.271751929020822
7.540418048,1.0002765873720365,-7.4585914789715355
7.54768384,1.000230883147511,-7.6449364229012335
7.554950144,1.0001718311763892,-7.830551781676322
7.562215936,1.0001027943765548,-8.015323010018436
7.56948224,1.00002755806308,-8.199119757188226
7.576748544,0.9999503665400699,-8.38188144756005
7.584014336,0.9998755195403684,-8.563616247522962
7.59128064,0.999807226395488,-8.744361927691168
7.598546944,0.9997490813242835,-8.924255629807488
7.605812736,0.9997046791242218,-9.103464207600341
7.61307904,0.9996763063621616,-9.28220957211741
7.620345344,0.9996656521852456,-9.460635083912768
7.627611136,0.9996730627938133,-9.639051360334278
7.63487744,0.9996984861250131,-9.81773437579577
7.642143744,0.9997404139462756,-9.996880028604197
7.649409536,0.9997965639606846,-10.176675431575186
7.65667584,0.9998637070739314,-10.35730313387866
7.663941632,0.9999381637912926,-10.538927138663817
7.671207936,1.0000158211288286,-10.721571467035764
7.67847424,1.0000921870648674,-10.90531089773345
7.685740032,1.0001633067990539,-11.090020255510083
7.693006336,1.0002249751807482,-11.275670483379262
7.70027264,1.0002738906378963,-11.462063207070772
7.707538432,1.0003072114676532,-11.649024596100597
7.714804736,1.0003229839647287,-11.83632048274019
7.72207104,1.0003205740004466,-12.023759966494051
7.729336832,1.0002999162160808,-12.210992239847306
7.736603136,1.0002620872582295,-12.397873971026447
7.74386944,1.0002092625526198,-12.584144147268995
7.751135232,1.0001444602133716,-12.769598315415621
7.758401536,1.0000710030406952,-12.954147647598132
7.765667328,0.999993236010748,-13.137656111610529
7.772933632,0.9999154122816458,-13.320117686725428
7.780199936,0.9998417785686241,-13.501580332013052
7.787465728,0.9997766927110616,-13.682069040657627
7.794732032,0.9997234948993046,-13.861767027334334
7.801998336,0.9996852412083407,-14.040850994947695
7.809264128,0.9996642170473403,-14.219548665051772
7.816530432,0.9996615545757955,-14.398050955121102
7.823796736,0.9996773659317439,-14.576680296523755
7.831062528,0.9997109427559245,-14.755632039264393
7.838328832,0.999760130696682,-14.935166301756173
7.845595136,0.9998225235824117,-15.115426512673292
7.852860928,0.9998944188386361,-15.296654736252755
7.860127232,0.9999720919574262,-15.478887774141963
7.867393024,1.0000509892198544,-15.662208768920065
7.874659328,1.0001267286274285,-15.846559768949227
7.881925632,1.000195179346705,-16.03192622723831
7.889191424,1.0002523912911563,-16.21813725858861
7.896457728,1.0002953447428224,-16.405044330882642
7.903724032,1.0003214295090448,-16.592467022579005
7.910989824,1.0003293722756863,-16.78011046735494
7.918256128,1.000318544369474,-16.967709422241878
7.925522432,1.0002896808887765,-17.15509004608649
7.932788224,1.0002442284560675,-17.34194104814343
7.940054528,1.0001846178068867,-17.528118829478178
7.947320832,1.0001144027584101,-17.71340472096419
7.954586624,1.0000374649166577,-17.89768870133181
7.961852928,0.9999578901253765,-18.08091993602275
7.969119232,0.9998801285743582,-18.263076960123996
7.976385024,0.9998086832718668,-18.444241931196515
7.983651328,0.9997474257845715,-18.624490070460393
7.99091712,0.999699988522415,-18.804041368591772
7.998183424,0.9996686671821743,-18.982997868004617
8.005449728,0.999655400100982,-19.161699040637345
8.01271552,0.9996611108693513,-19.340325687515648
8.019981824,0.9996853547356448,-19.519188046536783
8.027248128,0.9997268120091901,-19.698496243795653
8.03451392,0.9997830991235741,-19.878486122941744
8.041780224,0.9998511753492207,-20.05929365915045
8.049046528,0.9999274605510646,-20.241116350568564
8.05631232,1.0000074630972882,-20.424007013842765
8.063578624,1.0000866517697669,-20.607984595704046
8.070844928,1.000160838824089,-20.793016600403806
8.07811072,1.000225814335815,-20.97900460321486
8.085377024,1.0002779311722996,-21.165807537803953
8.092642816,1.0003143287228047,-21.353210235484212
8.09990912,1.0003327613818027,-21.54099396881361
8.107175424,1.0003323056226974,-21.728917811828747
8.114441216,1.0003130321837796,-21.916717374676903
8.12170752,1.0002759344743062,-22.10412188409766
8.128973824,1.0002229718339821,-22.290931525328745
8.136239616,1.000157264943303,-22.476951380959473
8.14350592,1.0000822848437667,-22.662056024563675
8.150772224,1.0000023498279371,-22.8460517096946
8.158038016,0.9999217181352628,-23.02899226784431
8.16530432,0.9998451416925795,-23.210862637025112
8.172570624,0.9997765968113258,-23.391739705210423
8.179836416,0.9997200062083843,-23.571790580246226
8.18710272,0.9996788894826532,-23.75116456561103
8.194368512,0.9996550195845865,-23.930115423963603
8.201634816,0.9996500675654917,-24.108875408661486
8.20890112,0.9996643838568936,-24.28769233107636
8.216166912,0.9996969064883596,-24.466835103148227
8.223433216,0.9997460641401845,-24.646543200395595
8.23069952,0.9998090602920734,-24.82700448904266
8.237965312,0.999882604586596,-25.008415580612105
8.245231616,0.9999622591871162,-25.190862230208914
8.25249792,1.0000438506545077,-25.37442301196126
8.259763712,1.0001226004212078,-25.559128549283734
8.267030016,1.000194313616421,-25.744790572919772
8.27429632,1.0002549992686973,-25.931401377020222
8.281562112,1.0003011464356313,-26.11874891345213
8.288828416,1.0003302486874956,-26.306622678074252
8.296094208,1.000340524338683,-26.494788283371886
8.303360512,1.0003315726656319,-26.682910308400505
8.310626816,1.000303637894705,-26.870833601455516
8.317892608,1.0002585129057657,-27.058310395708798
8.325158912,1.0001985648699203,-27.24499027261348
8.332425216,1.0001270586736704,-27.430843810176007
8.339691008,1.0000480116449233,-27.615671747428166
8.346957312,0.9999658725474558,-27.799404012224027
8.354223616,0.999885307705889,-27.98204321338381
8.361489408,0.9998103897796644,-28.1636261102479
8.368755712,0.9997457365013129,-28.344264996505192
8.376022016,0.9996947584265423,-28.524103359964347
8.383287808,0.9996604212448039,-28.70338877998483
8.390554112,0.9996445886420647,-28.882352612431912
8.397820416,0.9996482812255655,-29.061188901403764
8.405086208,0.9996711416851287,-29.240246177582186
8.412352512,0.9997121353995688,-29.419726952683178
8.419618304,0.9997687254754966,-29.599892662389223
8.426884608,0.9998379230162523,-29.780948450488822
8.434150912,0.9999160808571537,-29.96294939841679
8.441416704,0.9999984667294837,-30.146096416108136
8.448683008,1.0000808248888313,-30.33035192772229
8.455949312,1.000158354812955,-30.515689818281334
8.463215104,1.0002267581300897,-30.70207634414621
8.470481408,1.0002822149886834,-30.889261559105258
8.477747712,1.0003218150184567,-31.077156539385552
8.485013504,1.0003430455245654,-31.265444457095178
8.492279808,1.0003447761535589,-31.453907573553266
8.499546112,1.0003271559075562,-31.64223798748505
8.506811904,1.0002906582769209,-31.830274315984813
8.514078208,1.0002377584070212,-32.01764881027168
8.521344,1.000171028329406,-32.20428377244153
8.528610304,1.0000943887976126,-32.38990419284658
8.535876608,1.0000120483345654,-32.57446634924697
8.5431424,0.9999285388565335,-32.75791507435278
8.550408704,0.9998484989374307,-32.940252496390215
8.557675008,0.9997764580377816,-33.12154261426164
8.5649408,0.9997164710535437,-33.30193405583787
8.572207104,0.9996718602589225,-33.481667141001736
8.579473408,0.999645093377159,-33.66087085614868
8.5867392,0.9996376344477039,-33.83986021228007
8.594004992,0.9996502033161463,-34.01891059829846
8.601271296,0.9996819015001347,-34.198234228904866
8.6085376,0.9997308526935846,-34.378121365467855
8.615803904,0.9997946521643953,-34.55880813799674
8.623070208,0.9998696350232115,-34.7404057893585
8.630336512,0.9999515946364049,-34.92310087848587
8.637601792,1.0000360006286075,-35.10692243414065
8.644868096,1.0001180896969255,-35.29188333654543
8.6521344,1.0001934018393304,-35.4779417306311
8.659400704,1.000257734657947,-35.66495160767102
8.666667008,1.0003072825168897,-35.852769339991774
8.673932288,1.0003394860419101,-36.041146122103655
8.681198592,1.0003525069464851,-36.2298152429426
8.688464896,1.000345364607544,-36.41858290346694
8.6957312,1.0003188110495596,-36.607078336200644
8.702997504,1.000274020434861,-36.795100228445406
8.710263808,1.0002135738093128,-36.982443395159244
8.717529088,1.0001405644098664,-37.168897682665296
8.724795392,1.0000595210714427,-37.35428867631586
8.732061696,0.99997455058227,-37.53855003503571
8.739328,0.999890519993766,-37.72170315199194
8.746594304,0.9998120401783717,-37.90372984335845
8.753860608,0.9997437986908896,-38.084791560770135
8.761125888,0.9996891857107585,-38.264993571467784
8.768392192,0.9996515604548724,-38.44457209983374
8.775658496,0.9996329665033291,-38.62376682116748
8.7829248,0.999634488025927,-38.8028582666581
8.790191104,0.9996559301739574,-38.98211807915393
8.797456384,0.9996963456767619,-39.161798664531354
8.804722688,0.9997532748732028,-39.34212956390191
8.811988992,0.9998237961318784,-39.523370721326216
8.819255296,0.9999037926779873,-39.70561735158017
8.8265216,0.9999888286065789,-39.88902406569392
8.833787904,1.0000743978481288,-40.07356639548073
8.841053184,1.000155507672476,-40.25926458123261
8.848319488,1.0002276947468307,-40.446009414926124
8.855585792,1.0002870016972654,-40.633678125137635
8.862852096,1.0003298614029732,-40.822022119107245
8.8701184,1.0003540633093488,-41.01088358920063
8.877384704,1.0003583345723348,-41.19992152494034
8.884649984,1.0003422024285997,-41.38887896020531
8.891916288,1.000306692704292,-41.577502210120684
8.899182592,1.000253667065508,-41.76552755999242
8.906448896,1.000186010409782,-41.952748686344286
8.9137152,1.0001075047998327,-42.138986246539716
