freq,mag,phase
6.0,0.9998690231216097,12.672519997879673
6.005653504,0.9999039847942403,12.510021215891094
6.01130752,0.9999440004845486,12.346976491903813
6.016961024,0.9999872238069414,12.183344538650354
6.02261504,1.0000311355172276,12.019079821580819
6.028268544,1.000073360668728,11.854171898498658
6.033922048,1.0001113355807596,11.688724322649714
6.039576064,1.0001427823965343,11.52278826497232
6.045229568,1.0001658400788873,11.356448469294806
6.050883584,1.0001792229812914,11.189801683897473
6.056537088,1.000182035921328,11.023028748926631
6.062190592,1.0001742574031747,10.856273792004622
6.067844608,1.0001560575517556,10.689637694917778
6.073498112,1.0001286572965824,10.523346375685534
6.079152128,1.0000935668895032,10.357446921397784
6.084805632,1.0000529049301325,10.192068703338421
6.090459136,1.0000088615732774,10.027256591827497
6.096113152,0.9999641821155054,9.863063459448504
6.101766656,0.999921427128821,9.699404536040033
6.107420672,0.9998830278726113,9.536332356232752
6.113074176,0.9998513257462169,9.373768535807974
6.11872768,0.9998281596382211,9.211495699681896
6.124381696,0.9998147566399951,9.049539699051705
6.1300352,0.9998122874265272,8.887620810946109
6.135689216,0.9998206695713997,8.72566942913488
6.14134272,0.9998393416930053,8.563519985079468
6.146996224,0.9998675221453602,8.401025113321909
6.15265024,0.9999033523363052,8.238028029946928
6.158303744,0.9999449393655471,8.074538606230522
6.16395776,0.9999896200231564,7.9103724713641475
6.169611264,1.0000350006541392,7.745593311875748
6.175264768,1.0000784453467078,7.580164185657153
6.180918784,1.0001172833174272,7.414106958205294
6.186572288,1.0001493037791245,7.247596625088014
6.192226304,1.0001726175617647,7.080638937093632
6.197879808,1.0001857878848515,6.913395981446646
6.203533824,1.0001881240046302,6.746057501841806
6.209187328,1.000179365992255,6.578748206013213
6.214840832,1.0001600930537344,6.411575028452562
6.220494848,1.0001312033430507,6.244761244234595
6.226148352,1.0000945793530311,6.078343340145103
6.231802368,1.0000522793415265,5.9124275306449015
6.237455872,1.0000068079117808,5.747149212579863
6.243109376,0.9999606723340876,5.582522655988142
6.248763392,0.9999166754988301,5.418418539724629
6.254416896,0.9998773932880306,5.254961966758883
6.260070912,0.9998451203635601,5.0919222886691395
6.265724416,0.9998217738406108,4.9293055659862155
6.27137792,0.999808675809359,4.766875158881962
6.277031936,0.9998065432710453,4.604526799822564
6.28268544,0.9998158806192852,4.4421607275148665
6.288339456,0.9998357563423034,4.279569444747721
6.29399296,0.9998653098976713,4.116615812497849
6.299646464,0.9999027033081878,3.953170845037489
6.30530048,0.9999458679137281,3.7891404397163346
6.310953984,0.9999921604554847,3.624486058951483
6.316608,1.0000390533299868,3.4591559272151224
6.322261504,1.0000836461082387,3.2931305558366857
6.327915008,1.000123348505994,3.1265213359633557
6.333569024,1.0001559990553905,2.9594087465949825
6.339222528,1.0001793661635632,2.7918787476080738
6.344876544,1.0001924785034635,2.6240469978653205
6.350530048,1.000194210875676,2.4560941343701983
6.356183552,1.000184505527037,2.2881592474552312
6.361837568,1.0001639231860042,2.120460519842429
6.367491072,1.0001337146806302,1.953049179692279
6.373145088,1.0000955506952767,1.7861116122265432
6.378798592,1.0000515510955554,1.6197358370373707
6.384452096,1.000004503760109,1.4539450111401886
6.390106112,0.9999568546591806,1.2888166101219487
6.395759616,0.9999117110013263,1.1243168164595772
6.401413632,0.9998714598073094,0.9603733725339516
6.407067136,0.9998385723271166,0.796956155906303
6.41272064,0.9998150197814547,0.6338835339244765
6.418374656,0.9998020479824812,0.47106555068773787
6.42402816,0.999800611921311,0.30829504088834353
6.429682176,0.9998108797984786,0.14550418010477284
6.43533568,0.9998320215482638,-0.017575855436263794
6.440989184,0.9998630102590857,-0.1809895693484989
6.4466432,0.9999020108661796,-0.34494290824206814
6.452296704,0.9999467840616266,-0.5094574535055241
6.45795072,0.999994703331098,-0.6746782506841505
6.463604224,1.0000430057151353,-0.8405681497628209
6.469257728,1.0000887692484104,-1.0071790888689978
6.474911744,1.0001294921651382,-1.174375643651663
6.480565248,1.0001627334591818,-1.3420938248890715
6.486219264,1.000186324667127,-1.5102441725371487
6.491872768,1.0001991379456134,-1.6787110288206635
6.497526272,1.0002002603024438,-1.8472744860337142
6.503180288,1.0001895428172738,-2.0157714132389803
6.508833792,1.0001678493685346,-2.1840882816124805
6.514487808,1.0001361350040343,-2.352021940721673
6.520141312,1.0000963782203123,-2.5195130523253697
6.525794816,1.0000507364853468,-2.6864433385024244
6.531448832,1.0000019710707917,-2.852729051002551
6.537102336,0.9999530265630306,-3.0183076675129477
6.542756352,0.9999065811087045,-3.1832835176462444
6.548409856,0.9998654047025641,-3.3476528513542396
6.55406336,0.9998319860305324,-3.5115381150942704
6.559717376,0.9998082228368042,-3.674990303344081
6.56537088,0.9997955122079613,-3.838285804826129
6.571024896,0.9997946426364378,-4.001449802519684
6.5766784,0.9998058377186438,-4.164716546696653
6.582331904,0.9998282380012123,-4.328233818117734
6.58798592,0.9998607443672559,-4.492171277726843
6.593639424,0.9999014625807244,-4.656620474157959
6.59929344,0.999947804707476,-4.821677625931329
6.604946944,0.9999974131756391,-4.987421595079086
6.61060096,1.0000471750789834,-5.153898647943337
6.616254464,1.0000942095812033,-5.321072791910139
6.621907968,1.0001358998058194,-5.4889286751890625
6.627561984,1.000169646990819,-5.657257060861916
6.633215488,1.0001935289999189,-5.826052704048722
6.638869504,1.0002059991052141,-5.995124909513194
6.644523008,1.0002065847284605,-6.164302523227971
6.650176512,1.0001950307740135,-6.333421717655513
6.655830528,1.00017192504291,-6.502307525515908
6.661484032,1.0001387587559671,-6.670862913474894
6.667138048,1.0000973012492416,-6.838903057648732
6.672791552,1.0000500022402354,-7.0063529372346665
6.678445056,0.9999996250825802,-7.173148944130353
6.684099072,0.9999490497118966,-7.339256465495131
6.689752576,0.999901380286008,-7.504687137709058
6.695406592,0.9998592190057908,-7.669517308240744
6.701060096,0.999825141012353,-7.833828836413358
6.7067136,0.9998012580420756,-7.997800614933057
6.712367616,0.9997887453508069,-8.161486164276159
6.71802112,0.9997885225073155,-8.325093237519098
6.723675136,0.9998006860749719,-8.488820835326782
6.72932864,0.9998244470028592,-8.652837079311194
6.734982144,0.999858466832962,-8.81725095915586
6.74063616,0.9999007123769339,-8.982218580615616
6.746289664,0.9999488749452695,-9.147809387889795
6.75194368,1.0000000623486025,-9.314159662711102
6.757597184,1.000051412040987,-9.48120071648163
6.763250688,1.0000997951827129,-9.64898432139346
6.768904704,1.0001423106698881,-9.817415823359928
6.774558208,1.0001766318919596,-9.986438214509919
6.780212224,1.000200760212267,-10.15585302600169
6.785865728,1.0002131016820994,-10.325584377002466
6.791519232,1.000213093859914,-10.495375380503058
6.797173248,1.0002003212514228,-10.66512287821086
6.802826752,1.0001760353412608,-10.834684615946538
6.808480768,1.0001412717741063,-11.003809091726618
6.814134272,1.0000980568831674,-11.172387999924316
6.819787776,1.0000491724610798,-11.340394958028648
6.825441792,0.9999970043302879,-11.507726052956913
6.831095296,0.9999449393506207,-11.674322893391722
6.836749312,0.999896037675626,-11.840255066774361
6.842402816,0.9998529769737836,-12.005565267420979
6.84805632,0.9998182625687208,-12.170327226655626
6.853710336,0.999794140631683,-12.334716991414869
6.85936384,0.9997819690347339,-12.49885965350015
6.865017856,0.9997823646725826,-12.662948804500095
6.87067136,0.9997953996366074,-12.8271537155572
6.876324864,0.9998205248196879,-12.991647877901002
6.88197888,0.9998561154714026,-13.156542826058367
6.887632384,0.9999002378840728,-13.322048656514072
6.8932864,0.9999500454829797,-13.488236179221389
6.898939904,1.000003022462909,-13.655136791248124
6.904593408,1.0000557331671451,-13.822810713878928
6.910247424,1.0001053814862855,-13.991224449087591
6.915900928,1.0001489358164275,-14.160308371980438
6.921554944,1.0001839279031404,-14.329945122554522
6.927208448,1.0002081482807004,-14.500027246371074
6.932861952,1.0002202141641363,-14.670392009502367
6.938515968,1.000219395688406,-14.840879609741357
6.944169472,1.000205829654061,-15.0112594955912
6.949823488,1.0001801710705713,-15.181433725303338
6.955476992,1.000143774023761,-15.351170396700848
6.961130496,1.0000989361524888,-15.520351966926382
6.966784512,1.0000481489974988,-15.688891221668499
6.972438016,0.999994367428846,-15.856758815602255
6.978092032,0.99994082525585,-16.023856491088253
6.983745536,0.9998904319071455,-16.190280890928808
6.98939904,0.9998463408803377,-16.356085562345527
6.995053056,0.9998111517709031,-16.521320872657352
7.00070656,0.9997868207020696,-16.686148340784285
7.006360576,0.9997749511766272,-16.850784868698216
7.01201408,0.9997759352385066,-17.015362944448682
7.017668096,0.9997901744446658,-17.18001152992453
7.0233216,0.9998166261010353,-17.345001929643235
7.028975104,0.9998537679043198,-17.510463541094367
7.03462912,0.9998995193048111,-17.676489027489986
7.040282624,0.9999511723995869,-17.843257891214517
7.04593664,1.0000057720646438,-18.010746626975973
7.051590144,1.000060246787359,-18.179045475650508
7.057243648,1.0001111528253384,-18.348081509963862
7.062897664,1.0001557583224105,-18.517811674111407
7.068551168,1.000191224797599,-18.688146272683554
7.074205184,1.00021576535178,-18.858891897111075
7.079858688,1.0002275390434967,-19.029937972744015
7.085512192,1.0002260320187288,-19.20110671568458
7.091166208,1.0002114119179615,-19.372132043420812
7.096819712,1.0001843413442462,-19.542928571573906
7.102473728,1.0001462422444616,-19.713301972400384
7.108127232,1.000099661306615,-19.883070860883326
7.113780736,1.0000470901967482,-20.05220871478128
7.119434752,0.9999915949178534,-20.220609513366096
7.125088256,0.9999363828835351,-20.388249070879752
7.130742272,0.9998848312139482,-20.5551665633092
7.136395776,0.9998397513128955,-20.721427769050837
7.14204928,0.9998038310496661,-20.887152608694386
7.147703296,0.9997793189314254,-21.052504239704227
7.1533568,0.9997675653549514,-21.217591784520863
7.159010816,0.9997694428466755,-21.382628252060858
7.16466432,0.9997846752503196,-21.547783265006185
7.170317824,0.9998124882215725,-21.713288403662144
7.17597184,0.9998512778674508,-21.879268911643617
7.181625344,0.9998989474834894,-22.045868632194527
7.18727936,0.9999524201034405,-22.213208449316372
7.192932864,1.0000088712205486,-22.381317289714485
7.198586368,1.0000648318429384,-22.550234090410445
7.204240384,1.0001171561820739,-22.719937087562638
7.209893888,1.0001626676674722,-22.890359177867023
7.215547904,1.0001987850708278,-23.061377975822957
7.221201408,1.0002233510439835,-23.232811740330924
7.226854912,1.0002349643323674,-23.404542446250655
7.232508928,1.0002327595713456,-23.57636455312359
7.238162432,1.0002170256973857,-23.748076522966493
7.243816448,1.0001884678200588,-23.919535914919994
7.249469952,1.0001489012139497,-24.090520055478766
7.255123456,1.0001005341804121,-24.260919070520142
7.260777472,1.000046054920931,-24.430627164139334
7.266430976,0.9999887511812228,-24.599589816800393
7.272084992,0.9999318370496357,-24.76776691889505
7.277738496,0.999878960825049,-24.935219250089506
7.283392,0.9998327785104233,-25.101986849777585
7.289046016,0.9997964261409092,-25.268197213004147
7.29469952,0.9997716511782084,-25.434019998431452
7.300353536,0.9997603334211828,-25.599564227407377
7.30600704,0.9997627054556264,-25.765116626155905
7.311660544,0.9997790327407591,-25.930820131425545
7.31731456,0.9998082654381653,-26.096807688310438
7.322968064,0.9998488091757983,-26.263347159698792
7.32862208,0.9998982002385172,-26.43050107653284
7.334275584,0.9999536163061142,-26.59842830546445
7.339929088,1.0000117695270878,-26.767194983235527
7.345583104,1.0000694132516468,-26.936751866464448
7.351236608,1.0001231300049753,-27.107123830565055
7.356890624,1.0001697087387094,-27.278218869499803
7.362544128,1.0002064993192141,-27.44992231655219
7.368197632,1.00023134834932,-27.62208268693285
7.373851648,1.000242613967713,-27.794506631560772
7.379505152,1.000239604012585,-27.967043373174736
7.385159168,1.0002227801453116,-28.139430792414146
7.390812672,1.0001927625634242,-28.31155883470309
7.396466176,1.0001514464340329,-28.483189201466832
7.402120192,1.000101187464097,-28.654235488701637
7.407773696,1.0000448395292099,-28.824507563856365
7.413427712,0.99998573308063,-28.994077984929973
7.419081216,0.999927194566876,-29.16279077177309
7.424735232,0.999872937046556,-29.33074644105705
7.430388736,0.9998257178408578,-29.498055048819833
7.43604224,0.9997887332750636,-29.664742437151563
7.441696256,0.9997638823683149,-29.831038558621387
7.44734976,0.9997526324498707,-29.997097247201122
7.453003776,0.9997559526600944,-30.16314828094348
7.45865728,0.9997733840618368,-30.329357452530445
7.464310784,0.999804094248745,-30.495918471764675
7.4699648,0.9998462595689006,-30.663012949157274
7.475618304,0.9998975748828245,-30.830773807127695
7.48127232,0.999954914119523,-30.999281035266314
7.486925824,1.0000149966705174,-31.16864661956169
7.492579328,1.00007417833395,-31.33890232838715
7.498233344,1.000129415597107,-31.50996148250295
7.503886848,1.0001769956208668,-31.681750576539148
7.509540864,1.0002144232618282,-31.85418300499145
7.515194368,1.0002393421501332,-32.02702739648869
7.520847872,1.000250346453509,-32.2001834742194
7.526501888,1.0002467074258468,-32.37341746298588
7.532155392,1.0002287258025253,-32.54652956152293
7.537809408,1.000197350420221,-32.71933083866092
7.543462912,1.000154237260829,-32.891616156410315
7.549116416,1.0001019821647616,-33.063309528831944
7.554770432,1.0000436441804428,-33.23421303950774
7.560423936,0.9999827690606893,-33.40432753440945
7.566077952,0.9999225565443446,-33.57362766512758
7.571731456,0.9998668138898645,-33.74213225254847
7.57738496,0.9998184980499379,-33.90993160873615
7.583038976,0.999780837720263,-34.07715375619399
7.58869248,0.9997556552551825,-34.24395568521564
7.594346496,0.999744899236365,-34.410543336146496
7.6,0.999748895943266,-34.5770792480161
7.605653504,0.9997675392358034,-34.743819087088426
7.61130752,0.999799615803878,-34.91092331701669
7.616961024,0.9998436821702738,-35.07855543533203
7.62261504,0.9998969544575326,-35.24691042894788
7.628268544,0.9999562785588595,-35.41606356601195
7.633922048,1.0000181500262935,-35.58611567470672
7.639576064,1.0000791732473633,-35.7570190962408
7.645229568,1.000135745574862,-35.928753636822655
7.650883584,1.0001843610705712,-36.10128054951718
7.656537088,1.0002225945497631,-36.274411952783844
7.662190592,1.000247520184713,-36.44802370416351
7.667844608,1.000258349254912,-36.62191442175917
7.673498112,1.0002540230641024,-36.79588878593437
7.679152128,1.000234846296141,-36.969717276349044
7.684805632,1.0002017550599045,-37.14318771525654
7.690459136,1.0001569743739047,-37.31617062435612
7.696113152,1.0001027278844201,-37.48848640402781
7.701766656,1.000042486479043,-37.660043653654036
7.707420672,0.9999795084803171,-37.83073980823215
7.713074176,0.9999176799274978,-38.000622982320294
7.71872768,0.9998604148308435,-38.169664761885045
7.724381696,0.9998111613113853,-38.33800244371275
7.7300352,0.9997726711196702,-38.505751696190295
7.735689216,0.9997474970201105,-38.673054100500565
7.74134272,0.9997368761529191,-38.840133547391154
7.746996224,0.9997416551434043,-39.00722019523253
7.75265024,0.9997614257500504,-39.1744898763895
7.758303744,0.9997952170435601,-39.34214681924114
7.76395776,0.9998409041293272,-39.51037713309673
7.769611264,0.9998961358222925,-39.67932322594182
7.775264768,0.9999574692452646,-39.849115980120764
7.780918784,1.0000213182686375,-40.019834402518775
7.786572288,1.0000840844731318,-40.19143622741377
7.792226304,1.0001421864753708,-40.36389394704505
7.797879808,1.0001919871333647,-40.53712667064076
7.803533824,1.0002306973236683,-40.71100899807692
7.809187328,1.00025594317956,-40.885368566122075
7.814840832,1.0002664476107943,-41.06000535788627
7.820494848,1.0002614286934994,-41.23472960457678
7.826148352,1.0002409942581634,-41.409273213311124
7.831802368,1.0002063458135826,-41.583478354306514
7.837455872,1.000159668367531,-41.75713882603128
7.843109376,1.000103500089069,-41.930118164972946
7.848763392,1.0000412275354056,-42.102287852702354
7.854416896,0.9999762502913531,-42.273621006138754
7.860070912,0.9999125632570482,-42.44407537445403
7.865724416,0.9998537230920653,-42.61367500207499
7.87137792,0.9998034227313641,-42.782560226068426
7.877031936,0.9997642985826513,-42.950852172670935
7.88268544,0.9997388385677449,-43.11867955035187
7.888339456,0.9997286954385565,-43.28628634902955
7.89399296,0.9997340989984563,-43.453910762361076
7.899646464,0.9997551491651313,-43.62171566763814
7.90530048,0.9997905240787271,-43.789924897984
7.910953984,0.9998381073474102,-43.95875741342908
7.916608,0.9998953032105863,-44.12834854086921
7.922261504,0.9999587155022122,-44.298771948290145
7.927915008,1.0000246210734691,-44.470142059686104
7.933569024,1.000089294099237,-44.64244302679155
7.939222528,1.0001487559546631,-44.81561811727807
7.944876544,1.0001997754126624,-44.989603790711065
7.950530048,1.000239061999519,-45.164259190563
7.956183552,1.0002647227464156,-45.33939227598531
7.961837568,1.0002748179826086,-45.514778637641015
7.967491072,1.0002688440505085,-45.69024014423053
7.973145088,1.0002471362503558,-45.86557172472105
7.978798592,1.000211017907019,-46.04050178551074
7.984452096,1.0001625083102665,-46.21486066619573
7.990106112,1.000104407941617,-46.38851713030955
7.995759616,1.0000398763199416,-46.56135419989053
8.001413632,0.9999729469416581,-46.73327762891673
8.007067136,0.999907372436856,-46.904321292638826
8.01272064,0.9998471067916345,-47.07448947042314
8.018374656,0.9997955175133398,-47.24391073811211
8.02402816,0.9997556873570493,-47.41274600111459
8.029682176,0.9997301092741326,-47.581112194406366
8.03533568,0.9997201192085722,-47.74927536134919
8.040989184,0.9997264190370831,-47.91743736413856
8.0466432,0.9997487018226294,-48.08575928550735
8.052296704,0.9997856583982222,-48.25459204609261
8.05795072,0.9998352213306305,-48.424016807006915
8.063604224,0.9998944554063363,-48.594194297587244
8.069257728,0.9999599607116777,-48.76529391394335
8.074911744,1.000028049394113,-48.937357907488305
8.080565248,1.000094490852969,-49.110394625984874
8.086219264,1.0001554745734829,-49.2843143353738
8.091872768,1.0002077349416263,-49.4590711256793
8.097526272,1.0002476904262745,-49.6344945166699
8.103180288,1.0002735568496233,-49.810398135132814
8.108833792,1.0002833343508188,-49.986592996457105
8.114487808,1.0002765697796128,-50.16282520113505
8.120141312,1.0002536788678407,-50.33886291963131
8.125794816,1.000215987137687,-50.5145414580041
8.131448832,1.000165409133442,-50.6896406081854
8.137102336,1.0001052943081126,-50.86398582414605
8.142756352,1.0000385580585156,-51.03746078919727
8.148409856,0.9999696060850883,-51.210008056128444
8.15406336,0.9999021075403238,-51.38167376402994
8.159717376,0.9998402110895809,-51.55241817806082
8.16537088,0.9997874333191286,-51.722431528544746
8.171024896,0.9997469410909777,-51.891797325658864
8.1766784,0.9997211011727084,-52.06072932548154
8.182331904,0.9997113933955156,-52.22940265533718
8.18798592,0.9997186031489288,-52.398062661585584
8.193639424,0.9997421014691636,-52.56701890912893
8.19929344,0.999780784504793,-52.73640759248621
8.204946944,0.9998322624322348,-52.90641996702695
8.21060096,0.9998935655508531,-53.07729048414615
8.216254464,0.9999613375767282,-53.24904931861544
8.221907968,1.000031368007637,-53.42182413765935
8.227561984,1.0000997230767226,-53.59556508680968
8.233215488,1.0001624628382908,-53.77024218889257
8.238869504,1.0002158217513364,-53.94578513303371
8.244523008,1.0002567623760743,-54.121980159629175
8.250176512,1.0002827172169984,-54.29869167583563
8.255830528,1.0002921835256122,-54.47569232582837
8.261484032,1.0002846025273768,-54.6526874412689
