freq,mag,phase
6.0,1.0004124702315078,-74.24209552335806
6.00851968,1.000540466412892,-74.65348549757087
6.01703936,1.000643756937752,-75.06656883047843
6.02555904,1.0007131601152923,-75.48091927539632
6.03407872,1.0007455753595351,-75.89609076319876
6.0425984,1.000738691694442,-76.31161790727647
6.05111808,1.0006931131963746,-76.72695521947006
6.05963776,1.000611183074349,-77.14158370320347
6.06815744,1.0004972649492878,-77.55508088743927
6.07667712,1.000357026314509,-77.96704742367606
6.0851968,1.0001978534278329,-78.37714627728498
6.09371648,1.000028152255583,-78.78527862119006
6.102236672,0.9998568876219008,-79.19131087451628
6.110756352,0.9996928318285556,-79.59522743386738
6.119276032,0.9995449740907512,-79.99725951847948
6.127795712,0.999420910535474,-80.39762273330712
6.136315392,0.9993271031750943,-80.79668265440746
6.144835072,0.9992688664314711,-81.19486295587583
6.153354752,0.9992490570388444,-81.59267959286429
6.161874432,0.9992688926290098,-81.99063196283996
6.170394112,0.9993273205835346,-82.38924111400789
6.178913792,0.99942114869695,-82.78900176808594
6.187433472,0.9995459721207978,-83.1903380984958
6.195953152,0.9996948573749873,-83.5936441488861
6.204472832,0.999860098497533,-83.99913886677768
6.212992512,1.0000330284311005,-84.4070546938674
6.221512192,1.0002044858590846,-84.81738677433366
6.230031872,1.000365806651781,-85.2300130541728
6.238551552,1.0005081437962204,-85.6448308849604
6.247071232,1.0006239355671804,-86.06148617147421
6.255590912,1.000707470076908,-86.47963571811242
6.264110592,1.0007538943820626,-86.89879230228287
6.272630272,1.0007611322313015,-87.31841262165646
6.281149952,1.0007284245093264,-87.7380460096664
6.289669632,1.000657522852808,-88.15711324937837
6.298189312,1.000552068968857,-88.57517918956688
6.306709504,1.000417608980058,-88.99181876359566
6.315229184,1.000261176672054,-89.40666479183577
6.323748864,1.0000907919844175,-89.81952557692685
6.332268544,0.9999156258484528,-90.23023130426807
6.340788224,0.9997447396699954,-90.63879481465793
6.349307904,0.9995871174449216,-91.04532601161573
6.357827584,0.9994510110695507,-91.45002403981206
6.366347264,0.9993438218045161,-91.85328762280041
6.374866944,0.9992710248736452,-92.25544541608278
6.383386624,0.999236671080143,-92.65706128231074
6.391906304,0.999242438536152,-93.05859616660148
6.400425984,0.99928826579504,-93.46061834583597
6.408945664,0.9993717692514328,-93.86366108618941
6.417465344,0.9994886311228859,-94.26808156367039
6.425985024,0.9996326264535832,-94.6744528325966
6.434504704,0.9997962732327605,-95.08289760737485
6.443024384,0.9999709794516595,-95.49381017771333
6.451544064,1.0001477380304356,-95.90712175513382
6.460063744,1.0003170333196412,-96.32287113029476
6.468583424,1.000470131519219,-96.7408989114927
6.477103104,1.0005989078481918,-97.1609098094192
6.485622784,1.0006966083269566,-97.58258076767234
6.494142464,1.0007580854982958,-98.00541891235986
6.502662656,1.0007799877119463,-98.42894558597781
6.511182336,1.0007610308398538,-98.85265736802072
6.519702016,1.0007023957911685,-99.27597671990951
6.528221696,1.0006068746478276,-99.69846275500899
6.536741376,1.0004796587663674,-100.11956531725323
6.545261056,1.0003269294093236,-100.53900884536867
6.553780736,1.0001572469077222,-100.95644718724718
6.562300416,0.9999790608749025,-101.3717131668384
6.570820096,0.9998017924855005,-101.78476552582815
6.579339776,0.999634818381437,-102.19567016601154
6.587859456,0.9994871004950264,-102.6046280530178
6.596379136,0.9993661458459209,-103.01190888139807
6.604898816,0.9992784675096033,-103.41795400522982
6.613418496,0.9992287057910549,-103.82322011360162
6.621938176,0.9992196861178231,-104.22823537113662
6.630457856,0.9992518287740858,-104.6335040592733
6.638977536,0.9993235865359001,-105.03955500489761
6.647497216,0.9994309798814986,-105.44696122321979
6.656016896,0.9995689144616273,-105.85607978695025
6.664536576,0.99972964105561,-106.267327106144
6.673056256,0.9999050810339715,-106.68090816068656
6.681575936,1.0000859988970072,-107.09699071525003
6.690095616,1.0002628501116109,-107.51554906909546
6.698615296,1.0004264293460692,-107.93646925411723
6.707135488,1.0005679589642185,-108.35954216072747
6.715655168,1.000680086116737,-108.78446192548972
6.724174848,1.0007569296024206,-109.21071764720992
6.732694528,1.0007944698762479,-109.63787825102953
6.741214208,1.0007904262944969,-110.06534276975783
6.749733888,1.0007451716911822,-110.4926985462507
6.758253568,1.0006610701232876,-110.91929190062424
6.766773248,1.0005421375988541,-111.34466539591426
6.775292928,1.0003947374971245,-111.76846925998211
6.783812608,1.0002268112426747,-112.19025644979308
6.792332288,1.0000466419953313,-112.60990305632912
6.800851968,0.9998640445776864,-113.02725917444256
6.809371648,0.9996884467081218,-113.44238312015433
6.817891328,0.9995291157497984,-113.85540203784963
6.826411008,0.9993944795585961,-114.26663624594465
6.834930688,0.9992915835716144,-114.67637062597454
6.843450368,0.9992259488068852,-115.0851005836021
6.851970048,0.9992011014908769,-115.4933833102229
6.860489728,0.999218361482361,-115.9017026797432
6.869009408,0.9992769468549476,-116.31062214609636
6.877529088,0.9993738341041029,-116.72069890992705
6.886048768,0.9995039385653547,-117.13238918168769
6.894568448,0.9996606081719053,-117.54608421893613
6.90308864,0.9998354816692141,-117.9620956616215
6.91160832,1.0000194950426944,-118.38057045149677
6.920128,1.0002030518715996,-118.8016068182564
6.92864768,1.0003764135062827,-119.22513848831682
6.93716736,1.0005305863418656,-119.65091862055523
6.94568704,1.0006573843251099,-120.07867999297177
6.95420672,1.0007501022705578,-120.50803264610902
6.9627264,1.0008038784996827,-120.93843727138076
6.97124608,1.0008157528724109,-121.36943911639153
6.97976576,1.0007851876201745,-121.8004218672139
6.98828544,1.000713559724835,-122.23086647168068
6.99680512,1.0006046607279393,-122.6602209787977
7.0053248,1.000464085537793,-123.08805545285351
7.01384448,1.0002990876660565,-123.51400090339772
7.02236416,1.000118378715523,-123.93777970095805
7.03088384,0.9999314138241374,-124.35927022586665
7.03940352,0.9997478916533449,-124.77837155377136
7.0479232,0.9995774539121651,-125.19527944258755
7.05644288,0.999429220705965,-125.61018180840632
7.06496256,0.9993108208809701,-126.02341032566676
7.07348224,0.999228821612512,-126.43542956028864
7.08200192,0.9991872533748727,-126.84669712702414
7.0905216,0.999188584862936,-127.25786689681208
7.09904128,0.9992328535765372,-127.66938283973134
7.107561472,0.9993176950935546,-128.08185045109838
7.116081152,0.9994387103909907,-128.4957807366544
7.124600832,0.9995896713790898,-128.9116351313885
7.133120512,0.9997626485071851,-129.32973822014918
7.141640192,0.9999485871857124,-129.75029007818014
7.150159872,1.000137868540519,-130.17344975670923
7.158679552,1.0003205965682636,-130.59913246155867
7.167199232,1.0004868841200873,-131.02723270653905
7.175718912,1.0006283145059045,-131.45750403478587
7.184238592,1.0007371958504467,-131.88952509317
7.192758272,1.0008080604536531,-132.32283048059193
7.201277952,1.0008367762457029,-132.75691824058813
7.209797632,1.0008220737492022,-133.1911769551461
7.218317312,1.0007644456985678,-133.62510933132683
7.226836992,1.0006669525450147,-134.0581305739039
7.235356672,1.000534592696003,-134.48972371447616
7.243876352,1.0003742234513948,-134.91947116230062
7.252396032,1.0001942175359309,-135.3471230003281
7.260915712,1.0000039463519144,-135.77241547494185
7.269435392,0.9998133924238216,-136.1952843477055
7.277955072,0.9996325795351096,-136.61580214705594
7.286474752,0.9994708957942792,-137.03416062002754
7.294994432,0.9993369985934297,-137.4506631443379
7.303514624,0.999237969152828,-137.8656880490611
7.312034304,0.9991789650650073,-138.27975877753082
7.320553984,0.9991633627290408,-138.69344126683538
7.329073664,0.9991918544948601,-139.10727886224345
7.337593344,0.9992631629264201,-139.52186495301095
7.346113024,0.9993735327393886,-139.93774062222138
7.354632704,0.9995171635344552,-140.35537319310168
7.363152384,0.9996868724381713,-140.77515421644864
7.371672064,0.9998734408346812,-141.19739675471908
7.380191744,1.0000673412001198,-141.62223347090003
7.388711424,1.0002583175513453,-142.04969541239313
7.397231104,1.0004364705110802,-142.4797175059457
7.405750784,1.0005922565024445,-142.91200849975854
7.414270464,1.0007176461021206,-143.3462809922782
7.422790144,1.0008059559424751,-143.78202980164454
7.431309824,1.0008524011221678,-144.21874732994706
7.439829504,1.0008546970067438,-144.65592285021012
7.448349184,1.0008125319836612,-145.092924219958
7.456868864,1.0007279195337293,-145.52917982428426
7.465388544,1.0006053401371429,-145.96415209884336
7.473908224,1.0004511737693942,-146.39741975148524
7.482427904,1.000273340011214,-146.8285996818105
7.490947584,1.0000811178709768,-147.25741281563631
7.499467264,0.9998845567335095,-147.68375410926913
7.507987456,0.9996939800295653,-148.1075926862152
7.516507136,0.9995194639281048,-148.52912358073522
7.525026816,0.9993700216252343,-148.94857575195144
7.533546496,0.9992537457634066,-149.36635759382534
7.542066176,0.9991766543822598,-149.78295339673363
7.550585856,0.9991430015692656,-150.19885368162758
7.559105536,0.9991545273919885,-150.61467775308222
7.567625216,0.9992108184000282,-151.03103733417177
7.576144896,0.9993088229147705,-151.448477458034
7.584664576,0.9994437034185261,-151.86753855209255
7.593184256,0.9996083833076326,-152.2886406118532
7.601703936,0.9997941829945315,-152.7121208806657
7.610223616,0.9999914207990058,-153.1382164642953
7.618743296,1.0001898107267597,-153.5670287249132
7.627262976,1.000378993208413,-153.99842859484522
7.635782656,1.000548997851327,-154.43229945130687
7.644302336,1.0006908492796276,-154.8683340523437
7.652822016,1.0007971448304616,-155.30604199975352
7.661341696,1.0008622253053385,-155.7449655038396
7.669861376,1.0008825595621684,-156.184559580805
7.678381056,1.0008571138714497,-156.62420697237565
7.686900736,1.0007870667131964,-157.06327868092754
7.695420416,1.00067593073899,-157.50124421693715
7.703940608,1.0005294919699015,-157.93761137809588
7.712460288,1.0003554310194338,-158.371942803099
7.720979968,1.0001627172575307,-158.8039378930018
7.729499648,0.999961384024394,-159.2333919365974
7.738019328,0.9997620765922757,-159.66026481115156
7.746539008,0.9995751012673858,-160.0846578511688
7.755058688,0.9994104103564511,-160.50681264550568
7.763578368,0.9992766467600906,-160.92703528680303
7.772098048,0.9991808818007559,-161.34578365995242
7.780617728,0.9991282512215657,-161.76364241276613
7.789137408,0.9991216365652709,-162.18109713922343
7.797657088,0.9991613839466943,-162.59888806866394
7.806176768,0.9992456257804964,-163.0175409727878
7.814696448,0.9993698582777083,-163.43759531033314
7.823216128,0.9995278119493859,-163.85959923527793
7.831735808,0.9997111645607978,-164.28389585121542
7.840255488,0.9999103791980519,-164.71081327188975
7.848775168,1.0001150715806497,-165.14042604395104
7.857294848,1.0003144333567624,-165.5727409297393
7.865814528,1.000498067524757,-166.0077064864513
7.874334208,1.000656382981305,-166.44493336641952
7.882853888,1.0007809582227325,-166.88413286207802
7.891373568,1.0008652683265802,-167.32477300400748
7.899893248,1.0009047573980165,-167.7662676328916
7.90841344,1.0008973473710354,-168.20805399419544
7.91693312,1.0008433447730152,-168.64952978465757
7.9254528,1.000745370756708,-169.09004160034996
7.93397248,1.0006084751263122,-169.5290777089346
7.94249216,1.0004399193624867,-169.96618794320312
7.95101184,1.0002481942676045,-170.40097895736014
7.95953152,1.000043467649916,-170.83320417992206
7.9680512,0.9998363675123023,-171.26275812699188
7.97657088,0.9996377929732311,-171.6897181226213
7.98509056,0.9994581412626561,-172.11416794248572
7.99361024,0.9993069064932407,-172.53651061908022
8.00212992,0.9991919834418466,-172.95713848288554
8.0106496,0.9991196357271008,-173.3765690895854
8.01916928,0.9990936217868396,-173.7953839748246
8.02768896,0.9991155274879396,-174.21420561770435
8.03620864,0.9991842261623346,-174.63364662081014
8.04472832,0.999296218920293,-175.05432488849945
8.053248,0.9994457313916721,-175.476802278239
8.06176768,0.9996249132781442,-175.90145016931749
8.07028736,0.9998246171699454,-176.3286626164339
8.07880704,1.0000341895803508,-176.7586015256355
8.08732672,1.0002428864046955,-177.19138834255367
8.0958464,1.0004396012561876,-177.62685963422237
8.104366592,1.0006139467161577,-178.06483080087278
8.112886272,1.000757072892951,-178.5049502309217
8.121405952,1.0008611123842774,-178.94674919868706
8.129925632,1.0009206961040964,-179.3896738874569
8.138445312,1.0009326482476795,-179.83310599884365
8.146964992,1.000896184802265,179.72353419628791
8.155484672,1.0008130251945564,179.28093368848957
8.164004352,1.0006875254876912,178.8396487801285
8.172524032,1.0005262586726822,178.40017984743213
8.181043712,1.000337188279435,177.96303140334877
8.189563392,1.000130626546399,177.5284000302538
8.198083072,0.9999170035271485,177.09651115153184
8.206602752,0.9997076997355279,176.66737657890644
8.215122432,0.9995136130699249,176.24087166783028
8.223642112,0.9993450169172021,175.81673203044784
8.232161792,0.9992106001913172,175.39457908156754
8.240681472,0.99911791396651,174.97390943459158
8.249201152,0.9990715090075475,174.5541455959112
8.257720832,0.9990740702345945,174.13462604660248
8.266240512,0.9991256768506859,173.7147342479752
8.274760192,0.9992236353145056,173.29384440226067
8.283279872,0.9993628124108048,172.87135922056694
8.291799552,0.9995362058011514,172.44681462309572
8.300319744,0.9997345218001369,172.01974246483965
8.308839424,0.9999476175971781,171.58994809957983
8.317359104,1.000164411850484,171.15731852043393
8.325878784,1.0003733789539184,170.7218379586319
8.334398464,1.0005636548889065,170.28367843822966
8.342918144,1.0007251406473798,169.84318318543302
8.351437824,1.0008494963706933,169.40076719041176
8.359957504,1.0009300907729004,168.95693688419067
8.368477184,1.0009624727064927,168.5123300752186
8.376996864,1.000945001155547,168.06762367704775
8.385516544,1.0008783945854018,167.6234113620684
8.394036224,1.0007661468548592,167.18033408041677
8.402555904,1.0006138014359993,166.73897316203409
8.411075584,1.0004294382332284,166.29979480551143
8.419595264,1.0002225793274784,165.8631442560136
8.428114944,1.000004005257011,165.42932260510972
8.436634624,0.9997849345259524,164.99832431830154
8.445154304,0.9995771507588447,164.57015013234562
8.453673984,0.9993913806464201,164.1445354847216
8.462193664,0.9992374530842294,163.72117087293572
8.470713344,0.9991235955509598,163.29959057195163
8.479233024,0.9990557879887171,162.8791807623526
8.487752704,0.9990378261047411,162.45932818221527
8.496272384,0.999070718987889,162.03941140801663
8.504792576,0.999152619463238,161.61871066003994
8.513312256,0.9992797483371487,161.19663882854783
8.521831936,0.9994452551541568,160.77262016169962
8.530351616,0.9996405677535349,160.34619110919033
8.538871296,0.9998556381938687,159.91707560796772
8.547390976,1.0000791171296441,159.48503817313218
8.555910656,1.0002994648651882,159.05005367083763
8.564430336,1.0005048250506015,158.61227540893688
8.572950016,1.0006847697595387,158.1719223866304
8.581469696,1.0008296750136736,157.72940705921994
8.589988864,1.0009318675440002,157.28524938631116
8.598508544,1.0009859176887557,156.84003115592236
8.607029248,1.0009888337421613,156.394420559574
8.615548928,1.0009405083418617,155.94909600880737
8.624068608,1.0008432090369244,155.50470089811145
8.632588288,1.0007019660020455,155.06182917288567
8.641107968,1.0005239975579154,154.62107400568266
8.649627648,1.0003185316967147,154.1828042088119
8.658147328,1.000096236515613,153.74736905081832
8.666667008,0.999868770410042,153.3148737540227
8.675186688,0.9996482161480331,152.88535354703586
8.683706368,0.9994458262893081,152.4586002295996
8.692226048,0.9992722040876368,152.03434030273766
8.700745728,0.9991369913391559,151.6121346483694
8.709265408,0.9990468460853089,151.19147078940844
8.717785088,0.9990070705274762,150.7716366260754
8.726304768,0.9990196043836985,150.35200179827356
8.734824448,0.9990839928690868,149.93188239752988
8.743344128,0.9991969990140462,149.51061088711353
8.751863808,0.9993527339311784,149.08757675296067
8.760383488,0.9995431930000416,148.66223262103236
8.768903168,0.9997586659096582,148.23423595861604
8.777422848,0.9999873375520743,147.80333430730403
8.785942528,1.0002177346641443,147.36939540732243
8.794462208,1.0004377634472859,146.9324845267301
8.802981888,1.000635742341551,146.49280445628486
8.811501568,1.000801340581473,146.05072367513444
8.820021248,1.0009256976611345,145.6067347609759
8.828540928,1.0010024656462815,145.16142400341937
8.837060608,1.0010272559478053,144.71544534803098
8.845580288,1.0009988380785673,144.26945500028168
8.854099968,1.0009184302609915,143.8241742815513
8.862619648,1.0007901583057432,143.38027698448886
8.871139328,1.0006205819003933,142.93832752613008
8.879659008,1.0004184726666303,142.49880373015208
8.888178688,1.0001944511675704,142.06210015769722
8.896698368,0.9999599065232244,141.62842800169219
8.905218048,0.9997273208682889,141.1978517615868
8.913737728,0.999508809426581,140.77029298068172
8.922257408,0.9993159195321558,140.345448074219
8.930777088,0.9991588082623494,139.92292723357713
8.939296768,0.9990456869315234,139.50223446017384
8.947816448,0.998982912887321,139.08274613121318
8.956336128,0.998973607155588,138.6637559397893
8.964855808,0.9990186318177704,138.24454738698628
8.973375488,0.9991155810735683,137.82443305118315
8.981895168,0.9992595228824055,137.40274584611444
8.990414848,0.9994432232855086,136.97894432211743
8.998934528,0.9996568207703167,136.55253289555972
9.007455232,0.9998893653349069,136.12320385588933
9.015974912,1.0001288485099855,135.6907665837429
9.024494592,1.000362425503425,135.25524349413183
9.033014272,1.0005780429848534,134.8167808653664
9.041533952,1.0007643033201834,134.37566208657017
9.050053632,1.0009115302723168,133.93234860119355
9.058573312,1.001011753704557,133.487416193306
9.067092992,1.0010597433353794,133.04151777721395
9.075612672,1.0010527165507734,132.59536050509917
9.084132352,1.0009909967972173,132.1496342432746
9.092652032,1.0008776979753071,131.70509073691565
9.101171712,1.00071849353784,131.26231051144427
9.109691392,1.000521731116193,130.82191240845927
9.118211072,1.0002974429526799,130.38428905488226
9.126730752,1.0000574279710497,129.94974356153566
9.135250432,0.9998140745123103,129.51842816821608
9.143770112,0.9995802174471585,129.09027323873295
9.152289792,0.9993681364853853,128.66510187943015
9.160809472,0.99918908396105,128.24254420580596
9.169329152,0.9990523404982042,127.82211704842886
9.177848832,0.9989654214932822,127.40321800342308
9.186368512,0.9989329283316212,126.98515311005684
9.194888192,0.9989567458126238,126.5671929402016
9.203407872,0.9990358127829593,126.14858177720862
9.211927552,0.9991658557987626,125.72863165142729
9.220447232,0.9993406086942194,125.30672291653333
9.228966912,0.9995506902192581,124.88233048532086
9.237486592,0.9997854417670847,124.45500019403582
9.246006272,1.0000322413695193,124.02455981799788
9.254525952,1.0002784896810746,123.59086317724895
9.263045632,1.000511182478361,123.15404124841837
9.271565312,1.0007180987047024,122.71436449131448
9.280084992,1.0008883522363363,122.27222043912232
9.288604672,1.0010129763552809,121.82815275150077
9.297124352,1.0010851982465077,121.38280395103284
9.305644032,1.001101374848991,120.93687805942704
9.314163712,1.0010602397543134,120.49114032154239
9.322683392,1.000963852726535,120.04630370793134
9.331203072,1.0008172327923859,119.60310716672255
9.339722752,1.000627744591007,119.1621213200736
9.348242432,1.0004051513428045,118.72387497700441
9.356762112,1.0001611636110592,118.28874389576615
9.365281792,0.9999084809139183,117.85691205493437
9.373801472,0.9996601738293223,117.42844590694794
9.382321152,0.999429294234956,117.00312834853548
9.390840832,0.9992282142013579,116.58075759492516
9.399360512,0.9990674351538594,116.16082070675712
9.407881216,0.9989553498356709,115.74275941969792
