freq,mag,phase
6.0,0.9989704230882118,-7.99151997769643
6.010471424,0.9990274917139977,-8.321115614509376
6.020942336,0.9991337962066348,-8.65189842960106
6.03141376,0.9992835701038667,-8.984320650458375
6.041884672,0.9994694822388113,-9.31907120752018
6.052356096,0.9996821237038713,-9.656436376801055
6.062827008,0.9999107040980981,-9.996754454873072
6.073298432,1.0001436617853194,-10.340145012433586
6.083769856,1.0003695112219013,-10.686563928686798
6.094240768,1.000576869745395,-11.035838205369148
6.104712192,1.0007552025131004,-11.387691620384345
6.115183104,1.0008954510501684,-11.741682171711446
6.125654528,1.0009906028532678,-12.097296117575102
6.13612544,1.0010360223339263,-12.453867790275755
6.146596864,1.0010291192903606,-12.810790724081542
6.157068288,1.0009701902707078,-13.167337878631614
6.1675392,1.0008623468926334,-13.522917408775616
6.178010624,1.0007108455980627,-13.876922978204247
6.188481536,1.0005231872557212,-14.22883627294096
6.19895296,1.0003089792963444,-14.57820798330934
6.209423872,1.0000786655673253,-14.92479602300873
6.219895296,0.9998440445125096,-15.268441194843948
6.23036672,0.9996168730117619,-15.609187633636058
6.240837632,0.9994085224305627,-15.947192206488099
6.251309056,0.9992295334467634,-16.282735874548184
6.261779968,0.9990890651819312,-16.61633413220121
6.272251392,0.9989941280071012,-16.948408497985294
6.282722304,0.9989493921386716,-17.27970090872076
6.293193728,0.9989576429049496,-17.610822105186255
6.303665152,0.9990180766541916,-17.942497126575436
6.314136064,0.9991278827038272,-18.275268678226077
6.324607488,0.9992816441492717,-18.60986374592713
6.3350784,0.9994714521994096,-18.94676930960181
6.345549824,0.9996878473517732,-19.286369467728342
6.356020736,0.9999198456108076,-19.62893053447037
6.36649216,1.0001561143590085,-19.974629265377942
6.376963584,1.0003845157325804,-20.323402475771598
6.387434496,1.000593476131811,-20.675060854876808
6.39790592,1.0007727428443354,-21.029335981893276
6.408376832,1.0009130986037886,-21.38573147556441
6.418848256,1.0010074766941521,-21.74378305633815
6.429319168,1.0010511195504752,-22.10273986671989
6.439790592,1.001041859882488,-22.462058968715937
6.450262016,1.0009800502798458,-22.82096209453497
6.460732928,1.000868665473711,-23.178877658706472
6.471204352,1.000713189629251,-23.535132224622906
6.481675264,1.000521594604833,-23.88923593506629
6.492146688,1.0003035460249847,-24.240771898974206
6.5026176,1.0000697062475885,-24.58949713495489
6.513089024,0.9998317871928537,-24.93524624564387
6.523560448,0.9996019235006809,-25.278016150448018
6.53403136,0.9993916268877495,-25.61806716248506
6.544502784,0.9992116451435814,-25.95564166975942
6.554973696,0.9990709217357776,-26.291208524764812
6.56544512,0.9989766704775739,-26.62533951353133
6.575916032,0.9989335563280772,-26.958666850732673
6.586387456,0.9989441247073227,-27.291819851696598
6.59685888,0.9990075929864587,-27.625568803341334
6.607329792,0.9991207727496718,-27.96050649467064
6.617801216,0.9992783584235214,-28.297287125862493
6.628272128,0.9994721792938267,-28.636426530615633
6.638743552,0.9996925279894241,-28.978339119220454
6.649214464,0.9999283712511227,-29.32325607569831
6.659685888,1.0001679240106924,-29.6713301741413
6.670157312,1.0003990737322879,-30.02257482389534
6.680628224,1.0006101385291293,-30.376676982386837
6.691099648,1.0007904572460722,-30.733498837297137
6.70157056,1.000931268685171,-31.092391250275057
6.712041984,1.001025077795053,-31.452916797774872
6.722512896,1.001067301521689,-31.81438699917659
6.73298432,1.0010557264362634,-32.1762177312096
6.743455744,1.0009909530227052,-32.53756610645222
6.753926656,1.0008761507309116,-32.89788114542454
6.76439808,1.000716938533152,-33.25652555034222
6.774868992,1.0005213366010322,-33.6129800301132
6.785340416,1.000299105624021,-33.96680109632941
6.795811328,1.0000613524369264,-34.31772617771638
6.806282752,0.9998201023159253,-34.665663491780954
6.816754176,0.9995873891905273,-35.01061447329993
6.827225088,0.99937485304811,-35.352784941586684
6.837696512,0.9991935103040622,-35.69243617449443
6.848167424,0.9990523474827667,-36.03009845775745
6.858638848,0.998958434055991,-36.366359470160596
6.86910976,0.9989167060821156,-36.70178005694652
6.879581184,0.9989294140175126,-37.037083874524875
6.890052608,0.9989957628044154,-37.3729876220654
6.90052352,0.9991125462427072,-37.71013028947865
6.910994944,0.9992738581469122,-38.04917525781346
6.921465856,0.9994717388794055,-38.39060743860169
6.93193728,0.999696238015536,-38.734922781232136
6.942408192,0.9999360475629748,-39.082286051168026
6.952879616,1.0001791486479397,-39.43282246298933
6.96335104,1.000413208036696,-39.786541613835226
6.973821952,1.0006267351276321,-40.14328403721513
6.984293376,1.0008086775403753,-40.50260513691386
6.994764288,1.0009500083076466,-40.864161877379935
7.005235712,1.0010436786485735,-41.2272782998124
7.015706624,1.001084609058248,-41.59137509353749
7.026178048,1.0010711521824796,-41.95575962567393
7.03664896,1.0010034472476201,-42.31969219806556
7.047120384,1.0008852582510157,-42.68254821884153
7.057591808,1.0007223298563277,-43.04363627126113
7.06806272,1.0005225709600996,-43.402529954498696
7.078534144,1.0002961610925598,-43.75873541250842
7.089005056,1.0000542959335716,-44.11200723771881
7.09947648,0.9998092624155493,-44.46223583805139
7.109947392,0.9995733386108047,-44.80942154101016
7.120418816,0.9993583988637834,-45.15378871227255
7.13089024,0.999175258020752,-45.49566655587752
7.141361152,0.999033223535278,-45.83549659126332
7.151832576,0.998939587185441,-46.173899036076314
7.162303488,0.9988988702052225,-46.511484176180915
7.172774912,0.9989134165783269,-46.84902039529113
7.183245824,0.9989824493317908,-47.18716416560619
7.193717248,0.9991025688279398,-47.52658240775135
7.204188672,0.9992679201501226,-47.86794670941901
7.214659584,0.9994699723315562,-48.21179304395454
7.225131008,0.9996988041738826,-48.558490394598195
7.23560192,0.9999427910599703,-48.90837285593405
7.246073344,1.0001897675852358,-49.261481388154756
7.256544256,1.000427354680576,-49.61779104561913
7.26701568,1.0006434029728655,-49.977168277608236
7.277487104,1.000827178235975,-50.339177732331905
7.287958016,1.0009695722973786,-50.703398044848974
7.29842944,1.0010632383120164,-51.06924087573948
7.308900352,1.001103247376423,-51.43605190252923
7.319371776,1.001087936178227,-51.8030852776676
7.329842688,1.001017756708311,-52.16969454913459
7.340314112,1.0008961471382243,-52.53516618015689
7.350785536,1.0007292116045094,-52.898859443737045
7.361256448,1.0005252315503679,-53.26027623997914
7.371727872,1.0002944245863397,-53.61894989511083
7.382198784,1.0000483161935039,-53.9746846407419
7.392670208,0.9997992814025997,-54.327280376172105
7.40314112,0.9995598326302034,-54.676808030375135
7.413612544,0.9993420314723912,-55.023467729619846
7.424083968,0.9991567580307472,-55.36762061945413
7.43455488,0.9990136139084478,-55.70970969852569
7.445026304,0.9989196725026875,-56.05031125625098
7.455497216,0.9988797485033821,-56.39019619757702
7.46596864,0.9988959719021114,-56.72996234743079
7.476439552,0.9989676319818056,-57.07039081364976
7.486910976,0.9990910504418021,-57.41217868901654
7.4973824,0.999260248285996,-57.755937384477164
7.507853312,0.9994666944040262,-58.10217715031976
7.518324736,0.9996999087278149,-58.451426988294486
7.528795648,0.9999483409641761,-58.80383321424836
7.539267072,1.0001994258904559,-59.1595768794809
7.549737984,1.000440667991405,-59.5185634242869
7.560209408,1.0006597737124339,-59.88062628696086
7.570680832,1.0008459290368186,-60.245401288807734
7.581151744,1.000989608156187,-60.61239441264389
7.591623168,1.0010835323329068,-60.9810339693163
7.60209408,1.0011231136376657,-61.350621461701685
7.612565504,1.0011060248701957,-61.72046445696967
7.623036416,1.0010334450357246,-62.089824592499205
7.63350784,1.0009086219709988,-62.458035693721776
7.643979264,1.0007376678504227,-62.82439295508523
7.654450176,1.0005292801178594,-63.18844166906312
7.6649216,1.0002939973959946,-63.549699173147395
7.675392512,1.000043236071023,-63.907957311495494
7.685863936,0.9997899412253095,-64.2630180467354
7.696334848,0.9995466677245712,-64.61495618967606
7.706806272,0.9993256466229872,-64.96399396277896
7.717277696,0.999138012252911,-65.31045323736467
7.727748608,0.9989931056347349,-65.65486968722347
7.738220032,0.9988987591129329,-65.99782283188804
7.748690944,0.9988593841884094,-66.33995355879607
7.759162368,0.9988770295740792,-66.68207535360484
7.76963328,0.9989510664647139,-67.02485639176197
7.780104704,0.9990778385938988,-67.36903968584852
7.790576128,0.999251024849726,-67.71522298344749
7.80104704,0.9994617928562644,-68.06398667850377
7.811518464,0.999699734492575,-68.41575258057473
7.821989376,0.9999529660138942,-68.77076016545618
7.8324608,1.000208485003373,-69.12915475911748
7.842931712,1.0004538560773115,-69.49090899197647
7.853403136,1.0006764724420705,-69.85576365327573
7.86387456,1.0008651812510097,-70.22337187992281
7.874345472,1.0010106451685816,-70.59321839084528
7.884816896,1.0011054347328596,-70.9647301635235
7.895287808,1.0011445759741406,-71.33721559075238
7.905759232,1.0011262993884469,-71.70992352238592
7.916230144,1.001051128208518,-72.08211367236733
7.926701568,1.0009230947495704,-72.45313794121896
7.937172992,1.000748289926197,-72.8222959296788
7.947643904,1.00053558722185,-73.18906636753319
7.958115328,1.0002953570688553,-73.55299815005102
7.96858624,1.0000399164476579,-73.91386171970358
7.979057664,0.999781869853718,-74.27146798431278
7.989528576,0.9995341840479536,-74.62592930605798
8.0,0.9993093379135077,-74.97741564928702
8.010471424,0.9991188608055478,-75.32629157030104
8.020942336,0.9989721063875373,-75.67305829029414
8.03141376,0.9988766983416252,-76.01837103282861
8.041884672,0.9988374955018361,-76.36289995754535
8.052356096,0.9988564494245262,-76.70737149610112
8.062827008,0.9989327337231616,-77.05253330868221
8.073298432,0.9990627605286585,-77.39914232770312
8.083769856,0.9992398379177856,-77.74780419219127
8.094240768,0.9994550989560894,-78.09911933569045
8.104712192,0.9996979593569836,-78.45345611883793
8.115183104,0.9999560001937772,-78.81112867470794
8.125654528,1.0002165961297587,-79.17226766561691
8.13612544,1.0004663442405761,-79.53679741749498
8.146596864,1.0006928732786458,-79.90449938692244
8.157068288,1.000884890629643,-80.27498618169581
8.1675392,1.0010324712484013,-80.64779439598591
8.178010624,1.0011283026964561,-81.02224012593504
8.188481536,1.0011675959982211,-81.39767046766441
8.19895296,1.0011480860325332,-81.77331939109757
8.209423872,1.0010708587320607,-82.14847987282694
8.219895296,1.0009395185893906,-82.52242843086523
8.23036672,1.0007608359302291,-82.89445018444246
8.240837632,1.0005434345808242,-83.26403695868427
8.251309056,1.000298288019346,-83.63072329500721
8.261779968,1.0000376531411588,-83.99425573733038
8.272251392,0.9997745516073646,-84.35451295855101
8.282722304,0.9995220511205534,-84.71151732843919
8.293193728,0.999293157380325,-85.06552319443476
8.303665152,0.9990992292143808,-85.41687473616234
8.314136064,0.998950123715241,-85.76607484384746
8.324607488,0.998853388629286,-86.1137854518768
8.3350784,0.9988139561105203,-86.46069563730617
8.345549824,0.9988338044812883,-86.80758213838742
8.356020736,0.9989123551663164,-87.1551863095745
8.36649216,0.9990453532422062,-87.50425609415909
8.376963584,0.99922645793399,-87.85540995101431
8.387434496,0.9994464321733306,-88.20930194729249
8.39790592,0.9996944521889617,-88.5662732473376
8.408376832,0.9999579552388393,-88.92667066416185
8.418848256,1.0002236578467043,-89.2905652062922
8.429319168,1.000478458794301,-89.65789454707549
8.439790592,1.000709419091852,-90.02850213092619
8.450262016,1.0009049894129072,-90.40194238405952
8.460732928,1.0010551963767276,-90.77773797943682
8.471204352,1.0011526296511668,-91.15521108487835
8.481675264,1.0011921832933088,-91.533700547693
8.492146688,1.0011719246904542,-91.91240607744069
8.5026176,1.0010926727578948,-92.2905819383914
8.513089024,1.0009582971852902,-92.66749458764744
8.523560448,1.0007756462557797,-93.04245714093823
8.53403136,1.0005535059242818,-93.41493972776642
8.544502784,1.0003031398824238,-93.78448420255172
8.554973696,1.0000369441230714,-94.15077851273193
8.56544512,0.9997683140387889,-94.5137098738798
8.575916032,0.9995106343799101,-94.8733694278081
8.586387456,0.9992770399954216,-95.22994196202929
8.59685888,0.999079146369725,-95.58380834837702
8.607330304,0.9989271377772048,-95.93550463362807
8.617800704,0.9988285667848508,-96.28568055907745
8.628272128,0.9987885509788849,-96.63499367650192
8.638743552,0.9988092304250582,-96.98430730757198
8.649214976,0.9988896082518822,-97.33436099909929
8.659685376,0.9990257265760669,-97.68590342531795
8.6701568,0.9992107843551149,-98.03959562103928
8.680628224,0.999435642271475,-98.39604213590842
8.691099648,0.999689006469345,-98.75567218060355
8.701571072,0.9999582201276794,-99.11880169181691
8.712041472,1.00022967999983,-99.48551073242838
8.722512896,1.0004899196345085,-99.85574837825614
8.73298432,1.0007259207933623,-100.22926499484608
8.743455744,1.0009254765490752,-100.60574140363896
8.753927168,1.001078985646293,-100.98456127847702
8.764397568,1.0011783791796136,-101.36512375322955
8.774868992,1.0012187960274521,-101.74671479188129
8.785340416,1.001198004050529,-102.12851202113418
8.79581184,1.0011169747754962,-102.50979181937707
8.80628224,1.0009796583821573,-102.88977559129171
8.816753664,1.0007929213761677,-103.26777892372762
8.827225088,1.0005657779711026,-103.64324160743372
8.837696512,1.000309826855764,-104.01567862479652
8.848167936,1.0000377904694087,-104.38483236078562
8.858638336,0.9997632184698427,-104.75052290945865
8.86910976,0.9994997185834645,-105.11287911512147
8.879581184,0.9992609285814642,-105.47205347347136
8.890052608,0.9990586040171311,-105.82848401662008
8.900524032,0.9989030385421378,-106.18268032465046
8.910994432,0.9988022108938709,-106.53531831051207
8.921465856,0.9987611040814519,-106.88709885699753
8.93193728,0.9987821833792097,-107.2388504007428
8.942408704,0.9988641664650049,-107.59134338407024
8.952879104,0.9990033452609308,-107.94540279385961
8.963350528,0.9991924603321602,-108.30164624216542
8.973821952,0.9994224512333777,-108.66066735163032
8.984293376,0.9996814938352857,-109.02298574525956
8.9947648,0.9999567640071779,-109.38883154386231
9.0052352,1.000234521353496,-109.75835899379315
9.015706624,1.000500815692671,-110.1314985519124
9.026178048,1.0007422674794282,-110.50802972711321
9.036649472,1.0009467233078613,-110.88751131578935
9.047120896,1.0011038910698746,-111.26943073373592
9.057591296,1.001205843861795,-111.65315113043607
9.06806272,1.001247501036679,-112.03788621302479
9.078534144,1.0012264838336877,-112.42290202006662
9.089005568,1.001143828162749,-112.80733157940672
9.099475968,1.0010036894839462,-113.1904678443245
9.109947392,1.0008127306699515,-113.57155314308822
9.120418816,1.0005806540507594,-113.95006397654228
9.13089024,1.0003187587321383,-114.32548760098022
9.141361664,1.000040334197126,-114.69752133622458
9.151832064,0.99975924387038,-115.06606537218678
9.162303488,0.9994896278460912,-115.43112400998204
9.172774912,0.9992448208952197,-115.79297606210812
9.183246336,0.9990373716548637,-116.15199049751583
9.19371776,0.998877733134226,-116.50871696221017
9.20418816,0.9987740367688974,-116.86383036722475
9.214659584,0.998731562151267,-117.21807590884495
9.225131008,0.9987525548715486,-117.57229418069873
9.235602432,0.9988361008261425,-117.92725376661619
9.246072832,0.9989780827270303,-118.28377144234271
9.256544256,0.9991714168478523,-118.64253985147793
9.26701568,0.9994065265367896,-119.00417449977955
9.277487104,0.9996716743905791,-119.36913797773038
9.287958528,0.9999535669405192,-119.73773774935216
9.298428928,1.000238084303256,-120.11009478341158
9.308900352,1.0005110148650729,-120.48614729172891
9.319371776,1.000758644176969,-120.86568549308019
9.3298432,1.0009685608599284,-121.2482323060131
9.340314624,1.0011300942048302,-121.63331861845012
9.350785024,1.0012352737448915,-122.02020795301135
9.361256448,1.0012785647413343,-122.40818146495072
9.371727872,1.0012577103321556,-122.79642450201942
9.382199296,1.0011737237399736,-123.18409896397131
9.392669696,1.001030720628854,-123.57044012345646
9.40314112,1.0008356299880186,-123.95469691726352
9.413612544,1.000598195243372,-124.33631237891579
9.424083968,1.0003301217889038,-124.71476560372191
9.434555392,1.0000448935183632,-125.08976436401113
9.445025792,0.999756653657012,-125.4611761541595
9.455497216,0.9994799896133393,-125.82900259366718
9.46596864,0.9992286822340218,-126.19354104925945
9.476440064,0.9990154665498672,-126.55516595549845
9.486911488,0.9988511838064035,-126.91443383628473
9.497381888,0.9987439705783776,-127.27204097805566
9.507853312,0.9986995189935896,-127.6287468956385
9.518324736,0.9987201601102519,-127.98538654696726
9.52879616,0.9988049612520382,-128.34278644428852
9.53926656,0.9989496117467263,-128.70176229159958
9.549737984,0.99914718415507,-129.06305414812113
9.560209408,0.9993878047624835,-129.427278632184
9.570680832,0.9996593214670992,-129.79489967190355
9.581152256,0.9999483407331755,-130.1662193738554
9.591622656,1.0002402389974558,-130.54139856309098
9.60209408,1.0005205146488523,-130.92039323852185
9.612565504,1.0007751119672732,-131.30293278131788
9.623036928,1.0009911631306547,-131.68860741446554
9.633508352,1.0011577549845487,-132.0768495104049
9.643978752,1.0012667024524835,-132.46699489532745
9.654450176,1.0013122532488934,-132.8582381326709
9.6649216,1.0012919675531768,-133.24978088411186
9.675393024,1.0012069214611712,-133.64073799236476
9.685863424,1.0010611711524449,-134.03033668063367
9.696334848,1.0008617909355917,-134.41784956615174
9.706806272,1.0006187776797202,-134.80261950794372
9.717277696,1.0003441791722072,-135.1841551550587
9.72774912,1.0000515314475447,-135.56215641225336
9.73821952,0.9997556252593539,-135.93645435767755
9.748690944,0.9994712033010585,-136.30712725693357
9.759162368,0.9992125299146642,-136.6743621950996
9.769633792,0.9989926606865918,-137.0386009577915
9.780105216,0.9988228173255197,-137.40041409905888
9.790575616,0.9987116134590743,-137.76050215970574
9.80104704,0.9986645921356241,-138.119627132851
9.811518464,0.9986844498941659,-138.4786778318411
9.821989888,0.9987701638889376,-138.83851847223048
9.832460288,0.9989176058908973,-139.19992223645642
9.842931712,0.9991195975194995,-139.56368062192723
9.853403136,0.9993658770130723,-139.9304369879102
9.86387456,0.9996443097370925,-140.30067849122523
9.874345984,0.9999409156979688,-140.6747322923458
9.884816384,1.0002409254954603,-141.05274832843966
9.895287808,1.000529288367612,-141.43464682342355
9.905759232,1.0007915397450238,-141.8201955848998
9.916230656,1.0010145438981217,-142.20898649805213
9.92670208,1.0011870920460506,-142.60044747105533
9.93717248,1.001300376626691,-142.99385115590644
9.947643904,1.0013488016504926,-143.38841681139692
9.958115328,1.001329601656267,-143.7832721457604
9.968586752,1.0012436409908267,-144.17760014663807
9.979057152,1.0010952481879427,-144.5705350160313
9.989528576,1.0008915621279333,-144.96131261189572
10.0,1.000642674913412,-145.34928799944993
10.010471424,1.0003609416900645,-145.73398194042667
10.020942848,1.0000603474310787,-146.11502339573886
10.031413248,0.9997559257423209,-146.49226525180492
10.041884672,0.9994629814055058,-146.86574466442448
10.052356096,0.9991961853154243,-147.23571081572604
10.06282752,0.998968934343932,-147.60257477799632
10.07329792,0.9987928000014806,-147.9669135688589
10.083769344,0.9986766965504695,-148.32944922339357
10.094240768,0.9986265071026138,-148.69099792521064
10.104712192,0.9986451353419245,-149.05241561245978
10.115183616,0.998731567395375,-149.4146023543407
10.125654016,0.9988815841425787,-149.77842130356797
10.13612544,0.9990879394093818,-150.1446162258527
10.146596864,0.9993403007259576,-150.51385850586632
10.157068288,0.9996260529131968,-150.88670176332553
10.167539712,0.9999310069147554,-151.26340651950048
10.178010112,1.0002398769163758,-151.64422805928976
