freq,mag,phase
6.0,0.9999831154315396,116.562972518353
6.002285568,0.9999376897113204,116.38960016542936
6.004571648,0.999897260178774,116.2168583123902
6.006857216,0.9998632590094204,116.04466328388003
6.009142784,0.9998378726196889,115.87291762890138
6.011428352,0.9998227932855847,115.70145620574532
6.013714432,0.9998188162475357,115.53015378960059
6.016,0.9998261550582109,115.35883607731728
6.018285568,0.9998445904837281,115.18736800574106
6.020571648,0.9998728266241027,115.01552709693844
6.022857216,0.9999089898007604,114.84326467674421
6.025142784,0.9999509334227504,114.6704217491966
6.027428352,0.9999960218126815,114.49696973854505
6.029714432,1.000041317565738,114.32288059359435
6.032,1.000084012623544,114.14815658985053
6.034285568,1.0001214200596764,113.97286404481552
6.036571648,1.0001511820824311,113.79710344351265
6.038857216,1.0001713800540932,113.6209657304571
6.041142784,1.0001807888781826,113.44466042276491
6.043428352,1.0001789028355237,113.26829923005437
6.045714432,1.0001656240000047,113.09205159551045
6.048,1.000141996570091,112.91607131573757
6.050285568,1.0001094174842242,112.7405481052627
6.052571648,1.0000699145474,112.5655161958397
6.054857216,1.0000260480251437,112.39112227208604
6.057142784,0.9999804408661266,112.21738355548658
6.059428352,0.9999363207967055,112.04431423468773
6.061714432,0.9998958815966926,111.87184775809516
6.064,0.9998622716957648,111.69993442180623
6.066285568,0.9998372499182054,111.5284628850452
6.068571648,0.999822468582784,111.3573039250618
6.070857216,0.9998188737373195,111.18628713240776
6.073142784,0.9998267863537769,111.01522986028272
6.075428352,0.9998455128566117,110.84399277603808
6.077714432,0.9998740052618684,110.67242614224799
6.08,0.9999104898872373,110.50041946122968
6.082285568,0.9999525937005739,110.32784330550201
6.084571648,0.9999975886523013,110.1546456198593
6.086857216,1.0000428957898682,109.98078412260092
6.089142784,1.000085389576773,109.80632781694558
6.091428352,1.0001225419818396,109.63128927452895
6.093714432,1.0001518824313866,109.4557812404452
6.096,1.0001717149360878,109.2799420584622
6.098285568,1.0001807618856193,109.10388908261407
6.100571648,1.0001783805051359,108.9278069678998
6.102857216,1.0001648270137689,108.75184720539225
6.105142784,1.0001408713474604,108.57616895615485
6.107428352,1.0001078142564828,108.40092117667648
6.109714432,1.000068226934678,108.22621842528436
6.112,1.0000242481779993,108.05211648636477
6.114285568,0.9999787403911826,107.8786698599629
6.116571648,0.9999345592625332,107.70591348522005
6.118857216,0.9998945200522672,107.53373089726789
6.121142784,0.9998611572730149,107.36213472651649
6.123428352,0.9998364810250248,107.19095017989062
6.125714432,0.9998221027147854,107.02007399066144
6.128,0.9998189783368204,106.8493229563394
6.130285568,0.9998272173708717,106.67854755829124
6.132571648,0.9998463788518397,106.50759400076096
6.134857216,0.9998751599353319,106.33629119855425
6.137142784,0.9999118651502195,106.164541892184
6.139428352,0.9999540826392401,105.99221182224876
6.141714432,0.9999991713430116,105.8192757628369
6.144,1.0000443331119537,105.64569862454034
6.146285568,1.0000866733529805,105.47148575441106
6.148571648,1.0001235355248823,105.29671634891736
6.150857216,1.0001526537996055,105.12147552403559
6.153142784,1.0001721052028925,104.94589776678899
6.155428352,1.0001806583561483,104.77013881456654
6.157714432,1.000177955857646,104.594336427135
6.16,1.000163959320718,104.41867848000871
6.162285568,1.0001396367789617,104.24328387647913
6.164571648,1.0001064080062725,104.06835337814469
6.166857216,1.0000666570642043,103.8939382051664
6.169142784,1.0000225966261467,103.720140113511
6.171428352,0.9999771947005507,103.5470139682261
6.173714432,0.9999330843533984,103.37455357016403
6.176,0.9998932284423602,103.2027001666183
6.178285568,0.9998601220292787,103.03138414723533
6.180571648,0.9998357937856032,102.86050887889645
6.182857216,0.9998218918758769,102.68990813788332
6.185142784,0.9998190908250395,102.51945590048241
6.187428352,0.9998277850290308,102.34896227202111
6.189714432,0.9998473410185138,102.17827792951313
6.192,0.9998764877353221,102.00725343816633
6.194285568,0.9999133130557603,101.83577102694662
6.196571648,0.9999556453920332,101.66370018172769
6.198857216,1.000000830156488,101.49102202758384
6.201142784,1.0000458520103404,101.317698263822
6.203428352,1.0000880564558605,101.14377325218287
6.205714432,1.000124647681751,100.96926831678212
6.208,1.0001534029476429,100.7943033592881
6.210285568,1.00017250222821,100.61901637335988
6.212571648,1.0001807396503684,100.44351812223817
6.214857216,1.0001774758489497,100.26800951465006
6.217142784,1.0001630761189242,100.09263868443793
6.219428352,1.0001384582528294,99.91756723938644
6.221714432,1.0001050678733165,99.74292334395267
6.224,1.0000649810228142,99.56881341810139
6.226285568,1.0000209487280303,99.39535694439732
6.228571648,0.9999754265201806,99.2225161425011
6.230857216,0.9999315803460355,99.05037738238117
6.233142784,0.9998918999784311,98.87883205920912
6.235428352,0.9998590606638164,98.70783405928805
6.237714432,0.9998351462303029,98.53724756983324
6.24,0.9998216443617408,98.36695295745751
6.242285568,0.9998192623622624,98.19679856512492
6.244571648,0.999828374387565,98.0265827052712
6.246857216,0.9998481835001778,97.85617475934589
6.249142784,0.9998775812612544,97.68542725194038
6.251428352,0.9999146911198975,97.51418423951067
6.253714432,0.9999571983699184,97.3423996113193
6.256,1.0000022520258287,97.16999561718002
6.258285568,1.0000472652382977,96.99695187075608
6.260571648,1.0000893504225992,96.82327233693738
6.262857216,1.000125612714225,96.64904406192284
6.265142784,1.0001540491125376,96.47435725987393
6.267428352,1.0001727856278166,96.29934654921304
6.269714432,1.000180591784876,96.12415220525727
6.272,1.000177023628722,95.94893447171415
6.274285568,1.0001621592630656,95.77386333746858
6.276571648,1.000137220399988,95.59909879616458
6.278857216,1.0001035403153495,95.42478164179583
6.281142784,1.0000633231485891,95.25098117943044
6.283428352,1.0000191511127194,95.07782887094538
6.285714432,0.9999736913483938,94.90533365140863
6.288,0.9999298576114616,94.73347132139625
6.290285568,0.9998905326088127,94.56223658382658
6.292571648,0.9998580537332873,94.39157501729646
6.294857216,0.9998345143626473,94.2212816180633
6.297142784,0.9998213621644626,94.0512724506906
6.299428352,0.9998193973674369,93.88140723715372
6.301714432,0.9998289097418072,93.71149134979159
6.304,0.9998490619046024,93.54135483661621
6.306285568,0.9998787638247857,93.37089510562053
6.308571648,0.999916225151443,93.19994167133821
6.310857216,0.999958717923836,93.02843182898889
6.313142784,1.0000039342644997,92.85628787728338
6.315428352,1.0000488157351315,92.68351356442618
6.317714432,1.0000906581272109,92.51010597035838
6.32,1.0001267572427526,92.33614270670103
6.322285568,1.0001547857655593,92.16175304738609
6.324571648,1.0001731903088962,91.98700938474201
6.326857216,1.0001805265399162,91.8121010335172
6.329142784,1.0001765006289245,91.63721387715165
6.331428352,1.0001613905201616,91.46243533952232
6.333714432,1.0001360952578082,91.28796578905991
6.336,1.0001021051853918,91.11394375492368
6.338285568,1.0000617058943824,90.94047595727267
6.340571648,1.0000174504633499,90.76763804221315
6.342857216,0.9999719841210231,90.59544684645007
6.345142784,0.9999283691522339,90.42394659159909
6.347428352,0.9998891701503587,90.25303003817103
6.349714432,0.9998569754639932,90.08263471149368
6.352,0.999833791707987,89.91266409637679
6.354285568,0.9998209938498399,89.74297748060572
6.356571648,0.9998194568342001,89.57338225984175
6.358857216,0.9998294254036454,89.40376789142769
6.361142784,0.9998500008335084,89.23391524685773
6.363428352,0.9998799997468792,89.06371861012516
6.365714432,0.9999175516673288,88.89305436109179
6.368,0.9999602687713686,88.72181587928557
6.370285568,1.0000055324192263,88.54992935698547
6.372571648,1.0000503254429174,88.3774341296225
6.374857216,1.000091950245025,88.20431408212883
6.377142784,1.0001277787579952,88.0306402627401
6.379428352,1.000155504750413,87.85651416031867
6.381714432,1.0001734330674277,87.68206877664102
6.384,1.0001804639975196,87.50747822882096
6.386285568,1.0001759968670147,87.33284291363428
6.388571648,1.0001605035522838,87.1583770166786
6.390857216,1.0001348855160592,86.98423196143173
6.393142784,1.0001005800088443,86.81052766639736
6.395428352,1.0000600766252696,86.63738167680553
6.397714432,1.0000157336902133,86.46484558748791
6.4,0.9999702937135181,86.29299296608266
6.402285568,0.9999268530163002,86.1217892851918
6.404571648,0.9998878718481761,85.9511909960432
6.406857216,0.9998559401440937,85.78110923300329
6.409142784,0.9998330689324174,85.61145683603743
6.411428352,0.9998208030887873,85.44206655560097
6.413714432,0.9998196403488676,85.27277605654209
6.416,0.9998299790254942,85.1034325479755
6.418285568,0.9998508608770069,84.9338914711838
6.420571648,0.9998811886580988,84.76396387663142
6.422857216,0.9999190513376544,84.59357812007832
6.425142784,0.9999618937175658,84.42259152072086
6.427428352,1.000007115895086,84.251004683587
6.429714432,1.000051886552874,84.0787789818826
6.432,1.0000933575918252,83.90591959230107
6.434285568,1.000128854263781,83.73252652895421
6.436571648,1.0001563106860658,83.55868262817822
6.438857216,1.0001738740636716,83.38453306481453
6.441142784,1.000180398851941,83.21021294789588
6.443428352,1.00017554170668,83.03588902810786
6.445714432,1.0001596531455845,82.86175110668849
6.448,1.0001335785414684,82.68791099131644
6.450285568,1.0000991386133706,82.51451705262679
6.452571648,1.0000584235333123,82.34166746259169
6.454857216,1.0000139005789954,82.16947149868004
6.457142784,0.9999686170607465,81.99794159603765
6.459428352,0.9999251418475252,81.82706598136846
6.461714432,0.9998864575373158,81.65676821873141
6.464,0.9998548278332161,81.48702459552213
6.466285568,0.9998323806303856,81.31766226830175
6.468571648,0.9998203507863879,81.14858536793743
6.470857216,0.9998197201102799,80.97957964913728
6.473142784,0.9998303866425211,80.81053180144792
6.475428352,0.999851702243632,80.64127460937203
6.477714432,0.9998823311533513,80.47163955350939
6.48,0.9999203122431054,80.3015166008068
6.482285568,0.999963324831744,80.13082091786704
6.484571648,1.0000086104524448,79.959496150886
6.486857216,1.0000533659515627,79.78754071207484
6.489142784,1.0000946180059058,79.61496661663799
6.491428352,1.0001298594171417,79.44186346185661
6.493714432,1.0001569149538183,79.2682863614361
6.496,1.0001741224406206,79.09442157533304
6.498285568,1.000180319820229,78.92040279415056
6.500571648,1.00017502373784,78.74638659766909
6.502857216,1.0001587508568965,78.57254641525668
6.505142784,1.0001323503239468,78.39900375692237
6.507428352,1.00009766600651,78.22593480908564
6.509714432,1.0000567607066595,78.05341461674035
6.512,1.0000122075917346,77.88154190142241
6.514285568,0.9999668623891069,77.71032138595746
6.516571648,0.9999235927746544,77.53975645696404
6.518857216,0.9998850352499729,77.36978652343804
6.521142784,0.9998537777859247,77.20035287602626
6.523428352,0.9998316897195195,77.03130654526244
6.525714432,0.9998201911724526,76.86252759513526
6.528,0.9998199371047332,76.69382140244599
6.530285568,0.9998310241150042,76.52506372137961
6.532571648,0.9998526728486932,76.35608268905035
6.534857216,0.9998835568380766,76.18674169217506
6.537142784,0.9999218393930129,76.01687179600111
6.539428352,0.9999649469881946,75.84647836157392
6.541714432,1.000010211082745,75.6754067552808
6.544,1.000054798735323,75.50372158681778
6.546285568,1.0000959863655237,75.33143171355108
6.548571648,1.0001309579455437,75.15859038121415
6.550857216,1.0001577450091246,74.98530267915785
6.553142784,1.0001744783118292,74.81173784357824
6.555428352,1.0001803075162017,74.63801131113391
6.557714432,1.000174526218416,74.46427956911607
6.56,1.0001578546717929,74.29074164226941
6.562285568,1.0001311490370948,74.11752365701605
6.564571648,1.0000962367103403,73.94476350421273
6.566857216,1.000055090448179,73.77256596519555
6.569142784,1.0000104596946613,73.60100265581734
6.571428352,0.9999651623944502,73.430095114073
6.573714432,0.9999220150982533,73.2598544176426
6.576,0.9998837748404786,73.09021048707672
6.578285568,0.9998527707302247,72.9210730375793
6.580571648,0.9998310142822951,72.75233485534262
6.582857216,0.9998198860133497,72.58384969573852
6.585142784,0.9998200492744427,72.4154604565609
6.587428352,0.9998315076097962,72.24698881706212
6.589714432,0.9998535619998525,72.07828764074638
6.592,0.9998847995462354,71.90920797848159
6.594285568,0.9999232661438766,71.73964487496677
6.596571648,0.9999665587661379,71.56947587090497
6.598857216,1.0000118223745311,71.39871180072234
6.601142784,1.0000563581485762,71.22729246427313
6.603428352,1.0000973781318614,71.05526750738142
6.605714432,1.0001321090595616,70.8827013588058
6.608,1.0001584969668456,70.70970191471262
6.610285568,1.0001748249657167,70.53642995270175
6.612571648,1.0001802155253392,70.36297585573438
6.614857216,1.0001741243046998,70.18955459935215
6.617142784,1.0001570251836067,70.01630302586447
6.619428352,1.0001300020282566,69.84339723434599
6.621714432,1.0000947449188085,69.67094402717501
6.624,1.0000534443428564,69.49905899148622
6.626285568,1.0000087523655667,69.32782416582513
6.628571648,0.9999635131018898,69.15724397950066
6.630857216,0.9999204861983025,68.98729922192045
6.633142784,0.9998824014744785,68.81796816697758
6.635428352,0.9998517263626221,68.64913878632909
6.637714432,0.9998303668333738,68.48072054569883
6.64,0.9998196688238492,68.31252277330675
6.642285568,0.999820208673179,68.14442542975155
6.644571648,0.9998321172046319,67.97622979564056
6.646857216,0.9998545396059115,67.80780916588692
6.649142784,0.9998861077371373,67.63902170651313
6.651428352,0.9999248298917077,67.4697257960663
6.653714432,0.9999681921707678,67.2998541064188
6.656,1.0000135420754874,67.12933205027836
6.658285568,1.000057973916389,66.95818057091661
6.660571648,1.00009870720412,66.78642732923976
6.662857216,1.0001332280007946,66.61413080882254
6.665142784,1.00015927764162,66.44140653271455
6.667428352,1.0001752595166082,66.26840620289133
6.669714432,1.0001800948443864,66.09525138196791
6.672,1.0001736633450184,65.92211237020796
6.674285568,1.000156109709472,65.74917090250484
6.676571648,1.0001287923425988,65.57656641755479
6.678857216,1.0000932225040011,65.40443286049927
6.681142784,1.0000517736345174,65.23285172184495
6.683428352,1.0000070381517863,65.06192565730848
6.685714432,0.9999617841508278,64.89166261617466
6.688,0.9999188328361944,64.72204184917885
6.690285568,0.9998810431613321,64.55302465047521
6.692571648,0.9998506348717391,64.38450154554948
6.694857216,0.9998296247876465,64.21636778785455
6.697142784,0.9998193100706324,64.04847461032702
6.699428352,0.9998202857662584,63.880674443138325
6.701714432,0.9998326003432252,63.7127714010797
6.704,0.9998554116807106,63.544623216618895
6.706285568,0.9998872543236089,63.37608551270499
6.708571648,0.9999262094500616,63.20706782794542
6.710857216,0.9999697399805629,63.03745983800916
6.713142784,1.000015097253915,62.86719825201687
6.715428352,1.0000594829882847,62.69632170925274
6.717714432,1.000100060642977,62.52483326523448
6.72,1.00013432643213,62.35281529554419
6.722285568,1.000160022943566,62.180356356908995
6.724571648,1.0001756122462762,62.00762387052461
6.726857216,1.0001800685597328,61.83475446347974
6.729142784,1.000173101274988,61.66192509903846
6.731428352,1.0001552508781981,61.489263802243144
6.733714432,1.0001274851090531,61.31697941479924
6.736,1.000091694066392,61.14513851309689
6.738285568,1.0000500580037954,60.973883146470406
6.740571648,1.0000052268856336,60.803249688902696
6.742857216,0.9999599793189988,60.63330428249303
6.745142784,0.9999171908625273,60.46399297954193
6.747428352,0.9998796006114581,60.29526486768112
6.749714432,0.9998495076167083,60.12706787160659
6.752,0.9998288341027511,59.95922615749264
6.754285568,0.9998189454262945,59.79163036073617
6.756571648,0.9998204237754141,59.62409546960193
6.758857216,0.9998331482693732,59.45647525995468
6.761142784,0.9998562820625644,59.28862187333204
6.763428352,0.9998884970080989,59.120357083582455
6.765714432,0.999927702816939,58.95157788117982
6.768,0.9999713460254538,58.7822388969415
6.770285568,1.0000167356476766,58.61224787035679
6.772571648,1.0000610575674036,58.44162190382077
6.774857216,1.0001014318806465,58.27038194956387
6.777142784,1.0001353881644846,58.09863810721804
6.779428352,1.0001607878808814,57.926446978172734
6.781714432,1.00017595649639,57.754005991628205
6.784,1.0001800124410547,57.58140421156893
6.786285568,1.0001726583204797,57.40885348274026
6.788571648,1.000154261161505,57.23650226710054
6.790857216,1.0001262453568756,57.06449090149267
6.793142784,1.0000902049710392,56.8929682048492
6.795428352,1.0000483706553145,56.72200715416896
6.797714432,1.000003421152205,56.55169166974728
6.8,0.9999581649984973,56.382039344931265
6.802285568,0.9999155736715566,56.213030899811905
6.804571648,0.9998782112045042,56.044629086688666
6.806857216,0.9998483967855807,55.87671018524141
6.809142784,0.9998282089410594,55.709162292536405
6.811428352,0.9998186962218016,55.54185419007084
6.813714432,0.9998205980884317,55.37461714675832
6.816,0.9998337016161838,55.20726858046743
6.818285568,0.9998572998580251,55.03967533051253
6.820571648,0.9998897530896805,54.87166923704241
6.822857216,0.9999291854147889,54.703162129208465
6.825142784,0.9999729981650807,54.53405947918661
6.827428352,1.0000184511129977,54.36434240811261
6.829714432,1.000062631005163,54.19395755899575
6.832,1.000102874801314,54.02298186100246
6.834285568,1.0001366091838024,53.851482089950615
6.836571648,1.0001615407897961,53.67956947473897
6.838857216,1.0001763925329568,53.507376431416354
6.841142784,1.0001799802418083,53.33506515082079
6.843428352,1.0001722057373843,53.162802402617224
6.845714432,1.0001535084792392,52.990728330064016
6.848,1.0001250936980572,52.81901369573416
6.850285568,1.0000887201130015,52.64779148896693
6.852571648,1.0000466552364213,52.4771334743071
6.854857216,1.000001616598477,52.30711203884278
6.857142784,0.9999565208468109,52.13776342995436
6.859428352,0.9999139402554367,51.969067449709165
6.861714432,0.9998767871156613,51.800942562511665
6.864,0.9998473871403686,51.63332537944069
6.866285568,0.9998274707774119,51.46606079702945
6.868571648,0.9998184275809585,51.2990433932903
6.870857216,0.9998207914301316,51.13206233490595
6.873142784,0.9998342449158795,50.964997506893106
6.875428352,0.9998582548483724,50.79766445116301
6.877714432,0.9998910418835247,50.62991961249013
6.88,0.9999307311083153,50.46166990348947
6.882285568,0.9999745898973436,50.292828073887875
6.884571648,1.0000201630315093,50.12333522396373
6.886857216,1.0000642774064805,49.95320711928345
6.889142784,1.0001043032839556,49.78248378573422
6.891428352,1.0001377024623919,49.61124412060023
6.893714432,1.0001623409089235,49.43959483188363
6.896,1.000176784731432,49.26767674972702
6.898285568,1.0001799394312632,49.09562089055761
6.900571648,1.0001716940389123,48.92362611548231
6.902857216,1.0001526308633262,48.751832788644464
6.905142784,1.0001237938079357,48.580406545172075
6.907428352,1.0000871216509843,48.40947432344814
6.909714432,1.0000449248614114,48.23909785179313
6.912,0.9999997894525121,48.069378295105004
6.914285568,0.9999547130752945,47.90033516461187
6.916571648,0.9999123285191216,47.731911240085815
6.918857216,0.9998753585150953,47.564096828953225
6.921142784,0.999846268056331,47.396759004236316
6.923428352,0.9998267237602432,47.229792499660206
6.925714432,0.999818078315288,47.06302859720528
6.928,0.9998208091609949,46.89633020723323
6.930285568,0.9998348170146824,46.72953261634111
6.932571648,0.999859184761613,46.562453066201066
6.934857216,0.9998923383201835,46.394959916830146
6.937142784,0.9999322380772186,46.226954922065076
6.939428352,0.9999762752095644,46.058339106682645
6.941714432,1.0000217168456007,45.88909881719706
6.944,1.000065832429858,45.71921370055346
6.946285568,1.0001057412019998,45.548743702186556
