freq,mag,phase
6.0,1.0000512132639974,148.8316905257592
6.002287104,1.0000722456017959,148.684556463412
6.004574208,1.0000887254633506,148.53719090947106
6.006861312,1.0000999308881555,148.38962847584332
6.009147904,1.0001050997568388,148.24195835773529
6.011435008,1.0001040226761455,148.09428153460115
6.013722112,1.0000966743461457,147.9466738896198
6.016009216,1.0000837010489543,147.7992642752991
6.01829632,1.0000656434133595,147.65206173203214
6.020583424,1.000043807431673,147.50518460792208
6.022870016,1.0000196611352745,147.3586533290316
6.02515712,0.9999946008652355,147.21248263233585
6.027444224,0.9999702380327761,147.06670023904286
6.029731328,0.9999480701009744,146.92128184515687
6.032018432,0.9999295610310635,146.77616994314556
6.034305536,0.9999159361835014,146.63129848713683
6.036592128,0.999907937756552,146.486620229148
6.038879232,0.9999061670150966,146.34202110138628
6.041166336,0.9999107157854186,146.1974081679894
6.04345344,0.9999212284055934,146.0527035883223
6.045740544,0.9999371641966424,145.90783397829873
6.048027648,0.999957384488323,145.76272247106272
6.05031424,0.9999805624697441,145.61730845646878
6.052601344,1.0000056246669704,145.4715525458311
6.054888448,1.000030551282291,145.32545167438806
6.057175552,1.0000538167949882,145.17900877454713
6.059462656,1.000074134985517,145.0322896472014
6.06174976,1.0000900776249717,144.88531649647877
6.064036352,1.0001008475928574,144.73816567063892
6.066323456,1.000105488174685,144.59090709286522
6.06861056,1.0001037155965782,144.44365497782962
6.070897664,1.0000958227180317,144.29649329692035
6.073184768,1.0000822051733764,144.14950266215348
6.075471872,1.0000637434189383,144.00275939578805
6.077758464,1.0000416463847457,143.85632507936427
6.080045568,1.0000172401890859,143.71024623937254
6.082332672,0.9999920424230917,143.5645489376038
6.084619776,0.9999678610417212,143.41922590159166
6.08690688,0.9999459077814986,143.27423685647713
6.089193984,0.9999278664985446,143.1295921022187
6.091481088,0.9999145796745837,142.985151154525
6.09376768,0.9999072611652353,142.8409004889994
6.096054784,0.9999060323631361,142.6967236598648
6.098341888,0.9999112437526165,142.5525392547335
6.100628992,0.9999223483264432,142.40823876794232
6.102916096,0.9999386741004562,142.26376313097745
6.1052032,0.9999593924169324,142.11905408933603
6.107489792,0.9999829748033829,141.97403842899092
6.109776896,1.0000080264803517,141.8286387946916
6.112064,1.0000328574868727,141.68293712886918
6.114351104,1.000056082290915,141.53689803900807
6.116638208,1.000076062042064,141.3905477229851
6.118925312,1.0000916259270591,141.2439813063681
6.121211904,1.00010170320075,141.0972196363104
6.123499008,1.0001057380922849,140.95038177910348
6.125786112,1.000103394977344,140.80353165747226
6.128073216,1.0000949129044303,140.65677819338583
6.13036032,1.0000807628640178,140.51022906189237
6.132647424,1.0000618289833676,140.36394624558133
6.134934016,1.0000393271824477,140.21794197287616
6.13722112,1.000014802915788,140.072334181378
6.139508224,0.9999896351110971,139.9270606673997
6.141795328,0.9999653579124621,139.7821877875514
6.144082432,0.9999438025472638,139.63767233924182
6.146369536,0.9999260639385,139.49345373435915
6.148656128,0.9999134483386428,139.3494638801511
6.150943232,0.9999066343218858,139.20563086912261
6.153230336,0.9999060430825597,139.06186975835817
6.15551744,0.9999117629716648,138.9180875329748
6.157804544,0.9999234949217815,138.7742072829861
6.160091648,0.9999404615173685,138.63012710319572
6.162378752,0.999961455007524,138.48579944231858
6.164665344,0.9999853705220159,138.34114429268263
6.166952448,1.0000104608712204,138.19614357750115
6.169239552,1.0000353593363829,138.0508205754342
6.171526656,1.0000583471516318,137.9051383221929
6.17381376,1.000077946023958,137.75918631977234
6.176100864,1.000093036649456,137.61299418868586
6.178387456,1.00010252337098,137.46662947365786
6.18067456,1.0001059487715984,137.3201841314077
6.182961664,1.0001029731250848,137.17376162702388
6.185248768,1.0000938940052444,137.0274348989006
6.187535872,1.0000791780213405,136.88130088111402
6.189822976,1.0000598487278476,136.73542680733877
6.192109568,1.0000370836898853,136.58987543165495
6.194396672,1.000012299867625,136.44470502221375
6.196683776,0.9999870417918207,136.29989721781882
6.19897088,0.999963037674153,136.1554681745895
6.201257984,0.9999416549808257,136.0113677930846
6.203545088,0.9999244099049699,135.8675973685012
6.20583168,0.9999122840714934,135.7240290375779
6.208118784,0.9999060024240893,135.58062502596658
6.210405888,0.9999060341559987,135.4372756373144
6.212692992,0.9999125327950745,135.2938956979093
6.214980096,0.9999246974605744,135.15039785837283
6.2172672,0.9999422064062077,135.00670638867166
6.219553792,0.9999635712417454,134.86274521915115
6.221840896,0.9999876950263719,134.71845444009185
6.224128,1.0000129358328638,134.57383364559772
6.226415104,1.0000377396463123,134.4288622018416
6.228702208,1.0000604592969768,134.28357645128213
6.230989312,1.000079787261488,134.13797824835802
6.233275904,1.0000943431408194,133.99216760929704
6.235563008,1.0001033423700036,133.8461768057231
6.237850112,1.0001061582911737,133.70015619304593
6.240137216,1.0001025770697995,133.55411870773128
6.24242432,1.0000928246320049,133.40820830301982
6.244711424,1.0000775989290176,133.26250470972136
6.246998528,1.0000577713801013,133.1170546100884
6.24928512,1.0000346458703777,132.9719423500306
6.251572224,1.0000098086667912,132.82718603878735
6.253859328,0.9999845360539277,132.68282093021503
6.256146432,0.9999606504804487,132.53882154802116
6.258433536,0.9999395502224555,132.39517202928315
6.26072064,0.9999226809036627,132.25180425307448
6.263007232,0.9999111379256981,132.10867889954505
6.265294336,0.9999054749444891,131.96566612815062
6.26758144,0.9999061889938583,131.82271840361526
6.269868544,0.9999132056872477,131.67973574800652
6.272155648,0.9999260526504311,131.53661186728908
6.274442752,0.9999439602470602,131.3932971392199
6.276729344,0.9999657967795799,131.24969654973313
6.279016448,0.9999901206831098,131.10577610079574
6.281303552,1.0000155509747215,130.96152539100845
6.283590656,1.0000400935273968,130.81691853060613
6.28587776,1.0000626975840694,130.67198581121858
6.288164864,1.0000816413648763,130.52674906757494
6.290451456,1.000095671974323,130.38131366607038
6.29273856,1.0001040567643276,130.23570441227002
6.295025664,1.0001062117530204,130.09004093997189
6.297312768,1.000101950182842,129.9444179878607
6.299599872,1.0000917397786093,129.79893368662636
6.301886976,1.00007588876102,129.6536177811187
6.304173568,1.0000557293269379,129.50859320822886
6.306460672,1.0000323391177894,129.36389745706097
6.308747776,1.0000072205826718,129.21958815456406
6.31103488,0.9999820051870353,129.07564695401928
6.313321984,0.999958263432687,128.93206821447765
6.315609088,0.9999375942302576,128.78883280363138
6.317896192,0.9999210509184299,128.6458777000305
6.320182784,0.9999100128527086,128.50317414086217
6.322469888,0.9999049652430919,128.3605519974751
6.324756992,0.9999063924875868,128.21799929847273
6.327044096,0.9999140374366517,128.07539456309442
6.3293312,0.9999273877097743,127.93264584307147
6.331618304,0.999945768285343,127.78970342507168
6.333904896,0.9999679952533393,127.6464452074076
6.336192,0.9999925982992071,127.5028824976712
6.338479104,1.0000179667915305,127.35897595777813
6.340766208,1.0000425956945764,127.21471533613432
6.343053312,1.0000648286377014,127.07011753305558
6.345340416,1.0000833889707343,126.92526742989179
6.347627008,1.000096939616617,126.78016581826132
6.349914112,1.0001047528209044,126.63495694347573
6.352201216,1.0001063285511678,126.48965494073487
6.35448832,1.000101424748425,126.34443223460809
6.356775424,1.0000905332831327,126.19933594742908
6.359062528,1.000074242649845,126.05442177776301
6.36134912,1.0000535757301754,125.90981587924627
6.363636224,1.0000298441043105,125.76553538073584
6.365923328,1.000004571749274,125.62162715049924
6.368210432,0.9999794551095986,125.47810641128773
6.370497536,0.9999558291073503,125.33496627648542
6.37278464,0.9999354801639029,125.19213647233123
6.375071232,0.9999195289904007,125.04958752038986
6.377358336,0.9999090094475663,124.90726511476147
6.37964544,0.9999046130124896,124.76505054519646
6.381932544,0.9999066700104497,124.62287796034458
6.384219648,0.9999148841941106,124.48064052104137
6.386506752,0.9999288016282626,124.33825881323436
6.388793344,0.9999476650711695,124.19563249208103
6.391080448,0.999970316020593,124.05275945386143
6.393367552,0.9999950595792818,123.90951770218615
6.395654656,1.0000205075162618,123.76596232302744
6.39794176,1.0000450001380135,123.62202633640561
6.400228864,1.0000669787083587,123.47779809504217
6.402515968,1.000085060525933,123.33327606494234
6.40480256,1.000098197245193,123.18854330412005
6.407089664,1.0001053931795065,123.04367565414314
6.409376768,1.0001062630849122,122.89876590583125
6.411663872,1.0001007668261033,122.75391358638834
6.413950976,1.000089201935459,122.60919300815235
6.41623808,1.0000724148539804,122.46467840601368
6.418524672,1.0000513476669697,122.32046077414114
6.420811776,1.0000274364613075,122.1766011771641
6.42309888,1.0000019354591079,122.03310723405059
6.425385984,0.9999768183945951,121.88996964709227
6.427673088,0.9999535439374714,121.74724275832703
6.429960192,0.9999334600052495,121.6048289389203
6.432246784,0.9999179406627958,121.46269107357361
6.434533888,0.9999079505342706,121.32072737573252
6.436820992,0.9999042518083711,121.17890811589054
6.439108096,0.9999068834838969,121.03708163188249
6.4413952,0.9999158472585566,120.89520991880642
6.443682304,0.9999304201160162,120.75318453413924
6.445968896,0.9999497022343644,120.6109112086422
6.448256,0.9999726683728735,120.46835542912977
6.450543104,0.9999975568672175,120.32546346728971
6.452830208,1.0000230351540123,120.18222191670925
6.455117312,1.0000474119805505,120.03862856473901
6.457404416,1.0000690501625933,119.89471980836393
6.459691008,1.000086897627868,119.75053531321895
6.461978112,1.0000993464475747,119.60615554863381
6.464265216,1.0001059815196347,119.46163665651002
6.46655232,1.000106170773537,119.31709013299184
6.468839424,1.0001000283868824,119.1726006413306
6.471126528,1.000087913930222,119.02824462674026
6.473413632,1.0000705565429215,118.88413148678544
6.475700224,1.0000490587180335,118.74031976845426
6.477987328,1.0000248884730274,118.59682970481293
6.480274432,0.9999993269036773,118.45373469248267
6.482561536,0.9999742555817968,118.31100849117617
6.48484864,0.9999511411516689,118.16866787534762
6.487135744,0.9999314134493293,118.0266541221155
6.489422336,0.9999164724457662,117.88487576660799
6.49170944,0.9999071756958776,117.74332071185448
6.493996544,0.9999039422421605,117.60184795251816
6.496283648,0.9999073188983432,117.4604021774328
6.498570752,0.9999168076157551,117.31886349869224
6.500857856,0.9999319154023611,117.17716980882614
6.503144448,0.9999517029057048,117.03522992108084
6.505431552,0.9999749585927751,116.89300262107207
6.507718656,1.0000000775939513,116.75043080813873
6.51000576,1.0000255989445144,116.60749464200913
6.512292864,1.0000498499948942,116.46424061363004
6.514579968,1.000071222409215,116.3206378940236
6.51686656,1.0000885249614553,116.17678010498356
6.519153664,1.000100489516174,116.03272194392699
6.521440768,1.0001064576540037,115.88855137609183
6.523727872,1.0001060458023658,115.74436690062046
6.526014976,1.0000993069483937,115.60021835151132
6.52830208,1.0000865129512977,115.4562306909983
6.530588672,1.0000686991353311,115.31249642671095
6.532875776,1.0000467390988632,115.16904278787138
6.53516288,1.000022239888713,115.02597199463746
6.537449984,0.9999966525758954,114.88324029793952
6.539737088,0.9999716717674221,114.74093205349187
6.542024192,0.9999487666307043,114.59895032447372
6.544310784,0.9999294877545125,114.4573061387972
6.546597888,0.9999149753630552,114.3159264179547
6.548884992,0.9999061571872995,114.17471831742013
6.551172096,0.9999037049109966,114.03359647292775
6.5534592,0.9999076511079931,113.89249250154884
6.555746304,0.9999178547929818,113.7513054056842
6.558033408,0.9999335339131129,113.60992452071034
6.56032,0.9999537824920697,113.46830560788149
6.562607104,0.9999773107372029,113.32639500008872
6.564894208,1.0000026818400736,113.18413471139081
6.567181312,1.0000281423809085,113.04150915905548
6.569468416,1.0000522170573276,112.89853030666924
6.57175552,1.0000733408716458,112.75525024737527
6.574042112,1.0000900819105172,112.6117130634771
6.576329216,1.0001014922914353,112.46798544669693
6.57861632,1.0001069559119247,112.32413651490832
6.580903424,1.0001058812786863,112.180267342748
6.583190528,1.0000983449511471,112.03647564226877
6.585477632,1.0000850258190555,111.89285594493754
6.587764224,1.000066641608124,111.7494835289296
6.590051328,1.0000444623586673,111.60641391980252
6.592338432,1.0000196719268617,111.46369226687663
6.594625536,0.9999939567876294,111.32135483164485
6.59691264,0.9999690471388433,111.17940844372129
6.599199744,0.9999464067205349,111.03781188906501
6.601486336,0.9999275064823768,110.89652479018497
6.60377344,0.9999135064536453,110.75549807468059
6.606060544,0.9999053582278338,110.61464056644793
6.608347648,0.9999035996288609,110.47388357744768
6.610634752,0.9999081344313991,110.33311780634921
6.612921856,0.9999189663766724,110.19222673760139
6.615208448,0.9999352501187599,110.05116658209622
6.617495552,0.9999559958290176,109.90986899448752
6.619782656,0.9999798400212321,109.76824398544424
6.62206976,1.0000052639414052,109.62627499617072
6.624356864,1.0000307519046385,109.4839445994579
6.626643968,1.0000545921493138,109.34126383688606
6.628931072,1.0000754213940395,109.19829000719601
6.631217664,1.0000916620619813,109.05504571570259
6.633504768,1.0001025716067837,108.9116191967117
6.635791872,1.0001072023251472,108.76808750164548
6.638078976,1.000105507948398,108.62454368800033
6.64036608,1.000097426114279,108.48111317576691
6.642653184,1.0000834878044575,108.33782152662152
6.644939776,1.0000646170419398,108.1947967615134
6.64722688,1.000041979780516,108.05208169724119
6.649513984,1.0000169778395407,107.9097296844772
6.651801088,0.999991255520376,107.76776158119057
6.654088192,0.9999664524615134,107.6261651736254
6.656375296,0.999944057814121,107.48493552498782
6.658661888,0.999925631226705,107.34400111078651
6.660948992,0.9999121672757755,107.20332298576685
6.663236096,0.999904549748205,107.06280588575717
6.6655232,0.999903454513739,106.92237145177279
6.667810304,0.9999087485576016,106.78192738095704
6.670097408,0.999920169770126,106.64135348628271
6.672384,0.9999369539641516,106.50058462420586
6.674671104,0.9999581531603854,106.35956562885221
6.676958208,0.9999822796574163,106.2182303992519
6.679245312,1.0000079073762855,106.07653427289073
6.681532416,1.0000333232315564,105.9344845452194
6.68381952,1.00005700132144,105.79208802293418
6.686106112,1.000077450365536,105.64940856786137
6.688393216,1.0000932831996072,105.50644354782645
6.69068032,1.0001036139745065,105.3633197453097
6.692967424,1.0001075979937433,105.22009872404186
6.695254528,1.0001051456374273,105.07688631297992
6.697541632,1.0000964940738541,104.93375649905803
6.699828224,1.0000819041935185,104.79081816921315
6.702115328,1.0000624698952272,104.64813760952084
6.704402432,1.0000395652917444,104.50575096574839
6.706689536,1.0000142957502256,104.36374662481334
6.70897664,0.9999885496590188,104.22214390061623
6.711263744,0.9999638207285497,104.08088783625598
6.713550848,0.9999417505307266,103.94001297265751
6.71583744,0.9999237143389637,103.79940810641583
6.718124544,0.9999107653666456,103.65907036837739
6.720411648,0.9999039103126666,103.51888396820029
6.722698752,0.9999034433077284,103.37876385130507
6.724985856,0.9999093899310517,103.2386008801477
6.72727296,0.9999214443335095,103.09833531701395
6.729559552,0.9999387453710575,102.95785776729028
6.731846656,0.9999604054111886,102.81709310506176
6.73413376,0.9999848000555338,102.67603925888145
6.736420864,1.000010596290504,102.5346265598242
6.738707968,1.0000359346037178,102.39283507327364
6.740995072,1.0000593981016612,102.25072744702119
6.743281664,1.0000794588924027,102.1082898964823
6.745568768,1.0000947876735262,101.96562666734648
6.747855872,1.000104513818509,101.8227884032999
6.750142976,1.0001079156379693,101.67985213037785
6.75243008,1.0001047196785402,101.53693871113127
6.754717184,1.0000953604276301,101.39411688491997
6.757003776,1.0000802885784192,101.25149884180162
6.75929088,1.0000603878858303,101.1091519283428
6.761577984,1.000037063336239,100.96710417959535
6.763865088,1.0000116264933068,100.82544887059552
6.766152192,0.9999858192538729,100.68417616909613
6.768439296,0.9999612911676088,100.54326695581706
6.770725888,0.9999395111788836,100.40270238277552
6.773012992,0.9999218666164496,100.26243754934109
6.775300096,0.9999095152962846,100.12242989687131
6.7775872,0.999903235706779,99.98253131059874
6.779874304,0.9999034301495578,99.84270123277977
6.782161408,0.999910119814268,99.70285029480543
6.784448512,0.999922749803325,99.56285242792492
6.786735104,0.9999406759034005,99.42264723204461
6.789022208,0.9999626473541395,99.28216934883415
6.791309312,0.9999873943730767,99.14136338066254
6.793596416,1.0000131713531863,99.00019404679814
6.79588352,1.0000385372619167,98.85866820709869
6.798170624,1.0000618346853019,98.71680155660798
6.800457216,1.0000814813397716,98.57463837766564
6.80274432,1.0000962017378126,98.43222712699021
6.805031424,1.0001053298408071,98.28966901860476
6.807318528,1.0001079982554992,98.14701549183651
6.809605632,1.0001042192334704,98.00438532133246
6.811892736,1.0000942467166762,97.86188141863259
6.814179328,1.000078468695547,97.71956948157555
6.816466432,1.0000581733289546,97.57751968965852
6.818753536,1.0000344783878188,97.43581276468431
6.82104064,1.0000088891341754,97.29446774985453
6.823327744,0.999983135701322,97.15349904557976
6.825614848,0.9999586563261207,97.01292709495424
6.82790144,0.9999372365344591,96.87268302061676
6.830188544,0.9999200603615709,96.73275081757605
6.832475648,0.9999083212668027,96.59302915035187
6.834762752,0.9999027339240758,96.45343947172242
6.837049856,0.9999035716894117,96.31388547148413
6.83933696,0.9999108882863231,96.17430466603784
6.841623552,0.9999242252457142,96.03457853091297
6.843910656,0.9999426181648551,95.89462874839253
6.84619776,0.999965043184707,95.75440306328319
6.848484864,0.9999899349640292,95.61384188540818
6.850771968,1.0000159034458527,95.47291171602329
6.853059072,1.000041090627513,95.33161810055371
6.855345664,1.0000641051221326,95.18999609105035
6.857632768,1.0000834157315706,95.04807075243701
6.859919872,1.0000976259508205,94.90591912830028
6.862206976,1.0001060918318716,94.76360950461373
6.86449408,1.0001081316042222,94.6212338837643
6.866781184,1.000103698043869,94.47887880758698
6.869068288,1.00009300186966,94.33665657018999
6.87135488,1.000076712941741,94.19463349705964
6.873641984,1.0000558829885648,94.05290466626722
6.875929088,1.000031832767513,93.91150475299091
6.878216192,1.0000060499735453,93.77046384078993
6.880503296,0.999980389550011,93.62982563395632
6.8827904,0.999956085068922,93.48956305164339
6.885076992,0.9999349936574093,93.34961257305547
6.887364096,0.9999182718877708,93.20997771873115
6.8896512,0.9999070847781714,93.07054463074864
6.891938304,0.9999021654042751,92.93122921265774
6.894225408,0.9999037951806883,92.79196104865724
6.896512512,0.9999117644374317,92.65263788266255
6.898799104,0.9999257006253982,92.51315545217875
6.901086208,0.9999446807421094,92.37344824668835
6.903373312,0.9999674413249985,92.23345914990018
6.905660416,0.9999925968243588,92.09311032812413
6.90794752,1.0000185938024653,91.95241920478009
6.910234624,1.0000437328486034,91.81135901403266
6.912521216,1.0000664626593947,91.66994939656625
6.91480832,1.0000852561899887,91.5282683005455
6.917095424,1.0000990338431748,91.38635478423821
6.919382528,1.0001068375200381,91.24427134286829
6.921669632,1.0001082037166213,91.10216526979484
6.923956736,1.0001030896746181,90.96007963072105
6.926243328,1.000091698484459,90.81811819801442
