freq,mag,phase
6.0,1.0001014805020223,14.894202581617849
6.002287104,1.0002917853776814,14.707682091338073
6.004574208,1.000464291283576,14.518372907751047
6.006861312,1.0006083244641346,14.326602934302398
6.009147904,1.000714757635053,14.132891278253611
6.011435008,1.0007770993664016,13.937804043731237
6.013722112,1.0007911261381062,13.741990032091504
6.016009216,1.000756192407172,13.546180582158076
6.01829632,1.0006742785189116,13.351058744032017
6.020583424,1.0005504974703188,13.157247769506357
6.022870016,1.0003925920086156,12.965321335138185
6.02515712,1.0002105770577672,12.775711320164774
6.027444224,1.0000157496228876,12.588663619554714
6.029731328,0.9998203694393074,12.404268239575702
6.032018432,0.9996367813176181,12.222489592172503
6.034305536,0.9994764720995447,12.043034001135464
6.036592128,0.9993495537850583,11.86550394593322
6.038879232,0.9992641272469884,11.68934776790941
6.041166336,0.9992254890314024,11.51394864633018
6.04345344,0.9992362936122534,11.33861186125523
6.045740544,0.9992957651744504,11.162610184857883
6.048027648,0.999400204322222,10.985238276741143
6.05031424,0.999543107981583,10.805938532587474
6.052601344,0.9997155529764495,10.624186298697518
6.054888448,0.9999065697082469,10.439643343950092
6.057175552,1.0001042632499004,10.252123492986199
6.059462656,1.0002962327177207,10.061622987799185
6.06174976,1.0004702150286349,9.868309899825519
6.064036352,1.0006155899226128,9.672518941877973
6.066323456,1.000722976316699,9.47473617376638
6.06861056,1.0007856266853616,9.275577077246268
6.070897664,1.0007995912976941,9.075669021231073
6.073184768,1.0007640034901237,8.875761405718128
6.075471872,1.000681043119388,8.676526319946579
6.077758464,1.00055587887636,8.478646357089902
6.080045568,1.000396209237929,8.282661328156815
6.082332672,1.000212292032806,8.088964080443523
6.084619776,1.0000154106855867,7.8978705878701785
6.08690688,0.99981806033053,7.709459183897568
6.089193984,0.999632504856727,7.523644701339097
6.091481088,0.999470677664215,7.340192656075365
6.09376768,0.9993425948097374,7.158688080659215
6.096054784,0.9992564217376423,6.978569960434833
6.098341888,0.9992174825437827,6.79918299728953
6.100628992,0.9992284073632215,6.619835866109425
6.102916096,0.9992886013567684,6.439798671086389
6.1052032,0.9993941834465527,6.258418962180773
6.107489792,0.9995386170153708,6.075049259737264
6.109776896,0.9997128181664432,5.889203791420179
6.112064,0.9999058192840398,5.700514136344237
6.114351104,1.000105675988605,5.508821846785237
6.116638208,1.000299477564404,5.314109717198832
6.118925312,1.000475372726205,5.116559959125952
6.121211904,1.0006222244630976,4.9164858769201665
6.123499008,1.0007307294588879,4.714392245145823
6.125786112,1.0007941941271703,4.51089190260935
6.128073216,1.0008083982817773,4.306633660856621
6.13036032,1.0007725386263528,4.102354230487616
6.132647424,1.000688881632169,3.898765361164144
6.134934016,1.0005625381250327,3.696509094079697
6.13722112,1.0004014203682592,3.4961543449233803
6.139508224,1.0002155425751693,3.2981315030319696
6.141795328,1.000016684099232,3.1027082449234937
6.144082432,0.9998173066242566,2.9099895551276864
6.146369536,0.9996298187152644,2.71990533939194
6.148656128,0.9994660638799613,2.5321745556236492
6.150943232,0.9993365464575559,2.346388709951051
6.153230336,0.9992491007744237,2.1620195142114538
6.15551744,0.9992094447631726,1.9783907370028408
6.157804544,0.9992202650999406,1.7947838768884021
6.160091648,0.9992807893234229,1.6105121969937137
6.162378752,0.9993871537950669,1.4248220873395472
6.164665344,0.9995327612513386,1.237149998747411
6.166952448,0.9997086016797848,1.0469777682137427
6.169239552,0.9999035597799446,0.8539044127424008
6.171526656,1.0001053692406203,0.6578031875526246
6.17381376,1.0003013443131996,0.458660097001264
6.176100864,1.000479359986806,0.2565958523996178
6.178387456,1.000627929786778,0.051999069464600915
6.18067456,1.0007379752409284,-0.15466317956414039
6.182961664,1.0008024304675622,-0.36276766064812616
6.185248768,1.000817395080374,-0.5716166468692512
6.187535872,1.0007816507311866,-0.7805206351788984
6.189822976,1.0006976064595952,-0.9887635773865739
6.192109568,1.000570357445564,-1.1956554140409246
6.194396672,1.0004078585550455,-1.400631124154347
6.196683776,1.0002203239887166,-1.6032735662373954
6.19897088,1.000019571174331,-1.8033286389952812
6.201257984,0.9998179021329783,-2.0006399036810887
6.203545088,0.9996282940037564,-2.1952954648107283
6.20583168,0.9994625192926951,-2.3875659501092024
6.208118784,0.9993309960979448,-2.577875096509594
6.210405888,0.9992421517505728,-2.7667736819650077
6.212692992,0.9992014828671956,-2.954919128914663
6.214980096,0.9992117071710199,-3.14301893204764
6.2172672,0.9992721148271703,-3.331827106934924
6.219553792,0.9993788934395227,-3.5220469549598348
6.221840896,0.9995255724402545,-3.7142623428209234
6.224128,0.9997027439279853,-3.909033445462152
6.226415104,0.9998995887492687,-4.10668964633501
6.228702208,1.000103462800345,-4.307431130964361
6.230989312,1.0003016563470952,-4.511290554882425
6.233275904,1.0004818492567065,-4.7180709367798634
6.235563008,1.0006325506575462,-4.927449071356128
6.237850112,1.0007445428017159,-5.138893679929981
6.240137216,1.000810613821565,-5.35183645879986
6.24242432,1.0008265115067903,-5.56557139748433
6.244711424,1.0007914030564597,-5.77936927844247
6.246998528,1.000707305468107,-5.9925275580443715
6.24928512,1.000579484896194,-6.204319825740099
6.251572224,1.00041589394724,-6.4142274270074155
6.253859328,1.0002269154910184,-6.6217754690838975
6.256146432,1.000024106254491,-6.826695980361092
6.258433536,0.9998204166742648,-7.028885542621058
6.26072064,0.9996284266728857,-7.228397309201629
6.263007232,0.9994602983201135,-7.42550503477063
6.265294336,0.9993265961124334,-7.6206337867921405
6.26758144,0.9992358824734313,-7.814325211707805
6.269868544,0.999193663439414,-8.00723797151597
6.272155648,0.9992027749000391,-8.200099327073318
6.274442752,0.999262695138327,-8.393690127727382
6.276729344,0.9993696026883788,-8.588657312662207
6.279016448,0.9995169344522189,-8.785670733559144
6.281303552,0.9996954625648466,-8.985253052919049
6.283590656,0.999893979568011,-9.187740397586925
6.28587776,1.0000999426746011,-9.393359502079976
6.288164864,1.000300443914574,-9.602139340400546
6.290451456,1.0004831508084062,-9.813884012468208
6.29273856,1.0006363276849755,-10.028262735831133
6.295025664,1.0007504839219674,-10.244752134567447
6.297312768,1.0008184255099877,-10.462802753158261
6.299599872,1.0008359159672646,-10.681672882247982
6.301886976,1.0008017737301982,-10.900600438066029
6.304173568,1.000718067348717,-11.118911621584617
6.306460672,1.0005900098412281,-11.335908839066379
6.308747776,1.0004257059185724,-11.55100219084081
6.31103488,1.0002351858393475,-11.763747833781586
6.313321984,1.0000305461756733,-11.973837081765211
6.315609088,0.9998244964904947,-12.181165492057247
6.317896192,0.9996299206926624,-12.385811980063716
6.320182784,0.9994592279243593,-12.588029833357053
6.322469888,0.9993230713187528,-12.788203692400911
6.324756992,0.9992298990651497,-12.986943108306694
6.327044096,0.9991857036312549,-13.184887273555054
6.3293312,0.9991933500566812,-13.382779841392175
6.331618304,0.9992523526508985,-13.58135311612246
6.333904896,0.9993590687566252,-13.781319543575133
6.336192,0.9995066701355372,-13.983354748665427
6.338479104,0.9996863318369176,-14.187953825727313
6.340766208,0.9998863005204364,-14.395525871612618
6.343053312,1.0000943459270604,-14.606250996047317
6.345340416,1.0002975403618162,-14.820156097815387
6.347627008,1.0004828139477449,-15.037087439318512
6.349914112,1.0006387966853487,-15.256670142870087
6.352201216,1.000755638059694,-15.478477472323053
6.35448832,1.000826187258322,-15.701820266719578
6.356775424,1.0008456350272052,-15.926064012351745
6.359062528,1.0008129970575985,-16.150413232940462
6.36134912,1.0007301643507165,-16.374156505878055
6.363636224,1.0006022856013859,-16.596587296377862
6.365923328,1.0004374273862273,-16.817123563754407
6.368210432,1.0002457297410188,-17.035336073319737
6.370497536,1.0000392650135044,-17.250863896162127
6.37278464,0.9998307508045714,-17.46361704872261
6.375071232,0.9996335851071357,-17.673653672211007
6.377358336,0.9994598809551332,-17.88122245486355
6.37964544,0.9993206983907379,-18.086750450347747
6.381932544,0.999224763286697,-18.290797811191933
6.384219648,0.9991780162177454,-18.49399761494885
6.386506752,0.9991836955901653,-18.697122351877734
6.388793344,0.9992412007793708,-18.900941594998326
6.391080448,0.9993470464350305,-19.10614337974785
6.393367552,0.9994947947058911,-19.313381315043273
6.395654656,0.9996751158600458,-19.523227230330935
6.39794176,0.9998766351763407,-19.736060305095304
6.400228864,1.0000867951826244,-19.952085033079864
6.402515968,1.0002925018106492,-20.17132375187288
6.40480256,1.0004808437297186,-20.393630378901328
6.407089664,1.0006399778423853,-20.618679540196023
6.409376768,1.000760042383695,-20.845949946897267
6.411663872,1.0008333634853093,-21.07485879818546
6.413950976,1.0008554364687245,-21.304681723586917
6.41623808,1.0008247625101039,-21.534672369696253
6.418524672,1.0007433474509762,-21.76409460644969
6.420811776,1.0006160522893803,-21.99221655495709
6.42309888,1.000450928958844,-22.218479813644752
6.425385984,1.0002582199795427,-22.44237496465488
6.427673088,1.0000498801281912,-22.663600937879743
6.429960192,0.9998392549808397,-22.88203595461026
6.432246784,0.9996391369941783,-23.097727970739555
6.434533888,0.999462194991835,-23.310884750670766
6.436820992,0.9993195945739739,-23.521994061779512
6.439108096,0.9992203130698394,-23.73156330032559
6.4413952,0.9991705140352984,-23.94027627460337
6.443682304,0.9991735768745769,-24.14886749649056
6.445968896,0.9992291455819964,-24.358134942513306
6.448256,0.9993339276127622,-24.568761690094988
6.450543104,0.9994812225050673,-24.781411307249886
6.452830208,0.9996618859896876,-24.996688563379326
6.455117312,0.9998647770194177,-25.214957905104416
6.457404416,1.0000770542433748,-25.43646263403214
6.459691008,1.0002854579213611,-25.66122466326916
6.461978112,1.0004769931072344,-25.88911184631648
6.464265216,1.0006396673524969,-26.11978365724858
6.46655232,1.000763289219354,-26.3527456393401
6.468839424,1.0008400749341322,-26.587400897168788
6.471126528,1.000865322970674,-26.823007328436415
6.473413632,1.00083722589152,-27.058861450469994
6.475700224,1.0007576645414133,-27.294158108104565
6.477987328,1.0006313933285145,-27.52819547641153
6.480274432,1.000466443091555,-27.76038154072218
6.482561536,1.0002729967240496,-27.99021342310104
6.48484864,1.000063085912,-28.21736866156448
6.487135744,0.9998498341602076,-28.441730926878748
6.489422336,0.9996466448056837,-28.663296353260566
6.49170944,0.9994663002136512,-28.88229516899787
6.493996544,0.9993198426067308,-29.099195953127914
6.496283648,0.9992167148004439,-29.314511862776722
6.498570752,0.9991634127683652,-29.52892128595152
6.500857856,0.9991631690302579,-29.743178733336624
6.503144448,0.9992161863440014,-29.958036232259186
6.505431552,0.9993192107350544,-30.174258557219133
6.507718656,0.9994657008864096,-30.39251427530776
6.51000576,0.999646612570565,-30.613377507173354
6.512292864,0.9998505318590281,-30.837259671829734
6.514579968,1.0000648642310583,-31.06439163303011
6.51686656,1.0002761412232248,-31.29482082496931
6.519153664,1.0004712048720583,-31.528425097921808
6.521440768,1.000637842199441,-31.764880216349432
6.523727872,1.000765497753992,-32.003699390291125
6.526014976,1.0008463544194282,-32.24425873635408
6.52830208,1.0008752868863606,-32.485858299616844
6.530588672,1.0008503877297616,-32.72773037466928
6.532875776,1.000773241126926,-32.969093083372904
6.53516288,1.0006486708276467,-33.2092486769571
6.537449984,1.0004841958885087,-33.44756014477044
6.539737088,1.0002902218516747,-33.68356041537671
6.542024192,1.000078826729679,-33.916846047996856
6.544310784,0.9998630605516949,-34.147305985839466
6.546597888,0.9996566176738058,-34.37493935367964
6.548884992,0.9994723010872929,-34.60001302028708
6.551172096,0.9993216601292019,-34.822893998096845
6.5534592,0.9992141805834746,-35.04413100366432
6.555746304,0.9991566827079368,-35.26442097791343
6.558033408,0.9991526096238664,-35.48449193034725
6.56032,0.9992026137159781,-35.70512898087574
6.562607104,0.999303194663253,-35.92709105942461
6.564894208,0.999448514559791,-36.151072835786664
6.567181312,0.999629232999525,-36.37764107833566
6.569468416,0.999834074545618,-36.60725969508299
6.57175552,1.0000504173013427,-36.840146157453226
6.574042112,1.0002646892519484,-37.07635558114333
6.576329216,1.000463327659708,-37.31581959260334
6.57861632,1.0006342404372903,-37.55815132047355
6.580903424,1.0007665877355643,-37.80297674611364
6.583190528,1.0008520522357567,-38.0495556848733
6.585477632,1.000885386157202,-38.29726926014232
6.587764224,1.0008643228083989,-38.54531621520093
6.590051328,1.0007902387526204,-38.792902635852236
6.592338432,1.0006676368842782,-39.039335675166676
6.594625536,1.0005042116404905,-39.283956337721634
6.59691264,1.0003100013192734,-39.526246929945
6.599199744,1.0000971930425833,-39.7658802232449
6.601486336,0.9998789624341005,-40.00261156641955
6.60377344,0.9996691616230997,-40.236487299978556
6.606060544,0.9994806453503334,-40.46775653155458
6.608347648,0.9993251590775832,-40.69675571227511
6.610634752,0.9992127902082532,-40.92407020556561
6.612921856,0.999150339225421,-41.15037717813918
6.615208448,0.9991419136248574,-41.37639803557791
6.617495552,0.9991880713676796,-41.60292733937902
6.619782656,0.999285870154614,-41.830725258030135
6.62206976,0.9994292744937698,-42.06052736946108
6.624356864,0.9996092621610407,-42.29291294074696
6.626643968,0.9998148822334978,-42.52829197730677
6.628931072,1.000033131815494,-42.767004416359306
6.631217664,1.0002502584977166,-43.00908411215991
6.633504768,1.0004530280862107,-43.25443928294669
6.635791872,1.0006285804119068,-43.50278231883189
6.638078976,1.0007659557322894,-43.75362220287292
6.64036608,1.0008566589315337,-44.0063499482515
6.642653184,1.0008949012432666,-44.26024289619238
6.644939776,1.0008784207894952,-44.51456515099599
6.64722688,1.0008079738195799,-44.768485276205105
6.649513984,1.0006880572435022,-45.02130834577323
6.651801088,1.0005261104149308,-45.27235513696168
6.654088192,1.0003320795165656,-45.52107178529596
6.656375296,1.0001181098410195,-45.76710656723472
6.658661888,0.9998974707060792,-46.010248237115576
6.660948992,0.9996840124396008,-46.25051037909739
6.663236096,0.9994910093839707,-46.48808722263241
6.6655232,0.9993304634759901,-46.723346509030506
6.667810304,0.9992126232348958,-46.95683971992746
6.670097408,0.9991447704557138,-47.18922249572765
6.672384,0.9991311718385788,-47.42125826690448
6.674671104,0.9991727731966987,-47.65376197291037
6.676958208,0.9992669943227287,-47.88744456289117
6.679245312,0.9994079973060827,-48.12310228983328
6.681532416,0.9995870924130731,-48.36132381648811
6.68381952,0.9997930064314996,-48.602533736059634
6.686106112,1.0000130150967144,-48.84707379127333
6.688393216,1.0002332531032005,-49.095036727870195
6.69068032,1.0004400805282234,-49.34631781586774
6.692967424,1.0006207038242563,-49.60063141591287
6.695254528,1.0007638443525197,-49.85755526290685
6.697541632,1.0008603300076078,-50.11643099517392
6.699828224,1.0009042441330742,-50.376580126362775
6.702115328,1.0008928891805808,-50.637188091033806
6.704402432,1.0008268210545832,-50.89751489609435
6.706689536,1.000710322061023,-51.15676621792819
6.70897664,1.0005501195758149,-51.414288000247076
6.711263744,1.0003567705019534,-51.66950550009628
6.713550848,1.000141804399371,-51.92203569259389
6.71583744,0.9999188433989178,-52.17167633438991
6.718124544,0.9997016845243771,-52.418350430906514
6.720411648,0.9995038588608803,-52.66229558208639
6.722698752,0.9993378704154326,-52.90385972578976
6.724985856,0.9992138303500292,-53.143553375312784
6.72727296,0.9991398641834411,-53.38208887745962
6.729559552,0.9991203653072813,-53.62017859884762
6.731846656,0.9991568556580299,-53.858604870320505
6.73413376,0.9992468797412482,-54.098184562549825
6.736420864,0.9993849030495608,-54.33967950979054
6.738707968,0.9995624508301413,-54.58369322347578
6.740995072,0.9997684087522204,-54.830693159338026
6.743281664,0.9999899470632622,-55.081024050132946
6.745568768,1.0002133460051612,-55.3348205042629
6.747855872,1.0004245622293457,-55.591997038355515
6.750142976,1.0006104948119214,-55.85225649285251
6.75243008,1.0007596025158232,-56.11516999507608
6.754717184,1.0008625388894725,-56.38016474676695
6.757003776,1.0009128294132843,-56.646500089752664
6.75929088,1.0009074541855612,-56.91341824125737
6.761577984,1.0008465798995756,-57.18010532540066
6.763865088,1.0007339032773344,-57.44579307558426
6.766152192,1.0005765249844556,-57.70976041812153
6.768439296,1.0003839983558689,-57.97149500061782
6.770725888,1.0001683799234071,-58.23051186955636
6.773012992,0.9999431799052543,-58.486613274559375
6.775300096,0.9997222150633954,-58.739743408180495
6.7775872,0.999519431249947,-58.99006410892814
6.779874304,0.9993473594273717,-59.23789174362736
6.782161408,0.9992168288289834,-59.48378690997792
6.784448512,0.9991360630872503,-59.728396903650115
6.786735104,0.9991101265212309,-59.97246915021629
6.789022208,0.9991405769686275,-60.21681078882136
6.791309312,0.9992256693112923,-60.46222585963074
6.793596416,0.9993601846380039,-60.70945281150602
6.79588352,0.9995356723257044,-60.95915553848095
6.798170624,0.999741224289772,-61.21185126758013
6.800457216,0.9999641442441278,-61.46786652789653
6.80274432,1.0001904570907991,-61.72735020059896
6.805031424,1.0004062272739014,-61.99027178613138
6.807318528,1.000597825944201,-62.25636294032897
6.809605632,1.0007535296232875,-62.52518949386826
6.811892736,1.0008635444066287,-62.79619051950796
6.814179328,1.0009209296552197,-63.068587629094814
6.816466432,1.0009220390003928,-63.341692196149594
6.818753536,1.0008670597140454,-63.61465762531032
6.82104064,1.000758986063633,-63.88667082154507
6.823327744,1.0006047777889413,-64.15705531145483
6.825614848,1.0004137697483908,-64.42518620452192
6.82790144,1.0001979343036507,-64.69064992453026
6.830188544,0.9999705462293377,-64.95312541076524
6.832475648,0.9997458377045514,-65.21260196454334
6.834762752,0.9995377760082974,-65.46920253496717
6.837049856,0.999359356438018,-65.72323988019046
6.83933696,0.999221732538721,-65.97522224055984
6.841623552,0.9991335140733885,-66.22582142895247
6.843910656,0.9991002494791829,-66.47575539421923
6.84619776,0.9991239835896671,-66.72585313225665
6.848484864,0.9992034814155463,-66.97692949341074
6.850771968,0.9993336656533759,-67.22973293346762
6.853059072,0.9995065439296978,-67.484961676915
6.855345664,0.9997112537739996,-67.74315074056618
6.857632768,0.9999353549349718,-68.0046391459946
6.859919872,1.000164577955255,-68.26963473134604
6.862206976,1.0003848744688506,-68.538106849512
6.86449408,1.0005825059181612,-68.809787414727
6.866781184,1.000745176441962,-69.08432059917736
6.869068288,1.000862779153549,-69.36108313734431
6.87135488,1.000927960765653,-69.63942894332948
6.873641984,1.0009364724193057,-69.91849834423881
6.875929088,1.0008880337787407,-70.1975340681453
6.878216192,1.0007853299423768,-70.4757271603558
6.880503296,1.0006349550885767,-70.75231285635383
6.8827904,1.0004459504546128,-71.02670691406918
6.885076992,1.0002301660249013,-71.29841201374624
6.887364096,1.000000974082443,-71.5671559931566
6.8896512,0.9997724663625588,-71.83281754071913
6.891938304,0.9995590488416857,-72.09554269032331
6.894225408,0.9993739778542544,-72.35558908164984
6.896512512,0.9992288048966139,-72.61348368492388
6.898799104,0.9991324319251992,-72.86984946704817
6.901086208,0.9990911632371486,-73.12544129785118
6.903373312,0.9991075217318013,-73.38109949035663
6.905660416,0.9991805419160363,-73.63758239174666
6.90794752,0.9993057324230695,-73.8957198867172
6.910234624,0.9994753712048714,-74.15621417856524
6.912521216,0.9996787712876914,-74.41957987492319
6.91480832,0.9999035058257213,-74.68629076202122
6.917095424,1.0001355804541245,-74.95650605305099
