freq,mag,phase
6.0,0.9999955038300304,-91.30079563717238
6.0066944,0.9999581614715227,-91.6114754913612
6.013389312,0.9999229507565446,-91.92163216356339
6.020083712,0.999891959314889,-92.2313183005647
6.026778112,0.9998669396919527,-92.54066534305207
6.033473024,0.9998493890027451,-92.84972631343139
6.040167424,0.999840171736947,-93.15868032987996
6.046861824,0.9998398729981743,-93.46748995169462
6.053556736,0.999848506185523,-93.77641028908677
6.060251136,0.9998653790766925,-94.0855320948102
6.066945536,0.9998900878827954,-94.39491310388178
6.073639936,0.9999205919702687,-94.7047054917654
6.080334848,0.9999558109639085,-95.01494972423855
6.087029248,0.9999933181147449,-95.32573352144264
6.093723648,1.0000312066626735,-95.63701280692102
6.10041856,1.0000674516513934,-95.94878907429467
6.10711296,1.0000999665827741,-96.26106553397969
6.11380736,1.0001268263353598,-96.57380879907058
6.120502272,1.000146654294721,-96.88682761694572
6.127196672,1.0001584047924668,-97.2000892568175
6.133891072,1.0001613361285437,-97.51346567549874
6.140585984,1.0001552489791767,-97.82682644040892
6.147280384,1.0001404966369274,-98.14006662243287
6.153974784,1.0001179423332869,-98.4530847701947
6.160669696,1.000088808872518,-98.76572554266455
6.167364096,1.0000546126287995,-99.07795930624162
6.174058496,1.0000175579654529,-99.38972530726004
6.180752896,0.9999794488368944,-99.70101647117171
6.187447808,0.9999423130680378,-100.0117794661641
6.194142208,0.9999085924687741,-100.32207618363
6.200836608,0.9998797703450614,-100.63196205692773
6.20753152,0.9998577131992012,-100.94149007555818
6.21422592,0.999843566040582,-101.25082988370889
6.22092032,0.9998381008354841,-101.56001009706321
6.227615232,0.9998417530374835,-101.86921262022544
6.234309632,0.9998540896344617,-102.1784993417791
6.241004032,0.9998746123637754,-102.4880991078084
6.247698944,0.9999021596057531,-102.79795954251792
6.254393344,0.9999351353252133,-103.10825885521918
6.261087744,0.9999718206905039,-103.41905783504502
6.267782656,1.0000099050312043,-103.73039028353563
6.274477056,1.0000475965816393,-104.04223994492769
6.281171456,1.0000826079936191,-104.35457980143772
6.287865856,1.0001130711370851,-104.66738552620721
6.294560768,1.0001373486754013,-104.98058116858317
6.301255168,1.000153995984485,-105.29406201028128
6.307949568,1.0001618965857608,-105.6077503437093
6.31464448,1.0001609345187108,-105.92146606960205
6.32133888,1.000150954103193,-106.23510878007698
6.32803328,1.0001325949402537,-106.54858362767051
6.334728192,1.000106902080368,-106.86177295658172
6.341422592,1.0000752201079355,-107.17458735680552
6.348116992,1.0000394017019953,-107.48694374234462
6.354811904,1.000001383096408,-107.79883338164079
6.361506304,0.999963053627109,-108.11019372281325
6.368200704,0.9999270312965133,-108.42105698142173
6.374895616,0.9998949313653812,-108.73149337330928
6.381590016,0.9998687253674339,-109.0415211462509
6.388284416,0.9998498305785112,-109.35123973362744
6.394979328,0.9998393331762162,-109.66076881516265
6.401673728,0.9998377435264494,-109.97024870375704
6.408368128,0.9998451891955599,-110.2797809452794
6.415062528,0.9998613031264245,-110.58947292298053
6.42175744,0.9998851814534834,-110.89944145755899
6.42845184,0.999915351473662,-111.20977051080051
6.43514624,0.9999503892993732,-111.5206134410267
6.441841152,0.9999880975046087,-111.83190536329954
6.448535552,1.000026603879543,-112.14375120669314
6.455229952,1.0000636365384203,-112.45610796297649
6.461924864,1.000097166779504,-112.7689533967365
6.468619264,1.0001252942039016,-113.08225156726662
6.475313664,1.0001465335601851,-113.39589697721777
6.482008576,1.0001595306125184,-113.70974073159034
6.488702976,1.0001637037795073,-114.02376776708454
6.495397376,1.00015890645921,-114.33776306541587
6.502092288,1.0001452054875792,-114.65166367134665
6.508786688,1.000123310432547,-114.96531900280397
6.515481088,1.000094671790357,-115.27864274373626
6.522175488,1.0000607645645265,-115.59156966833072
6.5288704,1.000023444327587,-115.90399471317238
6.5355648,0.9999848443043945,-116.21594033861386
6.5422592,0.9999470259625061,-116.52733307746765
6.548954112,0.999912251189183,-116.83828919563497
6.555648512,0.9998822826902756,-117.14879406574464
6.562342912,0.9998588906786614,-117.45892856258936
6.569037824,0.9998434124908357,-117.76881616680272
6.575732224,0.9998366328276049,-118.07857955594258
6.582426624,0.9998389864558219,-118.38829832686774
6.589121536,0.9998503131432845,-118.69813539171915
6.595815936,0.9998699600519225,-119.00818944829388
6.602510336,0.9998969603979462,-119.31853803426326
6.609205248,0.9999296430390786,-119.62933098434469
6.615899648,0.9999663736447807,-119.94062237144779
6.622594048,1.0000049768802644,-120.2524199295537
6.629288448,1.0000433319136752,-120.56473244932629
6.63598336,1.0000793058224753,-120.87756999370275
6.64267776,1.000110964142037,-121.19088473497008
6.64937216,1.0001364318931627,-121.50461260241366
6.656067072,1.0001543446286647,-121.81859255550218
6.662761472,1.0001637032815338,-122.13280720368304
6.669455872,1.0001639992995783,-122.44710090117134
6.676150784,1.0001551851666652,-122.76134002505187
6.682845184,1.000137749792145,-123.07541791212036
6.689539584,1.0001127064855972,-123.38916493198171
6.696234496,1.0000813490172746,-123.70256924307704
6.702928896,1.0000455190321575,-124.01554230304468
6.709623296,1.0000071052573227,-124.32799407736992
6.716318208,0.9999683278698188,-124.63995866986272
6.723012608,0.9999313662144668,-124.9513735865343
6.729707008,0.9998982025307891,-125.26233110695915
6.73640192,0.9998706525933053,-125.57291660172918
6.74309632,0.9998504266240502,-125.8831555930729
6.74979072,0.999838566499891,-126.19318027812527
6.75648512,0.9998356393376321,-126.50312678326738
6.763180032,0.9998419076846673,-126.81306899166793
6.769874432,0.9998569563913763,-127.12319675202559
6.776568832,0.9998801272387987,-127.4335981061236
6.783263744,0.9999099188691952,-127.74433604445318
6.789958144,0.9999448486275798,-128.05555812249494
6.796652544,0.9999828439379203,-128.36725142636473
6.803347456,1.00002192130618,-128.67948890381908
6.810041856,1.0000597169073293,-128.99226831428626
6.816736256,1.0000943267930857,-129.30552031111287
6.823431168,1.0001237471499531,-129.6192479925908
6.830125568,1.0001462432766186,-129.93331057567198
6.836819968,1.0001606693245633,-130.24765017664262
6.84351488,1.0001662896647614,-130.56210823342786
6.85020928,1.0001625328306765,-130.8766152666423
6.85690368,1.0001499475519433,-131.19098593811236
6.86359808,1.0001289286359558,-131.50518876441106
6.870292992,1.0001007681575547,-131.81903502741358
6.876987392,1.0000670264471856,-132.13247312729916
6.883681792,1.0000295761734708,-132.44539951965086
6.890376704,0.999990503197008,-132.75782962740155
6.897071104,0.999951909166352,-133.06975686035682
6.903765504,0.9999161306570845,-133.38120129354385
6.910460416,0.9998849366474312,-133.6921406045896
6.917154816,0.9998602874358988,-134.00272431295238
6.923849216,0.9998433650907306,-134.31306021224202
6.930544128,0.9998351905934337,-134.6231796280555
6.937238528,0.9998362455533814,-134.93329852156234
6.943932928,0.9998464069487571,-135.24346330934486
6.95062784,0.9998652565376841,-135.55386081357724
6.95732224,0.9998915390139671,-135.8645897667988
6.96401664,0.9999240973480351,-136.17568276776916
6.970711552,0.9999607380088896,-136.48727691663473
6.977405952,0.9999997382697815,-136.79935186141412
6.984100352,1.0000387840645684,-137.11203087042708
6.990794752,1.0000757050915388,-137.42517166257298
6.997489664,1.000108577795277,-137.73884430013987
7.004184064,1.0001353597260032,-138.0528751529522
7.010878464,1.0001547178579107,-138.36727449295964
7.017573376,1.0001654752164837,-138.68185296873474
7.024267776,1.0001670706501589,-138.9965386413697
7.030962176,1.0001594452078408,-139.3111829653952
7.037657088,1.000143032122832,-139.62566885146128
7.044351488,1.0001185893808224,-139.93990104447303
7.051045888,1.000087636316597,-140.25372815708408
7.0577408,1.0000518231538549,-140.56713404873724
7.0644352,1.0000131685752045,-140.8800035244939
7.0711296,0.9999738064025805,-141.19237079839982
7.077824512,0.999935880019771,-141.50422358330687
7.084518912,0.9999015435886152,-141.81559536219
7.091213312,0.9998727595753834,-142.12652074788798
7.097907712,0.9998511183093349,-142.43710535666938
7.104602624,0.9998377718179926,-142.7474662463028
7.111297024,0.9998334400201886,-143.05771554465474
7.117991424,0.9998385632371204,-143.3679549618892
7.124686336,0.999852604106823,-143.67833606345002
7.131380736,0.9998749561893591,-143.98898042399023
7.138075136,0.9999042793078352,-144.29996140547024
7.144770048,0.9999390215728253,-144.6114029268844
7.151464448,0.9999772657432876,-144.92335164850408
7.158158848,1.0000168120524693,-145.23581562571084
7.16485376,1.0000555902629604,-145.54883141769463
7.17154816,1.0000911784984874,-145.8623291795698
7.17824256,1.000121934695797,-146.17631430982857
7.184937472,1.0001458637457343,-146.49067037057398
7.191631872,1.0001617015561186,-146.8052841173554
7.198326272,1.0001686862402333,-147.12005207321238
7.205020672,1.000166269325184,-147.43489328596996
7.211715584,1.0001547431875986,-147.74960975276468
7.218409984,1.0001346147110581,-148.06411819702492
7.225104384,1.000106942092261,-148.37831924441934
7.231799296,1.0000735310314175,-148.69210362228205
7.238493696,1.0000359281645337,-149.00540011822739
7.245188096,0.9999964043161601,-149.3182166860858
7.251883008,0.9999570594802123,-149.63045359803723
7.258577408,0.9999201887104527,-149.94218979260873
7.265271808,0.9998878206188255,-150.25346206715173
7.27196672,0.9998617165581336,-150.56430533865986
7.27866112,0.9998433382751525,-150.87489672451042
7.28535552,0.9998337618806528,-151.18527439017836
7.292050432,0.9998334158329087,-151.4955808330501
7.298744832,0.9998424641509155,-151.8059559306151
7.305439232,0.9998603250328251,-152.11653827494058
7.312134144,0.9998860361098219,-152.42740409401827
7.318828544,0.9999182054291864,-152.7386595275554
7.325522944,0.9999549254813529,-153.05038475783442
7.332217344,0.9999942803907123,-153.36263641886964
7.338912256,1.0000340533660699,-153.67543396974702
7.345606656,1.0000719881189957,-153.98875852114122
7.352301056,1.0001060295551545,-154.3025771368962
7.358995968,1.0001342048907698,-154.6167922543872
7.365690368,1.0001549084796089,-154.93138009939958
7.372384768,1.0001672140800903,-155.24619248194296
7.37907968,1.0001702031434643,-155.56112359311268
7.38577408,1.000163748124522,-155.87597051254326
7.39246848,1.0001483353040406,-156.19075333154942
7.399163392,1.0001246101680934,-156.50521423763482
7.405857792,1.0000940573693498,-156.81933309728885
7.412552192,1.000058346063368,-157.13299988604555
7.419247104,1.0000193617575046,-157.4461733108519
7.425941504,0.9999793748774173,-157.75878030667468
7.432635904,0.9999405663793872,-158.0708723351971
7.439330304,0.9999051238529896,-158.38248123452928
7.446025216,0.9998749212778762,-158.69360860366166
7.452719616,0.9998518090186276,-159.00438115416534
7.459414016,0.9998370027117293,-159.31490115459187
7.466108928,0.9998313324320222,-159.6252857810397
7.472803328,0.999835021251026,-159.93565385784353
7.479497728,0.9998480544778767,-160.24614891779075
7.48619264,0.9998695269679074,-160.55686276296197
7.49288704,0.9998984301645896,-160.86792170729404
7.49958144,0.9999331091902073,-161.17943253395822
7.506276352,0.9999715283241585,-161.4914149840948
7.512970752,1.0000116164616333,-161.80394271190085
7.519665152,1.0000511514848485,-162.11703488465815
7.526360064,1.0000878899850294,-162.43060557379965
7.533054464,1.0001198863144058,-162.74470640649275
7.539748864,1.000145231938909,-163.05914200126486
7.546443264,1.0001626910129222,-163.37389803672525
7.553138176,1.0001710703783908,-163.68880612704677
7.559832576,1.0001699851561956,-164.0037600235587
7.566526976,1.000159564916731,-164.31866651869592
7.573221888,1.0001403461447222,-164.63340385110195
7.579916288,1.000113318104409,-164.94776890257444
7.586610688,1.0000801075764911,-165.26174992122185
7.5933056,1.0000424134228123,-165.5752469199675
7.6,1.0000024648523913,-165.8881817528136
7.6066944,0.999962262197229,-166.20059104689605
7.613389312,0.9999243923722007,-166.51250354358191
7.620083712,0.9998907553646165,-166.82390550199065
7.626778112,0.9998631811457995,-167.13487360998334
7.633473024,0.9998433149332402,-167.44553721639633
7.640167424,0.9998323047611232,-167.75602288697385
7.646861824,0.9998305471213765,-168.06635875024048
7.653556736,0.9998384585692245,-168.37675646813332
7.660251136,0.9998552594342626,-168.6873576392843
7.666945536,0.9998803102125053,-168.9981900782738
7.673639936,0.999912061351461,-169.30943320057028
7.680334848,0.9999488807473452,-169.62112613612817
7.687029248,0.9999885664508222,-169.933362245072
7.693723648,1.0000290254742383,-170.24613272170296
7.70041856,1.000068031854312,-170.55945533665175
7.70711296,1.000103239914057,-170.87326657997065
7.71380736,1.0001328606628899,-171.18753622700473
7.720502272,1.0001550815969689,-171.5021249775242
7.727196672,1.0001688765374928,-171.81699255375935
7.733891072,1.0001732878801814,-172.1319645759043
7.740585984,1.0001681877927182,-172.44694710665456
7.747280384,1.0001537580222888,-172.7617706246589
7.753974784,1.0001308339292336,-173.07637831697048
7.760669696,1.0001006442157907,-173.39059473662869
7.767364096,1.0000650209753668,-173.70436045653696
7.774058496,1.000025847279189,-174.01763772152634
7.780752896,0.999985165312398,-174.33035428463964
7.787447808,0.9999454426624624,-174.64252343966376
7.794142208,0.9999088003557494,-174.9541886698551
7.800836608,0.9998773008254804,-175.2653595279359
7.80753152,0.9998526689882131,-175.57616259892401
7.81422592,0.9998362588307329,-175.8866751538596
7.82092032,0.9998290854030456,-176.19703294507656
7.827615232,0.9998315650714635,-176.50736450768085
7.834309632,0.9998434762730336,-176.81776784261893
7.841004032,0.9998640868942983,-177.12842234962613
7.847698944,0.9998925209238935,-177.43939858022893
7.854393344,0.999926911112798,-177.75077508684555
7.861087744,0.9999655148663522,-178.0626754586574
7.867782656,1.000006216848253,-178.3751107841277
7.874477056,1.0000464895402026,-178.6880932643577
7.881171456,1.0000844228613062,-179.00158347054236
7.887865856,1.0001178485985829,-179.31556400562437
7.894560768,1.0001447165467285,-179.6299637408233
7.901255168,1.0001635449773212,-179.94465139068575
7.907949568,1.0001734617925824,179.7404240323264
7.91464448,1.000173783931366,179.4254699212874
7.92133888,1.0001646098600872,179.110585636396
7.92803328,1.0001462553823137,178.79581710375265
7.934728192,1.0001198099425654,178.48142779195615
7.941422592,1.0000868870798254,178.16741308200554
7.948116992,1.0000491253164145,177.85391378066836
7.954811904,1.0000086463862903,177.54091095109234
7.961506304,0.9999677914151737,177.22848848496426
7.968200704,0.9999288078345101,176.91660720555194
7.974895616,0.9998939569494527,176.60523105029807
7.981590016,0.9998648313421622,176.29429608904832
7.988284416,0.9998434731522229,175.98368587422218
7.994979328,0.999830794358533,175.6733611062793
8.001673728,0.9998277349474765,175.3631057355655
8.008368128,0.9998342401303054,175.0528238704844
8.015062528,0.9998501844176344,174.74241214345668
8.02175744,0.999874459976564,174.43173430884946
8.02845184,0.9999059147765783,174.12067321318415
8.03514624,0.9999426449290271,173.8091512524167
8.041841152,0.9999827684299913,173.4971227310833
8.048535552,1.0000238761027542,173.1845130262423
8.055229952,1.000063851514959,172.87139861127991
8.061924864,1.000100302505439,172.55772392322692
8.068619264,1.0001313059817163,172.24362119332403
8.075313664,1.0001551015055266,171.92913346478326
8.082008576,1.0001705068169708,171.61439753114186
8.088702976,1.0001763118892821,171.2995160145902
8.095397376,1.000172480714828,170.98463038422918
8.102092288,1.00015918619373,170.66985252037958
8.108786688,1.0001370733657844,170.35532380748674
8.115481088,1.0001073495743888,170.04114243167433
8.122175488,1.0000718247595657,169.72743478983185
8.1288704,1.000032290033977,169.41420838472325
8.1355648,0.9999910532224722,169.10155271918245
8.1422592,0.9999503921072387,168.78945328704364
8.148954112,0.999912455419197,168.47788476831224
8.155648512,0.999879624776806,168.16681334197588
8.162342912,0.9998534103046872,167.85616763285742
8.169037824,0.9998354928120008,167.54579345386125
8.175732224,0.9998268711398436,167.2356333417409
8.182426624,0.9998279082583587,166.92550663375332
8.189121536,0.9998385952854036,166.6153245807447
8.195815936,0.9998584433208163,166.30491743019607
8.202510336,0.9998860862489871,165.99421842118997
8.209205248,0.9999204223730745,165.68307796714066
8.215899648,0.9999591534126748,165.37144459236947
8.222594048,1.000000323732674,165.05930064324312
8.229288448,1.0000416422730953,164.746594051379
8.23598336,1.0000806567353462,164.4333324943561
8.24267776,1.0001153711256703,164.1195776617772
8.24937216,1.000143805575667,163.80539284498806
8.256067072,1.0001642085776108,163.49088577815024
8.262761472,1.000175687803779,163.1761561070306
8.269455872,1.0001775202380145,162.86135599989012
8.276150784,1.0001694541340074,162.5466193945123
8.282845184,1.0001520583709023,162.2320242388477
8.289539584,1.0001264358586497,161.91774781900088
8.296234496,1.0000935895196938,161.60386572864147
8.302928896,1.0000558573232465,161.29045797468527
8.309623296,1.0000148838970144,160.9776126000697
8.316318208,0.9999732308826116,160.6653158985836
8.323012608,0.9999332393819953,160.35360364842205
8.329707008,0.9998967972704389,160.04240377301855
8.33640192,0.9998662563202892,159.73165770322908
8.34309632,0.9998433905964861,159.42127507381792
8.34979072,0.9998291384098326,159.11118348583895
8.35648512,0.9998245029499714,158.80121182719552
8.363180032,0.9998297274001279,158.49124506886275
8.369874432,0.9998446455919309,158.18113235054048
8.376568832,0.9998682697066981,157.87077403410348
8.383263744,0.9998991870706078,157.56006198285436
8.389958144,0.9999360986213709,157.24886765128898
8.396652544,0.9999764368677406,156.9371771803735
8.403347456,1.0000182921121403,156.62493005754348
8.410041856,1.0000592988989376,156.31212585948134
8.416736256,1.0000970913929366,155.9987947337425
8.423431168,1.000129573708231,155.6849860362624
8.430125568,1.000155019366424,155.37079604004256
8.436819968,1.0001718142869342,155.05630015300147
8.44351488,1.000179187628517,154.7416575761129
8.45020928,1.0001767797952317,154.42700918748506
8.45690368,1.0001646430176565,154.11244008021188
8.46359808,1.000143282303396,153.79811006276685
8.470292992,1.0001141113134815,153.48415207051002
8.476987392,1.0000787116549004,153.17060014519677
8.483681792,1.0000389395426963,152.85758525737177
8.490376704,0.9999970418498826,152.5451327460249
8.497071104,0.9999553625629061,152.23326641445024
8.503765504,0.9999162742473703,151.92192911785955
8.510460416,0.9998819664823946,151.6111458562272
8.517154816,0.9998541768629347,151.30076312095088
8.523849216,0.9998346644002135,150.9906968189204
8.530544128,0.9998243968411447,150.68084447190213
8.537238528,0.9998239743340385,150.37109747951328
8.543932928,0.999833569305372,150.06128522820333
8.55062784,0.9998523941049429,149.75127030720375
8.55732224,0.9998796152571745,149.44098438403435
8.56401664,0.9999135751308397,149.13027322846716
8.570711552,0.9999525110696778,148.81906866219836
8.577405952,0.9999943164955467,148.50731529933972
8.584100352,1.0000365049928497,148.1950050968933
8.590794752,1.0000766872757083,147.88215035130156
8.597489664,1.0001127981115558,147.5687560578928
8.604184576,1.000142787094585,147.2549428915418
8.610878464,1.0001648641066887,146.94079547643855
8.617573376,1.0001779649518232,146.62639205323418
8.624268288,1.0001811255754385,146.31188425192605
8.630962176,1.0001744774685173,145.99743414750137
8.637657088,1.0001580185811603,145.68313098603784
8.644350976,1.0001330867872067,145.36910605160983
8.651045888,1.0001005614314304,145.05547194952328
8.6577408,1.0000626484976365,144.74234366614644
8.664434688,1.000021370091964,144.42976202825614
8.6711296,0.9999788492246283,144.11776696671436
