freq,mag,phase
6.0,1.0000339669215008,-53.18559917987866
6.006201344,1.0000799361518267,-53.459871449522176
6.0124032,1.0001227110121886,-53.734886774373386
6.018604544,1.0001590581730186,-54.010511489179684
6.0248064,1.000186498993304,-54.286686436171124
6.031007744,1.0002037575084035,-54.563262712955506
6.037209088,1.000209623435765,-54.84008933344835
6.043410944,1.0002040533518395,-55.11698220074058
6.049612288,1.000187126989947,-55.393855987694536
6.055814144,1.000159877543196,-55.67049427244734
6.062015488,1.0001238447959244,-55.94680090156573
6.068216832,1.0000810637400956,-56.22265717133109
6.074418688,1.000033942893964,-56.49797417852794
6.080620032,0.9999850540037679,-56.772749225261904
6.086821888,0.9999372615054761,-57.04696322305678
6.093023232,0.9998933764724288,-57.32060433192899
6.099224576,0.9998553810110075,-57.59378938642096
6.105426432,0.9998262331860623,-57.86658605471227
6.111627776,0.9998068728078303,-58.139195170620326
6.117829632,0.9997988177061323,-58.41165806702079
6.124030976,0.999802088954425,-58.684189616582294
6.13023232,0.9998170476642305,-58.95692616131022
6.136434176,0.9998423999080791,-59.23010061601891
6.14263552,0.9998770294750332,-59.50370882320678
6.148837376,0.9999188438296518,-59.77795245811065
6.15503872,0.9999656279002738,-60.052897135568024
6.161240064,1.0000143384042521,-60.32856548349398
6.16744192,1.000062794043599,-60.605015034571984
6.173643264,1.0001079468167542,-60.882193493909696
6.17984512,1.0001470875860754,-61.160057473896146
6.186046464,1.0001782519501945,-61.43847962878701
6.192247808,1.000199641320246,-61.717341417806054
6.198449664,1.0002099663615847,-61.99654707767563
6.204651008,1.000208679054097,-62.27584444381357
6.210852864,1.0001958913126707,-62.55522551265756
6.217054208,1.0001722380189653,-62.83434653105484
6.223256064,1.0001391424196908,-63.113258832261494
6.229457408,1.0000983528890561,-63.391763207662066
6.235658752,1.0000522851811011,-63.66971171118051
6.241860608,1.0000033784168327,-63.94709256335831
6.248061952,0.9999546700019906,-64.22390598406261
6.254263808,0.9999084889431128,-64.50018616464851
6.260465152,0.9998678289358824,-64.77596530344464
6.266666496,0.9998348057711619,-65.05130882203022
6.272868352,0.999811464658983,-65.32637317296785
6.279069696,0.9997988696249187,-65.60126125978152
6.285271552,0.9997978608585782,-65.87617480597879
6.291472896,0.9998085809031355,-66.15121114225208
6.29767424,0.9998303498346418,-66.42659695293375
6.303876096,0.9998619043704903,-66.70240574344355
6.31007744,0.9999014442942984,-66.97879706107038
6.316279296,0.9999469316940894,-67.25591060151895
6.32248064,0.9999956146944253,-67.53371691606077
6.328681984,1.0000446213367098,-67.8122866884349
6.33488384,1.0000917702372634,-68.09163561173006
6.341085184,1.0001337376412107,-68.37163279929209
6.34728704,1.0001683239013215,-68.65228006602646
6.353488384,1.0001938611379795,-68.93343621689648
6.359689728,1.000208515524101,-69.21497963369693
6.365891584,1.0002117996376925,-69.49666572206722
6.372092928,1.0002031902814827,-69.77846990550995
6.378294784,1.0001834339695788,-70.06014602951032
6.384496128,1.0001534948987878,-70.34159112249642
6.390697472,1.0001151123227094,-70.62266135675269
6.396899328,1.0000705525869764,-70.90324042476843
6.403100672,1.000022173445564,-71.18328233483426
6.409302528,0.9999726648653223,-71.4627216580201
6.415503872,0.9999248137904018,-71.7416216069843
6.421705216,0.9998815740080285,-72.01993899242565
6.427907072,0.9998451425800783,-72.29785033103788
6.434108416,0.9998177177621117,-72.5753692799637
6.440310272,0.9998007593058544,-72.85272622344836
6.446511616,0.9997952322444507,-73.12997573334131
6.45271296,0.9998015955933062,-73.407344097271
6.458914816,0.99981933250474,-73.68495931116739
6.46511616,0.9998474128394025,-73.96298694564057
6.471318016,0.9998842563352102,-74.24156613612112
6.47751936,0.9999282534381602,-74.5207514956335
6.483720704,0.9999761368949257,-74.80064060357489
6.48992256,1.000025871637501,-75.08131591790723
6.496123904,1.0000742633827808,-75.36275800442698
6.50232576,1.0001187911450344,-75.64495053354622
6.508527104,1.0001567416930857,-75.9277542650386
6.514728448,1.0001861664687168,-76.21112987898333
6.520930304,1.000205281024438,-76.49493925995327
6.527131648,1.0002131865700297,-76.77901255878552
6.533333504,1.000209009136554,-77.0632207097957
6.539534848,1.0001933761650572,-77.34735237559693
6.545736192,1.0001670323117853,-77.63130456347047
6.551938048,1.0001315802313406,-77.9149293992297
6.558139392,1.0000886659541595,-78.19813410882479
6.564341248,1.0000412326093224,-78.48075761572737
6.570542592,0.9999914482742143,-78.76280742807741
6.576743936,0.9999422952362353,-79.04426360953866
6.582945792,0.9998966905239665,-79.32521250455814
6.589147136,0.9998570575027081,-79.60565435081206
6.595348992,0.9998257015255511,-79.88566346680119
6.601550336,0.9998045127875004,-80.16539729501365
6.607752192,0.9997942911986095,-80.44503039116329
6.613953536,0.9997960687163794,-80.72469732435286
6.62015488,0.9998095730074055,-81.00453997996496
6.626356736,0.9998339765313848,-81.28472372498516
6.63255808,0.9998680268213141,-81.56541505124478
6.638759936,0.9999098155798791,-81.84673027043716
6.64496128,0.9999567491510699,-82.12871487577416
6.651162624,1.000006386624733,-82.41148814739306
6.65736448,1.000055986763671,-82.69497600586789
6.663565824,1.0001026183276163,-82.97924019835732
6.66976768,1.000143791455589,-83.26420046844616
6.675969024,1.0001770807363728,-83.54976296994685
6.682170368,1.0002004171153573,-83.83578896158535
6.688372224,1.0002127945620778,-84.12215649366617
6.694573568,1.0002133676109966,-84.40869499424909
6.700775424,1.0002021000249435,-84.69525157171715
6.706976768,1.0001796697252427,-84.98167856685451
6.713178112,1.0001472490211378,-85.26777917088307
6.719379968,1.0001066948789425,-85.55350325700806
6.725581312,1.0000604197839538,-85.8387221501122
6.731783168,1.0000108502600096,-86.12335419801322
6.737984512,0.9999608103033365,-86.4074156574472
6.744185856,0.999913062080062,-86.69086709375199
6.750387712,0.9998706047953897,-86.97378183672619
6.756589056,0.9998355104000853,-87.25629830812214
6.762790912,0.9998099630796151,-87.5384667968378
6.768992256,0.9997952727189022,-87.82042094960025
6.7751936,0.9997922836851388,-88.10235366040595
6.781395456,0.9998012586275024,-88.38444265403615
6.7875968,0.9998216587633291,-88.66678976301233
6.793798656,0.9998523613432267,-88.94957267348997
6.8,0.9998916592071174,-89.23293262890554
6.806201344,0.9999371280110987,-89.51696073160282
6.8124032,0.9999865565398677,-89.80172447123677
6.818604544,1.0000368033538964,-90.08726031961382
6.8248064,1.0000852694957505,-90.37354361563727
6.831007744,1.000129168994991,-90.66055379916473
6.837209088,1.0001659329631514,-90.948225272682
6.843410944,1.000193705598034,-91.2363940304209
6.849612288,1.0002106157252109,-91.52499200983603
6.855814144,1.0002159295519941,-91.81379187667297
6.862015488,1.0002092054723213,-92.10268604273799
6.868216832,1.0001910234165077,-92.39146913915877
6.874418688,1.0001620810686447,-92.68009773515192
6.880620032,1.0001242497344434,-92.96826117165561
6.886821888,1.0000794749885955,-93.25601385425831
6.893023232,1.000030536228414,-93.54316888289395
6.899224576,0.9999800271926113,-93.82974124133703
6.905426432,0.9999307648849693,-94.11572695876184
6.911627776,0.9998856362627014,-94.4011278563413
6.917829632,0.9998470465524006,-94.68606523620598
6.924030976,0.9998172786134341,-94.97058856246608
6.93023232,0.9997980120850358,-95.25487998942025
6.936434176,0.9997903730347442,-95.53907339012281
6.94263552,0.9997946023341078,-95.82334969783103
6.948837376,0.9998106026628215,-96.10780269167098
6.95503872,0.9998376372100428,-96.39267278101019
6.961240064,0.9998738724469283,-96.67803415543334
6.96744192,0.9999176352241351,-96.96405379562908
6.973643264,0.9999660779868125,-97.25077791356907
6.97984512,1.000016726409767,-97.53822794777248
6.986046464,1.0000666507284666,-97.82648578073797
6.992247808,1.0001129773384614,-98.11550245283651
6.998449664,1.0001531956318845,-98.4051930133245
7.004651008,1.0001850394657799,-98.69542049237045
7.010852864,1.000206525010068,-98.98612720692554
7.017054208,1.0002165958707845,-99.27714609410744
7.023256064,1.00021475115118,-99.5682950922366
7.029457408,1.0002009336166258,-99.8594015728035
7.035658752,1.000175846248202,-100.15034351451487
7.041860608,1.0001411103182436,-100.44097746405114
7.048061952,1.0000985034393568,-100.73112968839489
7.054263808,1.0000506019681734,-101.02078863542732
7.060465152,0.9999999734938517,-101.30979952761919
7.066666496,0.9999495120312245,-101.59823011857323
7.072868352,0.999902134586972,-101.88609499320262
7.079069696,0.9998602761621833,-102.17342179550047
7.085271552,0.9998265585916157,-102.46026541604327
7.091472896,0.999802615757745,-102.74684045463637
7.09767424,0.9997900753730199,-103.03324848000186
7.103876096,0.9997897019086156,-103.31965314712903
7.11007744,0.999801191084226,-103.6062117496884
7.116279296,0.9998241236328278,-103.89302803433645
7.12248064,0.9998570710055236,-104.18040104701124
7.128681984,0.9998984037325774,-104.46830352246745
7.13488384,0.9999457241626298,-104.75692026449084
7.141085184,0.9999961573923383,-105.04627040817613
7.14728704,1.000047038555329,-105.3363671272465
7.153488384,1.0000955176950401,-105.62728923390232
7.159689728,1.00013879114376,-105.91889851525164
7.165891584,1.0001745841683742,-106.21112524765589
7.172092928,1.0002004840916008,-106.50386880665252
7.178294784,1.000215494413671,-106.79695290520581
7.184496128,1.0002184088463122,-107.09025689773911
7.190697472,1.0002092389784785,-107.38357279051635
7.196899328,1.000188462441026,-107.67679021848957
7.203100672,1.0001572319512093,-107.96972569785332
7.209302528,1.000117336612164,-108.26224036629876
7.215503872,1.000070808902566,-108.55427576404246
7.221705216,1.0000205859354672,-108.84572576424726
7.227907072,0.9999693202450105,-109.13652354435217
7.234108416,0.9999199730694797,-109.42673540121672
7.240310272,0.9998750987302967,-109.71638576283848
7.246511616,0.999837647289815,-110.00553701314449
7.25271296,0.9998093812706355,-110.2943265032872
7.258914816,0.9997919724587723,-110.58287790957026
7.26511616,0.9997864713411557,-110.87135672921136
7.271318016,0.9997932900325743,-111.15992803484242
7.27751936,0.9998117972112973,-111.44871699760158
7.283720704,0.9998411394967979,-111.73794018702289
7.28992256,0.9998796935452032,-112.02772240735885
7.296123904,0.9999252038393712,-112.31810476642995
7.30232576,0.9999750497009309,-112.60924741670388
7.308527104,1.0000264573896491,-112.90117967891788
7.314728448,1.0000767075205308,-113.19385327864936
7.320930304,1.0001227807209307,-113.48729732611943
7.327131648,1.000162113534833,-113.78136543963492
7.333333504,1.0001925298996683,-114.07605461343424
7.339534848,1.0002122870695977,-114.3710721040923
7.345736192,1.0002202244421494,-114.66643425340708
7.351938048,1.0002158820468605,-114.96182390738312
7.358139392,1.0001996111831066,-115.25720525529407
7.364341248,1.0001722120263883,-115.55237607663167
7.370542592,1.0001352283097535,-115.84716737080376
7.376743936,1.000090841445424,-116.14145130656829
7.382945792,1.0000413929241816,-116.43522875415017
7.389147136,0.9999897881539758,-116.72834185703323
7.395348992,0.9999388889060888,-117.02082626676241
7.401550336,0.999891529595775,-117.31271726991946
7.407752192,0.9998504794961541,-117.60409725419304
7.413953536,0.9998179174150855,-117.89502932860802
7.42015488,0.9997957608714102,-118.18567380569719
7.426356736,0.9997852876689403,-118.47613656047223
7.43255808,0.999787025116222,-118.76663834374362
7.438759936,0.9998009891931683,-119.05732427585244
7.44496128,0.9998263506762954,-119.34836640941872
7.451162624,0.9998615307619546,-119.63989741180765
7.45736448,0.9999047893921338,-119.93200353927335
7.463565824,0.9999535469506411,-120.22482987066238
7.46976768,1.0000052178382177,-120.51843138371615
7.475969024,1.0000566524399666,-120.81279668756763
7.482170368,1.000105178003865,-121.10791756764164
7.488372224,1.0001478960748584,-121.4037288778639
7.494573568,1.0001824271335287,-121.70017392943527
7.500775424,1.000206939089739,-121.99705786094975
7.506976768,1.0002198361083134,-122.29431835137385
7.513178112,1.0002206519359527,-122.5917069213822
7.519379968,1.000209127379545,-122.88910288541068
7.525581312,1.0001859698721545,-123.1863560976549
7.531783168,1.000152411762829,-123.48326075331913
7.537984512,1.0001104549352673,-123.7797373064446
7.544185856,1.00006238238066,-124.07568752871148
7.550387712,1.0000109704466813,-124.37101855015274
7.556589056,0.9999589637304017,-124.66570041874063
7.562790912,0.9999094850591798,-124.95976756143882
7.568992256,0.999865073206885,-125.25324967408953
7.5751936,0.9998284370455748,-125.54625081817235
7.581395456,0.999801686607589,-125.83888550940499
7.5875968,0.9997861159555894,-126.13131430309653
7.593798656,0.9997828192341864,-126.42366465832144
7.6,0.9997918356794655,-126.71616093088399
7.606201344,0.9998127432052519,-127.00888400693046
7.6124032,0.9998443708894765,-127.30206520934097
7.618604544,0.9998849437575171,-127.5957908253646
7.6248064,0.9999321547842669,-127.8902133634056
7.631007744,0.9999833502261114,-128.18537587066828
7.637209088,1.0000355877538643,-128.48128615262033
7.643410944,1.0000861159473755,-128.7779907813913
7.649612288,1.0001318860288988,-129.07540918186388
7.655814144,1.0001703443616152,-129.37347966200744
7.662015488,1.0001994197557396,-129.67209308568528
7.668216832,1.0002175144088297,-129.97105586585627
7.674418688,1.0002233685064328,-130.2702728914204
7.680620032,1.0002169011343751,-130.56959550329998
7.686821888,1.000198261475352,-130.86874809148875
7.693023232,1.0001686043321356,-131.1676986943497
7.699224576,1.0001295199268485,-131.46623166539288
7.705426432,1.000083279866866,-131.7642551967969
7.711627776,1.000032491541679,-132.0616370752052
7.717829632,0.9999799252356792,-132.358397142539
7.724030976,0.9999286374461703,-132.65451382556802
7.73023232,0.9998814127415707,-132.9500458701457
7.736434176,0.9998409774487954,-133.24503884031657
7.74263552,0.999809631547779,-133.53958268681242
7.748837376,0.9997890508246224,-133.83383388621064
7.75503872,0.9997805841604683,-134.12796346992693
7.761240064,0.9997845103087274,-134.4221087878915
7.76744192,0.999800731144653,-134.71647434325305
7.773643264,0.9998282957832948,-135.01121642686863
7.77984512,0.9998657145110909,-135.30642499492544
7.786046464,0.9999108312779607,-135.60228156131234
7.792247808,0.9999611076071734,-135.89886915927528
7.798449664,1.0000136850062473,-136.19623566704797
7.804651008,1.0000657722795947,-136.49435508508452
7.810852864,1.000114212464198,-136.79324658182662
7.817054208,1.00015635284871,-137.09278722574768
7.823256064,1.0001899936838166,-137.39296257283942
7.829457408,1.0002129951116403,-137.69353358470053
7.835658752,1.0002240528664879,-137.9944449305291
7.841860608,1.0002227054549166,-138.29545388323578
7.848061952,1.0002089313571227,-138.5964180422806
7.854263808,1.0001834672748773,-138.89720397702362
7.860465152,1.000147840763411,-139.19764233305906
7.866666496,1.0001039801728655,-139.49756218275922
7.872868352,1.000054289462703,-139.7969281301908
7.879069696,1.0000016855544023,-140.09566030124125
7.885271552,0.9999489804139865,-140.39370715482053
7.891472896,0.9998993304023253,-140.6911499432059
7.89767424,0.9998554271751249,-140.9879816126436
7.903876096,0.9998197154473764,-141.28432944574126
7.91007744,0.9997943045785417,-141.58031785265842
7.916279296,0.9997804728067814,-141.87611611224273
7.92248064,0.9997792407151088,-142.17184313025655
7.928681984,0.9997905108478169,-142.46770325646347
7.93488384,0.9998136571092804,-142.7638617577582
7.941085184,0.9998474707318928,-143.06048252805843
7.94728704,0.9998899660645986,-143.3576866750434
7.953488384,0.9999388484940103,-143.65554458999324
7.959689728,0.999991315226857,-143.95418317118515
7.965891584,1.0000443781144284,-144.25357586290548
7.972092928,1.000095159254402,-144.5537549828231
7.978294784,1.000140704563659,-144.85465682731422
7.984496128,1.0001784640505686,-145.15618023010705
7.990697472,1.0002062703686705,-145.45819826833147
7.996899328,1.0002226825420868,-145.76060047665808
8.003100672,1.0002266035618532,-146.06319028491114
8.009302528,1.00021791973679,-146.3657923760491
8.015503872,1.000197080225227,-146.66825127401583
8.021705216,1.0001652811000685,-146.9703962124972
8.027907072,1.0001242259639187,-147.27214909494464
8.034108416,1.0000762115353272,-147.573290586827
8.040310272,1.0000240188102973,-147.8738164548239
8.046511616,0.9999706018991659,-148.17370919521073
8.05271296,0.9999188748434524,-148.47289842463107
8.058914816,0.9998717618729194,-148.77149117019727
8.06511616,0.9998319491756927,-149.06951766352532
8.071318016,0.9998016258299477,-149.36713449207517
8.07751936,0.9997826617401979,-149.66445128999965
8.083720704,0.9997760262437825,-149.9616823408101
8.08992256,0.9997820944648245,-150.25893608394657
8.096123904,0.9998004909507512,-150.55640080459122
8.10232576,0.999830284186161,-150.8542804069178
8.108527104,0.999869671687585,-151.15264472262626
8.114728448,0.9999166134131945,-151.45167221741224
8.120930304,0.9999683527314576,-151.75143247101536
8.127131648,1.0000220112709224,-152.0519707322717
8.133333504,1.0000746086115773,-152.3532531961766
8.139534848,1.00012314135407,-152.65529559710822
8.145736192,1.0001648124852323,-152.95801979591522
8.151938048,1.0001973045186592,-153.26130090900668
8.158139392,1.0002188783821873,-153.56500626320874
8.164341248,1.0002282588361677,-153.8689685703547
8.170542592,1.000224827939558,-154.17303083333906
8.176743936,1.000208870849007,-154.47700837544764
8.182945792,1.0001813531375874,-154.78072892360308
8.189147136,1.0001435587148109,-155.08406877399057
8.195348992,1.0000978044275939,-155.3868821413634
8.201550336,1.0000465855788323,-155.6890901038296
8.207752192,0.9999928206072699,-155.99059415155108
8.213953536,0.9999395578313915,-156.2914231617071
8.22015488,0.9998897086689957,-156.5916302262523
8.226356736,0.9998460617323763,-156.8912316685576
8.23255808,0.9998112359945533,-157.19034361442738
8.238759936,0.9997870478352855,-157.48909773713086
8.24496128,0.9997749286768688,-157.7876391667533
8.251162624,0.9997756098915662,-158.08614544907843
8.25736448,0.9997889491992382,-158.38481781333076
8.263565824,0.9998143141238683,-158.6837808289732
8.26976768,0.9998502463350399,-158.98321377902596
8.275969024,0.999894701811996,-159.28323241452034
8.282170368,0.999945206056465,-159.58395942388574
8.288372224,0.9999988601895257,-159.88544517188302
8.294573568,1.0000527165394393,-160.18770408446343
8.300775424,1.0001037742060495,-160.49073314575588
8.306976768,1.0001491956767232,-160.79447493014953
8.313178112,1.0001861308466153,-161.09881084190928
8.319379968,1.0002128713461325,-161.40363799768986
8.325581312,1.0002276093127798,-161.70878989319482
8.331783168,1.0002297062844905,-162.01409478878412
8.337984512,1.0002189822630343,-162.3194111069502
8.344185856,1.0001959240811573,-162.62449956582347
8.350387712,1.0001619448393495,-162.92927927596963
8.356589056,1.0001188889275907,-163.23357928464603
8.362790912,1.0000692356226322,-163.53724706594696
8.368992256,1.0000157385587833,-163.84029425779113
8.3751936,0.9999614057619151,-164.14265325204184
8.381395456,0.9999091886895392,-164.44427169157763
8.3875968,0.999862139236399,-164.74527597370786
8.393798656,0.9998229411237872,-165.04574526432694
8.4,0.9997937302339155,-165.34578738597926
8.406201344,0.9997762423044161,-165.6455372247884
8.4124032,0.9997713631209504,-165.94516480239218
8.418604544,0.9997794380084761,-166.24487980151218
8.4248064,0.99979990609865,-166.5448042022754
8.431007744,0.9998318595343411,-166.84517201049192
8.437209088,0.9998733972361684,-167.14602899719878
8.443410944,0.999922024409125,-167.44756503038982
8.449612288,0.9999752990131786,-167.74983297460852
8.455814144,1.0000299125045822,-168.0528814607677
8.462015488,1.0000830534259657,-168.3567148351234
8.468216832,1.0001315943482851,-168.66125811444167
8.474418688,1.0001728962990712,-168.96646693669842
