freq,mag,phase
6.0,0.9994581069314488,20.37396903120237
6.008948736,0.9996082036821533,20.132882086471504
6.01789696,0.9997783376120059,19.889632751693213
6.026845696,0.9999599685134335,19.644032823984308
6.035794432,1.0001435646506955,19.395919766634087
6.044742656,1.000319368909206,19.145387326519995
6.053691392,1.0004780598033827,18.892627333155247
6.062639616,1.000611101411585,18.63784678992836
6.071588352,1.0007115409957212,18.381494339215287
6.080537088,1.000774007580311,18.124037722873904
6.089485312,1.00079516409691,17.865903647623476
6.098434048,1.0007738692551624,17.60778942533986
6.107382784,1.0007112018823674,17.350152493791306
6.116331008,1.0006103481625552,17.09355824517576
6.125279744,1.0004766557089069,16.838429981643284
6.134227968,1.0003171078167614,16.585250571768757
6.143176704,1.0001403342762223,16.33426705398414
6.15212544,0.9999553830193993,16.0855872322965
6.161073664,0.9997722452548943,15.839349847357962
6.1700224,0.9996004243384436,15.595395379993326
6.178971136,0.9994493631891762,15.353563019648622
6.18791936,0.9993267665317748,15.113465040371599
6.196868096,0.999239415635107,14.874802176549894
6.20581632,0.9991919775601936,14.636918828886484
6.214765056,0.9991868247627548,14.399404973183852
6.223713792,0.999224469278953,14.161597744478284
6.232662016,0.9993028373781183,13.923015323049475
6.241610752,0.9994178898941745,13.683067369922512
6.250559488,0.9995636315964138,13.441368531504057
6.259507712,0.9997322144093304,13.197524754059044
6.268456448,0.9999147423727335,12.951345548248456
6.277404672,1.0001017151339227,12.702632569612188
6.286353408,1.00028307670034,12.451428036302087
6.295302144,1.0004491789091297,12.197889551186556
6.304250368,1.0005913416627934,11.942273340885428
6.313199104,1.0007020315044461,11.684895207743498
6.32214784,1.000775213076039,11.426256372099239
6.331096064,1.0008070848262585,11.166911033680712
6.3400448,1.0007958153639196,10.907326199053198
6.348993536,1.0007420927672608,10.64813420736458
6.35794176,1.000648486719378,10.389863048907307
6.366890496,1.0005202485824232,10.13302670610097
6.37583872,1.0003637894567445,9.878003757698725
6.384787456,1.0001874525270844,9.625158356263787
6.393736192,1.000000652415887,9.37466658613546
6.402684416,0.9998131914436322,9.12663437905624
6.411633152,0.9996349720697363,8.8809371979961
6.420581888,0.9994754927157509,8.637451279722521
6.429530112,0.9993432037386389,8.395872694417903
6.438478848,0.9992453028755071,8.155800034066107
6.447427072,0.9991868639247677,7.916706364490745
6.456375808,0.9991709993691144,7.67806337204163
6.465324544,0.9991988791715596,7.439320876493491
6.474272768,0.9992688158852743,7.199867413397736
6.483221504,0.9993771378484967,6.959200479745419
6.49217024,0.9995183769681435,6.716858995492701
6.501118464,0.9996849057033501,6.472365791743647
6.5100672,0.9998678651159421,6.225550710945039
6.519015424,1.0000576968841148,5.976180754253617
6.52796416,1.0002444391361116,5.724285593826874
6.536912896,1.0004179691767483,5.469968587226226
6.54586112,1.0005691718296346,5.213407706879175
6.554809856,1.0006901516492166,4.955018085556027
6.563758592,1.000774301709197,4.695235600039761
6.572706816,1.000817144669425,4.434530679721636
6.581655552,1.0008164431930087,4.173511240460337
6.590603776,1.0007722329599327,3.9127010841712258
6.599552512,1.0006866098137994,3.652698000940336
6.608501248,1.000564111059792,3.394053614160601
6.617449472,1.000411364791046,3.137138456810926
6.626398208,1.0002361728456735,2.8823751197793075
6.635346944,1.0000478760286633,2.62997153524392
6.644295168,0.9998563773516972,2.3800196438829886
6.653243904,0.9996718982072823,2.1325069017585525
6.66219264,0.9995041934743429,1.8873309452287783
6.671140864,0.9993622681332608,1.6441390891945578
6.6800896,0.99925344053895,1.402568573594219
6.689037824,0.9991837953299114,1.1621671796937667
6.69798656,0.9991568281774653,0.9223332691344588
6.706935296,0.9991743189861072,0.6825246527241313
6.71588352,0.9992351106813675,0.44220119269088803
6.724832256,0.9993363537150414,0.20070191012648791
6.733780992,0.9994723556232531,-0.04242261481027915
6.742729216,0.9996362452782211,-0.28754961965240466
6.751677952,0.9998191242982638,-0.5350554283880226
6.760626176,1.0000116203700091,-0.785078293939905
6.769574912,1.0002031427950024,-1.0377128207949753
6.778523648,1.0003838966206111,-1.292872179439452
6.787471872,1.0005442247130345,-1.5503106509429296
6.796420608,1.0006755971146208,-1.8098064142110928
6.805369344,1.0007709730080836,-2.0707799164713223
6.814317568,1.0008252184505355,-2.3328333437147286
6.823266304,1.0008356008061856,-2.595381144932425
6.832214528,1.0008014067849167,-2.8578451424571836
6.841163264,1.0007242705197776,-3.119618023434381
6.850112,1.0006084963744932,-3.3801521329983535
6.859060224,1.0004597675542288,-3.6390066687509623
6.86800896,1.0002863030716975,-3.8957757558862127
6.876957696,1.0000970695418867,-4.150169467320828
6.88590592,0.9999020001154316,-4.402094908777725
6.894854656,0.9997114569423375,-4.651515973540742
6.90380288,0.9995356571090322,-4.898533192562665
6.912751616,0.999383772036418,-5.1434247920266305
6.921700352,0.9992640995144738,-5.386566638955493
6.930648576,0.9991828414319223,-5.628433302921219
6.939597312,0.9991444539499003,-5.869508612539241
6.948546048,0.9991509686510629,-6.110436274579718
6.957494272,0.9992021541045505,-6.351797596600369
6.966443008,0.9992954075525876,-6.594160665895142
6.975391744,0.9994258180827048,-6.838028868444359
6.984339968,0.9995862993633206,-7.083942858538998
6.993288704,0.999768689201087,-7.332136004540526
7.002236928,0.9999631698626145,-7.58287952762542
7.011185664,1.0001594640854863,-7.8362751127344294
7.0201344,1.0003472925896715,-8.092296967381762
7.029082624,1.0005165488344283,-8.350692456388876
7.03803136,1.0006583830373577,-8.61124480433146
7.046980096,1.0007652393393534,-8.873471691231392
7.05592832,1.0008312609073937,-9.136936072126508
7.064877056,1.0008532245203872,-9.401018862901884
7.07382528,1.000829635766554,-9.665144831461625
7.082774016,1.0007616687560343,-9.928745556776926
7.091722752,1.0006528682230018,-10.191236959397042
7.100670976,1.0005092529124435,-10.452105810156864
7.109619712,1.0003380013342065,-10.710976455398146
7.118568448,1.000148204938184,-10.967473762489377
7.127516672,0.9999500598868235,-11.221442313207971
7.136465408,0.9997538426898224,-11.472888570304173
7.145413632,0.9995699392553263,-11.721836771652024
7.154362368,0.9994083525214783,-11.96855609913009
7.163311104,0.9992773444145666,-12.213354904105742
7.172259328,0.999184286818394,-12.456768455412622
7.181208064,0.999133845024378,-12.6992010529023
7.1901568,0.999128983248653,-12.941345004260556
7.199105024,0.999169927369331,-13.183782784797724
7.20805376,0.9992545263581858,-13.427086627589683
7.217001984,0.9993784406706094,-13.671793997150791
7.22595072,0.9995351536174374,-13.918486446637456
7.234899456,0.9997163808022476,-14.167434291564277
7.24384768,0.9999123916630891,-14.418943686268468
7.252796416,1.0001129896893242,-14.67313852731224
7.261745152,1.0003077490121561,-14.930001016812922
7.270693376,1.0004859098200463,-15.189401445027661
7.279642112,1.0006383125192428,-15.45107384072665
7.288590848,1.0007567459121085,-15.714556374409366
7.297539072,1.0008351685023975,-15.979438624092813
7.306487808,1.0008688366882788,-16.245135240715385
7.315436032,1.0008565338226134,-16.510992640239735
7.324384768,1.0007984978052764,-16.77646352697415
7.333333504,1.0006977983773022,-17.040981208132436
7.342281728,1.0005594539325693,-17.30395503978269
7.351230464,1.0003911778861991,-17.564949045194325
7.3601792,1.0002014700991888,-17.823650133362605
7.369127424,1.0000006085569009,-18.07981189330041
7.37807616,0.9997990083899567,-18.33334360450654
7.387024384,0.9996072670285896,-18.58431798773962
7.39597312,0.9994357858526796,-18.83297101920756
7.404921856,0.9992936549868118,-19.07955957350546
7.41387008,0.9991884595048117,-19.32455747099624
7.422818816,0.999125532795642,-19.568473039210396
7.431767552,0.999108713732103,-19.811920027425153
7.440715776,0.9991387892091521,-20.05551809950581
7.449664512,0.9992140749398146,-20.299818530716674
7.458612736,0.999330756649116,-20.54550909735295
7.467561472,0.999482958708805,-20.793004958474473
7.476510208,0.9996622718351563,-21.042767088982476
7.485458432,0.9998593615052584,-21.295050050433332
7.494407168,1.000063941520812,-21.550097017730902
7.503355904,1.0002650571532794,-21.807833165224924
7.512304128,1.0004520661305918,-22.068277982079717
7.521252864,1.000615137872001,-22.33106185366732
7.530201088,1.000745629645942,-22.595854507432954
7.539149824,1.0008363330933858,-22.8621670531881
7.54809856,1.000882784263828,-23.12947405546355
7.557046784,1.0008821933674166,-23.397165044904934
7.56599552,1.0008346893796485,-23.664556350416643
7.574944256,1.0007424155114246,-23.931127364854238
7.58389248,1.00061058386729,-24.196276951410137
7.592841216,1.000445796091021,-24.459498865910152
7.601789952,1.0002568663931504,-24.720485092851032
7.610738176,1.0000537872263393,-24.97889671539271
7.619686912,0.9998472076105255,-25.234676536092614
7.628635136,0.9996479758806964,-25.48779747372555
7.637583872,0.9994666949482446,-25.73844410166692
7.646532608,0.999313089099615,-25.986913639848385
7.655480832,0.9991952154806995,-26.233667516596334
7.664429568,0.9991196229275567,-26.479168547420038
7.673378304,0.9990901056775062,-26.72402211642252
7.682326528,0.9991085939432418,-26.96885530910651
7.691275264,0.9991739384316334,-27.214264792761874
7.700223488,0.9992827150054175,-27.460925178740126
7.709172224,0.9994294429530418,-27.70932546829087
7.71812096,0.9996063164631451,-27.95989578587644
7.727069184,0.9998039296839061,-28.213061149387304
7.73601792,1.0000117940069502,-28.468940138085067
7.744966656,1.0002191765714012,-28.727645869141732
7.75391488,1.000414964977477,-28.989089848256913
7.762863616,1.0005886771393635,-29.253045776232383
7.77181184,1.0007311870289606,-29.519131488963772
7.780760576,1.0008348879861366,-29.786961004094092
7.789709312,1.000894381125345,-30.055904589714366
7.798657536,1.0009062791842496,-30.325401043913796
7.807606272,1.000869945910996,-30.594829347754423
7.816555008,1.0007872195401204,-30.86350716319722
7.825503232,1.0006624648095255,-31.130885743914348
7.834451968,1.000502025847505,-31.396463377922192
7.843400192,1.000314541318385,-31.659764199471386
7.852348928,1.0001096771270108,-31.920565907177686
7.861297664,0.9998983711663816,-32.17866770484408
7.870245888,0.9996919296448532,-32.43403557238794
7.879194624,0.9995008591035366,-32.68684363210209
7.88814336,0.9993357036378561,-32.93735391830481
7.897091584,0.9992052118318561,-33.185909071258266
7.90604032,0.999116189566299,-33.43309306426618
7.914989056,0.999073640659415,-33.67943603649979
7.92393728,0.9990796181454653,-33.925595890393396
7.932886016,0.99913419472044,-34.17222669190085
7.94183424,0.9992343893817387,-34.41991534724341
7.950782976,0.9993749914109248,-34.66925553254098
7.959731712,0.9995485180485417,-34.92076893265196
7.968679936,0.9997459444684227,-35.17478576916087
7.977628672,0.9999568426378104,-35.43156427567601
7.986577408,1.0001700712958776,-35.69122129479046
7.995525632,1.0003742552422445,-35.9536945946116
8.004474368,1.0005587520416044,-36.21884816383904
8.013422592,1.0007133992033685,-36.48631111430401
8.022371328,1.000830566810579,-36.75561960187285
8.031320064,1.0009036256110253,-37.02624780326255
8.040268288,1.000928565103244,-37.29762889959027
8.049217024,1.000904278239062,-37.56907321117176
8.05816576,1.0008317483667986,-37.83997479519059
8.067113984,1.000714872771445,-38.10965563672131
8.07606272,1.0005596296628991,-38.37763290667082
8.085010944,1.0003742835813394,-38.64337874599808
8.09395968,1.0001684296010511,-38.906663374359844
8.102908416,0.9999529796305632,-39.16720325608549
8.11185664,0.9997393265795979,-39.42494131525148
8.120805376,0.999538782310268,-39.680006899752506
8.129754112,0.9993619613869541,-39.93261581646648
8.138702336,0.9992183973477663,-40.1831544327799
8.147651072,0.9991155639696042,-40.432111087384435
8.156599808,0.9990592042469941,-40.68008246351818
8.165548032,0.9990521569057114,-40.927664130743224
8.174496768,0.9990950564235745,-41.17554147721937
8.183444992,0.9991856470658705,-41.42437824924514
8.192393728,0.9993192307593693,-41.67474644790414
8.201342464,0.9994888325984497,-41.92718802688279
8.210290688,0.9996854306365653,-42.182136239601924
8.219239424,0.9998985218239694,-42.4398451119045
8.22818816,1.0001172486986383,-42.7004912345645
8.237136384,1.00032972889501,-42.96405015787408
8.24608512,1.0005248283527066,-43.23037647969647
8.255033344,1.0006921110942213,-43.49919846947954
8.26398208,1.000822909514092,-43.77003678438828
8.272930816,1.000910000113625,-44.04242403541106
8.28187904,1.0009489537798837,-44.31569368458015
8.290827776,1.0009373836090987,-44.58923869431104
8.299776512,1.0008759856351512,-44.86234436788878
8.308724736,1.000767914055487,-45.13444432924929
8.317673472,1.0006186894537719,-45.40488758360697
8.326621696,1.0004361413460898,-45.67321978932632
8.335570432,1.0002298285279092,-45.93906724031615
8.344519168,1.000010866754731,-46.20213729738125
8.353467392,0.9997905268048832,-46.46239262546246
8.362416128,0.9995804836057198,-46.719843395206674
8.371364864,0.9993919891024938,-46.974679366962654
8.380313088,0.9992351208496194,-47.22730174852254
8.389261824,0.9991180802929851,-47.47818184646579
8.398210048,0.9990472187741407,-47.72786357044145
8.407158784,0.9990264794456264,-47.97697233856627
8.41610752,0.9990569625344997,-48.22621704141105
8.425055744,0.9991369825663097,-48.47625767938329
8.43400448,0.9992627185334251,-48.727701330198066
8.442953216,0.9994272608249777,-48.98113510336042
8.45190144,0.9996221754249645,-49.237036168019024
8.460850176,0.9998371256866179,-49.49571245726318
8.469798912,1.000060885432417,-49.757348888598955
8.478747136,1.0002813049899262,-50.022018634991824
8.487695872,1.0004868575738304,-50.289596434550525
8.496644096,1.0006670210420179,-50.55975817422153
8.505592832,1.0008117707811188,-50.83217160460819
8.514541568,1.0009135024975264,-51.10630437422132
8.523489792,1.0009670469440812,-51.38151720309545
8.532438528,1.0009689632578378,-51.65719582554307
8.541387264,1.0009197430165997,-51.93264297089976
8.550335488,1.0008212719696257,-52.207151379274194
8.559284224,1.000678970572891,-52.48019458059235
8.568232448,1.0005001834796132,-52.751176740889726
8.577181184,1.0002944088895973,-53.01968858465557
8.58612992,1.0000721370705634,-53.28543442965312
8.595078144,0.9998455895798201,-53.548298429095816
8.60402688,0.9996263808758193,-53.808254167128766
8.612975616,0.9994262486421194,-54.065491670256435
8.621924352,0.9992557101741406,-54.32032102479778
8.630872064,0.9991240412232806,-54.573209273618
8.6398208,0.999038040334886,-54.82472150530434
8.648769536,0.9990026013686177,-55.075462095877754
8.657718272,0.9990197256332172,-55.326166097500824
8.666667008,0.9990884092506201,-55.57746833748038
8.67561472,0.9992053081945811,-55.83007894481885
8.684563456,0.9993639393772765,-56.084593486980886
8.693512192,0.9995562592039829,-56.341493151483164
8.702460928,0.9997722900453766,-56.60113851247758
8.711409664,1.0000003518809957,-56.86384801648615
8.7203584,1.0002285094972434,-57.12960108468187
8.729306112,1.0004447857169696,-57.39840062164645
8.738254848,1.0006375629542268,-57.669988829054724
8.747203584,1.000796676244114,-57.943975056107824
8.75615232,1.0009136777652394,-58.21988173248198
8.765101056,1.0009824290706661,-58.49707623400827
8.774048768,1.000999028618668,-58.77491905033055
8.782997504,1.0009626431944096,-59.052733337666126
8.79194624,1.000874908993216,-59.3298161406233
8.800894976,1.000740662088052,-59.605463289986254
8.809843712,1.0005665304245996,-59.87920573140014
8.818792448,1.0003618805557,-60.15052374899664
8.82774016,1.0001374362045485,-60.41903624207517
8.836688896,0.9999048783937601,-60.684636967146304
8.845637632,0.9996766659277027,-60.94721472069732
8.854586368,0.9994648125656442,-61.206943539261275
8.863535104,0.9992804991194486,-61.46412233296141
8.872482816,0.9991336525695512,-61.71918320939018
8.881431552,0.9990320884909641,-61.97263850586314
8.890380288,0.9989811662161034,-62.22512440196568
8.899329024,0.9989838996508124,-62.477367330421814
8.90827776,0.9990400610256771,-62.730051536725284
8.917225472,0.9991469005931323,-62.98390583955996
8.926174208,0.9992988721482141,-63.239489508592655
8.935122944,0.9994877876881844,-63.497446465560024
8.94407168,0.9997039768908117,-63.758138545226835
8.953020416,0.9999360084923955,-64.02189396692583
8.961969152,1.000171411235482,-64.28880474613776
8.970916864,1.000397905788961,-64.55883114082101
8.9798656,1.0006035801566997,-64.83184592086
8.988814336,1.0007775902539775,-65.10741323177062
8.997763072,1.000910348689825,-65.38510761937854
9.006711808,1.0009949897533474,-65.66433493431398
9.01565952,1.0010270661145193,-65.94439926369557
9.024608256,1.0010046408096216,-66.22461640843497
9.033556992,1.0009287959652304,-66.50429454712592
9.042505728,1.000803433645473,-66.78272096485743
9.051454464,1.000635097811656,-67.05926835155351
9.060402176,1.0004325756731947,-67.33345986098743
9.069350912,1.0002064213928095,-67.60491620166451
9.078299648,0.9999685481661146,-67.87335384513781
9.087248384,0.9997317279589549,-68.13872555262796
9.09619712,0.9995081789348622,-68.40110463896757
9.105145856,0.9993098934499286,-68.66076762386713
9.114093568,0.9991474368756208,-68.91810075888951
9.123042304,0.999029560790139,-69.17360928315527
9.13199104,0.9989623411076031,-69.4280099273601
9.140939776,0.9989497034690675,-69.68187008284158
9.149888512,0.9989923415099495,-69.93602021576237
9.158836224,0.9990881244722626,-70.19116611648741
9.16778496,0.999232045865395,-70.44793394241894
9.176733696,0.9994166096999499,-70.70698171557068
9.185682432,0.999632130444204,-70.96873525926027
9.194631168,0.999867256430511,-71.23357476784717
9.203579904,1.0001094664960364,-71.50162035800783
9.212527616,1.0003461932505409,-71.77294627610983
9.221476352,1.0005647108130034,-72.04734296494163
9.230425088,1.0007536749436303,-72.32453638490735
9.239373824,1.000902848609247,-72.60404800517502
9.24832256,1.001004388958033,-72.88529636771554
9.257270272,1.001052755724636,-73.16762499256635
9.266219008,1.00104533177461,-73.45032778548875
9.275167744,1.0009824949593145,-73.73266202031444
9.28411648,1.0008672974380408,-74.01392905779174
9.293065216,1.0007058088533312,-74.29340434914432
9.302012928,1.0005063517055977,-74.57061822097884
9.310961664,1.00027940223431,-74.84508413459572
9.3199104,1.000036939735514,-75.11651547489146
9.328859136,0.9997916952123003,-75.38479190254299
9.337807872,0.9995566772429457,-75.64997110156297
9.346756608,0.999344210310233,-75.91225910195804
9.35570432,0.9991657783871521,-76.17200511851134
9.364653056,0.9990307690999938,-76.42972357066103
9.373601792,0.9989464224639488,-76.68606561423935
9.382550528,0.9989173386291972,-76.941729578959
9.391499264,0.998945348865714,-77.19743949434591
9.400446976,0.9990288631816128,-77.45394605723936
9.409395712,0.999163650605009,-77.71197300696744
9.418344448,0.9993426435782571,-77.97215604147972
9.427293184,0.9995565592373592,-78.23501767553188
9.43624192,0.9997940672889687,-78.50092839115419
9.445190656,1.0000424979494076,-78.7701690407048
9.454138368,1.0002891599300912,-79.04274823827409
9.463087104,1.0005205683441054,-79.3185845561971
9.47203584,1.0007247827897392,-79.59737097122698
9.480984576,1.0008909643394646,-79.87870238035083
9.489933312,1.0010100213292978,-80.16202489718383
9.498881024,1.0010757823577692,-80.44666268545055
9.50782976,1.0010846098818011,-80.73190726743412
9.516778496,1.001035867149685,-81.01694700541371
9.525727232,1.0009321672718345,-81.3010900144092
9.534675968,1.0007786459112302,-81.58361784465866
9.54362368,1.000583366024768,-81.8639295988525
9.552572416,1.0003565690712177,-82.1415467388165
9.561521152,1.0001101363621128,-82.41613394649667
9.570469888,0.9998570447348027,-82.68747457473607
9.579418624,0.999610635724686,-82.95558321568808
9.58836736,0.9993839227303938,-83.22062433426044
