freq,mag,phase
6.0,0.9997338605196558,81.916302995615
6.002285056,0.9996938026500237,81.77840029153614
6.004570112,0.9996715201055809,81.64098275623685
6.006855168,0.9996705821628408,81.50377371089698
6.009140224,0.9996909431164072,81.36642422676996
6.01142528,0.99973145133026,81.22863730636121
6.013710336,0.9997894888198156,81.09018475675802
6.015995392,0.999861487363158,80.95075883455236
6.018280448,0.9999428156548426,80.81023161400726
6.020565504,1.0000281489001723,80.6685541431427
6.02285056,1.000112449363214,80.52562086107312
6.025135616,1.0001899707609765,80.38154914859265
6.027420672,1.0002561135301888,80.23642720789205
6.029705728,1.0003065066448078,80.09047890586059
6.031990784,1.0003379538803878,79.94394379475052
6.03427584,1.0003485072142926,79.79709180595208
6.036560896,1.000337410719053,79.65027749978616
6.038845952,1.0003053301163773,79.50378915408177
6.041131008,1.0002543672798805,79.3579054663276
6.043416064,1.0001876389944042,79.21289638617078
6.04570112,1.0001094584832948,79.0689528385346
6.047986176,1.0000246557965569,78.92619627172489
6.050271232,0.9999388454995082,78.78469401944068
6.052556288,0.9998570687601167,78.64443443140605
6.054841344,0.9997849105454301,78.50530782322555
6.0571264,0.9997266935232203,78.36714100883661
6.059411456,0.9996863994207672,78.22968104174826
6.061696512,0.9996662603463633,78.09271738586996
6.063981568,0.9996679110352985,77.9558670045931
6.066266624,0.9996910628615483,77.8188708127866
6.06855168,0.9997343702569577,77.68139026814336
6.070836736,0.9997950308386955,77.54316234432389
6.073121792,0.9998690647738206,77.40396992456353
6.075406848,0.9999521381973523,77.26366224425364
6.077691904,1.0000386994002646,77.12215307797469
6.07997696,1.000123418639208,76.97936281683884
6.082262016,1.0002008293542624,76.83541100748266
6.084547072,1.0002660151034808,76.69042427619519
6.086832128,1.0003148738639356,76.5446342433674
6.089117184,1.0003442950361316,76.3982869119949
6.09140224,1.0003524332208966,76.25167894682274
6.093687296,1.0003384630663446,76.10511315159441
6.095972352,1.0003036690887248,75.95890261638323
6.098257408,1.0002499453213831,75.81333568452537
6.100542464,1.0001808334639364,75.66869332935653
6.10282752,1.0001007398300485,75.52512415403828
6.105112576,1.000014441252183,75.38278713398259
6.107397632,0.9999277562529911,75.24171896567334
6.1096832,0.9998459215228487,75.10188464234307
6.111968256,0.9997743374142323,74.96316608194304
6.114253312,0.9997175480898439,74.82537257356773
6.116538368,0.9996789181980963,74.68831096996038
6.118823424,0.999661232299081,74.55168625377358
6.12110848,0.9996655076013388,74.41513326323413
6.123393536,0.9996913556634748,74.27838438658523
6.125678592,0.9997374254232089,74.14113768063521
6.127963648,0.9998005260092321,74.00308436466109
6.130248704,0.9998769550047902,73.86405045301373
6.13253376,0.999961620089599,73.7238220078463
6.134818816,1.0000492821161202,73.58238748125926
6.137103872,1.000134465586594,73.43965880097637
6.139388928,1.0002114889339238,73.29580114679688
6.141673984,1.000275723036809,73.15088978738446
6.14395904,1.0003229876588782,73.0051676796136
6.146244096,1.0003502683077126,72.85895189809388
6.148529152,1.0003557434361239,72.71246548220277
6.150814208,1.0003392151998807,72.56607119488073
6.153099264,1.00030159989645,72.42006535502772
6.15538432,1.0002451819813236,72.2747816806026
6.157669376,1.0001737119393432,72.13038444060167
6.159954432,1.0000914642610994,71.9871636360654
6.162239488,1.000003996758883,71.84513507730153
6.164524544,0.9999165308257055,71.70443020311592
6.1668096,0.9998347189492394,71.56491130072787
6.169094656,0.9997638572941814,71.42654095621963
6.171379712,0.9997083331894112,71.2890883336545
6.173664768,0.9996716410852791,71.15232291484918
6.175949824,0.9996563851132508,71.01593987831
6.17823488,0.9996633068526133,70.87963932291343
6.180519936,0.999692172293641,70.74304150068919
6.182804992,0.9997408929433981,70.60594519169399
6.185090048,0.9998066390550568,70.46798737089661
6.187375104,0.9998851968665496,70.32896441290293
6.18966016,0.9999715806069738,70.188798991708
6.191945216,1.0000603452723245,70.04735576624151
6.194230272,1.0001458224574125,69.90461476793973
6.196515328,1.0002224130009667,69.76071057273906
6.198800384,1.0002855570189382,69.61579698759819
6.20108544,1.0003311119155318,69.47011291184079
6.203370496,1.0003561376159353,69.32390879872867
6.205655552,1.0003589838035807,69.17749154727781
6.207940608,1.0003396830605291,69.03121249238518
6.210225664,1.0002991967917534,68.88535162981182
6.21251072,1.0002400899428798,68.74021914305328
6.214795776,1.0001662036722134,68.59606324201984
6.217080832,1.000082114031968,68.45304016937126
6.219365888,0.999993211451174,68.31130790260995
6.221650944,0.99990514940752,68.1708392627935
6.223936,0.9998234316684609,68.03162327145934
6.226221056,0.999753290775017,67.89350921567176
6.228506112,0.9996991935694967,67.75631587313262
6.230791168,0.9996646268978429,67.61976293342285
6.233076224,0.999651735300383,67.4835499774403
6.23536128,0.9996614278089453,67.34738581470573
6.237646336,0.9996931058005082,67.21089225035797
6.239931392,0.9997446838188222,67.07382201617511
6.242216448,0.9998129624290333,66.93588188385938
6.244501504,0.9998937047402928,66.79686176051075
6.24678656,0.9999816162305726,66.65661709917556
6.249071616,1.0000712056575054,66.51504702874897
6.251356672,1.0001569072968768,66.3722558144552
6.253641728,1.0002331099709174,66.2282635006343
6.255926784,1.000295219376543,66.08325833777053
6.25821184,1.0003388787910763,65.93749994407602
6.260496896,1.0003616042418453,65.7912422325314
6.262781952,1.0003618600451776,65.64482701282682
6.265067008,1.0003396546566206,65.49858265512901
6.267352064,1.0002962299634852,65.35279077885431
6.26963712,1.0002344378345647,65.2077721274036
6.271922176,1.0001581774974972,65.06373747665361
6.274207232,1.000072297814348,64.9209000869827
6.276492288,0.9999821289940659,64.77934103563256
6.278777344,0.9998935060413097,64.63906599618218
6.2810624,0.9998119315865047,64.50004459986654
6.283347456,0.9997426955222062,64.36213362161139
6.285632512,0.9996901842242143,64.22509869435946
6.287917568,0.9996577360955041,64.08866416521572
6.290202624,0.9996474178705559,63.95256291820214
6.29248768,0.9996598497551479,63.81642407099982
6.294772736,0.9996944813195552,63.67996601393949
6.297057792,0.9997489019918161,63.54285059048121
6.299342848,0.999819651415575,63.404857570352696
6.301627904,0.9999025899033464,63.26572510408575
6.30391296,0.9999920384374607,63.12532309424538
6.306198016,1.000082566928246,62.983628382500335
6.308483072,1.0001684137921323,62.84063742425837
6.310768128,1.0002440963624932,62.69647636834024
6.313053184,1.0003047671168623,62.55130680914534
6.31533824,1.0003466084184083,62.40539991621049
6.317623296,1.0003668928195875,62.25904717471216
6.319908352,1.0003644811939698,62.11253593902559
6.322193408,1.000339294661319,61.96622931323882
6.324478976,1.0002930135418961,61.82043987799285
6.326764032,1.0002285761407927,61.67544237445894
6.329049088,1.0001500031187776,61.53149417787992
6.331334144,1.0000622024750798,61.388750112228344
6.3336192,0.999970933620806,61.24731181094956
6.335904256,0.9998817472456233,61.10714166886386
6.338189312,0.9998004336845088,60.96825166957241
6.340474368,0.9997322115812027,60.830435315264985
6.342759424,0.9996813226362508,60.693487650247036
6.34504448,0.9996510685831513,60.55713124505358
6.347329536,0.9996434049393654,60.421023460406126
6.349614592,0.9996587043116039,60.28490473033607
6.351899648,0.9996961684366221,60.148355625264806
6.354184704,0.9997533704943895,60.011138796629105
6.35646976,0.9998268233838398,59.87294746941583
6.358754816,0.999911651054443,59.73361469391494
6.361039872,1.0000026482680118,59.59299248943148
6.363324928,1.0000940176372572,59.45104389225648
6.365609984,1.0001799254031243,59.30780652750396
6.36789504,1.0002548835387108,59.16339417734361
6.370180096,1.0003142639821874,59.017979384113076
6.372465152,1.0003540968943103,58.87187127977721
6.374750208,1.0003719879852964,58.725321385872945
6.377035264,1.0003667833826977,58.57866870332016
6.37932032,1.0003385991844855,58.43223826399397
6.381605376,1.0002894523594044,58.28636839218228
6.383890432,1.0002223017249456,58.141358034540325
6.386175488,1.0001413922520865,57.997378818062145
6.388460544,1.0000519352996262,57.8546489278586
6.3907456,0.9999594582095408,57.71324898439632
6.393030656,0.999869926611086,57.57314573171859
6.395315712,0.99978896158227,57.43429641759271
6.397600768,0.9997217473081872,57.296498851440624
6.399885824,0.9996726437856027,57.159554344758185
6.40217088,0.9996445670485576,57.02315858992908
6.404455936,0.9996395100317246,56.887013145478726
6.406740992,0.9996578898261794,56.75077586152587
6.409026048,0.9996983113840898,56.614087417203656
6.411311104,0.9997583857558763,56.476654326554595
6.41359616,0.9998342870343688,56.33824828256572
6.415881216,0.9999211391974536,56.198609510935356
6.418166272,1.000013615956066,56.057695276769806
6.420451328,1.0001057091779293,55.915433079827565
6.422736384,1.000191554888016,55.77186355030879
6.42502144,1.0002657809533313,55.62709711135
6.427306496,1.000323650372712,55.48140339358923
6.429591552,1.0003615278537643,55.33496590685314
6.431876608,1.0003768353242408,55.18816312799445
6.434161664,1.000368766366795,55.04127479251348
6.43644672,1.0003377063254497,54.89465102877222
6.438731776,1.000285569771858,54.74863147176781
6.441016832,1.000215745792911,54.60349805450229
6.443301888,1.0001325642124306,54.459449523854836
6.445586944,1.0000412972365358,54.316685465982616
6.447872,0.9999478508396251,54.175221457250146
6.450157056,0.9998579241667257,54.03511016499119
6.452442112,0.9997774018426282,53.89621263506392
6.454727168,0.9997113795663237,53.758375881114375
6.457012224,0.9996640354205182,53.62135035372892
6.45929728,0.9996383342352694,53.48484814471707
6.461582336,0.9996360731059938,53.3485735915223
6.463867392,0.999657260574779,53.2121275994553
6.466152448,0.9997007429795343,53.07519919845016
6.468437504,0.9997636070460076,52.93748405529311
6.47072256,0.9998419335176794,52.79876756759214
6.473007616,0.9999308956090058,52.65877458495465
6.475292672,1.0000247262502877,52.517480890471184
6.477577728,1.0001174147227603,52.37480487865157
6.479862784,1.000203211735496,52.230810611069195
6.48214784,1.0002766238383676,52.08566144339525
6.484432896,1.0003329542354427,51.93954566599553
6.486717952,1.000368670033807,51.79275473309126
6.489003008,1.0003814091163503,51.64561586671389
6.491288064,1.0003704325556686,51.4984049420926
6.49357312,1.0003362826436606,51.35153704643491
6.495858176,1.0002813310006944,51.20529195274419
6.498143232,1.0002088099531143,51.059962413538685
6.500428288,1.000123414584855,50.91579056898944
6.502713344,1.0000305497950195,50.77287149329364
6.5049984,0.9999360277280799,50.63132780020257
6.507283456,0.9998458731159993,50.49107071575012
6.509568512,0.9997659227349878,50.35204505882426
6.511853568,0.9997010469061168,50.21411665342156
6.514138624,0.9996556065601806,50.076918979166585
6.51642368,0.999632407694213,49.94027766346106
6.518708736,0.9996329246529185,49.80372575469959
6.520993792,0.9996571388546598,49.66702985550352
6.523278848,0.9997035712471409,49.52978894319385
6.525563904,0.9997692201761377,49.39170763609232
6.52784896,0.9998500782756318,49.252554094757656
6.530134016,0.9999409152135081,49.11213107732513
6.532419072,1.0000360270400557,48.97037610004122
6.534704128,1.0001293805783866,48.82721994305695
6.536989184,1.0002150119270035,48.682751802059535
6.53927424,1.000287468772237,48.53707478649221
6.541559808,1.0003421346385364,48.39050099375856
6.543844864,1.0003756318653392,48.24328220871118
6.54612992,1.0003857431430605,48.095693343346284
6.548414976,1.0003718689954841,47.948126253058895
6.550700032,1.000334760428785,47.80090801845648
6.552985088,1.0002768085035563,47.65438106120638
6.555270144,1.0002016160774183,47.50878950323435
6.5575552,1.0001140127683068,47.36438641686651
6.559840256,1.000019552485544,47.221254590352125
6.562125312,0.9999241775969647,47.079515544856285
6.564410368,0.9998338188446823,46.93909369136602
6.566695424,0.999754424121069,46.79992160253329
6.56898048,0.9996909297396649,46.66174349818724
6.571265536,0.9996474962708958,46.524355801240986
6.573550592,0.9996266490300085,46.38739512964039
6.575835648,0.9996299838507736,46.2505538150928
6.578120704,0.9996571987830527,46.11349340130653
6.58040576,0.9997067378249922,45.97585969556731
6.582690816,0.9997752157493022,45.837325931599736
6.584975872,0.9998584501485704,45.697711566811705
6.587260928,0.9999512238591572,45.55675474836007
6.589545984,1.0000475130768531,45.41443990327703
6.59183104,1.0001413371866983,45.270702145596005
6.594116096,1.0002266939413584,45.125659026824096
6.596401152,1.0002981097012007,44.97945586501486
6.598686208,1.0003512191876094,44.8323289335352
6.600971264,1.0003824111041575,44.68456268270396
6.60325632,1.0003898291972473,44.536481137778274
6.605541376,1.0003729384493674,44.38846349480887
6.607826432,1.0003327414959213,44.24086570921135
6.610111488,1.0002719298083258,44.093951849119726
6.612396544,1.000194145887168,43.948027404652315
6.6146816,1.0001043596139798,43.80331008471526
6.616966656,1.000008302769189,43.65992030266084
6.619251712,0.9999120979030515,43.51791246231046
6.621536768,0.9998216593024544,43.37723789433955
6.623821824,0.9997429779633558,43.23780546441804
6.62610688,0.9996809101173258,43.099331782188095
6.628391936,0.9996394182080366,42.96162838103748
6.630676992,0.9996212308165305,42.82431998226593
6.632962048,0.9996274587149807,42.68708445620773
6.635247104,0.9996576744238442,42.54958670472983
6.63753216,0.9997101427595307,42.41145649324647
6.639817216,0.9997815800984337,42.27238365824472
6.642102272,0.9998671991056414,42.13219699869649
6.644387328,0.9999617205799871,41.99064863241215
6.646672384,1.000059250248159,41.84769130267512
6.64895744,1.0001534649905806,41.7033334050228
6.651242496,1.0002384569374585,41.55762700121035
6.653527552,1.0003088595257645,41.41077493838887
6.655812608,1.0003601358009269,41.26303316399726
6.658097664,1.0003889196816704,41.11466189416108
6.66038272,1.0003935894058595,40.96604257913468
6.662667776,1.0003737553487273,40.81749571822524
6.664952832,1.000330482470686,40.6693796229208
6.667237888,1.0002667424369462,40.52203312805689
6.669522944,1.000186394392432,40.37572388603447
6.671808,1.000094509942118,40.230611740966246
6.674093056,0.9999970111340604,40.086866417144066
6.676378112,0.9998999759287326,39.94451425349977
6.678663168,0.9998095784767607,39.80349590763233
6.680948224,0.9997316556828234,39.66370997852137
6.68323328,0.9996710563439131,39.524875587699746
6.685518336,0.999631664689695,39.38676212595854
6.687803392,0.9996160388352947,39.249050599784084
6.690088448,0.9996251891936088,39.11134832332292
6.692373504,0.9996585491286326,38.97330424487373
6.69465856,0.9997140412172126,38.83461323973094
6.696943616,0.9997881046010648,38.694952147118194
6.699228672,0.9998760776635692,38.55408815276099
6.701513728,0.9999724322619514,38.41185774815966
6.703798784,1.0000710545769695,38.2681874706402
6.70608384,1.00016558054184,38.12308607590935
6.708368896,1.0002501670701458,37.97665222662347
6.710653952,1.0003193511646995,37.82907145471986
6.712939008,1.0003688076032298,37.68062939042735
6.715224064,1.0003952394208073,37.53158290957943
6.71750912,1.000397112050588,37.38232239627989
6.719794176,1.0003741744186738,37.233203971275216
6.722079232,1.000327904974689,37.084510183211954
6.724364288,1.0002611394333054,36.93666035213367
6.726649344,1.0001782645216184,36.789835437225676
6.7289344,1.000084357122555,36.64428625961849
6.731219456,0.9999853845986151,36.50012099130316
6.733504512,0.9998876331643343,36.357356611590234
6.735789568,0.9997973694093786,36.215925611863135
6.738074624,0.9997202235716579,36.07568970538933
6.74035968,0.9996611612370614,35.93642421154298
6.742644736,0.9996240100495207,35.79782520460597
6.744929792,0.9996110634649148,35.659592960535036
6.747214848,0.9996231702052254,35.52132648271742
6.749499904,0.9996596437057391,35.38269054520207
6.75178496,0.9997180616992103,35.243334409622314
6.754070016,0.9997948739645902,35.102987425157494
6.756355072,0.9998851523737525,34.96136755598923
6.75864064,0.9999832873190083,34.81836908203303
6.760925696,1.0000828189316913,34.673901055542714
6.763210752,1.0001777177521094,34.52799348520685
6.765495808,1.0002618190463026,34.38075240989355
6.767780864,1.000329733757418,34.2323771760166
6.77006592,1.000377238771316,34.08315319865709
6.772350976,1.0004013001897367,33.93337706330616
6.774636032,1.0004002693755933,33.78339911152845
6.776921088,1.0003743173256918,33.63357062384737
6.779206144,1.0003249692591443,33.48427928445087
6.7814912,1.0002554101296242,33.33580364254895
6.783776256,1.0001698465651847,33.18843717496627
6.786061312,1.000073976139065,33.04236151673095
6.788346368,0.9999736680960821,32.89767294796182
6.790631424,0.9998753234907566,32.75440642567383
6.79291648,0.9997852286674541,32.61248302905719
6.795201536,0.9997090179103542,32.47175454721761
6.797486592,0.9996516582519204,32.33195549701173
6.799771648,0.9996166651190687,32.19280848962195
6.802056704,0.9996063499890838,32.053962009317026
6.80434176,0.9996214865457146,31.915054408114468
6.806626816,0.9996609653233953,31.775713185818116
6.808911872,0.9997224646808197,31.635622433229983
6.811196928,0.9998020541974673,31.49447945058436
6.813481984,0.9998946267689038,31.35203445459056
6.81576704,0.9999943772174653,31.208208461554797
6.818052096,1.0000948804714969,31.06284547964661
6.820337152,1.000189921474607,30.916062217626553
6.822622208,1.000273432187802,30.767934160570118
6.824907264,1.0003400621985084,30.618690789382804
6.82719232,1.0003855294227113,30.468592088620934
6.829477376,1.000407136118257,30.31796716311678
6.831762432,1.0004032415693436,30.167212732221273
6.834047488,1.000374136028947,30.0166502437408
6.836332544,1.0003217809693756,29.86663693163172
6.8386176,1.0002492621136327,29.71750618025103
6.840902656,1.0001612799695874,29.569499697258898
6.843187712,1.0000634367586716,29.422798329421894
6.845472768,0.9999617977895671,29.277539196636056
6.847757824,0.9998629337908331,29.133685900847023
6.85004288,0.9997730472772762,28.9912021896834
6.852327936,0.9996978490083573,28.849854652021687
6.854612992,0.9996420939648087,28.70945794915598
6.856898048,0.9996094637616045,28.56967711942683
6.859183104,0.9996019404438119,28.430136581381365
6.86146816,0.9996201052422733,28.29051479570582
6.863753216,0.9996626921723587,28.150388140574055
6.866038272,0.9997271840779818,28.009473390680625
6.868323328,0.9998094251708244,27.867463806542435
6.870608384,0.9999041810689938,27.72412512145856
6.87289344,1.000005471072777,27.579340170577865
6.875178496,1.000107030225618,27.433036008368433
6.877463552,1.0002021437048931,27.285263102475078
6.879748608,1.0002850018237985,27.136177253266066
6.882033664,1.0003502791057524,26.98596550272281
6.88431872,1.0003937064441548,26.834934846017788
6.886603776,1.0004126786963092,26.683418287579453
6.888888832,1.0004058878560445,26.53177310424764
6.891173888,1.000373757318422,26.380371325897126
6.893458944,1.0003182276664595,26.22957666506286
6.895744,1.0002428860207973,26.079698493726063
6.898029056,1.0001525288868922,25.93097910381679
6.900314112,1.0000527379715412,25.783597313296696
6.902599168,0.9999498805277492,25.637675087695893
6.904884224,0.9998504916392474,25.493170401472497
6.90716928,0.9997608758842056,25.350008074759607
6.909454336,0.9996867529506449,25.208019415396194
6.911739392,0.9996327875222465,25.066905818020093
6.914024448,0.9996024614269928,24.926389031640046
6.916309504,0.9995977479441991,24.786089011424465
6.91859456,0.9996188869986123,24.645647792527843
6.920879616,0.9996646310109968,24.504669233938237
6.923164672,0.9997320281694204,24.362855145762737
6.925449728,0.9998169417642024,24.219864700885953
6.927734784,0.9999138930224268,24.075551697083625
6.93001984,1.0000167837952867,23.92974224890386
6.932304896,1.0001190879998356,23.78239379268462
6.934589952,1.0002143205463476,23.633574654660304
