freq,mag,phase
6.0,1.0000117619903,-121.30881373693116
6.00662272,1.000015544562228,-121.66169783613445
6.013244928,1.0000186438190939,-122.01462813593696
6.019867648,1.0000207326537076,-122.36753017691699
6.026489856,1.000021944050989,-122.72044981691987
6.033112576,1.0000220387115601,-123.07339837691593
6.039735296,1.0000211038850526,-123.42627299826486
6.046357504,1.0000190376121958,-123.77917341906317
6.052980224,1.0000161105690424,-124.13195971328634
6.059602432,1.0000124775322439,-124.48474644331989
6.066225152,1.0000081867082924,-124.8373961003696
6.072847872,1.0000036416470786,-125.19003010673192
6.07947008,0.9999989843061308,-125.54253862428676
6.0860928,0.999994512024876,-125.89496756889437
6.092715008,0.9999904796128933,-126.24730567461428
6.099337728,0.9999870821625321,-126.59961163811084
6.105960448,0.9999845242570855,-126.95184618562214
6.112582656,0.9999829155652081,-127.30402033046822
6.119205376,0.9999824461534459,-127.65616739729184
6.125827584,0.9999830401354888,-128.00827224084748
6.132450304,0.999984730694526,-128.36036678983922
6.139073024,0.9999873497910702,-128.71250586060054
6.145695232,0.9999908073620515,-129.0646671392637
6.152317952,0.9999949514733435,-129.41680875474933
6.15894016,0.9999995409413008,-129.76901236425294
6.16556288,1.00000417323322,-130.12123539537356
6.1721856,1.0000088947238903,-130.47352519232751
6.178807808,1.0000131327908885,-130.8258658371187
6.185430528,1.0000168113410095,-131.17820786580813
6.192052736,1.0000196861610475,-131.5305594954926
6.198675456,1.000021749200065,-131.88294936589708
6.205298176,1.000022591433456,-132.23529378093465
6.211920384,1.0000224213985442,-132.58765140020444
6.218543104,1.0000210759527945,-132.93997102592277
6.225165312,1.00001867520824,-133.29226020276738
6.231788032,1.0000153846791717,-133.6444200764788
6.238410752,1.0000114338210493,-133.99654971254083
6.24503296,1.0000068745809356,-134.34857379816873
6.25165568,1.0000020922263955,-134.70054987302368
6.2582784,0.9999973664710705,-135.0523972685262
6.264900608,0.9999928273026107,-135.40413880411614
6.271523328,0.9999887411744782,-135.75580423515981
6.278145536,0.9999855147556453,-136.10743002067434
6.284768256,0.999983150083659,-136.45896326105105
6.291390976,0.999981787645827,-136.81041598979746
6.298013184,0.9999816441769889,-137.16184578140656
6.304635904,0.9999825420900813,-137.51326017368123
6.311258112,0.9999845542505689,-137.86466140138637
6.317880832,0.9999876738629387,-138.21605668727966
6.324503552,0.9999914517016902,-138.56747178519126
6.33112576,0.999995857398651,-138.91892179048813
6.33774848,1.0000006662840804,-139.27039848325734
6.344370688,1.0000055513091985,-139.62188473045148
6.350993408,1.0000102790964511,-139.97343122781564
6.357616128,1.0000145416685418,-140.32500462052698
6.364238336,1.000018140903474,-140.67659555668317
6.370861056,1.0000209392896822,-141.0281848583528
6.377483264,1.000022687565694,-141.37978821879167
6.384105984,1.0000232076283226,-141.7313507203161
6.390728704,1.000022708014108,-142.08290967323535
6.397350912,1.0000210007896588,-142.43441505002815
6.403973632,1.0000182186576954,-142.78583633371872
6.41059584,1.0000145988696796,-143.137190621014
6.41721856,1.000010284781621,-143.48845644201583
6.42384128,1.0000055088864437,-143.8396332162697
6.430463488,1.0000005391508948,-144.19068787044728
6.437086208,0.9999955741052565,-144.54165601936825
6.443708416,0.9999911109135606,-144.89252600046387
6.450331136,0.9999870786541412,-145.24328388899215
6.456953856,0.9999839502469136,-145.59396643912743
6.463576064,0.9999817685365687,-145.9445925030352
6.470198784,0.9999807487631758,-146.29512970956895
6.476820992,0.9999809676062674,-146.6456306671011
6.483443712,0.9999822530403687,-146.99612151570565
6.490066432,0.9999846887085941,-147.34656868988367
6.49668864,0.9999880287927956,-147.69705642990013
6.50331136,0.9999922309979465,-148.04755055862594
6.509933568,0.999996960009383,-148.398023237407
6.516556288,1.0000019588829827,-148.7485701240692
6.523179008,1.000007058361763,-149.0991296729417
6.529801216,1.000011763625433,-149.4497098342366
6.536423936,1.0000160531728863,-149.8002796516365
6.543046144,1.0000195330475528,-150.1508988171311
6.549668864,1.0000220032251266,-150.50152713748227
6.556291584,1.0000234822010456,-150.8521283866476
6.562913792,1.0000237181455633,-151.20268562246127
6.569536512,1.000022781163885,-151.55323330082356
6.57615872,1.0000206886162133,-151.9036895551791
6.58278144,1.0000175299129748,-152.2540780295529
6.58940416,1.0000135419571998,-152.60439942544323
6.596026368,1.000008892399529,-152.95457159000216
6.602649088,1.000003852858055,-153.30466334402868
6.609271296,0.999998742045317,-153.65463312214774
6.615894016,0.9999937106528076,-154.0045031316655
6.622516736,0.9999892011956928,-154.3542614755316
6.629138944,0.9999853293369025,-154.70389449584582
6.635761664,0.9999823745206003,-155.0534644689286
6.642383872,0.9999805042728843,-155.4029601656448
6.649006592,0.999979795933159,-155.75236419150013
6.655629312,0.9999802902461611,-156.10177224796766
6.66225152,0.9999820204471245,-156.45109809372582
6.66887424,0.9999848214536876,-156.80042428411627
6.675496448,0.9999886492898955,-157.14976897554564
6.682119168,0.9999931479213493,-157.49908737467157
6.688741888,0.9999981799615776,-157.84848272549004
6.695364096,1.0000034405054936,-158.19783110110615
6.701986816,1.0000085841687143,-158.54724049938505
6.708609024,1.000013402853231,-158.89668232831866
6.715231744,1.0000175739846175,-159.2461242873809
6.721854464,1.0000208728819686,-159.5955660975091
6.728476672,1.0000231447734034,-159.94499656720592
6.735099392,1.0000242988981556,-160.2943934708296
6.7417216,1.0000240852620685,-160.64375887471442
6.74834432,1.0000228242125064,-160.99306311515195
6.75496704,1.00002032964848,-161.34230620518977
6.761589248,1.0000168181004634,-161.6914618953658
6.768211968,1.000012425809654,-162.04049339459044
6.774834688,1.0000074016565388,-162.38943056058733
6.781456896,1.0000021935930332,-162.73822218147654
6.788079616,0.9999968698128582,-163.08694226380396
6.794701824,0.9999918470124864,-163.4354955243553
6.801324544,0.9999872567237866,-163.7839563102914
6.807947264,0.9999835945320776,-164.13231897094357
6.814569472,0.9999808338248967,-164.48055649095573
6.821192192,0.9999792406006442,-164.8287209236439
6.8278144,0.9999788746498632,-165.17684634722792
6.83443712,0.999979866900678,-165.52491292344922
6.84105984,0.9999819766291174,-165.8729270984854
6.847682048,0.999985178373126,-166.22094611282463
6.854304768,0.9999894023368183,-166.5689552023775
6.860926976,0.9999943034467647,-166.91697558027286
6.867549696,0.9999995389344453,-167.26501485968072
6.874172416,1.000004999582544,-167.61305257874523
6.880794624,1.000010249958759,-167.96113702660182
6.887417344,1.0000150540199175,-168.30919978814524
6.894039552,1.0000191466833777,-168.65732867742406
6.900662272,1.0000222757564154,-169.00540374860051
6.907284992,1.0000243173167112,-169.3534906759249
6.9139072,1.0000250668347013,-169.7015170756771
6.92052992,1.000024522849064,-170.0494921016122
6.927152128,1.000022794616585,-170.39740863002768
6.933774848,1.0000197825592598,-170.74524622371624
6.940397568,1.0000158871343654,-171.09297446394442
6.947019776,1.0000110718485682,-171.44058548188067
6.953642496,1.000005849688693,-171.7880665308979
6.960264704,1.0000003539591886,-172.1354339282827
6.966887424,0.999994926779718,-172.4826415872885
6.973510144,0.9999898156747489,-172.82975856204948
6.980132352,0.9999852974128868,-173.1767378810645
6.986755072,0.9999817283724903,-173.5236024287761
6.99337728,0.9999793460934047,-173.87037850442184
7.0,0.9999780497799433,-174.21708574019522
7.00662272,0.9999781526994503,-174.56371523147328
7.013244928,0.9999795179043481,-174.91027463981447
7.019867648,0.9999821297188879,-175.25681348899315
7.026489856,0.9999857860139467,-175.60335684886567
7.033112576,0.9999903636573075,-175.9498738548141
7.039735296,0.9999955260529241,-176.2964045180912
7.046357504,1.0000010973509723,-176.6429643518356
7.052980224,1.0000066337048787,-176.98954178847734
7.059602432,1.0000119378734698,-177.33610860960957
7.066225152,1.0000166986909598,-177.68269496131916
7.072847872,1.000020757400576,-178.02929517560875
7.07947008,1.0000236158836648,-178.37585885259057
7.0860928,1.0000253223106788,-178.72240608274006
7.092715008,1.0000256474259748,-179.06890837313722
7.099337728,1.0000247037937193,-179.41535002912354
7.105960448,1.0000225945702033,-179.761730826212
7.112582656,1.0000190608991215,179.89203070386603
7.119205376,1.0000147824463614,179.54586566838933
7.125827584,1.000009658446049,179.1998409590367
7.132450304,1.0000040607966638,178.85395055726468
7.139073024,0.9999983582239921,178.50819818478115
7.145695232,0.99999286319689,178.16257668565152
7.152317952,0.999987756170949,177.81710096790195
7.15894016,0.9999834845517853,177.471739692565
7.16556288,0.9999800385805546,177.12652076952054
7.1721856,0.9999779907300015,176.78135239076371
7.178807808,0.9999770679942338,176.43629654292067
7.185430528,0.9999776459417176,176.09129917411548
7.192052736,0.9999794076846155,175.74635039497807
7.198675456,0.9999823784047063,175.40141147386828
7.205298176,0.9999865150314313,175.05653865128127
7.211920384,0.9999914649293036,174.7116309697113
7.218543104,0.9999970409144741,174.3667236892127
7.225165312,1.0000028171792572,174.02180968770313
7.231788032,1.0000084905482578,173.6768498099545
7.238410752,1.0000138860248662,173.33192558089885
7.24503296,1.0000185744364716,172.98696834124513
7.25165568,1.0000224066190024,172.64201014778118
7.2582784,1.000025061398118,172.29709842267644
7.264900608,1.0000263197134,171.9522056942444
7.271523328,1.0000263115556889,171.60735970851673
7.278145536,1.0000248160593574,171.262601831336
7.284768256,1.0000220688688766,170.91793252661358
7.291390976,1.0000182771663457,170.573382639277
7.298013184,1.0000135787630773,170.22894119223264
7.304635904,1.000008085339105,169.88464569190333
7.311258112,1.0000021970327186,169.54049537986566
7.317880832,0.9999962738136168,169.1964835692773
7.324503552,0.9999906597696586,168.85260912590667
7.33112576,0.9999856902007546,168.5088565142873
7.33774848,0.9999814456307983,168.16526514137928
7.344370688,0.9999783598659914,167.8217760674743
7.350993408,0.9999765767748006,167.47838034763382
7.357616128,0.9999762180849112,167.13509082530362
7.364238336,0.9999770672605651,166.79183713654075
7.370861056,0.9999793647974795,166.44863624216984
7.377483264,0.9999829976455391,166.10545744598326
7.384105984,0.9999874979261838,165.76229716944542
7.390728704,0.9999928546037947,165.41914564608854
7.397350912,0.9999987178996427,165.0759869960574
7.403973632,1.000004712207099,164.73281145084673
7.41059584,1.0000105596171545,164.38961467398107
7.41721856,1.000015827221587,164.0463982745524
7.42384128,1.0000204445081466,163.7032013864132
7.430463488,1.0000239969662992,163.3600182444559
7.437086208,1.0000262825556638,163.01687299870224
7.443708416,1.0000272687937082,162.67376771861947
7.450331136,1.0000267659702895,162.33068727453488
7.456953856,1.0000248616021952,161.98775602368437
7.463576064,1.000021593505935,161.64487003607329
7.470198784,1.0000173262979057,161.30213289497246
7.476820992,1.000012123922487,160.95950273324306
7.483443712,1.000006253258644,160.6170411311125
7.490066432,1.0000002023326315,160.27472989826836
7.49668864,0.9999941590557779,159.93257967956498
7.50331136,0.9999885303378165,159.59055700714308
7.509933568,0.9999835515638129,159.24867613558143
7.516556288,0.9999796372959607,158.9069429728174
7.523179008,0.9999768475190491,158.56529375519028
7.529801216,0.999975346033147,158.22377327842995
7.536423936,0.9999754308142209,157.8823232508712
7.543046144,0.9999768858058831,157.5409155902493
7.549668864,0.9999796537775676,157.19958107092515
7.556291584,0.9999836544264389,156.85826474448123
7.562913792,0.9999888080307884,156.5169315213764
7.569536512,0.9999945010863445,156.1756256914893
7.57615872,1.0000005785967807,155.8342963054651
7.58278144,1.000006850593238,155.49293205980234
7.58940416,1.0000127213628218,155.15158015121912
7.596026368,1.0000179453228604,154.81021769380047
7.602649088,1.0000223789851805,154.46886566998327
7.609271296,1.0000256379992076,154.1275251652906
7.615894016,1.0000276068023746,153.78623482803704
7.622516736,1.0000280187922432,153.44497205930222
7.629138944,1.0000270304897878,153.10382553535246
7.635761664,1.000024668472383,152.7627450958392
7.642383872,1.000020938888119,152.42176614301775
7.649006592,1.0000160841647372,152.0809259691015
7.655629312,1.0000104363484392,151.74023642253587
7.66225152,1.0000044018657293,151.39968707419322
7.66887424,0.9999981393483841,151.05930111394792
7.675496448,0.9999919383567754,150.71905954938072
7.682119168,0.9999862301947955,150.37899929158053
7.688741888,0.9999813931362388,150.03903840276922
7.695364096,0.9999777073426204,149.6992572509894
7.701986816,0.999975323087266,149.35954481174093
7.708609024,0.9999743581042632,149.01995693817554
7.715231744,0.99997487252982,148.68043454878477
7.721854464,0.9999768595511552,148.34095961183326
7.728476672,0.9999801483517212,148.00153618395333
7.735099392,0.9999847466836655,147.66212616531104
7.7417216,0.9999901584025451,147.32272516184213
7.74834432,0.9999962655404451,146.98331364542054
7.75496704,1.0000026451829376,146.6438928728957
7.761589248,1.0000090381578484,146.30446163015625
7.768211968,1.000014969736079,145.96501827415622
7.774834688,1.0000201821324435,145.62554834897867
7.781456896,1.0000243652471072,145.2861137195332
7.788079616,1.0000273154087733,144.94669357405596
7.794701824,1.0000288604643401,144.60734741712642
7.801324544,1.00002880147576,144.26802931566192
7.807947264,1.000027279901753,143.92879528677804
7.814569472,1.0000242409947617,143.58966883505818
7.821192192,1.000020047343862,143.25065764628084
7.8278144,1.0000148770787172,142.911783541131
7.83443712,1.0000087780671676,142.5730719534155
7.84105984,1.0000023079332592,142.2345154048621
7.847682048,0.9999958255030348,141.89613292009398
7.854304768,0.999989639049838,141.55788111345223
7.860926976,0.9999840611608133,141.21979972306482
7.867549696,0.9999794163860245,140.88185107483505
7.874172416,0.9999760196423176,140.54405875959836
7.880794624,0.9999739686868173,140.20634362546835
7.887417344,0.9999735190268221,139.86873998451537
7.894039552,0.9999745391578588,139.5311969862584
7.900662272,0.9999771350783809,139.1937014567358
7.907284992,0.9999809911154367,138.85623718285368
7.9139072,0.9999859915458296,138.5188110459189
7.92052992,0.9999919864559913,138.1813548966604
7.927152128,0.9999983998633587,137.84391048837298
7.933774848,1.000004996060515,137.50643570420695
7.940397568,1.0000114381352379,137.16896569864738
7.947019776,1.0000173766410207,136.83146509020128
7.953642496,1.0000224652038905,136.49396809657338
7.960264704,1.000026373174966,136.1564770228828
7.966887424,1.0000289078835696,135.81904915775362
7.973510144,1.0000299189538164,135.48162558048313
7.980132352,1.0000294118795747,135.1442992955233
7.986755072,1.0000272315060543,134.8070691090396
7.99337728,1.0000237707230795,134.46992668458176
8.0,1.0000189409399511,134.13293868377647
8.00662272,1.0000133343701827,133.79607590490232
8.013244928,1.0000069230674762,133.45939597079928
8.019867648,1.0000000925957793,133.12285341992785
8.026489856,0.9999934366250323,132.7864956050398
8.033112576,0.9999872625293691,132.45027817001514
8.039735296,0.9999817740949333,132.11424632715762
8.046357504,0.9999773978202084,131.77832785294248
8.052980224,0.9999743657463657,131.44253986723155
8.059602432,0.9999727231825155,131.10687250012623
8.066225152,0.9999727753564437,130.77128073396972
8.072847872,0.9999744165670266,130.43575436642908
8.07947008,0.9999775420705473,130.1002563953775
8.0860928,0.9999820226184329,129.76480041479462
8.092715008,0.9999875066449123,129.42935254212725
8.099337728,0.99999386951215,129.09387727420486
8.105960448,1.0000006577639522,128.75840724712347
8.112582656,1.0000075098462957,128.4229217024341
8.119205376,1.000013967656618,128.0874084062605
8.125827584,1.0000198780794625,127.75191025425676
8.132450304,1.0000247458710954,127.41638950464939
8.139073024,1.0000282497183315,127.08088217003773
8.145695232,1.0000304814225944,126.74542251051915
8.152317952,1.0000308883053628,126.41002481182203
8.15894016,1.0000297996301664,126.07467396189884
8.16556288,1.0000270708798222,125.73946338088176
8.1721856,1.0000230916313768,125.40434981188743
8.178807808,1.0000177225925055,125.06937088772015
8.185430528,1.0000115352641292,124.7345642602575
8.192052736,1.000004687737705,124.3998928748952
8.198675456,0.9999977595667764,124.0654154396621
8.205298176,0.9999910724526428,123.73109770119686
8.211920384,0.9999848410941684,123.39695130747958
8.218543104,0.9999795660360764,123.06293251974971
8.225165312,0.9999754778943484,122.72907381510176
8.231788032,0.999972808711055,122.39532654150298
8.238410752,0.9999716772815369,122.06167534094938
8.24503296,0.9999722898225164,121.7281061450375
8.25165568,0.9999745012717265,121.3946176331206
8.2582784,0.9999783171339631,121.06112336559534
8.264900608,0.9999833074905131,120.7276721183017
8.271523328,0.9999893475638789,120.39420215758413
8.278145536,0.999996056910706,120.06073979373511
8.284768256,1.0000031177500013,119.72724940329834
8.291390976,1.0000102147915542,119.39372861477787
8.298013184,1.0000167866268674,119.0601844160286
8.304635904,1.0000224591448559,118.72665013431882
8.311258112,1.0000269894262381,118.39310942558718
8.317880832,1.000030248324417,118.05960809963203
8.324503552,1.0000318124603675,117.72613253239746
8.33112576,1.0000317444458344,117.39272924004955
8.33774848,1.0000300389292083,117.05939444690881
8.344370688,1.0000268134913435,116.72618392745171
8.350993408,1.0000220716542616,116.39308946388266
8.357616128,1.0000162401435377,116.06013668259926
8.364238336,1.0000095209871036,115.72735009523434
8.370861056,1.0000024535515122,115.3947488080344
8.377483264,0.9999952433925291,115.06230482752137
8.384105984,0.9999884178959539,114.7300292459682
8.390728704,0.9999822749606868,114.3978890784832
8.397350912,0.999977242083835,114.06592544455579
8.403973632,0.9999734795708944,113.73411359339337
8.41059584,0.9999713413875148,113.40237606876232
8.41721856,0.9999708042019404,113.07075537448421
8.42384128,0.9999720575253045,112.73921068832612
8.430463488,0.9999749384472009,112.40768614918153
8.437086208,0.9999792479011042,112.07622655031024
8.443708416,0.9999848477750238,111.7447403937243
8.450331136,0.9999914130460335,111.4132437439141
8.456953856,0.9999985363253892,111.08174107400406
8.463576064,1.0000058873190214,110.7502291032812
8.470198784,1.0000129697142046,110.41867850736918
8.476820992,1.0000194979142591,110.08710056765298
8.483443712,1.0000250468856817,109.7555252570116
8.490066432,1.0000293074257205,109.42394134471644
8.49668864,1.000032050458964,109.09239167893868
8.50331136,1.0000331666492124,108.7608890549292
8.509933568,1.000032530651886,108.42944450838577
8.516556288,1.0000301015906212,108.09810674528516
8.523179008,1.0000261850116619,107.7668782322149
8.529801216,1.0000208198605502,107.43579346079406
8.536423936,1.0000144197602516,107.10485510710006
8.543046144,1.0000073817733868,106.77407558376876
8.549668864,0.9999998764002224,106.44347336230541
8.556291584,0.9999926132911838,106.11305277126439
8.562913792,0.9999856949782586,105.78278453427787
8.569536512,0.9999797779446085,105.4526752338352
8.57615872,0.9999749426758812,105.12272882786748
8.58278144,0.9999716380173654,104.79289611379814
8.58940416,0.9999700560433207,104.46317667562339
8.596026368,0.9999700979430827,104.13353229783647
8.602648576,0.9999720024882351,103.80395703754505
8.609271808,0.9999754723609309,103.47441929997568
8.615894016,0.9999805221702054,103.1449006353566
8.622516224,0.9999866756929215,102.81534970308226
8.629139456,0.999993675897785,102.48579771075627
8.635761664,1.000001210657591,102.15621577023225
8.642383872,1.000008784258842,101.8266214008752
8.649007104,1.0000160216886818,101.49698204194135
8.655629312,1.0000223720831318,101.16735117513159
