freq,mag,phase
6.0,1.0002215185617787,77.5742751817531
6.002286592,1.0003835056644315,77.43088957866011
6.004572672,1.000520858442348,77.28532824104968
6.006859264,1.0006257084491452,77.13801723049816
6.009145344,1.00069120725354,76.98950042673107
6.011431936,1.0007134500458652,76.8403368067591
6.013718016,1.0006908332530766,76.69119767554875
6.016004608,1.000624746929514,76.54268201571307
6.018290688,1.000519293827983,76.39541848247737
6.02057728,1.0003813657961247,76.24996250359033
6.022863872,1.0002193065156348,76.10668599711595
6.025149952,1.0000437897635328,75.96582631840575
6.027436544,0.9998655852039965,75.82756934936779
6.029722624,0.9996961900582803,75.69186882563663
6.032009216,0.9995464322624582,75.55850792558834
6.034295296,0.9994257352433158,75.42711874778637
6.036581888,0.9993417998623285,75.29721654870144
6.03886848,0.9993000367072239,75.1682726816044
6.04115456,0.9993032247523481,75.03960262617706
6.043441152,0.9993509165685232,74.91057606223174
6.045727232,0.9994405276421973,74.78055250317524
6.048013824,0.9995660954775741,74.64897216348557
6.050299904,0.9997196159783157,74.51540716685808
6.052586496,0.9998915635232871,74.37943581395095
6.054872576,1.0000709988971437,74.24093410050138
6.057159168,1.000246364545562,74.0998396995106
6.05944576,1.0004066448595832,73.95633744645649
6.06173184,1.0005416996850574,73.81069688638702
6.064018432,1.0006428107307201,73.66331953535678
6.066304512,1.0007036972235634,73.51478957907207
6.068591104,1.000720393319577,73.36566424037075
6.070877184,1.0006917190368037,73.2166352947325
6.073163776,1.000619547846388,73.06838148729463
6.075450368,1.0005084630486651,72.92141504983135
6.077736448,1.0003653418331198,72.7763063065471
6.08002304,1.0001993622203629,72.63347652713676
6.08230912,1.0000209947576986,72.49313940020328
6.084595712,0.9998414626721378,72.355407393721
6.086881792,0.9996722525609968,72.22022690386181
6.089168384,0.9995242053779605,72.08736769609051
6.091454464,0.9994066383280903,71.95642839615151
6.093741056,0.9993270387717514,71.82696015555639
6.096027648,0.9992905478821745,71.69832770459608
6.098313728,0.9992995906933172,71.5699073235048
6.10060032,0.9993535542265793,71.44104313385809
6.1028864,0.99944896023013,71.31109190893811
6.105172992,0.9995798791203462,71.17949992287052
6.107459072,0.9997381091890069,71.04582149395159
6.109745664,0.9999134626922461,70.90969813116286
6.112032256,1.0000947613618152,70.77100193563219
6.114318336,1.0002706793421503,70.62972027754338
6.116604928,1.000429903231902,70.48596628651485
6.118891008,1.0005624824466124,70.34012267032779
6.1211776,1.000659728235327,70.1925966950458
6.12346368,1.0007156524286167,70.04395281750814
6.125750272,1.0007266419423684,69.89483060115668
6.128036352,1.0006919555864435,69.74586669256996
6.130322944,1.0006137371922506,69.59775400461558
6.132609536,1.0004968568560197,69.45100410067671
6.134895616,1.0003488341921738,69.30621863771063
6.137182208,1.0001787667669084,69.16374148768341
6.139468288,0.9999977155914055,69.02381126600429
6.14175488,0.9998171159221485,68.88651755735165
6.14404096,0.9996483397700353,68.75176645646383
6.146327552,0.999502163361135,68.6193168079472
6.148614144,0.9993877972532925,68.48874770510554
6.150900224,0.9993127615298015,68.35960068012346
6.153186816,0.9992817054660119,68.23121711795521
6.155472896,0.9992966936007586,68.10294850754207
6.157759488,0.9993568386634205,67.97414288473078
6.160045568,0.999458190412185,67.84415901470521
6.16233216,0.9995946180744275,67.71245735683782
6.16461824,0.9997572449300345,67.57856725150694
6.166904832,0.9999357826999236,67.44220208916794
6.169191424,1.0001190170884517,67.30321313625404
6.171477504,1.0002952018776126,67.16161905189041
6.173764096,1.0004531699420063,67.01755505159304
6.176050176,1.0005829902883154,66.8714158652008
6.178336768,1.0006762723475975,66.72366094554773
6.180622848,1.000727120833714,66.57484155154974
6.18290944,1.0007323565156427,66.42562184513294
6.18519552,1.0006914375403544,66.27666060375272
6.187482112,1.0006069918023264,66.12857847630967
6.189768704,1.000484468589906,65.98201502809613
6.192054784,1.0003314045876224,65.83743264139432
6.194341376,1.0001576940352734,65.69525503406751
6.196627456,0.9999741380456838,65.5556488134091
6.198914048,0.9997925091370831,65.41871168702491
6.201200128,0.9996242115167958,65.28431478526257
6.20348672,0.999480122592164,65.15216802236336
6.205773312,0.9993692987466771,65.0219178209292
6.208059392,0.9992988797413349,64.89296550966125
6.210345984,0.99927350731806,64.76472676120206
6.212632064,0.9992944850416873,64.63653178916624
6.214918656,0.9993608163977371,64.50769114373904
6.217204736,0.9994682211410809,64.37758102689727
6.219491328,0.9996098849802911,64.24564530511886
6.221777408,0.9997768819397436,64.11149137049566
6.224064,0.9999586279698552,63.97475386426826
6.226350592,1.000143578533463,63.83537556678728
6.228636672,1.0003198943767442,63.69339831858336
6.230923264,1.0004764177923333,63.54892413335133
6.233209344,1.0006032146711346,63.40243285913829
6.235495936,1.0006922716845288,63.25433715518749
6.237782016,1.0007379597143222,63.10526492234349
6.240068608,1.0007372518392967,62.955858317600864
6.2423552,1.0006900592581094,62.80680520470958
6.24464128,1.000599632048046,62.65873669062642
6.246927872,1.0004712776101938,62.51223939104518
6.249213952,1.0003134378771514,62.36782162750059
6.251500544,1.000135925348452,62.22583872332497
6.253786624,0.9999500047673435,62.08648161453186
6.256073216,0.9997675509496118,61.94980676122326
6.258359296,0.9996000775018674,61.815684088522936
6.260645888,0.9994582182568018,61.68379072888235
6.26293248,0.9993511468663608,61.55371136655426
6.26521856,0.9992856368990385,61.42490920722072
6.267505152,0.9992658224612339,61.29671621945915
6.269791232,0.9992931275469189,61.16846905474368
6.272077824,0.99936567665619,61.039490864271656
6.274363904,0.9994790733956164,60.909157175531114
6.276650496,0.9996261156869966,60.7769227525547
6.278937088,0.9997974060067731,60.64233986422459
6.281223168,0.9999820680268938,60.505176565804724
6.28350976,1.0001684177050985,60.365322655813415
6.28579584,1.000344721813491,60.22279274565647
6.288082432,1.0004996719227646,60.077888032669335
6.290368512,1.0006233807750007,59.93092764597384
6.292655104,1.0007080426170878,59.78244161243867
6.294941184,1.0007483438375413,59.63303947751758
6.297227776,1.0007415301649925,59.48338361911551
6.299514368,1.0006880788228738,59.33414531695544
6.301800448,1.0005913281951664,59.18600289038376
6.30408704,1.000457457234601,59.03950013761817
6.30637312,1.0002947370624162,58.89514915005949
6.308659712,1.0001136027448487,58.75331417335688
6.310945792,0.9999254866406989,58.61410288633683
6.313232384,0.9997423625120933,58.47761709501752
6.315518464,0.9995758465584268,58.34367206641938
6.317805056,0.9994364948190629,58.21193754528734
6.320091648,0.999333250583736,58.081964318334
6.322377728,0.9992727205887596,57.95318044834475
6.32466432,0.999258777248175,57.82494732215473
6.3269504,0.9992921488127762,57.696538757707074
6.329236992,0.999371202465069,57.56736962621511
6.331523072,0.999490591070071,57.43669461402866
6.333809664,0.9996427895417184,57.304034843454964
6.336096256,0.9998182316085357,57.16900843443281
6.338382336,1.0000057492611651,57.03130114730088
6.340668928,1.0001935377747564,56.89086046206588
6.342955008,1.0003695140616795,56.74777129513179
6.3452416,1.0005226092371207,56.60226443321037
6.34752768,1.000643100381729,56.45477174303265
6.349814272,1.0007232898826346,56.30580292841732
6.352100352,1.0007580273145762,56.156004868216634
6.354386944,1.0007451039960782,56.00599914245225
6.356673536,1.000685404128798,55.85651808223222
6.358959616,1.000582501703648,55.708215065896695
6.361246208,1.000443041120583,55.561606484828346
6.363532288,1.0002756307278349,55.41725302030595
6.36581888,1.0000910017785298,55.27544778181219
6.36810496,0.9999008450220557,55.13636004948933
6.370391552,0.999717244001111,54.99995329220255
6.372678144,0.9995518055823979,54.86610684729319
6.374964224,0.9994152412340012,54.73445526142319
6.377250816,0.9993160468039297,54.604474122615024
6.379536896,0.9992605533686403,54.47564733006291
6.381823488,0.9992525150455722,54.34726390242648
6.384109568,0.9992923199792687,54.218622513926285
6.38639616,0.9993776609585416,54.089087074025066
6.38868224,0.9995029544547122,53.95800231256647
6.390968832,0.9996603142772722,53.82481278844001
6.393255424,0.9998398332374683,53.68920531385387
6.395541504,1.000030078313062,53.55087548038531
6.397828096,1.000218898629092,53.40977332585153
6.400114176,1.0003945602326465,53.266016748047505
6.402400768,1.0005456488560673,53.11985036998915
6.404686848,1.0006625605793078,52.97174531875783
6.40697344,1.0007380398385826,52.82218618993198
6.409260032,1.0007672143603397,52.671889237420885
6.411546112,1.0007480790256538,52.52146681940446
6.413832704,1.0006819321986948,52.371650686260836
6.416118784,1.0005727894155572,52.22311888389767
6.418405376,1.0004277339877838,52.07637893756242
6.420691456,1.0002556876323883,51.93195169396925
6.422978048,1.000067710182063,51.79010802134339
6.425264128,0.9998757202255779,51.651005342218866
6.42755072,0.9996918481532774,51.514626618167334
6.429837312,0.999527784814195,51.38077470815151
6.432123392,0.9993939893112636,51.24908169449208
6.434409984,0.9992988538108485,51.119042258729394
6.436696064,0.9992487351910352,50.99003891157351
6.438982656,0.9992467250203906,50.86142342745986
6.441268736,0.9992930021323404,50.732447391412435
6.443555328,0.9993846190967125,50.60247075562636
6.44584192,0.9995158169414979,50.47085625474515
6.448128,0.9996782925550424,50.3371045973012
6.450414592,0.9998617688357534,50.2008010757045
6.452700672,1.000054540146866,50.06172995575212
6.454987264,1.0002444617525805,49.91988248467705
6.457273344,1.0004194020076922,49.775332554412685
6.459559936,1.000568239989995,49.628447092078446
6.461846016,1.0006816250129515,49.479626043742165
6.464132608,1.0007522413800822,49.32941613179359
6.4664192,1.0007756676139257,49.178552199955995
6.46870528,1.0007502311898058,49.027638304250104
6.470991872,1.0006776146077678,48.877423624348395
6.473277952,1.0005623978121303,48.72854335092047
6.475564544,1.000411744629154,48.58159488687891
6.477850624,1.0002352975614228,48.43698793137282
6.480137216,1.0000441522813155,48.29501496071598
6.482423296,0.9998504164813048,48.15584621628262
6.484709888,0.9996664230480101,48.01942362419655
6.48699648,0.9995038569200452,47.88546791476632
6.48928256,0.9993730273052438,47.75366370675329
6.491569152,0.9992823591030496,47.623437175854555
6.493855232,0.9992375930129669,47.49416967100954
6.496141824,0.9992417186422214,47.36521078742843
6.498427904,0.999294306951179,47.235817875562
6.500714496,0.9993923423301339,47.10530476919584
6.503001088,0.9995293532045998,46.9730831422163
6.505287168,0.9996968302007055,46.83858758869397
6.50757376,0.9998841405109286,46.70151842621866
6.50985984,1.0000793512593098,46.56164280873574
6.512146432,1.000270081168317,46.418939549042776
6.514432512,1.0004442003477025,46.27356349118946
6.516719104,1.0005907500722822,46.12581757261451
6.519005184,1.0007002655075954,45.97622540043505
6.521291776,1.0007660110095689,45.825294620116686
6.523578368,1.000783519311692,45.67373657796544
6.525864448,1.0007517324364317,45.52226736406353
6.52815104,1.0006727428699385,45.371577086728415
6.53043712,1.0005513339330534,45.22229169081268
6.532723712,1.0003953351100037,45.075028309445415
6.535009792,1.000214494590397,44.93016822917757
6.537296384,1.0000202307342774,44.788005305297794
6.539582976,0.9998249453601923,44.6486765898737
6.541869056,0.9996410624756832,44.51206545243342
6.544155648,0.9994800846886074,44.37794780066578
6.546441728,0.9993525041468778,44.2459209205932
6.54872832,0.9992663923246563,44.11544474590307
6.5510144,0.9992271738637561,43.98583511321151
6.553300992,0.999237430769625,43.85641661915231
6.555587072,0.9992965271558728,43.7265036498256
6.557873664,0.9994008358432245,43.595367482107356
6.560160256,0.9995436719874292,43.462398842066776
6.562446336,0.9997160612996255,43.32712901437337
6.564732928,0.9999070344472668,43.189182828737984
6.567019008,1.0001044766640215,43.04838018088884
6.5693056,1.00029589261836,42.90472916503966
6.57159168,1.0004690556360343,42.758402648517375
6.573878272,1.0006130572556349,42.609750254412674
6.576164864,1.000718675050707,42.45925897335037
6.578450944,1.0007791830613593,42.30750102542054
6.580737536,1.0007908469866365,42.15521946675302
6.583023616,1.0007526684136978,42.00310297436748
6.585310208,1.000667215148561,41.85181505905107
6.587596288,1.000539724191603,41.70209809063398
6.58988288,1.0003783327123084,41.554421011218864
6.59216896,1.0001932010025676,41.40922478402937
6.594455552,0.9999960370379871,41.26679371502665
6.596742144,0.9997993165197367,41.12719735841184
6.599028224,0.9996156206101016,40.99035306788333
6.601314816,0.9994565973298162,40.85597026471495
6.603600896,0.9993322892214233,40.72364322890732
6.605887488,0.9992507799453598,40.59278270621462
6.608173568,0.9992171509937917,40.46272117725121
6.61046016,0.999233721718524,40.33278971606058
6.612746752,0.9992993428639966,40.20222091667123
6.615032832,0.9994099669766444,40.070343716022684
6.617319424,0.999558576983754,39.93656201808432
6.619605504,0.9997356775767667,39.8003820911202
6.621892096,0.9999303346790278,39.66148918351154
6.624178176,1.0001298197213766,39.51965949365394
6.626464768,1.0003216610034027,39.3749836191397
6.628750848,1.000493734320817,39.22760741139629
6.63103744,1.000635022476712,39.077959671125456
6.633324032,1.000736541198125,38.926491684357735
6.635610112,1.0007918954938473,38.77387157847013
6.637896704,1.0007974707643927,38.62075244305056
6.640182784,1.0007528463517197,38.46788677328654
6.642469376,1.0006609552702441,38.315977475833996
6.644755456,1.0005274374157767,38.1656713999766
6.647042048,1.0003607372544352,38.0175232887198
6.649328128,1.000171433323119,37.87190777141442
6.65161472,0.9999714514785613,37.72912660756237
6.653901312,0.9997735813492102,37.589181517222066
6.656187392,0.999590222609292,37.45199565792641
6.658473984,0.9994331415607731,37.317252445229016
6.660760064,0.9993123634191312,37.18452215811276
6.663046656,0.9992355565161635,37.05317250854519
6.665332736,0.9992077166322155,36.92259606573715
6.667619328,0.9992305330455984,36.79201793570907
6.66990592,0.999302621805445,36.66071541184267
6.672192,0.9994195996060918,36.528016977377185
6.674478592,0.999573886272397,36.3932915649808
6.676764672,0.9997558021874943,36.2561077296209
6.679051264,0.9999537070070383,36.11613578308131
6.681337344,1.00015518425263,35.97323528176954
6.683623936,1.0003474204942238,35.827411353185184
6.685910016,1.000518127706019,35.67894270649206
6.688196608,1.000656643975398,35.52818706933971
6.6904832,1.0007539499407403,35.37565596554597
6.69276928,1.0008039700889424,35.22205358215753
6.695055872,1.0008034987559102,35.068021705221135
6.697341952,1.000752417925708,34.91433797961613
6.699628544,1.0006541284207568,34.76171750907504
6.701914624,1.0005146249472303,34.610761865353474
6.704201216,1.0003427449516111,34.462051980125636
6.706487808,1.0001493138006017,34.315956737383424
6.708773888,0.999946791264841,34.17269118467363
6.71106048,0.9997478386213886,34.03233296453704
6.71334656,0.9995650123800195,33.89470738799002
6.715633152,0.9994101258722371,33.759511940613784
6.717919232,0.9992929858912375,33.62626603826394
6.720205824,0.9992210101648121,33.49436625362061
6.722491904,0.999198914636002,33.36313014128399
6.724778496,0.9992280812184812,33.231806689931666
6.727065088,0.99930673577321,33.09967028738463
6.729351168,0.9994299238339778,32.966035995273714
6.73163776,0.9995897568940635,32.83030524663933
6.73392384,0.9997762888897027,32.69202447184024
6.736210432,0.9999774249606639,32.5508777055662
6.738496512,1.0001807626748185,32.406770437949
6.740783104,1.0003730942155666,32.259723980053465
6.743069696,1.0005423690860864,32.11003661363887
6.745355776,1.0006778272797558,31.95809579265048
6.747642368,1.0007708617658693,31.80444780103736
6.749928448,1.0008155392170839,31.649747451805496
6.75221504,1.0008088760631406,31.494749637509205
6.75450112,1.0007514299492126,31.34016660331275
6.756787712,1.000646637302918,31.186706363408685
6.759073792,1.0005012345574573,31.035048914434757
6.761360384,1.0003242396686007,30.885677363500843
6.763646976,1.000126963805738,30.73897617591997
6.765933056,0.9999218872512967,30.59518829853763
6.768219648,0.9997219871569988,30.454292787347427
6.770505728,0.9995399404539126,30.316144045633052
6.77279232,0.9993874010321177,30.18039730024406
6.7750784,0.9992739506526134,30.046563353741597
6.777364992,0.9992069330326366,29.913987751959656
6.779651584,0.999190747277747,29.7819956106009
6.781937664,0.999226245589567,29.64984278446406
6.784224256,0.9993113343255616,29.51677332883119
6.786510336,0.999440762372539,29.382093451096587
6.788796928,0.9996061298291167,29.24524142948903
6.791083008,0.999797076245275,29.10574870546231
6.7933696,1.00000147554294,28.963344819840685
6.79565568,1.0002064023184676,28.81792590800684
6.797942272,1.0003987864139634,28.669590309883368
6.800228864,1.0005664332822553,28.518593024847195
6.802514944,1.000698740735473,28.365361361278797
6.804801536,1.0007873316024787,28.210488658159964
6.807087616,1.0008265440432198,28.054648168264944
6.809374208,1.0008137547528988,27.898559827090438
6.811660288,1.0007497989844198,27.74301080398793
6.81394688,1.0006386743304294,27.588643691098085
6.81623296,1.0004873413742732,27.43617777484443
6.818519552,1.0003054170724293,27.286051458666154
6.820806144,1.000104355735347,27.138684220310896
6.823092224,0.9998968933428471,26.994241294293147
6.825378816,0.9996962492510864,26.852733613563206
6.827664896,0.9995150123961279,26.713962791210992
6.829951488,0.9993648391852394,26.577564466980405
6.832237568,0.9992554202448082,26.443007166600253
6.83452416,0.9991933729963492,26.30967457915007
6.836810752,0.9991830730956146,26.17683484849459
6.839096832,0.9992249542138076,26.043740840521505
6.841383424,0.99931658185992,25.909605631722997
6.843669504,0.9994520137292828,25.773806742144355
6.845956096,0.9996228413690382,25.635719832501582
6.848242176,0.9998182167579479,25.494934042025285
6.850528768,1.0000256350545467,25.351182198520558
6.852814848,1.0002320127772468,25.20436970796095
6.85510144,1.000424295277615,25.054620345374445
6.857388032,1.0005902941865976,24.902206900151825
6.859674112,1.0007193697506227,24.74762447614028
6.861960704,1.000803477892482,24.59144241124137
6.864246784,1.000837067054096,24.43432907429823
6.866533376,1.0008181215618606,24.277106896834216
6.868819456,1.000747697601243,24.120467355055116
6.871106048,1.0006302634977113,23.965122790381056
6.87339264,1.0004731738699564,23.811733107755998
6.87567872,1.0002863315113324,23.66081085419485
6.877965312,1.0000816480435322,23.51265553907139
6.880251392,0.9998719361373501,23.36747649086872
6.882537984,0.9996705596383431,23.225248007258315
6.884824064,0.9994903616925451,23.085749616453743
6.887110656,0.9993427792311741,22.948606236153548
6.889396736,0.9992371770888769,22.813253599044913
6.891683328,0.9991803847070481,22.67905424013452
6.89396992,0.9991759370785948,22.545260602597285
6.896256,0.9992242442007369,22.41109647165632
6.898542592,0.9993222654952171,22.275835039082395
6.900828672,0.9994637886828149,22.138792014169926
6.903115264,0.9996399352925673,21.999359694624097
6.905401344,0.999839505711317,21.85719376560881
6.907687936,1.000049784458271,21.711965578545247
6.909974528,1.0002576354645694,21.563658963321608
6.912260608,1.0004495521024963,21.412399659043434
6.9145472,1.0006137172521392,21.25850855513692
6.91683328,1.0007394981050566,21.102463234661066
6.919119872,1.0008189849819265,20.944867712761116
6.921405952,1.0008470366662794,20.786447408189908
6.923692544,1.0008218038461498,20.62795211716208
6.925978624,1.0007450008724599,20.470153074772476
6.928265216,1.0006212534706835,20.31373621351982
6.930551808,1.0004584901793707,20.15934247104283
6.932837888,1.0002669021151176,20.007494421704333
6.93512448,1.0000586487269987,19.858475778149916
