freq,mag,phase
6.0,1.0006417937269412,18.166841457963017
6.005625856,1.0004800906537619,18.000673442835716
6.011251712,1.0002915921225162,17.836889882461254
6.016877568,1.0000864143540287,17.67582027409809
6.022503424,0.9998764450490261,17.517623148721327
6.02812928,0.9996739475341077,17.362309266331188
6.033755136,0.9994909240041836,17.209651435924687
6.039380992,0.9993378364007639,17.05935382010902
6.045006848,0.9992238201941275,16.91086483014187
6.050632704,0.9991555864781129,16.763642156523048
6.05625856,0.99913688014876,16.616964068987752
6.061884416,0.9991691334888849,16.470239573780848
6.067510784,0.9992503028385666,16.322687689241825
6.07313664,0.9993757704147099,16.173664340230786
6.078762496,0.9995382328437663,16.022619296272826
6.084388352,0.9997280094396407,15.86912256951279
6.090014208,0.9999343062723925,15.712809688229623
6.095640064,1.0001449897644668,15.55359129193633
6.10126592,1.0003475750544935,15.391471944523953
6.106891776,1.0005305295043179,15.22662067094669
6.112517632,1.0006830734664451,15.059403705629574
6.118143488,1.0007961794290656,14.890345789049533
6.123769344,1.0008633685145676,14.720005983011733
6.1293952,1.0008807966126105,14.549056064334847
6.135021056,1.0008471767060476,14.378190377768867
6.140646912,1.0007645823606415,14.208075305966188
6.146272768,1.0006377654525023,14.039447704384902
6.151898624,1.0004741496736804,13.872792183260975
6.15752448,1.0002831858149495,13.708565025969792
6.163150336,1.0000759215570836,13.547149232010794
6.168776192,0.9998645574388008,13.388581071164953
6.174402048,0.9996614541775627,13.232854439371255
6.180027904,0.999478273954764,13.079841847477102
6.18565376,0.9993259717609436,12.929146676504077
6.191280128,0.9992133054783983,12.780328280122406
6.196905984,0.9991470113541501,12.632677402191709
6.20253184,0.9991307904873609,12.485601146972092
6.208157696,0.9991658796271227,12.338393915959724
6.213783552,0.9992500761026716,12.190342688699864
6.219409408,0.9993784821777176,12.040760261551046
6.225035264,0.9995437012400749,11.889120699844998
6.23066112,0.9997360068957076,11.734979090047286
6.236286976,0.9999443673677806,11.57800530694976
6.241912832,1.0001563739670893,11.418072880299666
6.247538688,1.0003597127279447,11.255240008429269
6.253164544,1.000542710979549,11.08970937156197
6.2587904,1.0006945208086018,10.921804036112349
6.264416256,1.0008063782668144,10.752028467005543
6.270042112,1.0008715517263271,10.580995533797367
6.275667968,1.0008864561610074,10.409426724381875
6.281293824,1.000850061833972,10.237919966084224
6.28691968,1.000764597155447,10.067285879286505
6.292545536,1.0006347471632997,9.898127174051808
6.298171392,1.0004682806610745,9.730991200468502
6.303797248,1.000274799414796,9.566311324164134
6.309423104,1.000065640738026,9.40442601103903
6.315049472,0.9998528791519244,9.245495244053815
6.320675328,0.9996489325620187,9.089407801281846
6.326301184,0.9994657749184375,8.935997863772391
6.33192704,0.99931405723041,8.784959693952862
6.337552896,0.999202841193975,8.635665662879754
6.343178752,0.99913840645693,8.487675022946194
6.348804608,0.9991247634301822,8.34014863759059
6.354430464,0.9991624843683112,8.192450121888543
6.36005632,0.999249618508889,8.043825139229254
6.365682176,0.9993810681853085,7.893702612750555
6.371308032,0.9995491854511076,7.741428029067644
6.376933888,0.9997439513251178,7.586639532267735
6.382559744,0.99995432809949,7.428990774402284
6.3881856,1.000167775719702,7.268365073957074
6.393811456,1.000371949428714,7.104823259069306
6.399437312,1.0005549742919704,6.9385275429721345
6.405063168,1.0007060967189922,6.769895393199234
6.410689024,1.000816502744901,6.599415580216138
6.41631488,1.0008798393651983,6.427743272679395
6.421940736,1.0008923085147383,6.255462822725793
6.427566592,1.000853231058381,6.083416792594339
6.433192448,1.0007646767295726,5.9121448050047976
6.438818816,1.0006318783322896,5.742417651883647
6.444444672,1.0004626055972856,5.574801174794005
6.450070528,1.0002666677079952,5.409685451326171
6.455696384,1.0000553270034727,5.2473758068759295
6.46132224,0.999841113008042,5.087996645321962
6.466948096,0.9996363170948278,4.9315339381582195
6.472573952,0.9994531646648815,4.777764876083207
6.478199808,0.999302112872661,4.626287714544171
6.483825664,0.9991920975062855,4.476628002732505
6.48945152,0.9991296814548809,4.328169964532955
6.495077376,0.9991183887315537,4.180171407708762
6.500703232,0.9991589951793783,4.031976087057003
6.506329088,0.9992491665529222,3.8828235945657155
6.511954944,0.9993835439325504,3.732110421475803
6.5175808,0.9995544460855398,3.5792411555710837
6.523206656,0.9997518262353211,3.423755679965337
6.528832512,0.9999641952442968,3.2654435096496854
6.534458368,1.0001790902431882,3.1040786826134212
6.540084224,1.0003840809979008,2.9398032383287758
6.54571008,1.0005672747633718,2.772774557809496
6.551335936,1.000717732938876,2.6033975350266316
6.556961792,1.0008268163307135,2.432218455785692
6.56258816,1.0008881723059053,2.259794716744078
6.568214016,1.0008981946160591,2.086867347951953
6.573839872,1.0008562590395054,1.9141393121222798
6.579465728,1.0007648712702724,1.7423150690008846
6.585091584,1.0006290997358163,1.5720385221644189
6.59071744,1.0004568181514948,1.4038617771720907
6.596343296,1.0002583863887886,1.2382772708186613
6.601969152,1.000044987785105,1.0754979635593147
6.607595008,0.9998292452572473,0.9156942527144106
6.613220864,0.9996237651090432,0.7588277674887846
6.61884672,0.9994404114908892,0.6046391329306915
6.624472576,0.9992900174264835,0.452770919138228
6.630098432,0.99918126650789,0.3026915277745667
6.635724288,0.9991206737284688,0.15375137902598526
6.641350144,0.9991118950101521,0.00526439040845336
6.646976,0.9991552547804277,-0.14343414509279157
6.652601856,0.9992484058788229,-0.29309161713272014
6.658227712,0.9993857406893429,-0.44444340559982004
6.663853568,0.9995595916118042,-0.5979321702591968
6.669479424,0.9997594752403215,-0.7540769436992555
6.67510528,0.9999738643895185,-0.9131255142542005
6.680731136,1.0001904193089415,-1.0752261991482495
6.686356992,1.000396255892755,-1.2402544438355827
6.69198336,1.0005794029738844,-1.4080370234156496
6.697609216,1.0007293597940248,-1.5781780215431538
6.703235072,1.0008372327685624,-1.7500934461532005
6.708860928,1.0008966500602143,-1.923236813550874
6.714486784,1.0009043226358578,-2.0968451882085777
6.72011264,1.0008597176890746,-2.270239863584121
6.725738496,1.0007652264964142,-2.4426997012877973
6.731364352,1.0006264157773972,-2.6135614897114023
6.736990208,1.0004514235441435,-2.7822573274836215
6.742616064,1.0002503044571718,-2.9483489919545103
6.74824192,1.0000348638506176,-3.111563885783056
6.753867776,0.9998176208950639,-3.271846486101171
6.759493632,0.9996112236708894,-3.4291455414811165
6.765119488,0.9994276063078186,-3.5837338686879185
6.770745344,0.9992778152677231,-3.73604242660874
6.7763712,0.9991704175735718,-3.886549036323784
6.781997056,0.9991117152256417,-4.035947622989501
6.787622912,0.9991052874920822,-4.184894704296454
6.793248768,0.9991513715295612,-4.334137863326501
6.798874624,0.9992475036489153,-4.484403272629222
6.80450048,0.9993879618167083,-4.636343857107614
6.810126336,0.999564647728597,-4.790500017386764
6.815752704,0.9997671751373252,-4.947335668833648
6.82137856,0.9999836572860888,-5.107102397996267
6.827004416,1.0002017320773269,-5.269950790917347
6.832630272,1.000408519955193,-5.435740229214537
6.838256128,1.0005918347092404,-5.604300721812716
6.843881984,1.0007411940652946,-5.775196526651991
6.84950784,1.0008478794895042,-5.947896689874069
6.855133696,1.000905436353564,-6.121768161849999
6.860759552,1.0009106847284657,-6.296085108818157
6.866385408,1.0008632552817138,-6.4701684817196625
6.872011264,1.000765828995841,-6.6432592408304565
6.87763712,1.000623915418708,-6.814706121633975
6.883262976,1.0004460502598747,-6.983984556679745
6.888888832,1.0002423693709923,-7.150602206727133
6.894514688,1.0000247714877508,-7.314325544848169
6.900140544,0.9998060023185609,-7.475011446739712
6.9057664,0.9995985852010406,-7.6327562438947245
6.911392256,0.9994148930024112,-7.7878011312329765
6.917018112,0.9992656623691111,-7.940551367253429
6.922643968,0.9991594428358587,-8.091535179252526
6.928269824,0.9991026327540468,-8.241385586227862
6.93389568,0.9990986277853451,-8.390830305882671
6.939522048,0.9991474785517167,-8.540624280522932
6.945147904,0.9992465282696386,-8.691471975831272
6.95077376,0.9993901037266096,-8.84403007820663
6.956399616,0.9995695863420926,-8.998850960444368
6.962025472,0.9997746908016683,-9.156396355653492
6.967651328,0.999993441690491,-9.316931651787035
6.973277184,1.0002130906883286,-9.480505559158551
6.97890304,1.0004207690485771,-9.647087328473967
6.984528896,1.0006043207401631,-9.816469676527714
6.990154752,1.0007532352423307,-9.98813492812683
6.995780608,1.000858564964163,-10.161622300290858
7.001406464,1.0009144555311804,-10.336261773907944
7.00703232,1.000917236107596,-10.511339062446185
7.012658176,1.000867022515168,-10.686087143398453
7.018284032,1.0007666237893655,-10.859813346316981
7.023909888,1.0006217687235126,-11.031921271634044
7.029535744,1.0004409556420117,-11.20173345592847
7.0351616,1.0002346103071087,-11.368894443493984
7.040787456,1.000014752064847,-11.533114766619976
7.046413312,0.9997942645596167,-11.69428259733979
7.052039168,0.9995859440945137,-11.852507004466768
7.057665024,0.9994021255159143,-12.007986725996162
7.063291392,0.9992532646452631,-12.161212269172982
7.068917248,0.9991482053067452,-12.312619774686343
7.074543104,0.999093287136438,-12.462982336211075
7.08016896,0.9990916109679062,-12.612969492851795
7.085794816,0.9991432621480152,-12.763320513429438
7.091420672,0.9992453104580273,-12.914735209383558
7.097046528,0.9993919628255128,-13.067945716452947
7.102672384,0.9995743944660165,-13.223450620345512
7.10829824,0.9997820874782211,-13.381704814203975
7.113924096,1.0000031274589356,-13.542974563270697
7.119549952,1.000224355340774,-13.707370664650528
7.125175808,1.000433137434434,-13.874756776409399
7.130801664,1.0006169619889098,-14.044925134363526
7.13642752,1.0007653548713742,-14.21739536905532
7.142053376,1.0008695517392525,-14.391686320519868
7.147679232,1.000923466391097,-14.567094702407806
7.153305088,1.0009240327249598,-14.742928184061046
7.158930944,1.0008710174662776,-14.91840899176955
7.1645568,1.000767634485702,-15.09283252548328
7.170182656,1.0006196952592818,-15.265536866724826
7.175808512,1.0004358613204776,-15.435949600713057
7.181434368,1.000226941893028,-15.60367674890864
7.187060224,1.000004810279583,-15.768421951104617
7.192686592,0.9997827020534455,-15.930102285195396
7.198312448,0.9995733106478686,-16.088778799644675
7.203938304,0.9993890995984774,-16.24472405289233
7.20956416,0.999240784719792,-16.39839583005656
7.215190016,0.9991369464835153,-16.55033202973938
7.220815872,0.9990837778791074,-16.701196232818557
7.226441728,0.9990844269530295,-16.851673421239376
7.232067584,0.9991388072063221,-17.002634450524038
7.23769344,0.9992438478291561,-17.15465511769742
7.243319296,0.9993934894111633,-17.308523638860073
7.248945152,0.9995789742735033,-17.464693885846195
7.254571008,0.9997894942144182,-17.62367779873444
7.260196864,1.0000126923256203,-17.78574231200807
7.26582272,1.000235621255481,-17.950924642501924
7.271448576,1.0004453265408138,-18.119134575392295
7.277074432,1.0006295306159738,-18.290116259307243
7.282700288,1.000777444443128,-18.463433519118187
7.288326144,1.000880520873342,-18.638530751667897
7.293952,1.0009328134000177,-18.814723289862805
7.299577856,1.0009308724519974,-18.99130986102753
7.305203712,1.0008751632523107,-19.16753442241469
7.310829568,1.0007688874913605,-19.34267072250309
7.316455936,1.0006178243911406,-19.516022901134143
7.322081792,1.0004310331687534,-19.687053803607302
7.327707648,1.0002193462806261,-19.85536708809684
7.333333504,0.9999949153373106,-20.02063812289725
7.33895936,0.9997710777254093,-20.182816650974427
7.344585216,0.9995606938838237,-20.342015740476473
7.350211072,0.9993761605728924,-20.49846953003706
7.355836928,0.9992281717956402,-20.65261256637429
7.361462784,0.9991254036541718,-20.805065557640905
7.36708864,0.9990740232572995,-20.95642358551563
7.372714496,0.9990770282406616,-21.107464668855158
7.378340352,0.9991341993419814,-21.25895029077684
7.383966208,0.9992423091361097,-21.411611700321107
7.389592064,0.999395052522012,-21.566123971896495
7.39521792,0.9995834807633575,-21.723052108976475
7.400843776,0.999796662851809,-21.882758308199627
7.406469632,1.0000222733310482,-22.045593699261097
7.412095488,1.000246995646413,-22.211586112707195
7.417721344,1.00045771877521,-22.380655211147207
7.4233472,1.0006423499804287,-22.55247087569991
7.428973056,1.00078989293874,-22.72665840386206
7.434598912,1.000891901386196,-22.902558488130833
7.44022528,1.000942279140336,-23.079600716605423
7.445851136,1.0009382569123815,-23.25696202568617
7.451476992,1.0008797864294723,-23.433955971122842
7.457102848,1.0007703906680485,-23.609778608031373
7.462728704,1.0006161793285127,-23.78381240997373
7.46835456,1.000426519392577,-23.95550164173702
7.473980416,1.0002120120458575,-24.124388824724175
7.479606272,0.999985193607574,-24.290223904357976
7.485232128,0.9997596153736883,-24.452947286426813
7.490857984,0.9995480715663202,-24.612658515479445
7.49648384,0.9993631386078786,-24.76958164638095
7.502109696,0.999215479120213,-24.924209834031256
7.507735552,0.9991138577477124,-25.077172574371147
7.513361408,0.9990641028893623,-25.229075238052417
7.518987264,0.9990695404004659,-25.380682095026128
7.52461312,0.9991293296895896,-25.532769391812387
7.530238976,0.999240437425767,-25.686087089539857
7.535864832,0.9993962576617187,-25.841252254657412
7.541490688,0.9995879004100617,-25.998922094060045
7.547116544,0.9998038009951126,-26.15939986523239
7.5527424,1.0000316338679744,-26.32303057024989
7.558368256,1.0002583331014165,-26.489858310531268
7.563994624,1.0004702609465932,-26.659769617020608
7.56962048,1.000655160471703,-26.832440575375692
7.575246336,1.000802514295209,-27.007465692890275
7.580872192,1.0009033573822523,-27.184278864108713
7.586498048,1.0009521407857762,-27.36211848023967
7.592123904,1.0009457293976258,-27.540296733349287
7.59774976,1.0008845456585314,-27.71806296187791
7.603375616,1.0007721617458674,-27.894623433835054
7.609001472,1.0006149180817574,-28.069344771239926
7.614627328,1.0004220498383325,-28.241673288357127
7.620253184,1.000204819876121,-28.411181451897566
7.62587904,0.9999756851051793,-28.577624667766386
7.631504896,0.9997481488960367,-28.740863208174876
7.637130752,0.9995354917745125,-28.901080515277044
7.642756608,0.9993499854272228,-29.058539995307118
7.648382464,0.9992026413425209,-29.213698642745943
7.65400832,0.999101942792347,-29.367172246893446
7.659634176,0.999054048498908,-29.519643539700724
7.665260032,0.9990615806061658,-29.67178189049869
7.670885888,0.999124299496417,-29.824499193837962
7.676511744,0.9992384960639351,-29.978440927554896
7.6821376,0.9993974527768624,-30.13433283253948
7.687763968,0.9995919798177063,-30.29269475877287
7.693389824,0.9998108493620038,-30.453977205373203
7.69901568,1.0000411992335214,-30.618435976381235
7.704641536,1.0002695871099334,-30.786106476090872
7.710267392,1.000482783039554,-30.956859334321376
7.715893248,1.0006683402825285,-31.130439352958465
7.721519104,1.0008153744803678,-31.306345028598003
7.72714496,1.0009152708465197,-31.484024319562334
7.732770816,1.0009623118209776,-31.662737552996088
7.738396672,1.0009537138075613,-31.841744140063987
7.744022528,1.000889776252906,-32.020294086130846
7.749648384,1.0007743010672427,-32.19760550410567
7.75527424,1.0006137887185687,-32.37307586644658
7.760900096,1.0004179786200886,-32.54606315243125
7.766525952,1.0001978004508956,-32.7161934474504
7.772151808,0.9999662152426007,-32.883201754348555
7.777777664,0.9997367536345586,-33.047043428262064
7.78340352,0.9995227247997978,-33.20782001744171
7.789029376,0.9993367395166824,-33.36579121709219
7.794655232,0.9991897164385313,-33.52149708107254
7.800281088,0.9990899887642557,-33.67549236586002
7.805906944,0.9990435925418276,-33.82850208349645
7.8115328,0.9990534132333353,-33.981255565097904
7.817159168,0.9991188679306471,-34.13458350254772
7.822785024,0.9992360683020944,-34.289183124729234
7.82841088,0.9993981905576002,-34.445774704243085
7.834036736,0.999595916665259,-34.60487485343579
7.839662592,0.9998176304090377,-34.766980365345
7.845288448,1.000050516039274,-34.93224302756053
7.850914304,1.000281001421297,-35.100775630832345
7.85654016,1.0004954521856588,-35.272432255773815
7.862166016,1.0006814797126762,-35.44687860423405
7.867791872,1.0008283549478774,-35.62371077176033
7.873417728,1.000927371369599,-35.80225715222981
7.879043584,1.0009726880943446,-35.98187574442865
7.88466944,1.0009617243525042,-36.16174478847838
7.890295296,1.0008951329636957,-36.34107438082746
7.895921152,1.0007766046247624,-36.51923061595876
7.901547008,1.0006130614624869,-36.69538989070447
7.907172864,1.0004139066777218,-36.86907358309625
7.91279872,1.0001909740413228,-37.03984016210744
7.918424576,0.9999568438973514,-37.20746006619605
7.924050432,0.9997253890815339,-37.37190714910631
7.929676288,0.9995099181044628,-37.533226929463545
7.935302144,0.9993233651741225,-37.691745894917865
7.940928512,0.9991764079530705,-37.84801209932895
7.946554368,0.9990776907465675,-38.002537913725554
7.952180224,0.9990330601602901,-38.15610072006576
7.95780608,0.9990451039505642,-38.30948101214844
7.963431936,0.9991131629731047,-38.46341597740578
7.969057792,0.9992333759640946,-38.618726014103345
7.974683648,0.9993987380264648,-38.77603024440502
7.980309504,0.9995996199923844,-38.93592488448358
7.98593536,0.9998243158387689,-39.098774941544825
7.991561216,1.000059805275627,-39.26490307968897
7.997187072,1.0002921982177146,-39.4343001565947
8.002812928,1.0005081157470699,-39.606867473492194
8.008438784,1.000694780557713,-39.78223815999042
8.01406464,1.000841500392955,-39.95997403028439
8.019690496,1.0009395421433176,-40.1394617328202
8.025316352,1.000983473218019,-40.31994174966535
8.030942208,1.0009702457562148,-40.50067787873727
8.036568064,1.0009009637108983,-40.680867881876765
8.04219392,1.000779357621289,-40.85979506951658
8.047819776,1.0006126776434239,-41.036737050531116
8.053445632,1.000410413230268,-41.21112192570306
8.059071488,1.0001842852509921,-41.38257453737614
8.064697856,0.9999476161085379,-41.55084476033237
8.070323712,0.9997140601072272,-41.71584585392215
8.075949568,0.9994972143293666,-41.877755055446244
8.081575424,0.9993098667066386,-42.03684493976574
8.08720128,0.9991630717687632,-42.19365365115631
8.092827136,0.9990651799978738,-42.34874918894689
8.098452992,0.9990220834433454,-42.502913580959216
8.104078848,0.9990363077325345,-42.65688835471499
8.109704704,0.9991071494459416,-42.811471451556564
8.11533056,0.9992303950278613,-42.96745101282186
8.120956416,0.9993989713719669,-43.125502629705025
8.126582272,0.9996030702868,-43.286150670675475
8.132208128,0.9998309216101023,-43.44984921151735
8.137833984,1.0000688485587257,-43.61681977894428
8.14345984,1.0003034579749284,-43.78713359926422
8.149085696,1.0005207573310002,-43.96058318334856
8.154711552,1.0007082965400844,-44.13690754274243
8.160337408,1.000854943453675,-44.31556908096905
8.165963264,1.0009522417028405,-44.495997169565875
8.17158912,1.0009944147900685,-44.677402318023866
8.177214976,1.0009790485262808,-44.859048616280205
8.182840832,1.0009071861215486,-45.04010544796749
8.1884672,1.0007824715049012,-45.21982738433392
8.194093056,1.0006125231365663,-45.397546049408035
8.199718912,1.0004068533434627,-45.57267719376674
8.205344768,1.0001778451276098,-45.744814879957765
8.210970624,0.9999383693842201,-45.91376535695498
8.21659648,0.9997027119285704,-46.07936747923573
8.222222336,0.9994843244470389,-46.24186938884408
8.227848192,0.9992963042773566,-46.401530679205536
8.233474048,0.9991493380467728,-46.55890672457768
8.239099904,0.9990523132532673,-46.71459854638949
8.24472576,0.9990108212611324,-46.8693513550905
8.250351616,0.9990271266745948,-47.02395546308959
