freq,mag,phase
6.0,0.999399270032559,-58.06894227106818
6.002285568,0.9993133123267778,-58.16953288312395
6.004571648,0.9992693172818511,-58.2691603410029
6.006857216,0.9992715020997147,-58.368506232853065
6.009142784,0.9993200709648866,-58.46823476598517
6.011428352,0.9994117466427543,-58.56904924032369
6.013714432,0.9995407786437704,-58.67142844066118
6.016,0.9996987447414711,-58.77591375344514
6.018285568,0.999875840954538,-58.88290333206804
6.020571648,1.0000606376391927,-58.99256170819053
6.022857216,1.0002414334679628,-59.10486087006528
6.025142784,1.0004064974226299,-59.21974126319975
6.027428352,1.0005455564180386,-59.33679383035249
6.029714432,1.00064951324207,-59.45563664842435
6.032,1.0007120270555805,-59.575753638094696
6.034285568,1.000728873427073,-59.696444711194836
6.036571648,1.000699050976319,-59.81707156450207
6.038857216,1.0006244768011452,-59.936950331279796
6.041142784,1.0005099416346552,-60.055476286891405
6.043428352,1.0003623730647069,-60.172087354080304
6.045714432,1.000191616519853,-60.286405870204604
6.048,1.0000081851632445,-60.398211795830306
6.050285568,0.9998240795564324,-60.50733484769615
6.052571648,0.9996507021958528,-60.61382552703873
6.054857216,0.9994994598292475,-60.7179819477185
6.057142784,0.9993796454933661,-60.82019317493412
6.059428352,0.9992991889561768,-60.92093471141722
6.061714432,0.9992632168505654,-61.02085597512928
6.064,0.9992740698038567,-61.120584247476195
6.066285568,0.9993308685205295,-61.22084874923446
6.068571648,0.9994301241767616,-61.32226298911579
6.070857216,0.9995655089077393,-61.42539120579334
6.073142784,0.9997284784508315,-61.53074786712044
6.075428352,0.9999085898970973,-61.6385992646663
6.077714432,1.0000942533960573,-61.74914041502301
6.08,1.0002737977216243,-61.86233734208741
6.082285568,1.0004357456106994,-61.97808997741744
6.084571648,1.000569470976665,-62.09596304485387
6.086857216,1.0006669462249096,-62.21555304027391
6.089142784,1.000721522947917,-62.336274701976386
6.091428352,1.000730069741128,-62.4574461974591
6.093714432,1.0006918777133396,-62.578472036167426
6.096,1.000609417505462,-62.69862508671846
6.098285568,1.0004876246833707,-62.817248438469974
6.100571648,1.00033458717486,-62.93397848846658
6.102857216,1.0001599765714317,-63.04827073344776
6.105142784,0.9999747433551882,-63.159997412122934
6.107428352,0.9997908390012301,-63.26902414240157
6.109714432,0.9996199853040073,-63.375480021132994
6.112,0.9994731031630201,-63.47966050297147
6.114285568,0.999359588433429,-63.58196104461552
6.116571648,0.9992865391823096,-63.68287673197074
6.118857216,0.999258712128001,-63.783095188084694
6.121142784,0.9992779456005745,-63.8832655496627
6.123428352,0.9993429738432457,-63.98404408454427
6.125714432,0.9994497879718128,-64.08609218499402
6.128,0.9995915579975208,-64.19001646605561
6.130285568,0.999758913139023,-64.29613919117715
6.132571648,0.9999417482856423,-64.40489528058912
6.134857216,1.000127977207818,-64.51634234507681
6.137142784,1.0003057417939887,-64.63046971972372
6.139428352,1.0004640152955173,-64.74700398880096
6.141714432,1.0005924114249596,-64.86572371490898
6.144,1.0006828276334017,-64.98600015474352
6.146285568,1.0007297913020472,-65.10728701841373
6.148571648,1.0007298267243172,-65.2289869984239
6.150857216,1.0006831950040065,-65.35029730088753
6.153142784,1.0005926690040927,-65.47070120559157
6.155428352,1.00046422827388,-65.5894807108427
6.157714432,1.0003059106092271,-65.70620425817116
6.16,1.0001277965892006,-65.82050114680683
6.162285568,0.9999413907753925,-65.93215840361923
6.164571648,0.9997582290311757,-66.04111029705948
6.166857216,0.9995901673388267,-66.14751451642113
6.169142784,0.9994479679260495,-66.251695376586
6.171428352,0.9993406113044139,-66.3540932563253
6.173714432,0.9992752253457364,-66.45520011840209
6.176,0.9992557671724498,-66.55568395785332
6.178285568,0.9992834685886987,-66.65627406545234
6.180571648,0.9993565729466292,-66.7576252282016
6.182857216,0.9994706422111103,-66.86035463019913
6.185142784,0.9996183989620957,-66.96501143430102
6.187428352,0.9997901057393045,-67.07198190849701
6.189714432,0.9999751408167785,-67.18161657632882
6.192,1.0001614838979556,-67.29395588917512
6.194285568,1.0003372662367158,-67.40892877515041
6.196571648,1.000491510242261,-67.52637281566473
6.198857216,1.0006141293022184,-67.6457982986789
6.201142784,1.000697720458686,-67.76675956918544
6.203428352,1.0007364383636834,-67.88864103608263
6.205714432,1.0007281248360824,-68.01075948287708
6.208,1.0006730656213343,-68.13239027324988
6.210285568,1.0005749272130204,-68.25297998820005
6.212571648,1.0004399015736691,-68.37188347699978
6.214857216,1.000276651873139,-68.48865660864057
6.217142784,1.000095256282742,-68.60287813296787
6.219428352,0.9999078372989062,-68.71444328557646
6.221714432,0.999725617555157,-68.82332620751522
6.224,0.9995608500473134,-68.92968537498844
6.226285568,0.9994236027682261,-69.03390015969005
6.228571648,0.9993230077427269,-69.13633190744677
6.230857216,0.9992651789791044,-69.2376868683672
6.233142784,0.9992539288215054,-69.33850979751641
6.235428352,0.9992903052203895,-69.43952408609609
6.237714432,0.9993715707523607,-69.54145177294714
6.24,0.9994926689314507,-69.64484771701171
6.242285568,0.9996460725835169,-69.75022909171021
6.244571648,0.99982178520148,-69.85808584625838
6.246857216,1.0000086126036458,-69.96855250337435
6.249142784,1.0001947543892986,-70.08178784169385
6.251428352,1.000368417228491,-70.19764700180014
6.253714432,1.0005182422407684,-70.31587862513837
6.256,1.0006350283481689,-70.43606806379748
6.258285568,1.0007111805017406,-70.55769999920847
6.260571648,1.0007416252744197,-70.68010756419994
6.262857216,1.0007247731149294,-70.80261869703646
6.265142784,1.0006614861142862,-70.92456759897824
6.267428352,1.0005557833265457,-71.045312156171
6.269714432,1.0004146641130305,-71.16426244567769
6.272,1.0002465345977334,-71.28101926741073
6.274285568,1.0000625072868794,-71.39520142623984
6.276571648,0.9998742826150873,-71.50668993424851
6.278857216,0.9996937602826531,-71.61548668865382
6.281142784,0.9995323021019299,-71.72182457104196
6.283428352,0.9994004357129812,-71.82600727623978
6.285714432,0.9993065085639917,-71.92859312508628
6.288,0.9992565341081258,-72.03010894290107
6.290285568,0.9992540282689446,-72.13129062141012
6.292571648,0.999298621450163,-72.23273330406803
6.294857216,0.9993877818680484,-72.33522083612554
6.297142784,0.9995158578066837,-72.43930539725645
6.299428352,0.9996745020809809,-72.54548744391785
6.301714432,0.9998537615836441,-72.65416518307177
6.304,1.000042169055098,-72.7655123879427
6.306285568,1.0002278368718303,-72.87961753302858
6.308571648,1.000398806860027,-72.99634623195372
6.310857216,1.0005439139465684,-73.11535928575692
6.313142784,1.0006544598863827,-73.23623659398022
6.315428352,1.0007230485733527,-73.35851671603717
6.317714432,1.0007455347871255,-73.48140183184432
6.32,1.0007201421658045,-73.60433763802334
6.322285568,1.0006486111467316,-73.72653938892027
6.324571648,1.0005356712578202,-73.84741659385999
6.326857216,1.0003882718475643,-73.96644762114998
6.329142784,1.0002157279660056,-74.08311473181224
6.331428352,1.0000292156087442,-74.19724403431901
6.333714432,0.9998406176731445,-74.30862165156852
6.336,0.9996618554589888,-74.41735890760586
6.338285568,0.9995044527673943,-74.5236103520152
6.340571648,0.9993782509556648,-74.62786935463996
6.342857216,0.9992914681085833,-74.7305266408901
6.345142784,0.9992494889327215,-74.83226688268644
6.347428352,0.9992552227162204,-74.93380593649064
6.349714432,0.9993081950524906,-75.03571689601368
6.352,0.9994053045609106,-75.13875630434227
6.354285568,0.9995398944459934,-75.2435238533826
6.356571648,0.9997037012162,-75.35047781220581
6.358857216,0.99988645207413,-75.45997970623019
6.361142784,1.0000760682226246,-75.57220627981867
6.363428352,1.0002606453912628,-75.68714157679696
6.365714432,1.0004285898542167,-75.80473385558517
6.368,1.0005689122724275,-75.92450420780732
6.370285568,1.0006730667864296,-76.04613754509376
6.372571648,1.000733803275674,-76.16895492224937
6.374857216,1.000747972789282,-76.29237531864226
6.377142784,1.0007140486529313,-76.41558867552588
6.379428352,1.0006344883736846,-76.53802001119764
6.381714432,1.0005143121142712,-76.65905949288035
6.384,1.0003610678865442,-76.77809791691534
6.386285568,1.0001845715771274,-76.89475555979602
6.388571648,0.9999959616969836,-77.00874707982666
6.390857216,0.9998074463382063,-77.12001062033922
6.393142784,0.9996307548495064,-77.2286765714176
6.395428352,0.9994774390709071,-77.33489054583622
6.397714432,0.9993570908892557,-77.43913145074634
6.4,0.9992774163022359,-77.54192177272932
6.402285568,0.999243748704046,-77.64389322776151
6.404571648,0.9992580396284663,-77.74575234269648
6.406857216,0.9993194145218403,-77.8481855046112
6.409142784,0.9994239487401986,-77.95180499070392
6.411428352,0.9995651283750498,-78.05727041897214
6.413714432,0.9997339022848399,-78.16501208639366
6.416,0.9999193560706975,-78.27533950201823
6.418285568,1.0001098130147204,-78.38838528099026
6.420571648,1.0002931654666152,-78.50424436251947
6.422857216,1.000457592137187,-78.62261301082285
6.425142784,1.000592736188811,-78.74318112248385
6.427428352,1.000689992073739,-78.86544089420032
6.429714432,1.0007432459940158,-78.98881365010256
6.432,1.0007487961628416,-79.11263098077929
6.434285568,1.0007064275732462,-79.2362239160986
6.436571648,1.0006190237340344,-79.35885374957307
6.438857216,1.000491797324523,-79.47996209162325
6.441142784,1.0003329496038607,-79.59899364320319
6.443428352,1.0001527505885823,-79.71559033620787
6.445714432,0.9999623259096035,-79.82948728529028
6.448,0.99977426355294,-79.94063565931826
6.450285568,0.999600099964086,-80.049166301386
6.452571648,0.9994513096667595,-80.15535350158734
6.454857216,0.9993371025591685,-80.259590889196
6.457142784,0.9992650109314969,-80.36254742462485
6.459428352,0.9992394675721935,-80.46473921430979
6.461714432,0.9992623086266044,-80.56699497917523
6.464,0.9993318968031059,-80.66987345457561
6.466285568,0.999444000857128,-80.77410713881254
6.468571648,0.999591357298976,-80.8802746105308
6.470857216,0.999764578429426,-80.98879327640354
6.473142784,0.9999526749160927,-81.09991956173275
6.475428352,1.0001436640583232,-81.21385077468496
6.477714432,1.000325210714701,-81.3305046411273
6.48,1.0004860694851059,-81.4496865576753
6.482285568,1.000615728651593,-81.57093898803093
6.484571648,1.0007059998644536,-81.69386632427866
6.486857216,1.0007511436621954,-81.8177991230877
6.489142784,1.0007482127217917,-81.9420456050481
6.491428352,1.00069755518149,-82.06587816537028
6.493714432,1.0006020568620382,-82.18871884172003
6.496,1.0004681651131948,-82.30986877478237
6.498285568,1.0003042018289894,-82.42886157171512
6.500571648,1.0001203847520534,-82.5453940897731
6.502857216,0.9999287330766096,-82.65914127360237
6.505142784,0.9997413359094467,-82.77018437681771
6.507428352,0.9995701337435133,-82.87859292161896
6.509714432,0.9994260445448324,-82.98471932635273
6.512,0.9993182175781825,-83.08900591611682
6.514285568,0.9992538529782289,-83.1920784634391
6.516571648,0.9992365018003405,-83.29453551813835
6.518857216,0.9992677898759914,-83.39713357605198
6.521142784,0.9993457510731956,-83.50052175228855
6.523428352,0.9994650765066636,-83.60538390229057
6.525714432,0.999618368021994,-83.71222888239517
6.528,0.9997959723332446,-83.82149777697121
6.530285568,0.9999861533209431,-83.9335002487299
6.532571648,1.0001773206911388,-84.04826727267772
6.534857216,1.000356903212524,-84.16571990789149
6.537142784,1.000513634813294,-84.2856530745282
6.539428352,1.0006375665907823,-84.40764362677697
6.541714432,1.0007206099814008,-84.53120046015636
6.544,1.0007576352070224,-84.65563095796347
6.546285568,1.0007463190778911,-84.78022131713726
6.548571648,1.0006872848228496,-84.90433328007056
6.550857216,1.000584136599686,-85.02730999998953
6.553142784,1.000443611878947,-85.14849091673413
6.555428352,1.0002745225650467,-85.26744741182198
6.557714432,1.0000877045202663,-85.38383780903484
6.56,0.9998950445733782,-85.49743190899052
6.562285568,0.9997086957374963,-85.60835602791961
6.564571648,0.9995408427939114,-85.71663353577594
6.566857216,0.999401792810555,-85.82273220600824
6.569142784,0.9993006111541849,-85.92706225128664
6.571428352,0.9992439607834129,-86.03023537398664
6.573714432,0.999235150434293,-86.132986388726
6.576,0.9992751425482116,-86.23593655223628
6.578285568,0.9993609622008158,-86.33982671467476
6.580571648,0.9994874086354273,-86.4452809143152
6.582857216,0.9996464565399484,-86.55285031841233
6.585142784,0.9998277742298626,-86.66290764700604
6.587428352,1.0000200760105618,-86.77570318471253
6.589714432,1.0002108912076808,-86.89127462159887
6.592,1.0003880157851766,-87.00958347780326
6.594285568,1.0005403689150667,-87.13027051282226
6.596571648,1.0006582611015407,-87.25297485515424
6.598857216,1.000733966314879,-87.37706147630445
6.601142784,1.0007628539983324,-87.50194150392923
6.603428352,1.0007428552723963,-87.62690952659392
6.605714432,1.0006756079034904,-87.75126468598556
6.608,1.0005649018751812,-87.87431558977583
6.610285568,1.0004179671048634,-87.99552257451587
6.612571648,1.0002442360539565,-88.11441991817016
6.614857216,1.0000546231878085,-88.2306552408988
6.617142784,0.9998612515832555,-88.34410490219707
6.619428352,0.9996764384128366,-88.45483821268517
6.621714432,0.999511935451093,-88.56302195517375
6.624,0.9993783493663101,-88.6690658723063
6.626285568,0.9992841817184975,-88.77342136233315
6.628571648,0.9992354069755544,-88.8767835308663
6.630857216,0.9992351373758417,-88.97975289299404
6.633142784,0.9992835352977765,-89.08309288718459
6.635428352,0.9993774103973636,-89.1875360640853
6.637714432,0.9995107338298729,-89.29359706435848
6.64,0.9996752710395833,-89.40184753749995
6.642285568,0.9998601562316842,-89.51265552784734
6.644571648,1.0000540558856552,-89.62628165976378
6.646857216,1.0002440971989197,-89.74265432017134
6.649142784,1.0004185962123495,-89.86172349855484
6.651428352,1.0005664065560482,-89.98315914834873
6.653714432,1.0006778847842916,-90.10653079701889
6.656,1.0007461694039934,-90.23116032674096
6.658285568,1.000766576300287,-90.35650405258438
6.660571648,1.0007382332773107,-90.48175781312828
6.662857216,1.000662563578983,-90.60630814879438
6.665142784,1.0005443277586772,-90.72942475227521
6.667428352,1.0003914583575872,-90.85061573115819
6.669714432,1.0002132489685398,-90.96938905133237
6.672,1.0000212075231734,-91.08547732645562
6.674285568,0.9998275307735814,-91.19878600007965
6.676571648,0.9996445841044946,-91.3093546302501
6.678857216,0.9994840592478562,-91.41742384928118
6.681142784,0.9993561539824806,-91.52339741933251
6.683428352,0.9992690483630011,-91.62781993979635
6.685714432,0.9992282969481392,-91.73131815355966
6.688,0.9992365782822622,-91.8345610875903
6.690285568,0.9992933682553348,-91.93830455860046
6.692571648,0.9993951457942313,-92.04322113049916
6.694857216,0.9995351612395086,-92.14992958962743
6.697142784,0.9997047834679295,-92.2588822652955
6.699428352,0.9998930264866468,-92.37048796912995
6.701714432,1.0000878962762427,-92.4848495238384
6.704,1.0002772345653643,-92.60206613074982
6.706285568,1.00044871244254,-92.72193886651908
6.708571648,1.0005913655295613,-92.84408496038368
6.710857216,1.0006962927917784,-92.96802482531113
6.713142784,1.0007568227807218,-93.09319012114972
6.715428352,1.000768848740494,-93.21891899300746
6.717714432,1.0007318950965776,-93.34446574080553
6.72,1.0006478761788369,-93.46913875243838
6.722285568,1.000522678342431,-93.59236953967593
6.724571648,1.0003639178197636,-93.71344848750608
6.726857216,1.000181633093984,-93.83208354366582
6.729142784,0.9999875470437342,-93.94801836403421
6.731428352,0.99979389295108,-94.06113785297224
6.733714432,0.9996131769263981,-94.17154264230284
6.736,0.9994569419714886,-94.27944442433467
6.738285568,0.999334905034473,-94.3854024960733
6.740571648,0.9992551750079953,-94.48983367068169
6.742857216,0.9992226334770863,-94.59349699792823
6.745142784,0.9992395467198686,-94.69705117186889
6.747428352,0.9993047737679157,-94.80122051860826
6.749714432,0.9994141126059133,-94.9066207335568
6.752,0.999560674125328,-95.01397569803652
6.754285568,0.999735037680628,-95.123630976075
6.756571648,0.9999264599029343,-95.23597460055598
6.758857216,1.0001221670194247,-95.35114557856663
6.761142784,1.0003100433483636,-95.46912867486239
6.763428352,1.000478068826794,-95.58972194106524
6.765714432,1.0006155250996709,-95.71256217063119
6.768,1.0007135730490397,-95.83713069908202
6.770285568,1.0007661773859622,-95.9627843547691
6.772571648,1.0007697289419284,-96.08885480806435
6.774857216,1.0007242186115162,-96.21466856191869
6.777142784,1.0006323235025973,-96.33944497402062
6.779428352,1.0004999114267235,-96.4626497540027
6.781714432,1.0003355516636492,-96.58372581730241
6.784,1.000149498010299,-96.70221055589045
6.786285568,0.9999536354058107,-96.81792940597421
6.788571648,0.9997604544236395,-96.93085452918272
6.790857216,0.9995822965858244,-97.04104893539316
6.793142784,0.9994304962804766,-97.14887171818717
6.795428352,0.9993147465291469,-97.25475323731511
6.797714432,0.9992424838011195,-97.35923911027994
6.8,0.9992183304498488,-97.4630560308118
6.802285568,0.9992438860270851,-97.56690754570465
6.804571648,0.9993174260947123,-97.67145131854348
6.806857216,0.9994343128689003,-97.77739991594298
6.809142784,0.9995871206393262,-97.88534525464802
6.811428352,0.9997662259750261,-97.9957129314033
6.813714432,0.9999600462310249,-98.1087968485441
6.816,1.0001563136849032,-98.22477237379691
6.818285568,1.0003424558934175,-98.34352388920664
6.820571648,1.0005067246658357,-98.46486846911783
6.822857216,1.00063866410609,-98.58832721068951
6.825142784,1.0007297784653917,-98.7134412264675
6.827428352,1.0007742015714247,-98.83955032889006
6.829714432,1.000769198841473,-98.96598844267396
6.832,1.0007151996647499,-99.09198594508113
6.834285568,1.0006152419914327,-99.21688315847823
6.836571648,1.0004761098718664,-99.34005391626542
6.838857216,1.0003063240844428,-99.46097769493446
6.841142784,1.0001168563410776,-99.57930894828225
6.843428352,0.9999195038811997,-99.69484627094604
6.845714432,0.9997271115902674,-99.80753646086148
6.848,0.9995518950302291,-99.91757039217879
6.850285568,0.9994050179236379,-100.02525326754697
6.852571648,0.9992957026778047,-100.13106427322468
6.854857216,0.9992311908770094,-100.23559856677534
6.857142784,0.999215472108924,-100.33958261329455
6.859428352,0.9992495881728309,-100.44368150414445
6.861714432,0.9993313509338981,-100.54867777472805
6.864,0.9994557487620727,-100.65514694949931
6.866285568,0.9996145232258579,-100.7637431597298
6.868571648,0.999797808706395,-100.87481592681733
6.870857216,0.9999940131543743,-100.9886592092155
6.873142784,1.0001902931007156,-101.1053698092291
6.875428352,1.0003743401107397,-101.22486536472145
6.877714432,1.000534575623475,-101.3468801956759
6.88,1.0006606702798586,-101.47096754262881
6.882285568,1.000744436535448,-101.59663965921999
6.884571648,1.000780808163014,-101.72320308775282
6.886857216,1.0007671546545316,-101.84989674833778
6.889142784,1.0007046987652282,-101.97606276755073
6.891428352,1.000597033474887,-102.1010190348095
6.893714432,1.0004511684942576,-102.22414129284637
6.896,1.0002763044512384,-102.34495154214254
6.898285568,1.0000836479029476,-102.46307668973076
6.900571648,0.9998854206855259,-102.5783637895609
6.902857216,0.9996941382366688,-102.6908101327265
6.905142784,0.9995221351398584,-102.80063754813764
6.907428352,0.999380357657701,-102.90818053030216
6.909714432,0.9992778903877664,-103.01391746391484
6.912,0.999221267742918,-103.1185531813133
6.914285568,0.9992140248674293,-103.22269321483954
6.916571648,0.9992567214495534,-103.32710709599665
6.918857216,0.9993467504647107,-103.43251558041099
6.921142784,0.9994782636032065,-103.5395173941451
6.923428352,0.9996429078905554,-103.64872536448432
6.925714432,0.9998301138702932,-103.76046044050315
6.928,1.0000281283562538,-103.87507485984587
6.930285568,1.0002243607828698,-103.99250838530051
6.932571648,1.0004059857310192,-104.11273741840161
