freq,mag,phase
6.0,0.9999569130044619,163.90090065331847
6.00261376,0.9999247203799074,163.7223507678915
6.005227008,0.9998989135569344,163.54421917608698
6.007840768,0.9998796053155967,163.36646078912054
6.010454016,0.9998679439515626,163.18893061175993
6.013067776,0.9998645972332351,163.01149871689742
6.015681024,0.999869791017925,162.83411134034392
6.018294784,0.9998832721015422,162.656598750027
6.020908032,0.9999040945993666,162.4788781345888
6.023521792,0.9999310917582913,162.30080786975097
6.02613504,0.999962427180917,162.1223366316579
6.0287488,0.9999961165485733,161.94341778403663
6.031362048,1.0000302253562574,161.7640291722159
6.033975808,1.0000625039352846,161.58416991704607
6.036589568,1.0000910202953028,161.40390125273748
6.039202816,1.0001138747251863,161.22329649002234
6.041816576,1.0001295105381782,161.04242015274951
6.044429824,1.0001372044969763,160.86142474828236
6.047043584,1.000136460288159,160.6803679656006
6.049656832,1.000127140577474,160.49937987853104
6.052270592,1.0001100324010663,160.31866077536753
6.05488384,1.0000859065197976,160.13821606275857
6.0574976,1.0000566243969469,159.9581890668854
6.060110848,1.0000237064520925,159.77863426755025
6.062724608,0.9999895455757123,159.59957876140896
6.065338368,0.9999559530779712,159.42105178262673
6.067951616,0.9999252139663951,159.24299204825422
6.070565376,0.9998991377736569,159.065374915057
6.073178624,0.9998796265484947,158.88811672238623
6.075792384,0.9998676616338789,158.7110757079025
6.078405632,0.999863977369119,158.5342073112218
6.081019392,0.9998689798565371,158.3573403814425
6.08363264,0.999882248957062,158.18033576508884
6.0862464,0.999902957431745,158.0031525635091
6.088859648,0.9999298072424958,157.8255905603456
6.091473408,0.9999610985331009,157.64766339969384
6.094086656,0.9999950184370053,157.46928289837206
6.096700416,1.0000291663809273,157.29043386750865
6.099314176,1.0000616945306717,157.111112661616
6.101927424,1.000090476787154,156.93137798681727
6.104541184,1.0001135190494952,156.75128496677624
6.107154432,1.0001296453609863,156.5709320507906
6.109768192,1.0001375760573004,156.39044456436096
6.11238144,1.000137072253616,156.20990110317373
6.1149952,1.0001279678211301,156.02944404466072
6.117608448,1.000111045634284,155.84920716406796
6.120222208,1.00008703780685,155.66929430115692
6.122835456,1.0000578623301897,155.48978139166186
6.125449216,1.0000248954154145,155.3107376042203
6.128062976,0.9999905189138051,155.13219625923887
6.130676224,0.999956846375986,154.95417600600953
6.133289984,0.9999259115743521,154.77664213108415
6.135903232,0.9998996091373169,154.5995233634763
6.138516992,0.9998796608849705,154.422788164738
6.14113024,0.9998673730062838,154.24625991267797
6.143744,0.9998634344960448,154.06995733185252
6.146357248,0.999868196302654,153.89360497474672
6.148971008,0.9998813424072283,153.71715851669313
6.151584256,0.9999017771440722,153.54047268748133
6.154198016,0.9999285404629177,153.36352671354186
6.156811264,0.9999599703383806,153.18612942889618
6.159425024,0.9999939252035349,153.00830517075633
6.162038784,1.0000281924469063,152.83000185306943
6.164652032,1.00006098367744,152.65122415962756
6.167265792,1.0000899128977812,152.47205583928906
6.16987904,1.0001133017344412,152.292485014339
6.1724928,1.0001296808890159,152.11268061188127
6.175106048,1.0001380063860086,151.93270268905823
6.177719808,1.000137668161637,151.75269988648907
6.180333056,1.0001288285270558,151.57276382934037
6.182946816,1.0001120192483717,151.39306651808587
6.185560064,1.0000881586382862,151.2136651500031
6.188173824,1.0000589063159153,151.03468056454025
6.190787072,1.0000260336698115,150.85614346203445
6.193400832,0.9999916059076087,150.67812490305582
6.196014592,0.9999576900894718,150.5006332783999
6.19862784,0.9999264319328887,150.32363589873188
6.2012416,0.99989991826633,150.1470876282585
6.203854848,0.9998797632171764,149.9708834644167
6.206468608,0.9998671812540746,149.79492719202517
6.209081856,0.9998629849000507,149.61913102458175
6.211695616,0.9998673849735772,149.4433470843612
6.214308864,0.9998803308408368,149.26746931009097
6.216922624,0.9999006702509244,149.09137293442004
6.219535872,0.9999274005327101,148.914940608653
6.222149632,0.9999587622745643,148.7381149717738
6.224763392,0.9999928223305664,148.560854901549
6.22737664,1.0000273092906187,148.38311767021133
6.2299904,1.0000602359339639,148.20490483367303
6.232603648,1.0000894763905377,148.02626790446573
6.235217408,1.0001130320377594,147.84726988454227
6.237830656,1.0001297197836436,147.66801854108868
6.240444416,1.0001383282561065,147.48860844232726
6.243057664,1.0001382269278232,147.30915538950933
6.245671424,1.0001296952028775,147.12974837524553
6.248284672,1.0001130290928855,146.95057980558207
6.250898432,1.0000893759082956,146.7717329868968
6.25351168,1.0000600929470542,146.59325981209787
6.25612544,1.0000271891918988,146.4152794106864
6.2587392,0.9999925344263422,146.2377930355692
6.261352448,0.9999584906848701,146.0608469980833
6.263966208,0.9999271092122133,145.8843868825842
6.266579456,0.9999003366919748,145.70836346017168
6.269193216,0.9998797191337099,145.5327209867862
6.271806464,0.9998669342819405,145.3573348164487
6.274420224,0.9998624912708625,145.18209624384636
6.277033472,0.9998667030944303,145.00686726595626
6.279647232,0.9998792691445142,144.83158022858845
6.28226048,0.9998995625986742,144.6560236118922
6.28487424,0.9999262205170142,144.48020108197537
6.287488,0.9999576098892994,144.3039612571153
6.290101248,0.9999915925509588,144.12726419200416
6.292715008,1.000026389796845,143.95008725980065
6.295328256,1.000059523595311,143.77246164857735
6.297942016,1.0000889212793231,143.59437899602312
6.300555264,1.0001127726126693,143.41594682326402
6.303169024,1.0001297559184008,143.2372548640494
6.305782272,1.0001386485846657,143.05840553510322
6.308396032,1.0001388732287126,142.87949505281946
6.31100928,1.0001305286307347,142.70066252977833
6.31362304,1.0001139475575798,142.52203296749317
6.316236288,1.000090376164469,142.34373441270444
6.318850048,1.0000611359637428,142.16582694435377
6.321463808,1.0000282027671348,141.98840585646025
6.324077056,0.9999934252680316,141.81147620080287
6.326690816,0.9999592020315726,141.63506501271775
6.329304064,0.9999276263343722,141.45915681678943
6.331917824,0.999900469746346,141.28370080971493
6.334531072,0.9998797499821458,141.1086144277114
6.337144832,0.9998665830868382,140.93380015039946
6.33975808,0.9998619000585222,140.75911631298146
6.34237184,0.9998658165606394,140.58449702090135
6.344985088,0.9998783479074398,140.4097557916054
6.347598848,0.9998984669419698,140.23479673808993
6.350212096,0.9999250440682156,140.05955298512686
6.352825856,0.9999563599979294,139.88389196681558
6.355439616,0.9999906313518983,139.70779182174928
6.358052864,1.0000253422706769,139.53121581376243
6.360666624,1.0000587927849054,139.35416063772453
6.363279872,1.0000884204521707,139.17667378892978
6.365893632,1.0001126070048003,138.99882128407813
6.36850688,1.0001298824040339,138.8206987810694
6.37112064,1.000139041960358,138.6423925466231
6.373733888,1.0001395220979339,138.46405339796664
6.376347648,1.0001311970327853,138.28579632368158
6.378960896,1.0001149378284109,138.10770160884516
6.381574656,1.0000914796966727,137.92995448376456
6.384188416,1.0000622418111325,137.7525985276755
6.386801664,1.0000291690813088,137.57571565999137
6.389415424,0.9999943760993152,137.39935734882403
6.392028672,0.9999599335863275,137.22352833236405
6.394642432,0.9999280872394192,137.04817889557978
6.39725568,0.9999008137854444,136.8732880223366
6.39986944,0.999879809400462,136.69877375779728
6.402482688,0.9998663166783942,136.52453914484505
6.405096448,0.9998612069988858,136.35045722087705
6.407709696,0.9998649954543276,136.17639000925507
6.410323456,0.9998772818726731,136.00228056095546
6.412936704,0.9998974661569118,135.8278979258736
6.415550464,0.9999239442509245,135.65322398887827
6.418164224,0.9999553176454434,135.47817421072102
6.420777472,0.9999895738545959,135.3026608563093
6.423391232,1.0000244272376917,135.12666484494497
6.42600448,1.0000579333916657,134.95018963127316
6.42861824,1.0000879334750172,134.77328309711802
6.431231488,1.0001124646663597,134.59602785797554
6.433845248,1.0001298910436691,134.41846182940148
6.436458496,1.000139337093077,134.24075995126478
6.439072256,1.0001400920025996,134.0629759534447
6.441685504,1.000132198170471,133.885267743279
6.444299264,1.0001158767409537,133.7077862868911
6.446913024,1.0000925818117985,133.53058555650182
6.449526272,1.0000633843478788,133.35378761183463
6.452140032,1.0000301979504946,133.17746857654998
6.45475328,0.9999953177934898,133.00167535199466
6.45736704,0.9999606802141014,132.82640981887621
6.459980288,0.9999286191902163,132.65164959465636
6.462594048,0.9999010822187487,132.4773342836818
6.465207296,0.9998797569613957,132.3033775282567
6.467821056,0.9998660759919019,132.12971754703784
6.470434304,0.9998607903722783,131.95622372043752
6.473048064,0.9998644011357776,131.7827481279037
6.475661312,0.9998764605050283,131.60919310457646
6.478275072,0.9998963944726905,131.435440800742
6.480888832,0.9999228415702911,131.26138203995845
6.48350208,0.9999542565632927,131.0869034782565
6.48611584,0.9999885331339426,130.91198756863733
6.488729088,1.0000236456110108,130.7365889692775
6.491342848,1.000057409476764,130.56072312389585
6.493956096,1.0000874941334372,130.38441535920174
6.496569856,1.0001122600053847,130.20770478041055
6.499183104,1.0001300225042864,130.03076483376464
6.501796864,1.0001397668525525,129.85361379630336
6.504410112,1.0001406052284407,129.676422675024
6.507023872,1.0001329163272263,129.49929139859375
6.50963712,1.0001168221920436,129.32235765180647
6.51225088,1.0000935616724596,129.1457101337798
6.51486464,1.000064369036084,128.9694992422771
6.517477888,1.0000312411762438,128.7937476506649
6.520091648,0.9999961599404255,128.61852801045106
6.522704896,0.9999613677915036,128.443818990855
6.525318656,0.999929155945537,128.2696206102395
6.527931904,0.9999012907685075,128.09590167166556
6.530545664,0.9998797635849709,127.92253155794633
6.533158912,0.9998658425968127,127.7494705132655
6.535772672,0.9998602774731915,127.57655638350653
6.53838592,0.999863529295252,127.4036932940615
6.54099968,0.9998754894380258,127.23072989349657
6.54361344,0.9998952855730173,127.05756205355335
6.546226688,0.9999216863805023,126.88410145370122
6.548840448,0.9999531476526796,126.71022199179498
6.551453696,0.9999876292585154,126.53589947013728
6.554067456,1.0000227912429966,126.3610787329143
6.556680704,1.0000567231640474,126.18581664451466
6.559294464,1.0000870997550215,126.01011370251615
6.561907712,1.0001120922875315,125.83401979838868
6.564521472,1.0001302086952049,125.65761123756567
6.56713472,1.0001400843450927,125.48104540550608
6.56974848,1.0001412789971222,125.30444397960552
6.572361728,1.0001336561399694,125.12788994127136
6.574975488,1.0001177731727904,124.9515126414642
6.577589248,1.000094616022734,124.77547355018869
6.580202496,1.0000652858036274,124.59982106141884
6.582816256,1.0000320848664752,124.42462717149292
6.585429504,0.9999969235667763,124.2499884762554
6.588043264,0.9999620532454567,124.07584462396363
6.590656512,0.999929629261925,123.90224391894465
6.593270272,0.9999014149097666,123.72908653600724
6.59588352,0.9998796732603003,123.5562966810461
6.59849728,0.9998653274244306,123.38380634616564
6.601110528,0.9998597349162257,123.21150384022953
6.603724288,0.9998627151134615,123.03923476458904
6.606338048,0.9998745615188316,122.86686486528718
6.608951296,0.9998942455960879,122.6942976034475
6.611565056,0.9999205672861071,122.52141846324778
6.614178304,0.9999520976483157,122.34816578001589
6.616792064,0.9999865601973987,122.17444338156463
6.619405312,1.0000219771193783,122.00022410740641
6.622019072,1.0000560116827162,121.8255687453315
6.62463232,1.0000867189845228,121.65041782789903
6.62724608,1.000111983159415,121.47490912763952
6.629859328,1.0001302439004853,121.29910254967784
6.632473088,1.0001403908939765,121.12312062094291
6.635086336,1.0001418698178355,120.94708096316184
6.637700096,1.0001344579174278,120.77110847160738
6.640313856,1.0001186724487028,120.5953217248604
6.642927104,1.0000954305027494,120.41986099667581
6.645540864,1.0000663870206492,120.24476646588825
6.648154112,1.0000330902400787,120.07013799225365
6.650767872,0.9999977980549777,119.89606035414376
6.65338112,0.9999626622700135,119.7225146789566
6.65599488,0.9999299207868325,119.54947113734657
6.658608128,0.9999016944339734,119.37688193735583
6.661221888,0.9998796483242257,119.20470199494083
6.663835136,0.9998651221542743,119.03279647432285
6.666448896,0.9998591347988269,118.86106589927181
6.669062144,0.999862021343064,118.68937325431752
6.671675904,0.9998736454978897,118.51761483651131
6.674289664,0.9998932528830277,118.34566202113216
6.676902912,0.9999195761021639,118.17337127022405
6.679516672,0.9999510007362178,118.00071026561817
6.68212992,0.9999856376523589,117.82757107271436
6.68474368,1.000021222700154,117.65397014541792
6.687356928,1.0000554113238052,117.47988422730067
6.689970688,1.000086392147323,117.30532466926078
6.692583936,1.0001118381033176,117.13041635006789
6.695197696,1.0001303580146867,116.95519504712595
6.697810944,1.0001408258493372,116.77979472839095
6.700424704,1.000142432719954,116.60431950812651
6.703038464,1.0001352644411372,116.4289249599158
6.705651712,1.0001194996055474,116.25369650823318
6.708265472,1.0000964195265047,116.07879662266672
6.71087872,1.000067347041141,115.90427268058177
6.71349248,1.0000340305280744,115.73024058866012
6.716105728,0.9999985291092202,115.5567231502688
6.718719488,0.9999633049691782,115.38372220403829
6.721332736,0.9999303726496055,115.21125905100133
6.723946496,0.999901851579539,115.0392648962843
6.726559744,0.9998795216677915,114.86766111707036
6.729173504,0.9998647724059504,114.69633593490204
6.731786752,0.9998585365251738,114.5252004733879
6.734400512,0.9998613109232197,114.35410893337045
6.737014272,0.9998727344080705,114.1829275057568
6.73962752,0.9998922991435734,114.01155839528857
6.74224128,0.9999185450069071,113.83987023414016
6.744854528,0.9999501122931451,113.66779969838196
6.747468288,0.9999846996198789,113.49527653783356
6.750081536,1.000020471453998,113.32224567376389
6.752695296,1.0000548591879528,113.14875070218915
6.755308544,1.0000859804402131,112.97479611562001
6.757922304,1.0001117055606024,112.80044841150772
6.760535552,1.000130562467663,112.62580275957949
6.763149312,1.0001412406771948,112.45097850430507
6.765763072,1.0001430770575923,112.27608008712593
6.76837632,1.0001360422258325,112.10124963277576
6.77099008,1.0001205064569185,111.92659907028661
6.773603328,1.000097391329881,111.75223111993292
6.776217088,1.0000682568322854,111.57829846632882
6.778830336,1.0000349460783577,111.40481394944106
6.781444096,0.9999993312054658,111.23186245798685
6.784057344,0.9999638841305697,111.05944156705458
6.786671104,0.9999307244773377,110.8875455081307
6.789284352,0.9999019809258737,110.71611322829672
6.791898112,0.9998794253589197,110.54509673537481
6.79451136,0.9998644432992277,110.37436843257107
6.79712512,0.9998579983024707,110.20379112041567
6.79973888,0.9998605184609883,110.03328913297611
6.802352128,0.9998718498030957,109.86271232616353
6.804965888,0.9998912886917107,109.69191875879123
6.807579136,0.9999176075745254,109.52082982194368
6.810192896,0.9999491368041671,109.34934273295686
6.812806144,0.9999839079918945,109.17739431532736
6.815419904,1.0000196999605107,109.0049596083974
6.818033152,1.0000544042597088,108.8320406786607
6.820646912,1.0000856885642024,108.65867487166548
6.82326016,1.0001117311442904,108.48490055019155
6.82587392,1.0001307838987414,108.31083414588012
6.828487168,1.0001416504902576,108.13657102267133
6.831100928,1.0001436547722664,107.96224588717809
6.833714688,1.0001367858931,107.78796046768093
6.836327936,1.00012142204045,107.6138681166985
6.838941696,1.0000983218358126,107.44009533730855
6.841554944,1.0000692161343712,107.26668881337078
6.844168704,1.000035785857009,107.09377040609314
6.846781952,1.0000000890111735,106.92138655335552
6.849395712,0.9999644954347636,106.74952789188589
6.85200896,0.9999311739455261,106.5781955258012
6.85462272,0.9999021466723234,106.40733935668685
6.857235968,0.9998793036448346,106.23687037490458
6.859849728,0.9998641197348622,106.06670091779127
6.862463488,0.9998574666395834,105.89670653161713
6.865076736,0.9998597985317351,105.72678648664599
6.867690496,0.9998709934615656,105.55676835306943
6.870303744,0.9998902949143438,105.38657168725659
6.872917504,0.9999165953900908,105.21607703417037
6.875530752,0.9999481407836043,105.0451657063151
6.878144512,0.999983020299773,104.87379833673532
6.88075776,1.000019046377998,104.70195265607323
6.88337152,1.00005386337898,104.52960744574736
6.885984768,1.000085419663326,104.3568068296193
6.888598528,1.0001116471037526,104.18359181740408
6.891211776,1.0001310101035599,104.01011210540008
6.893825536,1.0001421359105345,103.83640451147315
6.896439296,1.0001443629081321,103.66263102370219
6.899052544,1.0001376125998316,103.48891041847223
6.901666304,1.0001221970848335,103.31535840266659
6.904279552,1.000099258737054,103.14213557911421
6.906893312,1.0000701790430184,102.96927361409112
6.90950656,1.0000366868558725,102.79690998754145
6.91212032,1.000000896044325,102.6250862379687
6.914733568,0.9999650427391624,102.45376854364574
6.917347328,0.9999314755650748,102.28298449620259
6.919960576,0.9999022811438691,102.11269486012166
6.922574336,0.9998792004235646,101.94279892328937
6.925188096,0.9998637468921354,101.7731957697906
6.927801344,0.9998569311721471,101.60377511709949
6.930415104,0.9998591171182173,101.43440987120456
6.933028352,0.9998702362736007,101.26498104253882
6.935642112,0.9998894256842465,101.09534313996286
6.93825536,0.9999156909787277,100.92541015972124
6.94086912,0.9999472504486697,100.75507204498518
6.943482368,0.9999822881223152,100.58429285094805
6.946096128,1.0000184138195423,100.41300505747083
6.948709376,1.0000534951969622,100.24123588099792
6.951323136,1.0000851272226428,100.06898341205095
6.953936384,1.0001117106302,99.89634952355485
6.956550144,1.0001312512426104,99.72339096395339
6.959163904,1.0001426222322185,99.55025673238728
6.961777152,1.0001450169829469,99.3770285190789
6.964390912,1.0001383877952508,99.20384854603202
6.96700416,1.0001231296495132,99.03085555327898
6.96961792,1.0001002272438715,98.85815020668275
6.972231168,1.00007101469597,98.68585999674485
6.974844928,1.0000375199284943,98.514043311939
6.977458176,1.0000015669159514,98.34273224711673
6.980071936,0.9999655861143644,98.17196462770978
6.982685184,0.9999317638383131,98.00173273032003
6.985298944,0.9999023270651207,97.83199642344051
6.987912192,0.9998790644105215,97.6626292203021
6.990525952,0.9998633767641413,97.49358734407642
6.993139712,0.9998563490488149,97.32473652425087
6.99575296,0.9998582965687087,97.15593562631676
6.99836672,0.9998693337314356,96.98704836557467
7.000979968,0.9998885638133175,96.81798694770606
7.003593728,0.9999147384043896,96.64862849174617
7.006206976,0.9999464064010078,96.4788550712913
7.008820736,0.9999814982735299,96.30861843557255
7.011433984,1.0000178889944866,96.1378976639509
7.014047744,1.0000530893934632,95.96666528161289
7.016660992,1.0000850084803734,95.79497818887573
7.019274752,1.0001117550085308,95.62291034348497
7.021888512,1.0001314721863255,95.45049249272017
7.02450176,1.0001430860884417,95.27787247957939
7.02711552,1.0001456541686904,95.1051866757836
7.029728768,1.0001391943603821,94.93255260746803
7.032342528,1.0001240711506825,94.7600967448343
7.034955776,1.0001012366999746,94.58791516414944
7.037569536,1.000071979872372,94.41614799774662
7.040182784,1.000038297128703,94.24485954791268
7.042796544,1.0000022562742454,94.0740877916191
7.045409792,0.9999660899178465,93.90386677550832
7.048023552,0.9999321776044215,93.73415751185075
7.0506368,0.9999024152203102,93.56496461361849
7.05325056,0.9998789531373483,93.39613680542138
7.05586432,0.9998630774316717,93.22764539862439
