freq,mag,phase
6.0,1.000097242582737,178.40739907028205
6.002285056,1.0002223028604886,178.25303965608188
6.004570112,1.0003320966592515,178.0970421155247
6.006855168,1.000421150010298,177.9396593936313
6.009140224,1.0004838193483356,177.78123357977643
6.01142528,1.0005162039725715,177.6221591591714
6.013710336,1.0005160887572437,177.4629402089222
6.015995392,1.00048353232385,177.30395114536068
6.018280448,1.0004204996128787,177.14575947730998
6.020565504,1.0003310385403106,176.98869040384932
6.02285056,1.000220680807952,176.83313950444284
6.025135616,1.0000963731318526,176.67933243531158
6.027420672,0.9999660460829282,176.52743416866215
6.029705728,0.9998378369706656,176.37751036049832
6.031990784,0.999720094602916,176.22938815063227
6.03427584,0.999620048439596,176.08291513612306
6.036560896,0.9995440249375632,175.9378281051741
6.038845952,0.9994970799867285,175.79363820327885
6.041131008,0.9994821511849682,175.6499901665352
6.043416064,0.9995000911329075,175.50635312536178
6.04570112,0.9995499423415447,175.3623168481468
6.047986176,0.9996285670857149,175.21737546092604
6.050271232,0.999730993498223,175.07118775561162
6.052556288,0.9998507316544919,174.9234648563461
6.054841344,0.9999802170738736,174.7739469730254
6.0571264,1.0001113517259628,174.62265280045054
6.059411456,1.000235580077189,174.46951251912418
6.061696512,1.000345361062654,174.3147727396515
6.063981568,1.000433580630617,174.1586126601565
6.066266624,1.0004946705985014,174.00139170209903
6.06855168,1.0005246207519136,173.84365230488493
6.070836736,1.0005216612847105,173.6856824210476
6.073121792,1.000485950877727,173.52809903398952
6.075406848,1.0004194557477821,173.37127913666185
6.077691904,1.00032669665512,173.21569429949713
6.07997696,1.0002131613250667,173.06163274648972
6.082262016,1.0000863726141531,172.90939273764405
6.084547072,0.9999540177393191,172.75912501308443
6.086832128,0.9998247867834152,172.61074353822065
6.089117184,0.9997065908972237,172.46427858675702
6.09140224,0.9996069172958642,172.3194075847741
6.093687296,0.9995324567309495,172.17589328788773
6.095972352,0.9994875785164623,172.03331233385495
6.098257408,0.9994751698145147,171.8911921048912
6.100542464,0.9994964595560654,171.74908330326545
6.10282752,0.9995497413655152,171.6064678318583
6.105112576,0.9996317700942929,171.4629889616976
6.107397632,0.9997374837271098,171.31815697698295
6.1096832,0.9998601073886275,171.17167699207525
6.111968256,0.9999918023912103,171.0234814481445
6.114253312,1.000124539864974,170.87337788347241
6.116538368,1.000249558504225,170.72148187770242
6.118823424,1.0003591743318492,170.5679424721608
6.12110848,1.000446405012423,170.41304663182765
6.123393536,1.0005055640777947,170.25709077665257
6.125678592,1.000533007829216,170.100611925557
6.127963648,1.000527010848953,169.9439805114901
6.130248704,1.0004878124620238,169.7877654479803
6.13253376,1.0004179041559365,169.63238454558626
6.134818816,1.0003216679095521,169.47828533172762
6.137103872,1.0002050994392324,169.32575260755252
6.139388928,1.0000756455341056,169.1750430053285
6.141673984,0.9999413952920972,169.02634040696464
6.14395904,0.9998109264371581,168.87961159918612
6.146244096,0.9996924132043751,168.73477236798132
6.148529152,0.9995936395647735,168.5915310668769
6.150814208,0.9995205483047201,168.44961994788707
6.153099264,0.9994780382382835,168.30862188962476
6.15538432,0.9994685359638297,168.16806907316925
6.157669376,0.9994930838881237,168.02742998128943
6.159954432,0.9995499789827724,167.8862803534137
6.162239488,0.9996354898861685,167.7441383683013
6.164524544,0.9997446237745798,167.60063282184555
6.1668096,0.9998700108151714,167.45553199494864
6.169094656,1.000004180302374,167.30859037991954
6.171379712,1.0001382449654035,167.15972651737638
6.173664768,1.0002639428641624,167.00906753083373
6.175949824,1.000373309342059,166.85673259472992
6.17823488,1.0004593186860644,166.7030635759983
6.180519936,1.0005164758266019,166.54835367001547
6.182804992,1.0005413194849686,166.39316714210312
6.185090048,1.0005320331113794,166.2378857540332
6.187375104,1.0004893576360996,166.08299159900196
6.18966016,1.0004157076811073,165.92906924287587
6.191945216,1.000316002057406,165.77641988500923
6.194230272,1.000196284196696,165.62542797879507
6.196515328,1.0000642170409892,165.47632634189472
6.198800384,0.9999281613873433,165.32921815186197
6.20108544,0.9997966892832137,165.1841091570427
6.203370496,0.9996780806239431,165.04088806001963
6.205655552,0.9995800166621482,164.89929174800665
6.207940608,0.9995086297838819,164.75898141032255
6.210225664,0.9994683844243105,164.61956938116617
6.21251072,0.9994621327154403,164.480531843468
6.214795776,0.9994901533231596,164.34141014195254
6.217080832,0.9995507282212575,164.20165180687076
6.219365888,0.9996398938092241,164.06097441632463
6.221650944,0.9997523647093152,163.91881136039297
6.223936,0.9998807716292812,163.77496253010972
6.226221056,1.0000170018822736,163.62925513531493
6.228506112,1.0001524707728793,163.48164566100036
6.230791168,1.0002787830042823,163.332170518276
6.233076224,1.000387658292639,163.18106269557111
6.23536128,1.0004723722056397,163.02857774797778
6.237646336,1.000527401955397,162.87514059332312
6.239931392,1.0005493562955974,162.72121359127917
6.242216448,1.0005367156892468,162.56725268272206
6.244501504,1.0004901970020548,162.41376753569892
6.24678656,1.0004129453874728,162.26126448955463
6.249071616,1.0003095687362349,162.11009796314835
6.251356672,1.000186655255295,161.960629594439
6.253641728,1.0000519915132446,161.81310358924182
6.255926784,0.9999141463904017,161.66759405292294
6.25821184,0.9997816984683694,161.52411221753943
6.260496896,0.9996631234124277,161.3825208695808
6.262781952,0.9995659955505926,161.2425467285828
6.265067008,0.9994964483674905,161.10386419770288
6.267352064,0.9994588972760451,160.966016326876
6.26963712,0.9994559171507674,160.82849025918543
6.271922176,0.9994875352742765,160.6908645748165
6.274207232,0.9995518739015675,160.55258733633153
6.276492288,0.9996448490426073,160.41324200403926
6.278777344,0.9997607434056254,160.27240947824603
6.2810624,0.9998920565697819,160.12984177569203
6.283347456,1.000030605654892,159.98537162441986
6.285632512,1.0001674364112898,159.83892299709157
6.287917568,1.000294112084601,159.69066183089308
6.290202624,1.0004024030827596,159.54075199064988
6.29248768,1.000485543359229,159.38946444866494
6.294772736,1.0005383657828955,159.23726940680567
6.297057792,1.0005572502476243,159.08461818678938
6.299342848,1.000540986477634,158.93197816012994
6.301627904,1.0004907222269233,158.77987948663258
6.30391296,1.0004096232632131,158.6287961846434
6.306198016,1.0003025173411908,158.47908990924057
6.308483072,1.0001765709712434,158.33119503190792
6.310768128,1.0000393068462232,158.18521296637235
6.313053184,0.9998994781533406,158.04134671819668
6.31533824,0.999766264942905,157.89950373276474
6.317623296,0.9996478889214868,157.75954420431918
6.319908352,0.999551858412385,157.62120262392497
6.322193408,0.9994842892582264,157.4841221486831
6.324478976,0.9994496894882965,157.347814672421
6.326764032,0.9994499411880066,157.21181992151858
6.329049088,0.9994855217688068,157.07564264965467
6.331334144,0.9995537595846163,156.93878706006853
6.3336192,0.999650572262842,156.8007565772385
6.335904256,0.9997699753599097,156.661230511618
6.338189312,0.9999043260327848,156.51990574694113
6.340474368,1.0000449027037264,156.37662375132507
6.342759424,1.0001830329676566,156.23141370522941
6.34504448,1.0003099827385782,156.08430747085683
6.347329536,1.0004175288118458,155.93556715889986
6.349614592,1.0004990813599952,155.78550221225356
6.351899648,1.000549167080102,155.63453432008197
6.354184704,1.0005649275895232,155.48312184831278
6.35646976,1.0005449620629858,155.33180689738182
6.358754816,1.000490762274766,155.181068985549
6.361039872,1.0004055854143206,155.03141935602386
6.363324928,1.0002949163554367,154.88322463669567
6.365609984,1.0001654847156853,154.73683203384473
6.36789504,1.0000255823029653,154.59246905517548
6.370180096,0.9998843502694236,154.45017495533662
6.372465152,0.9997502975268597,154.30993531105534
6.374750208,0.999632167133053,154.1716272525868
6.377035264,0.9995374680956748,154.03488276717178
6.37932032,0.9994721548359096,153.89938732857362
6.381605376,0.9994406052217687,153.76464808215889
6.383890432,0.999444401016173,153.6301764344492
6.386175488,0.9994838052904697,153.4954541160091
6.388460544,0.999556248546918,153.35996136573436
6.3907456,0.999657150035688,153.22327157730783
6.393030656,0.9997798775997562,153.08500717393284
6.395315712,0.9999170579519574,152.9449304503274
6.397600768,1.0000599159498744,152.8028340350826
6.399885824,1.000199236265613,152.65878939426693
6.40217088,1.0003262446618386,152.51282785975192
6.404455936,1.0004329488631687,152.36522821814927
6.406740992,1.000512626956591,152.21634058265371
6.409026048,1.000560043351197,152.0665692899339
6.411311104,1.0005723319266207,151.91645177636414
6.41359616,1.0005484286871968,151.76642902020112
6.415881216,1.0004900973123338,151.6170566269507
6.418166272,1.0004008622821452,151.46883098323693
6.420451328,1.0002861256796716,151.32209467920418
6.422736384,1.0001535408387383,151.17726483276851
6.42502144,1.000011279944536,151.0344484805723
6.427306496,0.9998683418218389,150.89375516283286
6.429591552,0.9997338451893238,150.75516697531552
6.431876608,0.999616040807885,150.61844679496593
6.434161664,0.9995227989808729,150.48332843487566
6.43644672,0.9994600291678861,150.34939965775214
6.438731776,0.9994314784118249,150.216199542573
6.441016832,0.9994392809631223,150.0831974913525
6.443301888,0.9994827494304759,149.94989978135098
6.445586944,0.9995594426716127,149.81576905149927
6.447872,0.9996643336854921,149.68038700279885
6.450157056,0.9997907412902954,149.54337982572315
6.452442112,0.9999309273613417,149.40447918540127
6.454727168,1.000075660521733,149.26357470822
6.457012224,1.0002160721626088,149.12063812505014
6.45929728,1.0003431254737623,148.97582512450958
6.461582336,1.0004487261213943,148.82935926576624
6.463867392,1.00052629683978,148.6816410278355
6.466152448,1.000570754783513,148.53305743538633
6.468437504,1.0005794377361623,148.38416415479958
6.47072256,1.0005515027049898,148.23543468304035
6.473007616,1.0004887764172805,148.08742429136933
6.475292672,1.0003953360404343,147.94059671219418
6.477577728,1.0002769221212962,147.79536850675453
6.479862784,1.0001410217056037,147.6520401338449
6.48214784,0.9999962651843286,147.51079028976793
6.484432896,0.9998516711994088,147.37170861856634
6.486717952,0.9997166605222946,147.2347142627342
6.489003008,0.9995997293460293,147.0995948186035
6.491288064,0.9995080536067906,146.9660427116416
6.49357312,0.9994478606186016,146.83369190437682
6.495858176,0.9994229051342484,146.7020022129415
6.498143232,0.999434504022459,146.57047476920903
6.500428288,0.9994823832859319,146.4385518896701
6.502713344,0.9995634666653445,146.30575833798275
6.5049984,0.9996722581802023,146.17166551091404
6.507283456,0.9998022899439553,146.03587604117104
6.509568512,0.9999452407717827,145.89815819924544
6.511853568,1.0000921376185303,145.75837688177614
6.514138624,1.000233421079456,145.61655831661466
6.51642368,1.0003604149546188,145.47282430684527
6.518708736,1.0004646113648306,145.32749800037115
6.520993792,1.000540045036277,145.1808925472338
6.523278848,1.0005813562862733,145.03348944590695
6.525563904,1.0005860706824132,144.88581545342484
6.52784896,1.0005540128809876,144.73836728734983
6.530134016,1.0004869993156171,144.5917389659613
6.532419072,1.000389193008937,144.4463116079119
6.534704128,1.0002668128088703,144.30253972381922
6.536989184,1.0001275263263996,144.16069658740497
6.53927424,0.9999802484467784,144.0210338196579
6.541559808,0.9998343618863677,143.88352515075948
6.543844864,0.9996990174361039,143.74813945889304
6.54612992,0.9995827995000185,143.61458432384129
6.548414976,0.9994930899889484,143.48266299898077
6.550700032,0.9994357190327666,143.3518123278945
6.552985088,0.9994142882478595,143.22161564153166
6.555270144,0.9994302272927157,143.09152736949986
6.5575552,0.9994824556322558,142.96098447622492
6.559840256,0.9995679255718259,142.8295056098724
6.562125312,0.9996810561003847,142.696618611158
6.564410368,0.9998146696095213,142.5620247521289
6.566695424,0.9999605905954867,142.42542718341448
6.56898048,1.0001092187017138,142.28675722283222
6.571265536,1.0002513569065405,142.1460013896486
6.573550592,1.0003779837401694,142.00337807281642
6.575835648,1.000480930458286,141.85911838364535
6.578120704,1.0005537777663582,141.71361612285085
6.58040576,1.0005916828337775,141.56736185131717
6.582690816,1.0005924531939077,141.42089820401512
6.584975872,1.0005559487512854,141.27476015395084
6.587260928,1.0004844332445033,141.12939205554903
6.589545984,1.0003821786374607,140.98538507083634
6.59183104,1.0002558588839823,140.8430759347294
6.594116096,1.0001132398980952,140.70273597978345
6.596401152,0.9999638053456186,140.5646314878213
6.598686208,0.9998164455413394,140.42867584233602
6.600971264,0.9996809118782698,140.29488957063143
6.60325632,0.9995655177205606,140.16294926462626
6.605541376,0.9994779901470673,140.03255827671762
6.607826432,0.9994236202489987,139.90323222205004
6.610111488,0.9994060521380044,139.77449501272537
6.612396544,0.9994263831792572,139.6458117791964
6.6146816,0.9994832271899606,139.51659442644706
6.616966656,0.9995731513983258,139.38639218640037
6.619251712,0.9996905607062339,139.25472359910694
6.621536768,0.9998278940398949,139.12129232403223
6.623821824,0.9999765313130834,138.98578823563616
6.62610688,1.00012695196959,138.84816187351564
6.628391936,1.0002698470307656,138.70845943120764
6.630676992,1.0003958982664336,138.56687171803412
6.632962048,1.0004971402096214,138.42365415826765
6.635247104,1.0005672716522547,138.27928610558453
6.63753216,1.0006017255620994,138.13415739053897
6.639817216,1.0005981678196019,137.98886552936614
6.642102272,1.0005571462972034,137.84394974225717
6.644387328,1.0004807759223895,137.69997177252577
6.646672384,1.0003740524656595,137.55731331966263
6.64895744,1.0002437817002683,137.41644422437722
6.651242496,1.0000981058603333,137.27763006939017
6.653527552,0.9999461786518287,137.1410110465534
6.655812608,0.9997978014905909,137.00665153101005
6.658097664,0.9996621345599414,136.87439527399823
6.66038272,0.9995481580571903,136.74401376394357
6.662667776,0.9994628469181716,136.61515329118043
6.664952832,0.9994117409650202,136.4873302966006
6.667237888,0.9993980528013359,136.36005980063433
6.669522944,0.9994229571046073,136.2327280013669
6.671808,0.9994845564629777,136.10482674432302
6.674093056,0.9995793511962019,135.97585842881742
6.676378112,0.9997010622487543,135.8453505850286
6.678663168,0.9998420528710216,135.71301008306412
6.680948224,0.999993353789612,135.57858195018625
6.68323328,1.0001457308334238,135.44199994851286
6.685518336,1.0002889652335696,135.30331383277885
6.687803392,1.0004143173698823,135.16272900272062
6.690088448,1.0005137329643243,135.0205397074661
6.692373504,1.000580956896309,134.87720918866566
6.69465856,1.0006115890458867,134.7332406407162
6.696943616,1.0006037589419678,134.58909208078282
6.699228672,1.0005577968427555,134.44543160683529
6.701513728,1.000476533104819,134.30270500950908
6.703798784,1.0003652748848095,134.16142251907652
6.70608384,1.0002309646658698,134.02197398319151
6.708368896,1.0000820779244879,133.88464190757264
6.710653952,0.9999279473837768,133.74956042268226
6.712939008,0.9997784441427261,133.61674893258456
6.715224064,0.9996430540748208,133.48606482866776
6.71750912,0.9995303853181149,133.35724073321492
6.719794176,0.9994475613898895,133.22988017954458
6.722079232,0.9993999883133976,133.103535849532
6.724364288,0.9993905742545764,132.97761987539602
6.726649344,0.999420137239859,132.8516571001654
6.7289344,0.9994867487950176,132.72504308740457
6.731219456,0.9995861900828918,132.59726125392132
6.733504512,0.9997122619900526,132.46789682995615
6.735789568,0.999857031244661,132.33662175031674
6.738074624,1.0000111269294578,132.2032232764329
6.74035968,1.0001648570106896,132.06760371674767
6.742644736,1.0003085374830931,131.92989945029734
6.744929792,1.000433028625333,131.7903132013009
6.747214848,1.0005303430010668,131.64912356527498
6.749499904,1.00059445358165,131.50682157350792
6.75178496,1.0006211603187707,131.3638844311415
6.754070016,1.0006086650289239,131.22093877648425
6.756355072,1.000557688068889,131.078460826508
6.75864064,1.0004716711945498,130.93705009302184
6.760925696,1.0003556079123461,130.79710482236126
6.763210752,1.0002173798059586,130.65909264566605
6.765495808,1.000065198792191,130.52321908690848
6.767780864,0.999909071339063,130.38965935174602
6.77006592,0.9997585055604361,130.25836661057278
6.772350976,0.9996234526355913,130.12917992457946
6.774636032,0.9995122801725883,130.00189158779784
6.776921088,0.9994323405873156,129.8760232047229
6.779206144,0.999388421951297,129.7511100804716
6.7814912,0.9993835287909011,129.62658256218552
6.783776256,0.9994180690619048,129.50193282412147
6.786061312,0.9994897285017278,129.3765331194195
6.788346368,0.9995940318128751,129.24993119525928
6.790631424,0.999724430021289,129.12164082986854
6.79291648,0.9998728562019545,128.9913964195222
6.795201536,1.0000294498828435,128.8589827298244
6.797486592,1.000184839724605,128.72432080467246
6.799771648,1.0003286712857768,128.58755583851615
6.802056704,1.0004520749544088,128.44888072951736
6.80434176,1.000547172443932,128.3086892061214
6.806626816,1.0006077677236898,128.16738696124702
6.808911872,1.0006303046991532,128.0255187654482
6.811196928,1.000612794949815,127.8836827759602
6.813481984,1.0005570010087077,127.74240436345342
6.81576704,1.0004657313070242,127.60223315756376
6.818052096,1.000345146749651,127.46366410429796
6.820337152,1.000202710378802,127.32704113384978
6.822622208,1.000047347738878,127.19262963469626
6.824907264,0.9998891168092553,127.06056816113397
6.82719232,0.9997380414609054,126.93076648979533
6.829477376,0.9996035451896731,126.80311493451039
6.831762432,0.9994942623303142,126.67730876065077
6.834047488,0.9994172020408792,126.55287176885632
6.836332544,0.999377274511244,126.42936342375602
6.8386176,0.9993771583289872,126.30620053652675
6.840902656,0.999416574064486,126.18277649684103
6.843187712,0.9994935522075582,126.05860556886513
6.845472768,0.9996028964472043,125.93311485147065
6.847757824,0.9997377673556881,125.80588939780212
6.85004288,0.9998897681117179,125.6765864992301
6.852327936,1.0000489880829364,125.54512111514106
6.854612992,1.0002055978029838,125.41139637966826
6.856898048,1.0003493686601204,125.27553627306978
6.859183104,1.000471560022264,125.13776947150193
6.86146816,1.0005640167618846,124.9985070505337
6.863753216,1.000621102984837,124.8581766580985
6.866038272,1.00063910134305,124.71733098808767
6.868323328,1.000616687309554,124.57661286594976
6.870608384,1.0005553630743216,124.4364993527608
6.87289344,1.0004589884822712,124.29761289600404
6.875178496,1.0003336021532818,124.16037011601956
6.877463552,1.000187102947468,124.02514158066279
6.879748608,1.0000288586572708,123.89214512894604
6.882033664,0.9998686672181756,123.76155752644804
6.88431872,0.9997168869507124,123.63325965878313
6.886603776,0.9995831583680428,123.50709204687611
6.888888832,0.9994760441387217,123.38271662873446
6.891173888,0.9994021706009698,123.25973110855159
6.893458944,0.9993664331116027,123.1375910473097
6.895744,0.9993711213342129,123.01572389417544
6.898029056,0.9994159677887001,122.89355035196218
6.900314112,0.9994981423574256,122.77050765401704
6.902599168,0.9996124996451556,122.6460958077465
6.904884224,0.99975192503908,122.51985106040922
6.90716928,0.9999072839527148,122.39154450819943
6.909454336,1.0000689834464849,122.26094879298954
6.911739392,1.0002268054049717,122.12808554370162
6.914024448,1.000370482370763,121.99310150183476
6.916309504,1.000491013049585,121.85620433800345
6.91859456,1.000580715808401,121.71782542830638
6.920879616,1.0006339577475212,121.57846502498731
6.923164672,1.000647233724129,121.43865040074886
