freq,mag,phase
6.0,0.9999673953317636,-125.54245500880911
6.04166656,0.9999609003842517,-127.77495707474105
6.08333312,0.9999542962924987,-130.00667130323794
6.125000192,0.9999482596168675,-132.23747686538175
6.166666752,0.999942667930473,-134.46737683861272
6.208333312,0.9999376173519882,-136.696244976553
6.249999872,0.9999332196594507,-138.92405256618386
6.291666432,0.999929514940394,-141.15070557435536
6.333333504,0.9999265267152087,-143.37617943857407
6.375000064,0.9999241845636611,-145.60036353800837
6.416666624,0.9999227215201976,-147.82325128597225
6.458333184,0.999922010453457,-150.04475024458824
6.499999744,0.9999221418076563,-152.26477854617858
6.541666816,0.9999229673897396,-154.48333904421617
6.583333376,0.9999245754104963,-156.7003358104404
6.624999936,0.9999270075303196,-158.91573086064554
6.666666496,0.99993016890259,-161.12947094467933
6.708333568,0.9999341223043601,-163.34151431829565
6.750000128,0.9999387392991199,-165.55178744071063
6.791666688,0.9999439689618321,-167.76026221107034
6.833333248,0.9999498159072845,-169.96688988401837
6.874999808,0.9999561529244576,-172.1715726817906
6.91666688,0.9999631115976082,-174.37436537969361
6.95833344,0.9999704055812115,-176.5751232127207
7.0,0.9999779672103203,-178.77388061972664
7.04166656,0.9999858657957538,179.0294631575545
7.08333312,0.9999938662825822,176.8349021457774
7.125000192,1.000002034299318,174.6425123762911
7.166666752,1.0000102792927121,172.45230834323786
7.208333312,1.0000184311731188,170.2643150601119
7.249999872,1.000026562080548,168.07861082364224
7.291666432,1.0000343133756258,165.8951978173882
7.333333504,1.000041763074086,163.71409313294635
7.375000064,1.0000488417182216,161.53537728133944
7.416666624,1.0000555554173023,159.3590465983022
7.458333184,1.000061792510053,157.1851390446077
7.500000256,1.0000673155286712,155.01368289752563
7.541666816,1.0000722314409796,152.84471299722279
7.583333376,1.0000763892969828,150.678221194941
7.624999936,1.0000798406579554,148.5142613856538
7.666666496,1.0000825646198621,146.35285214625915
7.708333568,1.0000844454887252,144.19401700339475
7.750000128,1.0000855766874692,142.03777135585315
7.791666688,1.0000857185876928,139.88412145367474
7.833333248,1.000084997365614,137.7330854419068
7.874999808,1.0000834952035964,135.5846801906093
7.91666688,1.0000811845020756,133.43893495249947
7.95833344,1.0000779157950084,131.29584875783493
8.0,1.0000739851627607,129.1554256868707
8.04166656,1.0000691892293703,127.01766897347066
8.08333312,1.0000637196136608,124.88260356840553
8.125000192,1.0000575932865332,122.75022625857605
8.166666752,1.0000508651147177,120.62052486597895
8.208333312,1.0000435930735467,118.49350280953996
8.249999872,1.000035766420863,116.36917845168817
8.291666432,1.0000275907358853,114.24752041055618
8.333333504,1.0000191856812406,112.12853186450107
8.375000064,1.0000105195414246,110.01222717296305
8.416666624,1.0000016977335218,107.89855507902864
8.458333184,0.9999927988049175,105.78753865655835
8.499999744,0.9999840405972632,103.6791522763935
8.541666816,0.9999753156914963,101.57338725707493
8.583333376,0.9999668072390292,99.47020506050636
8.625000448,0.9999587234853934,97.36961757547698
8.666667008,0.9999509231428723,95.27158331233095
8.708333568,0.9999437106516647,93.17607759663085
8.750000128,0.9999370145463922,91.08308226217981
8.791666688,0.9999309225558105,88.99259145179724
8.833333248,0.9999255537296177,86.90453604477173
8.874999808,0.9999210112825112,84.81891720896157
8.916666368,0.9999171884321195,82.73569547201218
8.958332928,0.9999142664987423,80.65483787101392
8.999999488,0.9999122688188156,78.5763102748513
9.041667072,0.9999111283692907,76.50008244500071
9.083333632,0.999910996415496,74.42610544390543
9.125000192,0.999911725091063,72.35437810161119
9.166666752,0.9999134044669421,70.28480900598477
9.208333312,0.9999161101007995,68.21741163705026
9.249999872,0.9999196834608234,66.15210793640529
9.291666432,0.9999241549514744,64.08887185535635
9.333332992,0.999929378067527,62.0276691428437
9.374999552,0.9999354611577757,59.96844016567528
9.416667136,0.9999422886826492,57.91116386713278
9.458333696,0.9999497384033713,55.855781914050254
9.500000256,0.99995783864006,53.802268827283214
9.541666816,0.9999663665609656,51.750559137010505
9.583333376,0.999975423753505,49.70061863465925
9.624999936,0.9999847201162589,47.65240828343509
9.666666496,0.9999942749531533,45.60588275926691
9.708333056,1.0000039762602735,43.56099824027793
9.749999616,1.0000136350864082,41.51770675276898
9.791666176,1.0000233330100516,39.47596484670464
9.83333376,1.0000327804973548,37.43573668320591
9.87500032,1.0000420177482112,35.39696808904134
9.91666688,1.0000508098259953,33.35962196375781
9.95833344,1.0000591931105893,31.323661429837845
10.0,1.000066958702556,29.28900942489369
10.04166656,1.0000740764938327,27.255671133896758
10.08333312,1.000080540658972,25.223565354933818
10.12499968,1.0000862029551592,23.19266913821495
10.16666624,1.0000909373988176,21.162926655536612
10.208333824,1.0000947169897665,19.134300019153276
10.250000384,1.0000975873233215,17.106754436994024
10.291666944,1.000099413678155,15.080235445407515
10.333333504,1.000100258008741,13.054716624518074
10.375000064,1.0001000187884648,11.030105340882395
10.416666624,1.0000987009308144,9.006419082257164
10.458333184,1.0000964433055768,6.983593873703556
10.499999744,1.000092970739549,4.961553257963385
10.541666304,1.000088556241971,2.940298724207711
10.583332864,1.0000833163851608,0.919758303057799
10.625000448,1.0000769856511869,-1.1000941530010544
10.666667008,1.0000698352167856,-3.1193462001609222
10.708333568,1.0000619620390516,-5.137987202972358
10.750000128,1.000053361870591,-7.156104528865367
10.791666688,1.000044095575876,-9.17372562047291
10.833333248,1.0000343093168909,-11.19090976324455
10.874999808,1.0000241465709372,-13.207713953338486
10.916666368,1.0000136445349115,-15.224169948337838
10.958332928,1.0000028895993842,-17.2403258155695
11.000000512,0.999992032224278,-19.256257824351394
11.041667072,0.9999812941082773,-21.27197092592886
11.083333632,0.9999706285680132,-23.287570103331657
11.125000192,0.9999602064030172,-25.30307358580167
11.166666752,0.9999501521145467,-27.318551193314505
11.208333312,0.9999405535645521,-29.33405797464427
11.249999872,0.9999315433269255,-31.349637925692754
11.291666432,0.9999231936890464,-33.3653401086829
11.333332992,0.9999155907889867,-35.38123936329621
11.374999552,0.9999089196608932,-37.39738376292901
11.416667136,0.9999031065809798,-39.41382644627349
11.458333696,0.9998983814388359,-41.43062529243245
11.500000256,0.9998947400994899,-43.44782936338574
11.541666816,0.9998921303267649,-45.465515078958596
11.583333376,0.999890569390064,-47.48372606332769
11.624999936,0.9998904055469651,-49.50252449649737
11.666666496,0.9998913409907019,-51.521960323619155
11.708333056,0.9998933970198205,-53.542101073040094
11.749999616,0.9998965516242283,-55.56298133737133
11.791666176,0.9999009282055643,-57.58468883704414
11.83333376,0.9999064686263632,-59.60724503723098
11.87500032,0.9999130683207776,-61.63072657208742
11.91666688,0.9999206366590851,-63.6551894575699
11.95833344,0.9999290021913052,-65.68067765290851
12.0,0.9999383907456256,-67.70724686034553
12.04166656,0.9999483986171868,-69.7349430533047
12.08333312,0.9999590500709324,-71.76383435546568
12.12499968,0.9999702117470748,-73.79395799102073
12.16666624,0.9999818305805276,-75.82535291358964
12.208333824,0.9999937410953611,-77.85807244025791
12.250000384,1.0000059081542918,-79.8921727516222
12.291666944,1.0000180055743109,-81.92768160098439
12.333333504,1.0000300814558143,-83.96467012394852
12.375000064,1.0000418835051224,-86.00315778937002
12.416666624,1.0000534720374126,-88.04319349083029
12.458333184,1.0000645148139646,-90.08480555228552
12.499999744,1.0000748861553612,-92.12803606912503
12.541666304,1.0000845668977776,-94.17293472358541
12.583332864,1.000093570304469,-96.21951362313702
12.625000448,1.0001015937235171,-98.26785032892245
12.666667008,1.0001085866519954,-100.31792166879917
12.708333568,1.0001145345532574,-102.36979020290129
12.750000128,1.0001192875663611,-104.42347925696323
12.791666688,1.0001228002029279,-106.47902159205566
12.833333248,1.0001251246716805,-108.5364420838872
12.874999808,1.0001261234122263,-110.59576545207037
12.916666368,1.0001257469463023,-112.65702937869763
12.958332928,1.000124071813579,-114.72023397867804
12.999999488,1.0001210204806246,-116.78542788236716
13.041667072,1.0001166824698673,-118.85261263688614
13.083333632,1.0001111018108055,-120.92182739161682
13.125000192,1.0001042234003035,-122.99308229555189
13.166666752,1.0000962407816936,-125.06638828793554
13.208333312,1.0000870667354465,-127.1418032649719
13.249999872,1.0000768515532943,-129.21930757862359
13.291666432,1.000065853181077,-131.29893756486808
13.333332992,1.000053956974411,-133.38070216845887
13.374999552,1.0000413350353146,-135.46462217091369
13.416667136,1.0000281465046084,-137.55070282721397
13.458333696,1.0000145808863627,-139.63898114762512
13.500000256,1.000000587539217,-141.72947574018318
13.541666816,0.999986524435506,-143.82218718230544
13.583333376,0.9999723601496573,-145.9171205244148
13.624999936,0.9999583648946334,-148.01431870060927
13.666666496,0.9999445516672147,-150.1137632812953
13.708333056,0.9999312282840364,-152.2154959619924
13.749999616,0.9999183502925211,-154.31951129990944
13.791666176,0.9999063300262364,-156.42585091713013
13.83333376,0.9998949666358924,-158.534507372248
13.87500032,0.9998845516003524,-160.6454661175008
13.91666688,0.9998753039251641,-162.75876793158125
13.95833344,0.999867204325767,-164.87442984204267
14.0,0.99986030015251,-166.9924507756108
