freq,mag,phase
6.0,0.9996238886132326,76.92224722074666
6.002288128,0.999558325490533,76.74914644421519
6.004576768,0.9995216563149504,76.57679557409686
6.006864896,0.9995150997397058,76.40478896028175
6.009153536,0.9995389439655532,76.232658210592
6.011441664,0.9995917901272744,76.06000746004567
6.013729792,0.9996702430385663,75.88642412620618
6.016018432,0.9997695280413491,75.71156106822409
6.01830656,0.9998831898681925,75.53518493233182
6.0205952,1.0000043322197052,75.3571123592116
6.022883328,1.0001250853471195,75.17729518215299
6.025171456,1.0002379204927532,74.99582063436998
6.027460096,1.0003357796709482,74.8128238506021
6.029748224,1.0004123894253862,74.628587166892
6.032036864,1.0004630230176523,74.44342601905979
6.034324992,1.0004843387934867,74.25777131426997
6.03661312,1.0004749512964468,74.07203693224777
6.03890176,1.0004354492608436,73.88666812712337
6.041189888,1.0003683766858962,73.70208467985077
6.043478016,1.0002778447589205,73.5186512208567
6.045766656,1.0001695001392479,73.33667613977345
6.048054784,1.000050158441979,73.15637957715684
6.050343424,0.9999274523479647,72.97784847808575
6.052631552,0.9998089921981808,72.80106092518471
6.05491968,0.9997023301186354,72.62594380585782
6.05720832,0.9996141522501102,72.45226096428442
6.059496448,0.9995500839961942,72.2796886333522
6.061785088,0.999514194468223,72.107873080335
6.064073216,0.9995086866924437,71.93637482855
6.066361344,0.9995341507839254,71.76474702874677
6.068649984,0.9995887462339328,71.5925563390541
6.070938112,0.999669299940581,71.4194183457107
6.073226752,0.9997706849974832,71.24496113947345
6.07551488,0.9998863917227051,71.06895944657194
6.077803008,1.0000093464846822,70.8912436546797
6.080091648,1.0001316608064081,70.71173783992765
6.082379776,1.0002456661528947,70.53056359519425
6.084668416,1.0003440549101068,70.34786635960972
6.086956544,1.0004208125099017,70.16388768731137
6.089244672,1.0004709183391067,69.97901883683981
6.091533312,1.000491243042716,69.79366512421521
6.09382144,1.0004805871019742,69.60822142039207
6.09611008,1.0004393508856113,69.4231927492261
6.098398208,1.000370282136675,69.23896278134848
6.100686336,1.0002776585918953,69.05592367184995
6.102974976,1.0001672068937544,68.87435682421358
6.105263104,1.0000459659645906,68.69448722685732
6.107551232,0.999921545190516,68.51641789354048
6.109839872,0.9998016609461727,68.34012805481113
6.112128,0.9996941592722088,68.16552063031838
6.11441664,0.9996056914396557,67.99233941791856
6.116704768,0.9995416991648833,67.82027541889357
6.118992896,0.9995065737301481,67.6489543991155
6.121281536,0.9995023618174761,67.47795662367929
6.123569664,0.999529357516599,67.30679734973504
6.125858304,0.9995859853690002,67.13503157845098
6.128146432,0.9996685819359131,66.96230684109831
6.13043456,0.9997721281420869,66.78822573448237
6.1327232,0.9998899323985496,66.61256916757505
6.135011328,1.0000146890614436,66.4351751659526
6.137299968,1.0001385256407938,66.25596398832936
6.139588096,1.0002536170824792,66.07504884604772
6.141876224,1.0003526703171026,65.89259988510236
6.144164864,1.0004294713364812,65.70888909736183
6.146452992,1.0004790895317746,65.5242617196401
6.148741632,1.0004984138778898,65.33915775930282
6.15102976,1.000486243576672,65.15400972933885
6.153317888,1.000443204702642,64.96926304442938
6.155606528,1.000372105132574,64.78537435296688
6.157894656,1.000277252783424,64.60266484335975
6.160183296,1.0001646702771758,64.42150628972476
6.162471424,1.0000414285663772,64.24204673877263
6.164759552,0.9999153091664459,64.06441469768674
6.167048192,0.9997942184151479,63.888579370865294
6.16933632,0.9996857989065977,63.71443927915757
6.17162496,0.9995970200015598,63.541756205689765
6.173913088,0.9995332802644438,63.370177318478916
6.176201216,0.9994989360072118,63.19933624893601
6.178489856,0.9994959664724493,63.02878443887831
6.180777984,0.9995246220573859,62.858061366717905
6.183066112,0.9995832395746597,62.68669914478251
6.185354752,0.9996680201460598,62.514356761369044
6.18764288,0.9997736651989374,62.340612696404484
6.18993152,0.9998937083610026,62.16526656409019
6.192219648,1.0000202504482543,61.98814203074503
6.194507776,1.0001455799028118,61.80919346119852
6.196796416,1.0002617856566067,61.62851437775224
6.199084544,1.0003613782267997,61.44628184369506
6.201373184,1.0004382015331212,61.26277248621927
6.203661312,1.000487314737079,61.07839399085544
6.20594944,1.0005055179614686,60.89350889727956
6.20823808,1.0004919188902077,60.708602903880966
6.210526208,1.0004469452666027,60.524126953632106
6.212814848,1.0003737899722276,60.340533664738786
6.215102976,1.000276655254895,60.158167221517445
6.217391104,1.0001619243864128,59.97733561391448
6.219679744,1.0000366261221476,59.79827484677973
6.221967872,0.9999087861952577,59.62104965884288
6.224256512,0.9997863447090208,59.44567065529498
6.22654464,0.9996771879270776,59.271965454038515
6.228832768,0.9995880958248906,59.09972379267077
6.231121408,0.9995246942166179,58.92858277479087
6.233409536,0.999491131298527,58.758205014628714
6.235698176,0.9994894534720531,58.58807963883865
6.237986304,0.9995199213432239,58.41776276849801
6.240274432,0.9995805627583536,58.24679254161606
6.242563072,0.9996675529294391,58.07476911396137
6.2448512,0.9997754268891856,57.90134514622719
6.24713984,0.9998975627918096,57.72626249278816
6.249427968,1.0000261091147058,57.54939375405882
6.251716096,1.0001529682608807,57.37066885312985
6.254004736,1.0002701611776468,57.19019834797301
6.256292864,1.00037031284584,57.008150754295464
6.258580992,1.0004470933124503,56.82483131242428
6.260869632,1.0004956328046142,56.640606020097685
6.26315776,1.000512851100646,56.455928525229346
6.2654464,1.0004975153934796,56.27123019055192
6.267734528,1.00045076954573,56.08699972999354
6.270022656,1.0003753390597712,55.903668820265985
6.272311296,1.0002760785703828,55.721605494334874
6.274599424,1.0001590515592518,55.54110406877401
6.276888064,1.000031714870355,55.36239679576248
6.279176192,0.9999021799256208,55.18554995027585
6.28146432,0.9997785071296944,55.01056745817184
6.28375296,0.999668475301663,54.837280357295555
6.286041088,0.9995791646140153,54.665478283383216
6.288329728,0.9995160580201762,54.49475824392244
6.290617856,0.9994833503488976,54.324777811828326
6.292905984,0.9994831486505151,54.155036150671656
6.295194624,0.9995153209605133,53.98509665763044
6.297482752,0.9995780767696381,53.81447472431081
6.299771392,0.9996672968116913,53.642764559714465
6.30205952,0.9997774289381473,53.46961230360562
6.304347648,0.9999017405824101,53.29476866700215
6.306636288,1.0000321487877246,53.11811575742972
6.308924416,1.0001605260211972,52.93956962753223
6.311213056,1.0002787550044963,52.75925010294348
6.313501184,1.0003794802322394,52.57735259281972
6.315789312,1.0004561683180795,52.394204009462975
6.318077952,1.0005040063844406,52.210110681852896
6.32036608,1.0005200971413475,52.02560669437262
6.322654208,1.0005031157567443,51.841100321350055
6.324942848,1.0004543584279122,51.657060874165765
6.327230976,1.0003766986320588,51.47395266856155
6.329519616,1.0002751213559984,51.29216041835584
6.331807744,1.0001559012921084,51.111969706735984
6.334095872,1.0000265455318587,50.933590483229686
6.336384512,0.9998951736868404,50.75710594288368
6.33867264,0.9997702589843303,50.58249879045196
6.34096128,0.9996595076575984,50.40959690992069
6.343249408,0.9995699472444769,50.238181404045754
6.345537536,0.9995073474428753,50.06787732319333
6.347826176,0.9994755401301137,49.89826517591572
6.350114304,0.999476755571276,49.72889959041838
6.352402944,0.9995108071011564,49.55929483319606
6.354691072,0.9995757029231762,49.3889614230224
6.3569792,0.9996672984355873,49.21752728584319
6.35926784,0.9997798085536054,49.04462716626669
6.361555968,0.9999062515971107,48.86999145247594
6.363844608,1.0000385240470837,48.693495436210554
6.366132736,1.0001684779834388,48.515096100126385
6.368420864,1.0002876752037968,48.33490273306645
6.370709504,1.0003887918597663,48.15314525899055
6.372997632,1.0004654560314465,47.97008120350848
6.375286272,1.0005125612874295,47.78612853223806
6.3775744,1.000527383479506,47.601738163104365
6.379862528,1.0005087835382274,47.417359555725554
6.382151168,1.0004579740917374,47.233515530444016
6.384439296,1.0003780385380208,47.050607525269015
6.386727936,1.000274086471026,46.86905489620001
6.389016064,1.000152532849475,46.68913140766118
6.391304192,1.0000210503073517,46.511046202147675
6.393592832,0.9998881045313556,46.33489473195681
6.39588096,0.9997617911838246,46.16061716305994
6.398169088,0.9996502871272767,45.98809646259651
6.400457728,0.9995605262244697,45.817026500132144
6.402745856,0.9994983271177464,45.647096806387204
6.405034496,0.9994676125966229,45.47783732349512
6.407322624,0.9994702564911384,45.30879809154031
6.409610752,0.999506286584253,45.139492009250766
6.411899392,0.9995733038726384,44.96944652378814
6.41418752,0.9996672355804253,44.79824529863704
6.41647616,0.9997821084503529,44.625548466152
6.418764288,0.9999107901295727,44.45108168226494
6.421052416,1.0000449963159985,44.27471952481008
6.423341056,1.0001764445558856,44.09643701083611
6.425629184,1.0002967280264057,43.91635271492213
6.427917824,1.0003983142918795,43.73465729335163
6.430205952,1.000474755146482,43.55166276093748
6.43249408,1.0005211202566373,43.36779209763069
6.43478272,1.0005346427435433,43.18349740020009
6.437070848,1.0005143289439833,42.99926367913466
6.439359488,1.000461408263563,42.81555372420845
6.441647616,1.000379116912416,42.6328267301585
6.443935744,1.0002727965374838,42.45147046555395
6.446224384,1.0001489134624315,42.27179084861348
6.448512512,1.0000154228105194,42.09396314109002
6.450801152,0.999880678940968,41.9181094616515
6.45308928,0.9997530503550522,41.74415008319532
6.455377408,0.9996408725414904,41.57194076462865
6.457666048,0.9995509824855395,41.401238146134936
6.459954176,0.9994893037900587,41.23161569231898
6.462242816,0.9994595222140994,41.062689933037504
6.464530944,0.9994638017699555,40.89394235645463
6.466819072,0.9995017786854397,40.72490032610085
6.469107712,0.9995710611195703,40.55510098415487
6.47139584,0.9996674794831979,40.38409079270893
6.473683968,0.9997847202507052,40.21155804821971
6.475972608,0.9999155732107219,40.03723791957406
6.478260736,1.000051722789397,39.860983259959276
6.480549376,1.0001847085944953,39.6827783855659
6.482837504,1.000305973369921,39.50273914206197
6.485125632,1.000407945217582,39.32107771250493
6.487414272,1.000484171444648,39.13813100022188
6.4897024,1.0005298093606296,38.95432837540512
6.49199104,1.0005419763458276,38.77008389109534
6.494279168,1.0005199177535942,38.58590859872727
6.496567296,1.0004647814282024,38.402321496689076
6.498855936,1.0003801526595502,38.219736041610446
6.501144064,1.0002713151455642,38.03854468351715
6.503432704,1.0001451961667807,37.859071373365225
6.505720832,1.000009560327515,37.68150606056757
6.50800896,0.9998730226601397,37.50589778383453
6.5102976,0.9997442282799243,37.33223142621041
6.512585728,0.9996313126840884,37.16032315593455
6.514874368,0.9995413180062902,36.98991959410816
6.517162496,0.9994802239656561,36.82060654797134
6.519450624,0.9994515850894559,36.65194031715209
6.521739264,0.9994574172272876,36.48346790294118
6.524027392,0.9994973976254014,36.31467479264207
6.526316032,0.99956901581717,36.14507479152843
6.52860416,0.9996678426582497,35.97424746183101
6.530892288,0.999787508943732,35.8018535790718
6.533180928,0.9999207036346837,35.627620986325766
6.535469056,1.00005880176238,35.45142101048404
6.537757184,1.0001932816187697,35.27326663466492
6.540045824,1.0003154196930595,35.09323122874391
6.542333952,1.0004178421973953,34.911576936192766
6.544622592,1.00049381026485,34.72865316852132
6.54691072,1.0005385866261052,34.54485050841269
6.549198848,1.0005493909187748,34.36061210369529
6.551487488,1.0005253627835615,34.17651893469901
6.553775616,1.0004680562016792,33.992983009526235
6.556064256,1.0003810672009712,33.810520601661004
6.558352384,1.0002697965282001,33.629471177236724
6.560640512,1.0001412400460319,33.4501685069243
6.562929152,1.000003497383718,33.27280549324096
6.56521728,0.9998651978479611,33.097449778378646
6.56750592,0.9997351233421516,32.92403893146496
6.569794048,0.9996215883795826,32.75241667749981
6.572082176,0.999531465607964,32.58225536051213
6.574370816,0.9994708759815171,32.41322126324326
6.576658944,0.9994434722930359,32.244817881208725
6.578947584,0.9994509458608958,32.07658088257045
6.581235712,0.9994930523788325,31.907982759976466
6.58352384,0.999567075039353,31.738555415861114
6.58581248,0.9996683259620756,31.56785795887251
6.588100608,0.9997905182891295,31.395549880926374
6.590389248,0.9999259559583051,31.221390120884173
6.592677376,1.0000660393970757,31.04521336665582
6.594965504,1.0002019679291148,30.867051494489882
6.597254144,1.0003252181323745,30.68700381400897
6.599542272,1.0004278999162617,30.505327445190005
6.601830912,1.0005036235346814,30.322371549598046
6.60411904,1.0005475033150595,30.13853419058095
6.606407168,1.0005567967003632,29.954328845231874
6.608695808,1.0005309577896402,29.770216551364296
6.610983936,1.0004713421660243,29.5867359571159
6.613272064,1.0003818603671786,29.4043444140826
6.615560704,1.0002680637515977,29.22341531423309
6.617848832,1.0001370538229652,29.044262841306654
6.620137472,0.9999971573909271,28.86707227770241
6.6224256,0.9998572216330293,28.691908615523527
6.624713728,0.9997257813758061,28.518739877039945
6.627002368,0.9996115746052316,28.34733026591158
6.629290496,0.9995216488112028,28.177429714859407
6.631579136,0.9994615176428465,28.008636073786654
6.633867264,0.9994353115767177,27.84044252378779
6.636155392,0.9994446250086185,27.672416598765306
6.638444032,0.9994887987347201,27.503994610694654
6.64073216,0.9995652141306743,27.334679895710657
6.6430208,0.9996690365174343,27.164111669632646
6.645308928,0.999793752079942,26.991841356399863
6.647597056,0.9999314480331046,26.81770837785555
6.649885696,1.0000735429757486,26.64151937642288
6.652173824,1.0002109606885055,26.463326935076747
6.654462464,1.000335131821911,26.283244326247647
6.656750592,1.000438114685447,26.101500791196532
6.65903872,1.0005135693567946,25.91846701727966
6.66132736,1.0005565095284599,25.73457698117419
6.663615488,1.0005642997115065,25.55031656480922
6.665904128,1.0005364276955029,25.366184413727925
6.668192256,1.0004745002410838,25.182726179327908
6.670480384,1.0003824689794176,25.000372132737887
6.672769024,1.0002660823329488,24.819530078346176
6.675057152,1.0001326145181975,24.640494844593587
6.677345792,0.9999905781231697,24.463450436667458
6.67963392,0.9998488239191121,24.288468842566413
6.681922048,0.9997163531903784,24.1154820375602
6.684210688,0.9996014112157353,23.944311492089263
6.686498816,0.9995114229529661,23.774604324225486
6.688786944,0.999452092572681,23.606007137793313
6.691075584,0.9994270705830036,23.43800893588694
6.693363712,0.9994381741109707,23.270145150905694
6.695652352,0.9994845731109637,23.101844941588784
6.69794048,0.9995634409515431,22.9326625833386
6.700228608,0.9996698597549697,22.762134727961055
6.702517248,0.9997971417113451,22.5898932505802
6.704805376,0.9999371342476219,22.415763005986804
6.707094016,1.0000812224678794,22.239519812086826
6.709382144,1.0002202167046108,22.06125387576863
6.711670272,1.0003452226209841,21.88107462395638
6.713958912,1.0004485939161352,21.699221187937297
6.71624704,1.0005236249623093,21.516107968346674
6.71853568,1.0005655591040667,21.332114856982052
6.720823808,1.000571801600682,21.147780374957087
6.723111936,1.0005418542547184,20.963619665718824
6.725400576,1.0004775683811744,20.78011582069513
6.727688704,1.0003829876500065,20.59778418677777
6.729977344,1.0002640454011282,20.41698231048146
6.732265472,1.0001281044585573,20.238020607284668
6.7345536,0.9999838185314129,20.061119555056443
6.73684224,0.9998403889464428,19.886268636212893
6.739130368,0.9997065736796577,19.713473129200036
6.741419008,0.9995910413801582,19.54244356126779
6.743707136,0.9995011417474715,19.372938570501734
6.745995264,0.9994424351977327,19.20450145900994
6.748283904,0.9994187772458135,19.036673107786932
6.750572032,0.9994317279692914,18.868944405292623
6.75286016,0.9994803578861527,18.700762065281396
6.7551488,0.9995618280737856,18.531623872120036
6.757436928,0.9996708774233488,18.361131679135923
6.759725568,0.9998006622394944,18.188888544328965
6.762013696,0.999943006779005,18.01468482155023
6.764301824,1.0000890350368896,17.838383753595302
6.766590464,1.0002295197026734,17.659998110727894
6.768878592,1.0003555170698541,17.479698848931246
6.771167232,1.000459109586225,17.29771881564029
6.77345536,1.0005337507036394,17.114456057664658
6.775743488,1.0005746749760298,16.930338574764203
6.778032128,1.0005792794609627,16.745888807998274
6.780320256,1.0005472446185728,16.561646718110147
6.782608896,1.0004806183017756,16.378104810556565
6.784897024,1.0003833809948937,16.195732209106875
6.787185152,1.0002617809409335,16.01495522322433
6.789473792,1.0001233613099463,15.836047730732037
6.79176192,0.9999769462513175,15.65923424639465
6.79405056,0.9998315930273186,15.484509314583523
6.796338688,0.9996967204574418,15.311806370430043
6.798626816,0.9995806604880028,15.140962146362948
6.800915456,0.9994907779851004,14.971590286585256
6.803203584,0.9994328082776152,14.803312143441318
6.805492224,0.9994106028464547,14.635605532170796
6.807780352,0.9994253404816381,14.467961868325078
6.81006848,0.9994763164099046,14.299854840930903
6.81235712,0.9995603046128323,14.130760582374728
6.814645248,0.9996719355335609,13.96025676575547
6.816933888,0.9998044163382156,13.787965441207364
6.819222016,0.9999492043839175,13.613679999255814
6.821510144,1.0000972676011453,13.437264779064158
6.823798784,1.0002392199107957,13.258751408200611
6.826086912,1.000366067421656,13.078261901572
6.82837504,1.000469850231085,12.896114702420059
6.83066368,1.000544104379626,12.712677881075605
6.832951808,1.0005838907519913,12.52839789458783
6.835240448,1.0005868795648305,12.3438037821544
6.837528576,1.0005527249466348,12.159447345201597
6.839816704,1.000483593089958,11.975819348553186
6.842105344,1.0003836382058584,11.793403860003469
6.844393472,1.0002593455583189,11.612622215728694
6.846682112,1.0001184726508527,11.433753619173384
6.84897024,0.9999697918857083,11.256972657106985
6.851258368,0.9998226983704119,11.082333000061926
6.853547008,0.9996865491292242,10.909759705058047
6.855835136,0.9995699649632699,10.739010795595064
6.858123776,0.9994801674496111,10.569776046842385
6.860411904,0.9994231479644243,10.401590698750244
6.862700032,0.9994022313609574,10.234000697675851
6.864988672,0.999418911718664,10.066420985094803
6.8672768,0.9994723234705192,9.898346986668702
6.86956544,0.9995589191801695,9.729251731228967
6.871853568,0.9996732467738559,9.558701855957926
6.874141696,0.9998083632672075,9.386339717303976
6.876430336,0.9999555962691208,9.211910867968832
6.878718464,1.0001056064211928,9.035350096911998
6.881007104,1.0002490168140419,8.856653484014629
6.883295232,1.0003767742509284,8.675974949750632
6.88558336,1.0004807726719869,8.493628310689894
6.887872,1.0005545808168383,8.309990072724041
6.890160128,1.0005932914855928,8.125520988033767
6.892448768,1.0005944560550473,7.940741791942974
6.894736896,1.0005581130938368,7.756230139336291
6.897025024,1.0004864224524523,7.572472590621251
6.899313664,1.0003838301448322,7.389981066348927
6.901601792,1.0002568709302042,7.2091536975368
6.90388992,1.0001134449948448,7.030287681632856
6.90617856,0.999962503797923,6.853530757270612
6.908466688,0.9998136261703848,6.678947371608226
6.910755328,0.9996763012506742,6.506448184133531
6.913043456,0.9995591403504511,6.335794969515251
6.915331584,0.9994695855479102,6.166647204671954
6.917620224,0.9994132513125933,5.998547458365314
6.919908352,0.9993938699858264,5.831007479905015
6.922196992,0.999412501888281,5.663461445286854
6.92448512,0.9994683180386413,5.495397399813056
6.926773248,0.9995575334860031,5.326260207999033
6.929061888,0.9996747295739693,5.155634934279004
6.931350016,0.9998123934842796,4.983162242466142
6.933638656,0.9999620092852282,4.80859586511222
