freq,mag,phase
6.0,1.000580310408104,50.44575622104548
6.002285568,1.0004057998129503,50.27496498475954
6.004571648,1.0002056805707202,50.106873713246756
6.006857216,0.99999234866029,49.941747842882855
6.009142784,0.9997794472284233,49.779705179443006
6.011428352,0.9995803167275643,49.62063892556233
6.013714432,0.9994075922195983,49.46425280306677
6.016,0.9992722002495346,49.31006695441265
6.018285568,0.9991828251550053,49.15749625246135
6.020571648,0.999145111686989,49.00583486917541
6.022857216,0.999161355450852,48.85432809169829
6.025142784,0.9992307100700524,48.70215725751993
6.027428352,0.9993486572883036,48.548597056913735
6.029714432,0.9995078885975123,48.393026836287206
6.032,0.9996982266951242,48.23487060646985
6.034285568,0.9999077651361225,48.07378223136044
6.036571648,1.000123113473132,47.909599171681705
6.038857216,1.0003307640958212,47.74231264841233
6.041142784,1.0005175306185925,47.572138200402684
6.043428352,1.000671726220296,47.3994785705426
6.045714432,1.000783489194235,47.22486098928099
6.048,1.0008457593090914,47.048941413309294
6.050285568,1.0008546901978046,46.87248455101916
6.052571648,1.0008096516167941,46.69627044259042
6.054857216,1.0007133206563763,46.52103244862293
6.057142784,1.0005719249897291,46.3475061447861
6.059428352,1.000394299270316,46.1762624501751
6.061714432,1.0001916932309554,46.00775360479378
6.064,0.9999768185116508,45.842241003167324
6.066285568,0.9997632276950293,45.67980125495939
6.068571648,0.9995645198366011,45.52032674575295
6.070857216,0.9993932060986069,45.363525520578115
6.073142784,0.99926007935617,45.208929747133254
6.075428352,0.9991737900002974,45.05589169694727
6.077714432,0.9991395753652574,44.903700349029506
6.08,0.9991598198178127,44.75158636613896
6.082285568,0.9992331338788264,44.59877304396602
6.084571648,0.9993550246843566,44.44451281915035
6.086857216,0.9995177063331868,44.28816233662074
6.089142784,0.9997108321168099,44.129199913667954
6.091428352,0.9999223454624583,43.967250802587984
6.093714432,1.0001387900427274,43.80218482869969
6.096,1.0003466032430952,43.63400293510138
6.098285568,1.0005324582274662,43.46293367298035
6.100571648,1.000684741651866,43.289391975750675
6.102857216,1.0007938244348444,43.11393018271878
6.105142784,1.0008528526450389,42.93719070042199
6.107428352,1.0008579257493961,42.75997668807093
6.109714432,1.0008089067317967,42.58306632972572
6.112,1.0007087409047706,42.407178634662706
6.114285568,1.0005637170270352,42.233037654737466
6.116571648,1.0003829568255815,42.0612412954486
6.118857216,1.0001779321805528,41.892189652827696
6.121142784,0.9999615133342802,41.72616568273925
6.123428352,0.9997474255285428,41.56324204142625
6.125714432,0.999549060373156,41.4032984916238
6.128,0.9993791528634861,41.24597606007389
6.130285568,0.9992484371201437,41.09082311664228
6.132571648,0.9991650560122857,40.93720629707043
6.134857216,0.999134496000943,40.78439041377632
6.137142784,0.9991585685267941,40.63158781466903
6.139428352,0.9992359434276613,40.478006765129706
6.141714432,0.999361568648816,40.32293152437081
6.144,0.9995275859803623,40.16571935672728
6.146285568,0.9997234410806997,40.00582810692586
6.148571648,0.9999369631467914,39.84292140889563
6.150857216,1.0001544546759282,39.67686034344621
6.153142784,1.0003622533085428,39.50770071931805
6.155428352,1.0005470951862139,39.335624471999644
6.157714432,1.0006975489827559,39.161113056681394
6.16,1.0008039349592588,38.98469385357071
6.162285568,1.0008596537078351,38.80705926412431
6.164571648,1.0008609892255633,38.628993392672605
6.166857216,1.000807991640443,38.451259559982184
6.169142784,1.000703893632872,38.27462202588824
6.171428352,1.0005553207594604,38.09977047937007
6.173714432,1.000371535732208,37.92731046066554
6.176,1.0001641563378962,37.75763690216438
6.178285568,0.999946245088066,37.591026031622924
6.180571648,0.9997315933767177,37.42750131602932
6.182857216,0.9995337403866322,37.2669520454496
6.185142784,0.9993652373829386,37.10904597448175
6.187428352,0.9992367706652117,36.953242465994805
6.189714432,0.9991564665710273,36.798933573374626
6.192,0.9991294703469202,36.64534558746949
6.194285568,0.9991574449138481,36.49175960588499
6.196571648,0.9992387519177638,36.33733975528786
6.198857216,0.9993681136332458,36.18134541843038
6.201142784,0.9995375222670292,36.023132142511145
6.203428352,0.9997361647122687,35.86221505628271
6.205714432,0.9999514823295995,35.69827174558331
6.208,1.0001698885367707,35.531130444016604
6.210285568,1.0003777667673057,35.3608521166363
6.212571648,1.000561744926491,35.18770366966131
6.214857216,1.0007102542894746,35.01210528152603
6.217142784,1.0008139715671338,34.834653818707125
6.219428352,1.000866348260548,34.65602290846928
6.221714432,1.0008639538783872,34.47698426807249
6.224,1.000807079878735,34.29834899002478
6.226285568,1.000699150390871,34.12084951951159
6.228571648,1.0005469963280944,33.94518255598848
6.230857216,1.0003602056001752,33.77194328275092
6.233142784,1.0001505454551396,33.601544411602454
6.235428352,0.9999311205283524,33.43423932831345
6.237714432,0.999716000433403,33.27002404889811
6.24,0.9995186432068284,33.108768119519276
6.242285568,0.9993515193430578,32.950114707897626
6.244571648,0.9992253469684652,32.79357054525554
6.246857216,0.9991480557179401,32.63847854216099
6.249142784,0.9991245900911926,32.484064640073626
6.251428352,0.9991564174751858,32.329567786261066
6.253714432,0.9992415531547203,32.17417599720167
6.256,0.9993746436808145,32.01714649174272
6.258285568,0.9995472404390606,31.85788154871889
6.260571648,0.9997486214828939,31.695855668980034
6.262857216,0.9999658178451566,31.530728341505064
6.265142784,1.000185286619588,31.362417717704044
6.267428352,1.0003929890611765,31.190954773961607
6.269714432,1.0005760284786767,31.016608079639298
6.272,1.000722657747987,30.83983796482618
6.274285568,1.000823784250056,30.6612204208116
6.276571648,1.0008728553053148,30.48149562697638
6.278857216,1.000866827749912,30.301386188864715
6.281142784,1.0008061045275072,30.12173703108117
6.283428352,1.000694367761175,29.94327332105439
6.285714432,1.0005387026726522,29.766709010111494
6.288,1.0003489894854656,29.592619002002404
6.290285568,1.0001370110189556,29.421395332176562
6.292571648,0.999916305685029,29.253249044263903
6.294857216,0.9997005682155705,29.088252042978745
6.297142784,0.999503722928846,28.926163771548662
6.299428352,0.9993381263769657,28.766717771778183
6.301714432,0.9992142063438779,28.609310355639458
6.304,0.9991398405300785,28.453312079871516
6.306285568,0.9991198616258299,28.297955040944924
6.308571648,0.9991554877144808,28.142440259430973
6.310857216,0.9992443772184585,27.985984089332312
6.313142784,0.9993811217091171,27.827854903999857
6.315428352,0.9995569913984019,27.667395623806048
6.317714432,0.9997608865757904,27.50413476404015
6.32,0.9999799444782256,27.33776688554567
6.322285568,1.0002003024726238,27.168165419405145
6.324571648,1.0004080565807152,26.99541128746228
6.326857216,1.0005900979583835,26.81977975143579
6.329142784,1.0007349777113819,26.641746595281553
6.331428352,1.00083333097457,26.46189165321062
6.333714432,1.0008792786958387,26.280951433457844
6.336,1.00086962641456,26.09968785539763
6.338285568,1.0008051018738653,25.91892092320205
6.340571648,1.000689692165045,25.73940098964142
6.342857216,1.000530619319656,25.56183038785762
6.345142784,1.0003379548495728,25.386762272456995
6.347428352,1.0001238143671611,25.214595830642462
6.349714432,0.9999016606253618,25.045510931768177
6.352,0.9996855817373355,24.879615662340797
6.354285568,0.9994892269803567,24.716623283551424
6.356571648,0.999325013334418,24.556240790527145
6.358857216,0.9992033305269221,24.39787678611048
6.361142784,0.999131879282748,24.240862762399818
6.363428352,0.9991152762175245,24.084465329020798
6.365714432,0.9991545719502164,23.927836830591442
6.368,0.999247277493032,23.770233299511208
6.370285568,0.9993875756309478,23.610855054665702
6.372571648,0.9995666922345313,23.449131610204226
6.374857216,0.9997730705460338,23.28455923710294
6.377142784,0.9999937950494467,23.116830420597807
6.379428352,1.0002151609084886,22.945854298741065
6.381714432,1.000422877017597,22.771693557434688
6.384,1.0006040475236555,22.594690678725573
6.386285568,1.0007469564717069,22.415270594145383
6.388571648,1.000842807976293,22.234080781987664
6.390857216,1.0008855263912004,22.05183864723727
6.393142784,1.000872385111486,21.86929906627346
6.395428352,1.0008040683336232,21.6873424814548
6.397714432,1.0006850844492925,21.5066713337258
6.4,1.0005226665825164,21.3279642066529
6.402285568,1.0003271382615502,21.151817586279645
6.404571648,1.0001108241140866,20.978610397022315
6.406857216,0.9998873190828049,20.808529967268814
6.409142784,0.9996708273263976,20.641589835397006
6.411428352,0.9994749398874642,20.4775911623743
6.413714432,0.999312102148021,20.316168672905835
6.416,0.9991925768622725,20.156750060880746
6.418285568,0.9991240748488049,19.998628195970156
6.420571648,0.9991107208556506,19.841072028887755
6.422857216,0.9991537627292083,19.683244224665653
6.425142784,0.9992501096299323,19.52434737794225
6.427428352,0.9993938935592466,19.36367079061327
6.429714432,0.9995759615437141,19.200549362422336
6.432,0.9997848950099931,19.03456287146936
6.434285568,1.0000074231200138,18.865390923688324
6.436571648,1.0002295964361618,18.692928314797882
6.438857216,1.0004373158712239,18.517286936667535
6.441142784,1.0006174796035188,18.33879722594871
6.443428352,1.000758720419847,18.157907278363314
6.445714432,1.000852024722925,17.975277805139918
6.448,1.0008916426389756,17.79162301376246
6.450285568,1.0008750607796735,17.607746263361854
6.452571648,1.0008031900859033,17.42445737780181
6.454857216,1.000680488719879,17.24251870925895
6.457142784,1.000514759004908,17.062608015224637
6.459428352,1.000316481287773,16.885273110223956
6.461714432,1.0000980720435035,16.7109155662105
6.464,0.9998733322817543,16.539713164602652
6.466285568,0.9996563929498637,16.37165712015
6.468571648,0.9994608969575849,16.20655196094193
6.470857216,0.9992994559674865,16.043983376802448
6.473142784,0.9991820808816052,15.883377142568229
6.475428352,0.9991163783594478,15.724054622872567
6.477714432,0.9991063708285772,15.56522530626089
6.48,0.9991528722704026,15.406095699990965
6.482285568,0.9992527520300322,15.245829075425734
6.484571648,0.9994000229034393,15.083718958089241
6.486857216,0.999585067637431,14.919159445034467
6.489142784,0.9997964183590508,14.751645025975446
6.491428352,1.0000207485190504,14.580893830393332
6.493714432,1.0002437090716632,14.40686580712092
6.496,1.0004514776880165,14.229653153131903
6.498285568,1.0006307147057845,14.049591098358675
6.500571648,1.0007701034677532,13.867147128144461
6.502857216,1.0008610576443984,13.682983251614974
6.505142784,1.0008977833519763,13.497812091545129
6.507428352,1.0008777436578045,13.312472125079369
6.509714432,1.0008022678882595,13.12777450228818
6.512,1.0006761602450902,12.944468631352022
6.514285568,1.000507272035999,12.76322534315179
6.516571648,1.0003062460361805,12.584614625124122
6.518857216,1.0000857741534972,12.409001607591067
6.521142784,0.9998597001603357,12.23655289701578
6.523428352,0.9996422916912779,12.067271942639731
6.525714432,0.9994473049958074,11.900947765376335
6.528,0.9992871816139781,11.737118757392059
6.530285568,0.9991718103565439,11.575235533799184
6.532571648,0.9991087932154082,11.414607919076095
6.534857216,0.9991019837387884,11.254428067043545
6.537142784,0.9991517873364703,11.093883105225236
6.539428352,0.9992552692887915,10.932166364810106
6.541714432,0.9994057673871771,10.768541011190985
6.544,0.9995937960300573,10.602376864401315
6.546285568,0.9998075826051465,10.43326539356824
6.548571648,1.0000335518090706,10.260880773488436
6.550857216,1.0002574531927795,10.085171656226986
6.553142784,1.0004650921049785,9.906305836105547
6.555428352,1.0006434683416146,9.724545290944798
6.557714432,1.0007812632443023,9.540443418270268
6.56,1.0008698823324613,9.354629816619827
6.562285568,1.0009035245927258,9.167889768116455
6.564571648,1.0008803120593632,8.98100363190083
6.566857216,1.0008013967253107,8.794777893649075
6.569142784,1.000671936170738,8.610009797263235
6.571428352,1.0004999654868485,8.427332905680856
6.573714432,1.0002962639702997,8.247337840556337
6.576,1.000073769413772,8.070355484388458
6.578285568,0.9998464008328602,7.8965873692626865
6.580571648,0.9996285618618097,7.725981760980925
6.582857216,0.9994341366705435,7.558289780668868
6.585142784,0.9992750918899753,7.393141484957336
6.587428352,0.9991618109829549,7.229883191133474
6.589714432,0.9991013788163097,7.067834476830641
6.592,0.9990976218459721,6.9061889704019865
6.594285568,0.9991508326045294,6.74412594552023
6.596571648,0.9992577243350719,6.580843008707127
6.598857216,0.9994113967240896,6.415598436559397
6.601142784,0.9996023801116841,6.24779024971488
6.603428352,0.9998184823841029,6.076952977023738
6.605714432,1.0000460724469835,5.90285276736834
6.608,1.0002708037206127,5.725384915063761
6.610285568,1.0004785196352226,5.544738416753544
6.612571648,1.0006561130594422,5.361203050920301
6.614857216,1.0007923538998105,5.175372741299616
6.617142784,1.0008786424539895,4.987837476415133
6.619428352,1.0009094665973453,4.799377996091866
6.621714432,1.0008830420322041,4.61082840809758
6.624,1.0008008770878856,4.4229922260933305
6.626285568,1.0006680984120302,4.236659625233715
6.628571648,1.0004931654808709,4.052471727092705
6.630857216,1.0002868298738514,3.870964402113707
6.633142784,1.0000623707283474,3.6925366125421246
6.635428352,0.9998336833965086,3.517300948379098
6.637714432,0.9996153703708518,3.3452695395460617
6.64,0.9994211463990068,3.1761573521844526
6.642285568,0.999263390403236,3.0095245696538724
6.644571648,0.9991519608414057,2.844811081577276
6.646857216,0.999094081332149,2.6812332674298953
6.649142784,0.9990933320275168,2.518030959052714
6.651428352,0.9991497448209087,2.3543578479907032
6.653714432,0.9992598488438775,2.189403778445617
6.656,0.9994167645699723,2.022459101472949
6.658285568,0.9996104795918975,1.852910992560031
6.660571648,0.9998288550366782,1.6802668604513846
6.662857216,1.0000581034495506,1.5043439947540516
6.665142784,1.0002836843693192,1.3250272251569573
6.667428352,1.0004914444951136,1.1425122767203195
6.669714432,1.0006683138633237,0.9571333652050179
6.672,1.0008029966414165,0.7694430540837405
6.674285568,1.0008871924635554,0.5800862697172369
6.676571648,1.000915332269452,0.38985428507821385
6.678857216,1.0008858347807128,0.19954825341355079
6.681142784,1.0008005056056837,0.009994516271691206
6.683428352,1.0006644151355932,-0.17802183748981215
6.685714432,1.0004865198493016,-0.36384729644183295
6.688,1.000277792103673,-0.546927741458574
6.690285568,1.0000511644377408,-0.7269427157617543
6.692571648,0.9998213912026601,-0.9036996026384675
6.694857216,0.9996025719384485,-1.0772805158935586
6.697142784,0.9994086641104292,-1.247941272438658
6.699428352,0.9992519786595607,-1.4161141748635477
6.701714432,0.9991423360835543,-1.5824242485877025
6.704,0.9990867626936132,-1.7475939833094216
6.706285568,0.9990889189277811,-1.9124498567870682
6.708571648,0.9991484071570929,-2.0778282625445277
6.710857216,0.9992616346277158,-2.2445273640234817
6.713142784,0.9994217160819248,-2.413268064575872
6.715428352,0.9996180901134738,-2.5846844358361607
6.717714432,0.9998386583335545,-2.7591957484574814
6.72,1.0000695191202171,-2.9370369026205236
6.722285568,1.0002960263480258,-3.118294168087717
6.724571648,1.0005039553861734,-3.3027412096418396
6.726857216,1.0006801383012716,-3.490071826350301
6.729142784,1.0008135373176574,-3.679709174582566
6.731428352,1.0008956000910587,-3.8709729238723556
6.733714432,1.000921259283019,-4.0630922281729696
6.736,1.0008888506340745,-4.2552544182973415
6.738285568,1.0008003991483945,-4.4466022279633926
6.740571648,1.0006614119506843,-4.636387670940414
6.742857216,1.00048056654195,-4.823936183796223
6.745142784,1.0002692540843288,-5.008719126422429
6.747428352,1.000040925250334,-5.190400042012835
6.749714432,0.9998097027860025,-5.368827699867256
6.752,0.999590405174368,-5.544053418722199
6.754285568,0.9993966928678883,-5.716335221009614
6.756571648,0.9992409804994932,-5.886160467062984
6.758857216,0.9991330743482763,-6.054160170172149
6.761142784,0.9990797809847956,-6.221045201145968
6.763428352,0.9990844460713565,-6.387639676853835
6.765714432,0.9991469618133851,-6.554813545348748
6.768,0.999263322626769,-6.723350480446643
6.770285568,0.9994261935746183,-6.89397345942473
6.772571648,0.9996252483371418,-7.067314840985616
6.774857216,0.9998480206262172,-7.243796936316116
6.777142784,1.0000805246436852,-7.423665938037607
6.779428352,1.000307925770044,-7.606914379112674
6.781714432,1.0005159892931466,-7.79341507053328
6.784,1.000691544616161,-7.982781439254091
6.786285568,1.0008236884229678,-8.17442205348004
6.788571648,1.000903871630933,-8.36769172843651
6.790857216,1.0009271854607755,-8.561813153493882
6.793142784,1.0008920375366726,-8.755903107070418
6.795428352,1.000800567536598,-8.949153761492466
6.797714432,1.000658637047462,-9.140816739310583
6.8,1.0004750588719453,-9.33019706667732
6.802285568,1.0002614798126288,-9.516768316679485
6.804571648,1.0000310946850808,-9.700207481146705
6.806857216,0.9997986266029963,-9.880367072221656
6.809142784,0.9995787769922242,-10.057343539122918
6.811428352,0.999385239860121,-10.2313743212629
6.813714432,0.9992303508648865,-10.402964111506648
6.816,0.9991239788188897,-10.57271130553007
6.818285568,0.9990727514881313,-10.741399744710732
6.820571648,0.9990799473299148,-10.909847233462585
6.822857216,0.9991452618072786,-11.078890697429735
6.825142784,0.9992645711834283,-11.249354101590757
6.827428352,0.9994302127389459,-11.421975763846815
6.829714432,0.9996318211331165,-11.597327112343317
6.832,0.9998567874082669,-11.775852026826437
6.834285568,1.0000908246552274,-11.957766880506504
6.836571648,1.0003192001031793,-12.143147235988431
6.838857216,1.000527484271061,-12.331767958538359
6.841142784,1.0007027324227333,-12.523242277642964
6.843428352,1.0008335998084095,-12.717001182756087
6.845714432,1.000912114474023,-12.912367809437402
6.848,1.000933098278195,-13.10852621034547
6.850285568,1.000895342417499,-13.304650715337958
6.852571648,1.0008011320939216,-13.499906202247086
6.854857216,1.000656365720534,-13.69353024560045
6.857142784,1.0004701388885493,-13.884826652179973
6.859428352,1.0002540946382468,-14.073302990976533
6.861714432,1.0000218953010838,-14.258617991969933
6.864,0.9997882014484198,-14.44061613433042
6.866285568,0.9995676277819119,-14.6194241210114
6.868571648,0.9993741062997719,-14.79529639970555
6.870857216,0.9992200266471687,-14.968715789799335
6.873142784,0.9991150129687223,-15.140346087672066
6.875428352,0.9990656673152305,-15.31091968031879
6.877714432,0.9990752909500733,-15.481294289013665
6.88,0.9991431842299646,-15.652305670070518
6.882285568,0.9992651904146381,-15.824768820451103
6.884571648,0.999433552889756,-15.999427821357775
6.886857216,0.9996376966845384,-16.176870904238704
6.889142784,0.9998648117008745,-16.357520922629554
6.891428352,1.0001004119146764,-16.54160979074857
6.893714432,1.0003298368860953,-16.72916822983527
6.896,1.00053845597323,-16.919970406205664
6.898285568,1.0007133137466517,-17.11363462712274
6.900571648,1.0008432434590588,-17.309583511904812
6.902857216,1.0009200741053914,-17.507114316224357
6.905142784,1.0009390023410658,-17.705436607625096
6.907428352,1.0008989079777137,-17.90368543589395
6.909714432,1.0008020170002923,-18.101027076425098
6.912,1.0006545509273066,-18.296700574688924
6.914285568,1.000465837466537,-18.48999674249338
6.916571648,1.0002475568119138,-18.680486183481662
6.918857216,1.0000134724021912,-18.867746420820993
6.921142784,0.9997784266775032,-19.051694622076585
6.923428352,0.9995571478400627,-19.232426886122237
6.925714432,0.9993636592253266,-19.410217480700748
6.928,0.9992100707711024,-19.585592849020767
6.930285568,0.9991062697151484,-19.759152575487224
6.932571648,0.999058794401116,-19.931711512834934
6.934857216,0.9990705747378822,-20.10407432912229
6.937142784,0.999140974580661,-20.27715389313107
