freq,mag,phase
6.0,0.9988154098801874,69.48950614670152
6.002286592,0.9991751676410603,69.3633937930642
6.004572672,0.9995871158230077,69.23170800082539
6.006859264,1.0000254962214081,69.09378937874702
6.009145344,1.0004625834501633,68.94954723906991
6.011431936,1.0008709207593003,68.79913608609878
6.013718016,1.001224351225408,68.64323433161168
6.016004608,1.0015007347619356,68.4827315942241
6.018290688,1.0016826080008632,68.31891256433295
6.02057728,1.0017583682990365,68.15323883675191
6.022863872,1.0017233066428095,67.98726414784971
6.025149952,1.0015795300456873,67.82257618742344
6.027436544,1.0013360423502475,67.66067521994806
6.029722624,1.0010082272449607,67.50290538314722
6.032009216,1.0006169723828828,67.3503309940819
6.034295296,1.0001865732526694,67.20373785589202
6.036581888,0.9997445695602176,67.06347460104944
6.03886848,0.9993188087829694,66.92950460591595
6.04115456,0.9989363947707662,66.80141666877329
6.043441152,0.9986216097120049,66.67842306802147
6.045727232,0.9983945837508992,66.55939419538157
6.048013824,0.9982695658926128,66.44290977571947
6.050299904,0.9982548362788938,66.32745994935915
6.052586496,0.9983510651312889,66.21138641201945
6.054872576,0.9985524203878753,66.09316162558852
6.057159168,0.9988460558116556,65.97133259093359
6.05944576,0.999213104832509,65.84469110553168
6.06173184,0.9996305412787283,65.71230377014105
6.064018432,1.000071768175021,65.57365199031868
6.066304512,1.0005088629480217,65.4286486564169
6.068591104,1.0009140043569125,65.27751111883867
6.070877184,1.001261738016191,65.12092435382829
6.073163776,1.0015300787464574,64.95983438786288
6.075450368,1.0017018845143493,64.79557780512715
6.077736448,1.0017665201240715,64.6295679087403
6.08002304,1.0017197936400348,64.46345526974143
6.08230912,1.0015645441693481,64.29878196113033
6.084595712,1.0013105742392854,64.13703190715563
6.086881792,1.0009739171452836,63.97957124333251
6.089168384,1.0005757595272151,63.82740557973645
6.091454464,1.0001413266987227,63.681301156843624
6.093741056,0.9996980934988443,63.54156360588857
6.096027648,0.9992740144421106,63.408137869210655
6.098313728,0.9988961785702342,63.28053240214066
6.10060032,0.9985885755514129,63.157927225389564
6.1028864,0.998370617347459,63.03914693210868
6.105172992,0.9982564625838767,62.92279163708405
6.107459072,0.9982532911303701,62.80727311834128
6.109745664,0.9983613041092976,62.690986514711796
6.112032256,0.9985736519284688,62.57239048727681
6.114318336,0.9988769473200895,62.45001420348759
6.116604928,0.9992518350519074,62.32266436547869
6.118891008,0.9996745675257603,62.18949500326313
6.1211776,1.000118336939185,62.050035667392464
6.12346368,1.0005550303632122,61.904165469391636
6.125750272,1.0009568854342759,61.752170525340595
6.128036352,1.0012985750630277,61.59479755689052
6.130322944,1.0015585292516695,61.43305217188738
6.132609536,1.0017202905614353,61.26824995046414
6.134895616,1.0017736647366162,61.10188483773997
6.137182208,1.0017151646487334,60.93552078225023
6.139468288,1.001548486663365,60.770775954773775
6.14175488,1.0012841842943632,60.609140289775915
6.14404096,1.0009387246392356,60.45192291997372
6.146327552,1.0005340810418781,60.300090785712804
6.148614144,1.00009584574521,60.15440169607094
6.150900224,0.9996515722789684,60.01508441151505
6.153186816,0.9992294211320556,59.88209241274237
6.155472896,0.9988563882230249,59.754840859681146
6.157759488,0.9985560424947718,59.63253612189946
6.160045568,0.9983476132357543,59.51392027817554
6.16233216,0.9982443029852854,59.397546092346715
6.16461824,0.9982527464781737,59.281902220328234
6.166904832,0.9983724494207061,59.16531171157403
6.169191424,0.9985958297187896,59.04616130888417
6.171477504,0.9989086779482804,58.923106362156595
6.173764096,0.9992911377481173,58.79501070854864
6.176050176,0.9997189481776532,58.66095499536494
6.178336768,1.0001649598077667,58.520558967676756
6.180622848,1.0006009495317305,58.373739844898914
6.18290944,1.0009992723819603,58.22084215491299
6.18519552,1.0013347409480287,58.06260184419773
6.187482112,1.0015861498522498,57.900132395904215
6.189768704,1.0017376748417204,57.73470750282088
6.192054784,1.0017796725719035,57.56784140928452
6.194341376,1.0017094307903862,57.40118371468931
6.196627456,1.0015314324601996,57.23631106263265
6.198914048,1.0012568401583617,57.074694608167185
6.201200128,1.0009028994515285,56.91758125316243
6.20348672,1.0004919922354332,56.766050365276925
6.205773312,1.0000500405861223,56.620652117049374
6.208059392,0.9996051020174529,56.481701934708525
6.210345984,0.9991852773133312,56.34902115958797
6.212632064,0.9988172388928594,56.22208776295945
6.214918656,0.9985244964637044,56.09993520164424
6.217204736,0.9983255607170067,55.981384576980055
6.219491328,0.998233208502721,55.86491677707814
6.221777408,0.9982534029059459,55.74898990225682
6.224064,0.9983846826272266,55.63194243291053
6.226350592,0.9986189723777064,55.51222084776779
6.228636672,0.9989412305889429,55.388417532361274
6.230923264,0.9993309999040371,55.259395831826296
6.233209344,0.999763678797544,55.124375789936664
6.235495936,1.000211679952809,54.98294939297655
6.237782016,1.0006466551648587,54.835085198446016
6.240068608,1.0010412252161236,54.68117351602025
6.2423552,1.001370233764733,54.52202136834177
6.24464128,1.0016129882236566,54.35867628680721
6.246927872,1.0017541514202835,54.19254490364819
6.249213952,1.001784775295606,54.0251628138246
6.251500544,1.0017027804696323,53.8581429493878
6.253786624,1.0015135185707982,53.693051209683105
6.256073216,1.001228780666591,53.53135475157341
6.258359296,1.0008664701684202,53.37433643008514
6.260645888,1.00044951663979,53.222948499557965
6.26293248,1.0000043508744707,53.07777991039523
6.26521856,0.9995588306562829,52.93907432229023
6.267505152,0.999141546232548,52.806634796332254
6.269791232,0.9987788542567503,52.679859870644776
6.272077824,0.9984938296474372,52.557807006791805
6.274363904,0.9983045406625749,52.439192847759315
6.276650496,0.9982232426588442,52.322520685753965
6.278937088,0.9982550286027662,52.20622444621727
6.281223168,0.9983979515441268,52.08864083350261
6.28350976,0.9986428842039362,51.96819081432458
6.28579584,0.9989744178557134,51.84350438610175
6.288082432,0.9993713040813513,51.71349919269673
6.290368512,0.9998084848084998,51.57741351886606
6.292655104,1.000258280896213,51.43484997419055
6.294941184,1.0006920721550925,51.28584277172263
6.297227776,1.0010824271358283,51.130842988321064
6.299514368,1.0014048187495737,50.97066973271009
6.301800448,1.0016386974831644,50.806433676887686
6.30408704,1.0017693777419363,50.63953099563866
6.30637312,1.001788496174305,50.471519819533036
6.308659712,1.0016950707318366,50.30402907267504
6.310945792,1.001494581913762,50.13862591173694
6.313232384,1.0011999054406033,49.976781987519196
6.315518464,1.0008295342062643,49.81973929735847
6.317805056,1.0004067519104125,49.66841726523592
6.320091648,0.9999584143083003,49.52341405335767
6.322377728,0.9995128128866533,49.38486197862604
6.32466432,0.9990982496982932,49.25258018157017
6.3269504,0.9987410180940649,49.12586021683192
6.329236992,0.998463895602348,49.003776759793915
6.331523072,0.9982844359043486,48.88500206992238
6.333809664,0.9982142405187334,48.76803596737946
6.336096256,0.9982576598155029,48.65123236716315
6.338382336,0.9984119881268916,48.53299717130807
6.340668928,0.9986675953171863,48.41171506139293
6.342955008,0.9990080034993122,48.28606134624489
6.3452416,0.999411903138797,48.15498420109951
6.34752768,0.9998533775686861,48.01770971423102
6.349814272,1.0003045322594428,47.873944579442835
6.352100352,1.000736954786814,47.723713120536154
6.354386944,1.0011230499878507,47.56753425540395
6.356673536,1.0014385670677972,47.40623937994426
6.358959616,1.0016635460615488,47.241009828681925
6.361246208,1.0017836502992745,47.07325146683555
6.363532288,1.0017914572848259,46.90455162168335
6.36581888,1.0016863485963856,46.73650561999946
6.36810496,1.0014748933536213,46.57074067172133
6.370391552,1.0011704374384165,46.40865644534578
6.372678144,1.0007921100323574,46.25151493365707
6.374964224,1.00036390588275,46.10019279686777
6.377250816,0.9999126965051165,45.955219639247005
6.379536896,0.999467215537185,45.816735495095784
6.381823488,0.9990556137819399,45.68445743009641
6.384109568,0.9987041208526621,45.55773049953575
6.38639616,0.9984350006657484,45.43551088804503
6.38868224,0.9982654414882058,45.31646427785721
6.390968832,0.9982062516575623,45.199045357723335
6.393255424,0.9982613438608505,45.081676576013045
6.395541504,0.998427021907684,44.9626368310484
6.397828096,0.9986930459652986,44.84044827823821
6.400114176,0.9990422757879237,44.71371380176771
6.402400768,0.999452736296028,44.58145233435135
6.404686848,0.9998982146916781,44.44291383504347
6.40697344,1.0003506195189384,44.29781786666495
6.409260032,1.0007812911429654,44.14629518972847
6.411546112,1.0011629459340785,43.9888335643019
6.413832704,1.0014714005385752,43.82637995462614
6.416118784,1.0016873317920365,43.660054543685916
6.418405376,1.0017969267288207,43.49135090856004
6.420691456,1.0017933350780153,43.32188829584287
6.422978048,1.0016767415841066,43.15321675063194
6.425264128,1.001454375282206,42.98697448589506
6.42755072,1.0011403566169097,42.82459599907405
6.429837312,1.0007543763418678,42.66725262029857
6.432123392,1.0003208991508559,42.51579179969215
6.434409984,0.9998671536972864,42.37078474351442
6.436696064,0.999422053988557,42.232245101841194
6.438982656,0.9990136760339852,42.09990263613256
6.441268736,0.9986680212321198,41.973046251386826
6.443555328,0.9984070490642818,41.85058435913231
6.44584192,0.9982474467215049,41.7311485731283
6.448128,0.9981992695551855,41.613216815682165
6.450414592,0.9982658750002916,41.49511021777928
6.452700672,0.9984428274455058,41.37520249931551
6.454987264,0.9987190556024482,41.251972249292976
6.457273344,0.9990768716858575,41.12408493826863
6.459559936,0.9994936432097627,40.99052655816649
6.461846016,0.9999429559660703,40.850611652818046
6.464132608,1.000396380691261,40.70413670605345
6.4664192,1.0008250438931654,40.55120419666182
6.46870528,1.0012019825648746,40.392388186166144
6.470991872,1.0015033659060526,40.22862363008466
6.473277952,1.0017100584841168,40.06116737585121
6.475564544,1.0018091659763428,39.8914698537083
6.477850624,1.0017942927023324,39.72111273367384
6.480137216,1.0016662504256626,39.551771758021225
6.482423296,1.0014332574127354,39.384971695038594
6.484709888,1.0011098810894878,39.22216773365069
6.48699648,1.000716477616186,39.06454197223303
6.48928256,1.0002779656154224,38.91289297002036
6.491569152,0.9998219164081547,38.76771746905201
6.493855232,0.9993773520636251,38.62906345478798
6.496141824,0.9989724081573981,38.49653918936706
6.498427904,0.9986327911617732,38.36942326298795
6.500714496,0.9983800174593159,38.246595271850495
6.503001088,0.9982304361444954,38.126683440555645
6.505287168,0.9981933860817942,38.00808511901052
6.50757376,0.9982713653615992,37.88917445057351
6.50985984,0.9984594326437366,37.768283455249545
6.512146432,0.9987456076896046,37.643924023334776
6.514432512,0.999111887258056,37.51472170821228
6.516719104,0.9995347143614739,37.37977412649589
6.519005184,0.9999875052949424,37.2383907640051
6.521291776,1.0004416303018002,37.09042615398742
6.523578368,1.0008681644181119,36.93602000737763
6.525864448,1.0012402221618493,36.77575570075551
6.52815104,1.001534401413158,36.610665375674316
6.53043712,1.0017318928173138,36.441971427564
6.532723712,1.0018202853080203,36.271155544377976
6.535009792,1.0017942358835596,36.09986199719703
6.537296384,1.0016549785207947,35.92969633018055
6.539582976,1.001411538687369,35.76230517571715
6.541869056,1.0010789380038865,35.59900082480573
6.544155648,1.0006783645418587,35.44096072542433
6.546441728,1.0002350294165447,35.28903687812898
6.54872832,0.9997770591905236,35.1436180461411
6.5510144,0.999333249460285,35.00467420627273
6.553300992,0.9989318208441919,34.87189526605571
6.555587072,0.9985983811959117,34.74440122357148
6.557873664,0.9983540509555099,34.62111592199611
6.560160256,0.9982144187684459,34.50058989269151
6.562446336,0.9981883546434551,34.38122019395975
6.564732928,0.9982775915363301,34.26139313575393
6.567019008,0.9984765535415351,34.1394305763362
6.5693056,0.9987725423222601,34.01377876454154
6.57159168,0.9991467821297576,33.88322376131023
6.573878272,0.9995756249125539,33.746785820701696
6.576164864,1.000031705407885,33.60387903001113
6.578450944,1.0004862157404644,33.454324036017226
6.580737536,1.0009104462213783,33.298287120891274
6.583023616,1.001277524792291,33.136543526641084
6.585310208,1.0015642805064773,32.96999072477943
6.587596288,1.0017525813178576,32.79996862798562
6.58988288,1.00183056950048,32.62797479083186
6.59216896,1.0017932599433848,32.455647106965316
6.594455552,1.0016429890762528,32.2846246474236
6.596742144,1.0013891793846417,32.11646375048908
6.599028224,1.001047733736075,31.952599999238537
6.601314816,1.0006403155794388,31.794108609032275
6.603600896,1.000192516314465,31.64176889377022
6.605887488,0.9997326576029293,31.495958693240528
6.608173568,0.9992898667728929,31.35671276818551
6.61046016,0.9988922276489133,31.223511919019927
6.612746752,0.9985650005789634,31.095576506889103
6.615032832,0.9983290067418543,30.971684712116296
6.617319424,0.9981993497118662,30.85044632492512
6.619605504,0.9981842015292496,30.730234354974616
6.621892096,0.9982847183051049,30.6093452653941
6.624178176,0.9984943172563077,30.48614052083253
6.626464768,0.9987998861710421,30.359169119858826
6.628750848,0.9991819849898009,30.227125235078514
6.63103744,0.9996163461916338,30.089082189283037
6.633324032,1.0000754503046423,29.944534208840725
6.635610112,1.0005303073246417,29.79326185701704
6.637896704,1.0009519766431938,29.635618453746787
6.640182784,1.0013139433848803,29.472220356354878
6.642469376,1.0015932410659665,29.304152872845552
6.644755456,1.0017723817834139,29.132714823563926
6.647042048,1.0018398978943266,28.959479884233723
6.649328128,1.001791577929339,28.786029946192734
6.65161472,1.001630381792253,28.61401220558754
6.653901312,1.0013665112055004,28.44506324694692
6.656187392,1.001016457335468,28.280497992171117
6.658473984,1.0006022910321135,28.1214097431466
6.660760064,1.0001502780038083,27.968567808359495
6.663046656,0.9996887586033152,27.82231035275969
6.665332736,0.9992472178317673,27.68258427303114
6.667619328,0.9988534372084541,27.548886507719395
6.66990592,0.9985325542288399,27.4203544992998
6.672192,0.9983049643543002,27.295768982875995
6.674478592,0.99818524626919,27.173716337104302
6.676764672,0.9981808505038525,27.0524806639074
6.679051264,0.9982923413534095,26.93046311357435
6.681337344,0.9985124405249446,26.8059746860747
6.683623936,0.9988273419515132,26.67751739154926
6.685910016,0.999216956000968,26.543887931264003
6.688196608,0.9996567470487727,26.404182671371203
6.6904832,1.000118653517359,26.257866803486554
6.69276928,1.0005734890077858,26.10483316734346
6.695055872,1.0009925876239107,25.94543161677189
6.697341952,1.001349330038144,25.78034737887747
6.699628544,1.001621213075658,25.610669905606994
6.701914624,1.0017912621728426,25.437738377820814
6.704201216,1.0018484236493883,25.263124430928503
6.706487808,1.0017892121892709,25.088455034961573
6.708773888,1.001617328219165,24.915424968686608
6.71106048,1.0013435794170693,24.745536412530537
6.71334656,1.0009850601731347,24.580176397567786
6.715633152,1.0005646208463888,24.420425962394447
6.717919232,1.0001085638469118,24.266966894448665
6.720205824,0.9996456681674265,24.120127272520183
6.722491904,0.9992055132642838,23.97982118974209
6.724778496,0.9988157045677352,23.84551266552459
6.727065088,0.9985012840421326,23.71628486793719
6.729351168,0.9982820340538276,23.59089293296859
6.73163776,0.9981720927028469,23.46786607749208
6.73392384,0.9981784720658798,23.34556272976787
6.736210432,0.9983006415224623,23.222247408340518
6.738496512,0.9985310983433932,23.09633660558374
6.740783104,0.9988550640235301,22.966313676490195
6.743069696,0.999252048120441,22.831008156701294
6.745355776,0.9996968899432106,22.689502250662844
6.747642368,1.0001613007130616,22.54135300420771
6.749928448,1.0006161159403075,22.386465546531813
6.75221504,1.0010322847044728,22.225212127422363
6.75450112,1.001383787009926,22.058340543137355
6.756787712,1.0016482775423936,21.886953694149504
6.759073792,1.0018090359649796,21.712457517891263
6.761360384,1.001856001348074,21.536386688260446
6.763646976,1.0017860999521375,21.36041989448106
6.765933056,1.001603784893161,21.186228736564765
6.768219648,1.0013204014514816,21.01534328956478
6.770505728,1.0009538339324775,20.849098848383658
6.77279232,1.000527164695373,20.688553762414525
6.7750784,1.0000672568716038,20.53437938152061
6.777364992,0.9996032384339029,20.386855593165677
6.779651584,0.999164486789423,20.24584724614738
6.781937664,0.9987788318529857,20.11079385938259
6.784224256,0.9984707696402175,19.98074145478929
6.786510336,0.9982598702924083,19.854427736011978
6.788796928,0.9981597025691453,19.730352551154358
6.791083008,0.9981764569576422,19.60681280915187
6.7933696,0.9983093343233066,19.482131765640382
6.79565568,0.9985496657001246,19.35468868728855
6.797942272,0.9988825230818933,19.222993605816157
6.800228864,0.9992866129983872,19.085908340537923
6.802514944,0.9997362674946733,18.942520043789017
6.804801536,1.0002031144478267,18.79244436457736
6.807087616,1.0006576226453197,18.635588750713268
6.809374208,1.0010709892503364,18.472408271975862
6.811660288,1.0014171280515416,18.303663539042585
6.81394688,1.0016742479398366,18.130493920747934
6.81623296,1.0018259772827802,17.954307759941056
6.818519552,1.0018628995940557,17.77672014754562
6.820806144,1.0017826418945794,17.599352032591135
6.823092224,1.0015900282923038,17.423901672255614
6.825378816,1.001297363992925,17.251897707789563
6.827664896,1.0009228768182437,17.084672947156914
6.829951488,1.0004903308155069,16.92321356717146
6.832237568,1.000026883996196,16.768208599507542
6.83452416,0.9995618613430386,16.619905690290487
6.836810752,0.9991247881009478,16.47806857459697
6.839096832,0.9987433662279076,16.34216508874552
6.841383424,0.9984416157869287,16.21118194100695
6.843669504,0.9982390096701494,16.08381440042296
6.845956096,0.998148272846247,15.958535545360277
6.848242176,0.9981753694441184,15.833671821432635
6.850528768,0.9983185261742415,15.707512521409704
6.852814848,0.9985686888753746,15.578411491856242
6.85510144,0.9989099361915418,15.444960077210256
6.857388032,0.9993207966296551,15.305954838114635
6.859674112,0.9997750731645235,15.160611931758288
6.861960704,1.0002441045558133,15.008494093195683
6.864246784,1.0006981374742827,14.849604433157113
6.866533376,1.0011085506032258,14.684419938946698
6.868819456,1.001449375130398,14.513682027430884
6.871106048,1.0016990245350987,14.338651233941448
6.87339264,1.0018419914061627,14.160708032044077
6.87567872,1.0018690666649261,13.981463047611967
6.877965312,1.0017785117494458,13.802611491909357
6.880251392,1.0015759669601207,13.625825261110533
6.882537984,1.0012741599031698,13.452600802375157
6.884824064,1.0008921472614971,13.284275853915403
6.887110656,1.0004539843223386,13.12181366324059
6.889396736,0.999987188721526,12.96586716507333
6.891683328,0.9995213439781876,12.816620479783186
6.89396992,0.9990859452247597,12.673878204146376
6.896256,0.9987086538376455,12.536968577291885
6.898542592,0.9984133500865161,12.404923976037624
6.900828672,0.9982188006119915,12.276386691684044
6.903115264,0.9981375838602419,12.149822407897734
6.905401344,0.9981746141417168,12.023507566331482
6.907687936,0.9983279470628594,11.895737120479026
6.909974528,0.9985875976194507,11.764899042015557
6.912260608,0.9989371064624613,11.629569760046556
6.9145472,0.999354504441282,11.488582535066366
6.91683328,0.9998131611462029,11.341153922151516
6.919119872,1.0002840763840921,11.186910868938416
6.921405952,1.0007376449196443,11.025912468989487
6.923692544,1.0011449781775867,10.858583054686678
6.925978624,1.0014804159411097,10.685821685260441
6.928265216,1.0017230006285867,10.50880897891016
6.930551808,1.0018571638346767,10.329008627085658
