freq,mag,phase
6.0,0.999309441249626,-133.199748097061
6.0041088,0.9994409240050615,-133.43809660207657
6.0082176,0.9996054177950628,-133.6785883887013
6.012326912,0.9997933725330327,-133.9215710944963
6.016435712,0.9999935117419334,-134.16733689396804
6.020544512,1.0001940664859275,-134.4159494394209
6.024653312,1.0003828068081506,-134.6673247827022
6.028762112,1.0005485419710722,-134.92124947171564
6.032870912,1.0006814403573585,-135.17727578718862
6.036980224,1.0007733430132162,-135.43494934645577
6.041089024,1.0008190953257863,-135.69356222846898
6.045197824,1.0008155835896033,-135.95252859916974
6.049306624,1.0007631599867837,-136.21112172651854
6.053415424,1.0006649207549465,-136.4686776181385
6.057524224,1.0005266838005766,-136.72457906379685
6.061633536,1.000356670487167,-136.97838777222316
6.065742336,1.0001650508468192,-137.2296225806922
6.069851136,0.9999631840819818,-137.4781069090445
6.073959936,0.9997631694474611,-137.72379032331943
6.078068736,0.9995770635861898,-137.96676018884793
6.082177536,0.9994159264247777,-138.20729138689896
6.086286848,0.9992893158258924,-138.445823293553
6.090395648,0.999204996996176,-138.68287595377328
6.094504448,0.9991680294383116,-138.91907778771903
6.098613248,0.9991805515424792,-139.15510192502197
6.102722048,0.9992418739808866,-139.39172729717563
6.106830848,0.9993485034652578,-139.6295314697822
6.11094016,0.9994938227178607,-139.8690964061849
6.11504896,0.9996694220381794,-140.1110223163649
6.11915776,0.9998645542410105,-140.35551319375023
6.12326656,1.0000677084633924,-140.6028898750535
6.12737536,1.0002666744103286,-140.85308142374146
6.13148416,1.0004496197398323,-141.10603439284452
6.135593472,1.0006055850466165,-141.3613768399756
6.139702272,1.0007251201312732,-141.6186482793537
6.143811072,1.0008013225292955,-141.87734627299835
6.147919872,1.0008294812118605,-142.13680869622974
6.152028672,1.000807778811113,-142.39634359985354
6.156137472,1.000737742787143,-142.65522386258704
6.160246784,1.0006233019153967,-142.91286032318285
6.164355584,1.0004713771580913,-143.16863787808595
6.168464384,1.0002909964027267,-143.42208232319794
6.172573184,1.000092828477633,-143.6728524906145
6.176681984,0.9998888212020528,-143.92083503305193
6.180790784,0.9996910914207312,-144.16600511770488
6.184900096,0.9995115503948994,-144.4085358285624
6.189008896,0.9993608429356551,-144.64868986885136
6.193117696,0.9992480788439616,-144.88705992792862
6.197226496,0.9991800035314228,-145.12412877691074
6.201335296,0.9991607746340276,-145.3606179373662
6.205444096,0.9991915032803605,-145.59717927701217
6.209553408,0.9992705019366916,-145.83457012706256
6.213662208,0.9993928829707764,-146.07335105065206
6.217771008,0.9995514649665321,-146.3141568830751
6.221879808,0.9997367474266817,-146.5574066594845
6.225988608,0.9999376444775405,-146.8034228955292
6.230097408,1.0001420790911115,-147.0522904281969
6.23420672,1.000338008288643,-147.3039925835681
6.23831552,1.000513624021128,-147.5583516480698
6.24242432,1.0006583465500167,-147.8149583194875
6.24653312,1.0007636054827487,-148.07335452821755
6.25064192,1.000823184255942,-148.33293160517343
6.25475072,1.000833306474643,-148.5930242884643
6.258860032,1.0007935497316742,-148.8529237355402
6.262968832,1.0007061336880574,-149.1119523402767
6.267077632,1.0005761897527135,-149.36946854282544
6.271186432,1.000411522814935,-149.62492141111602
6.275295232,1.0002220310146581,-149.87790145231511
6.279404032,1.0000189020134032,-150.1280938785511
6.283513344,0.9998141953670029,-150.37546855779655
6.287622144,0.9996203627394118,-150.62001927976894
6.291730944,0.9994488404718391,-150.86200779647388
6.295839744,0.9993100312309903,-151.10185057434288
6.299948544,0.9992120966761011,-151.339989223095
6.304057344,0.9991610094788632,-151.577075355306
6.308166656,0.9991598939647509,-151.8138129418398
6.312275456,0.9992088672356784,-152.0509077488311
6.316384256,0.9993050095376702,-152.28904465694393
6.320493056,0.999442506407313,-152.52883773272018
6.324601856,0.9996132190753585,-152.7707973716216
6.328710656,0.9998069510931833,-153.01536697467515
6.332819968,1.0000120989502868,-153.2627960139421
6.336928768,1.0002163517641238,-153.51307658514133
6.341037568,1.0004075622137447,-153.7661797395501
6.345146368,1.0005743702555316,-154.02180188439272
6.349255168,1.0007067340970643,-154.27957897569053
6.353363968,1.0007967367966137,-154.53891309068183
6.35747328,1.000838901201361,-154.7991920010252
6.36158208,1.0008308485228257,-155.05973576098688
6.36569088,1.0007728910909117,-155.3198311452026
6.36979968,1.0006686109586742,-155.57877678826364
6.37390848,1.0005239736375227,-155.83602577653204
6.37801728,1.0003478550731832,-156.09099617571542
6.382126592,1.0001505541780482,-156.3433711216481
6.386235392,0.9999439205884113,-156.5928968166929
6.390344192,0.9997401600259062,-156.83952735254434
6.394452992,0.9995517397875586,-157.0834223493043
6.398561792,0.9993897404945881,-157.32482062577128
6.402670592,0.9992639334932253,-157.5641968109761
6.406779904,0.9991818186717764,-157.80213903834596
6.410888704,0.9991483938172774,-158.0392256861978
6.414997504,0.9991657127373834,-158.27624821295572
6.419106304,0.9992327940640527,-158.51384698599878
6.423215104,0.999345459777534,-158.7527286517393
6.427323904,0.9994972262279234,-158.99349296188407
6.431433216,0.9996788669581111,-159.236628691191
6.435542016,0.9998796259443274,-159.48246195508332
6.439650816,1.0000875128855653,-159.7311823851639
6.443759616,1.000289939618318,-159.98282680892012
6.447868416,1.0004750489971972,-160.237180370566
6.451977216,1.0006316097911947,-160.49399153884713
6.456086528,1.0007502929231522,-160.7527281473126
6.460195328,1.0008240617524695,-161.01281608507384
6.464304128,1.000848404866166,-161.2736356740989
6.468412928,1.0008219179658915,-161.5344576429191
6.472521728,1.000746077408269,-161.79454657420126
6.476630528,1.0006253340751152,-162.053294749289
6.48073984,1.0004670700787346,-162.31004420213895
6.48484864,1.000280524423743,-162.5644124981771
6.48895744,1.0000768454667734,-162.81603565711274
6.49306624,0.999868234804216,-163.06472924559714
6.49717504,0.9996671780847503,-163.31055325676317
6.50128384,0.9994856906294275,-163.55368751500922
6.505393152,0.9993345651833461,-163.79447989596994
6.509501952,0.9992229754402866,-164.0334033344216
6.513610752,0.9991574589775913,-164.27109762695534
6.517719552,0.9991422380058466,-164.50819053143263
6.521828352,0.9991779936748328,-164.7454531082594
6.525937152,0.9992629416973444,-164.9835717106375
6.530046464,0.9993916388926274,-165.22321618286438
6.534155264,0.9995566037171308,-165.46491647740908
6.538264064,0.9997479819861496,-165.70915712840514
6.542372864,0.9999543281145539,-165.95618403124536
6.546481664,1.0001632203653705,-166.20618650308515
6.550590464,1.0003623962527524,-166.45903837439548
6.554699776,1.0005396525211845,-166.71457501853934
6.558808576,1.0006847229663947,-166.97236652678833
6.562917376,1.0007887079714586,-167.23192478631702
6.567026176,1.0008453324592108,-167.4926533592743
6.571134976,1.0008513745717729,-167.7537825827528
6.575243776,1.0008063597721968,-168.0146911244235
6.579353088,1.000712919825231,-168.27460052535235
6.583461888,1.0005766032915948,-168.53293307883575
6.587570688,1.000405483673234,-168.78909358527622
6.591679488,1.0002099720415487,-169.04264642052826
6.595788288,1.0000014249710558,-169.2933872278329
6.599897088,0.9997924342972307,-169.54118701362475
6.6040064,0.9995955090876236,-169.78613152746368
6.6081152,0.9994224184437942,-170.0284277132823
6.612224,0.9992835103095793,-170.2685469869619
6.6163328,0.9991872269191674,-170.50699131160073
6.6204416,0.9991392665084513,-170.7444027925014
6.6245504,0.9991424980108907,-170.98152846195086
6.628659712,0.9991968849094804,-171.21904172414804
6.632768512,0.9992990536474373,-171.4576544228634
6.636877312,0.9994430855003283,-171.6980286739998
6.640986112,0.9996203511935631,-171.94066994593842
6.645094912,0.9998200467303533,-172.18596018565083
6.649203712,1.0000305613252891,-172.43414831786376
6.653313024,1.0002389851507492,-172.68530802293495
6.657421824,1.0004331082642222,-172.93930087688435
6.661530624,1.0006011927464105,-173.19584468776412
6.665639424,1.00073333511171,-173.4545217663935
6.669748224,1.0008214517761957,-173.71475385286874
6.673857024,1.0008604726843404,-173.97586266974844
6.677966336,1.0008477596914984,-174.2372006241956
6.682075136,1.0007843170082118,-174.49800296329227
6.686183936,1.0006737392264884,-174.757561432217
6.690292736,1.0005226376875442,-175.01527084904393
6.694401536,1.0003398452206416,-175.27062652656534
6.698510336,1.0001366527362547,-175.52329929105852
6.702619648,0.999924714251633,-175.77305234972377
6.706728448,0.9997170030705702,-176.01982313504513
6.710837248,0.9995258564927327,-176.26376894463297
6.714946048,0.999362736433794,-176.50523525772044
6.719054848,0.9992372507846452,-176.74461003772703
6.723163648,0.9991573112681251,-176.98256020149316
6.72727296,0.9991273928185028,-177.2197407350562
6.73138176,0.9991495168577534,-177.45683195865678
6.73549056,0.9992222002315672,-177.69460776132598
6.73959936,0.9993413941187694,-177.93373532409302
6.74370816,0.9994997660662083,-178.17482362129113
6.74781696,0.9996879681364724,-178.41835582716587
6.751926272,0.999894713836303,-178.66468800048753
6.756035072,1.0001076682152776,-178.91392630689893
6.760143872,1.0003140660152232,-179.16617332931332
6.764252672,1.0005015427862844,-179.42119507675577
6.768361472,1.000658993184769,-179.67863723311842
6.772470272,1.0007769958882402,-179.93800762649263
6.776579584,1.0008483532088148,179.80126916447742
6.780688384,1.000868998852237,179.53991093133004
6.784797184,1.0008374987167423,179.2786085870988
6.788905984,1.0007557509123521,179.0181111705975
6.793014784,1.0006285363825895,178.75909813973567
6.797123584,1.000463459210233,178.50211949265673
6.801232896,1.0002705483744838,178.24766672680065
6.805341696,1.000060931291062,177.99605000834475
6.809450496,0.9998473740676744,177.74741666774898
6.813559296,0.9996424381392524,177.50175305239225
6.817668096,0.9994586310522928,177.25885054235823
6.821776896,0.9993067927192655,177.01832259807512
6.825886208,0.9991961223877002,176.77964117800917
6.829995008,0.9991332212319163,176.5422408873471
6.834103808,0.9991219936813726,176.30529627555237
6.838212608,0.9991630244173261,176.06821663592598
6.842321408,0.9992540198583648,175.83018160248776
6.846430208,0.9993894612871334,175.59054788175973
6.85053952,0.9995612171968501,175.34874957177365
6.85464832,0.9997591885847249,175.10436636263924
6.85875712,0.9999714213835967,174.85709251343377
6.86286592,1.0001851290996548,174.60681489974436
6.86697472,1.0003878949834704,174.353566257678
6.87108352,1.0005672992789878,174.0976660583696
6.875192832,1.0007127661858986,173.83944200224636
6.879301632,1.0008154050652713,173.5795223020008
6.883410432,1.0008692688890475,173.31848458477754
6.887519232,1.000871007391988,173.05703024144512
6.891628032,1.000820630836481,172.79594510748132
6.895736832,1.0007208423834981,172.53593443715965
6.899846144,1.0005777673084044,172.27758709194958
6.903954944,1.0003998945471002,172.02153769729006
6.908063744,1.0001976870001843,171.76818993242458
6.912172544,0.9999833439977138,171.5177539941881
6.916281344,0.9997696115599245,171.27033917738677
6.920390144,0.9995693053659327,171.02585776377342
6.924499456,0.9993943848046919,170.78405850860798
6.928608256,0.9992552520944723,170.54447541325246
6.932717056,0.9991604913144615,170.30653921320445
6.936825856,0.9991156472244687,170.06963014820457
6.940934656,0.9991233881706172,169.8329891113248
6.945043456,0.9991835034363197,169.59586334066847
6.949152768,0.9992921351180172,169.35757063442276
6.953261568,0.9994430545955707,169.11746948363933
6.957370368,0.9996272131249269,168.87497747984884
6.961479168,0.9998336344201565,168.6297585880624
6.965587968,1.000049737999266,168.3815543161367
6.969696768,1.0002628096037351,168.13032055931882
6.97380608,1.0004600391839855,167.87621079520918
6.97791488,1.0006298159946145,167.61951927005924
6.98202368,1.0007618010427772,167.36069521027346
6.98613248,1.0008482384408988,167.1003667120892
6.99024128,1.0008837860361044,166.83917209039166
6.99435008,1.0008664166929597,166.57785385652645
6.998459392,1.0007969900456852,166.31715192198124
7.002568192,1.000679721821785,166.0577565370721
7.006676992,1.000521551070211,165.80032209760012
7.010785792,1.0003319252164735,165.5453450109299
7.014894592,1.0001220067880987,165.2931663338451
7.019003392,0.9999044769357393,165.04404306534582
7.023112704,0.9996923048719245,164.79792198989998
7.027221504,0.9994981743324448,164.5546986914729
7.031330304,0.9993336205783131,164.3140685478325
7.035439104,0.9992086207684038,164.07544766622922
7.039547904,0.9991306649380701,163.8383094721082
7.043656704,0.9991044941533518,163.60190156755013
7.047766016,0.9991316062190012,163.365484262362
7.051874816,0.9992106122900563,163.1283529032243
7.055983616,0.9993365419112212,162.8897761344781
7.060092416,0.9995020215812614,162.64915591091338
7.064201216,0.9996973702658635,162.4059876851847
7.068310016,0.9999105820634624,162.1599886136925
7.072419328,1.0001289982972865,161.9109186198032
7.076528128,1.000339722909482,161.658830099747
7.080636928,1.0005300425456105,161.40394389996948
7.084745728,1.000688625830297,161.14660531356887
7.088854528,1.0008059156177953,160.8873160646986
7.092963328,1.0008748816680788,160.62673672450643
7.09707264,1.0008915328578727,160.36554624030316
7.10118144,1.0008547341634988,160.10449355523562
7.10529024,1.0007665709854738,159.84437014029504
7.10939904,1.0006324036169256,159.58578864761475
7.11350784,1.0004600992218955,159.32941192608604
7.11761664,1.000259960621362,159.07562084577185
7.121725952,1.0000438625038763,158.8247848112411
7.125834752,0.9998246840995216,158.5770579561009
7.129943552,0.9996158292275732,158.33234125756152
7.134052352,0.9994294143133327,158.09044478298276
7.138161152,0.9992768257573925,157.85095766137718
7.142269952,0.9991671335882739,157.6133441952486
7.146379264,0.99910703686341,157.37693671823058
7.150488064,0.9991000994270879,157.14104305331873
7.154596864,0.9991466693108325,156.90485907694347
7.158705664,0.9992443284408484,156.667704242063
7.162814464,0.9993869624535603,156.42883596341284
7.166923264,0.9995662026562524,156.18771837822754
7.171032576,0.9997711986827355,155.94392194429182
7.175141376,0.9999898695134333,155.69713095415418
7.179250176,1.0002090579447191,155.44726491668547
7.183358976,1.0004156446049348,155.1944087185342
7.187467776,1.0005973190299475,154.93880623350324
7.191576576,1.000743220423514,154.680966854098
7.195685888,1.000844677086674,154.4213441531314
7.199794688,1.0008953914437813,154.16067902699766
7.203903488,1.0008925823665193,153.89968498118145
7.208012288,1.0008362101602455,153.6391128847612
7.212121088,1.0007295881442069,153.37971391374336
7.216229888,1.0005791959735693,153.1221222538751
7.2203392,1.0003936811538927,152.8669092879646
7.224448,1.00018447791929,152.6144694049491
7.2285568,0.999963760486442,152.36510814073455
7.2326656,0.9997447696664762,152.1188582777955
7.2367744,0.9995407183023917,151.87559484085727
7.2408832,0.9993637027249224,151.63506302022142
7.244992512,0.9992243940441302,151.39678540228007
7.249101312,0.9991312987926769,151.1601452416655
7.253210112,0.9990898225727703,150.92452055709245
7.257318912,0.9991025279790428,150.68910068921983
7.261427712,0.9991688546687657,150.453133197644
7.265536512,0.999284641448856,150.21588374547923
7.269645824,0.9994432147993761,149.97673533515362
7.273754624,0.9996349823474818,149.73511963717826
7.277863424,0.9998483044721351,149.490676086369
7.281972224,1.0000707630692547,149.2431595934232
7.286081024,1.0002888769418765,148.99256816211812
7.290189824,1.0004896765009945,148.73900317659053
7.294299136,1.0006612632725387,148.48285483269967
7.298407936,1.00079308196012,148.2245920049506
7.302516736,1.0008773933078943,147.96480587799687
7.306625536,1.0009092653091056,147.7042032207152
7.310734336,1.00088657013786,147.44355543064054
7.314843136,1.0008107281601488,147.1836215832142
7.318952448,1.000686158908756,146.9251085092801
7.323061248,1.0005203016114677,146.66865052275102
7.327170048,1.0003229199415575,146.41478998001858
7.331278848,1.0001058192348355,146.1638362794988
7.335387648,0.9998821611637502,145.91603167886544
7.339496448,0.9996650485454491,145.6713347031017
7.34360576,0.9994675546156531,145.42959468238644
7.34771456,0.9993016559407121,145.19045706615853
7.35182336,0.9991771102317278,144.95337612973609
7.35593216,0.9991015131192956,144.7177372432377
7.36004096,0.9990794134316675,144.48282134450233
7.36414976,0.9991121812865732,144.24783247076078
7.368259072,0.9991980333249204,144.0120631712001
7.372367872,0.9993315365521122,143.77476554211702
7.376476672,0.9995051178627704,143.5352613207145
7.380585472,0.9997080521846797,143.2931697214114
7.384694272,0.9999283303005837,143.04809934502626
7.388803072,1.0001529253121515,142.79989771587606
7.392912384,1.0003683663852838,142.54860531494762
7.397021184,1.0005616212590371,142.29448383145387
7.401129984,1.0007213022410277,142.0378489285868
7.405238784,1.000837782667436,141.77930439131856
7.409347584,1.0009040503988398,141.51948773785216
7.413456384,1.00091615284176,141.2591389190596
7.417565696,1.0008733381465713,140.9990211207005
7.421674496,1.000778220278626,140.73988081778884
7.425783296,1.0006361808991253,140.48241964204192
7.429892096,1.0004557868696422,140.22725508855166
7.434000896,1.0002478495277891,139.97483758023085
7.438109696,1.0000246472647827,139.72551050947126
7.442219008,0.9997996634058469,139.47931693009596
7.446327808,0.9995860857071734,139.23628584806073
7.450436608,0.9993969801479887,138.99608196657638
7.454545408,0.9992435857376315,138.75835326308933
7.458654208,0.9991350662101358,138.52249210355308
7.462763008,0.9990781903022425,138.28781307950936
7.46687232,0.9990761312906737,138.0535927362021
7.47098112,0.9991290885644708,137.81903723169964
7.47508992,0.9992341040028923,137.5833885576635
7.47919872,0.9993848663632309,137.34595777025555
7.48330752,0.9995722195161357,137.10615866639532
7.48741632,0.9997850796819041,136.8635459735245
7.491525632,1.0000107998878809,136.61788203232794
7.495634432,1.0002358549673436,136.36903904087964
7.499743232,1.0004466552130655,136.11715818222342
7.503852032,1.0006307421927079,135.8624690705233
7.507960832,1.0007770881603923,135.60552464549397
7.512069632,1.0008768511429165,135.34682592807448
7.516178944,1.0009241982629018,135.08712650339513
7.520287744,1.000916005367749,134.82714952050506
7.524396544,1.000852902204473,134.5677248843941
7.528505344,1.000738731062919,134.30956029619978
7.532614144,1.0005800275670975,134.05332017734412
7.536722944,1.0003862657126303,133.79959352595665
7.540832256,1.0001690234557161,133.5487660937512
7.544941056,0.9999413474482705,133.30110854251262
7.549049856,0.999716693960685,133.0566548893949
7.553158656,0.999508660390832,132.8153007249991
7.557267456,0.9993296007762572,132.57669291581476
7.561376256,0.9991901458594266,132.34035910414306
7.565485568,0.9990990578110215,132.10567821157292
7.569594368,0.9990615248278156,131.8719501016021
7.573703168,0.9990799800642282,131.63840145052887
7.577811968,0.9991532701178925,131.40419423603996
7.581920768,0.9992771938160806,131.1686684680697
7.586029568,0.9994440790052854,130.93108531047878
7.59013888,0.9996442510540458,130.69091277250456
7.59424768,0.9998656699977386,130.44781924816544
7.59835648,1.0000948960878366,130.20153942651976
7.60246528,1.0003186484636923,129.952107888008
7.60657408,1.0005231543132354,129.69966656630467
7.61068288,1.0006963629455519,129.44460468495348
7.614792192,1.0008278796589976,129.18737390708435
7.618900992,1.00090981827442,128.92869955253016
7.623009792,1.0009371613975928,128.66927378027347
7.627118592,1.0009084693313002,128.40985424392557
7.631227392,1.0008252594815783,128.15124817433437
7.635336192,1.0006923733922926,127.89417851098467
7.639445504,1.000517787575696,127.63929427885684
7.643554304,1.0003118286495234,127.387124752269
7.647663104,1.0000869694660468,127.13801214102224
