freq,mag,phase
6.0,0.9995425365854647,62.385679669786356
6.002287104,0.9996193971690379,62.23344624802983
6.004574208,0.9997202041005242,62.079913901430004
6.006861312,0.9998387425070299,61.924800639870966
6.009147904,0.999967603518428,61.7678676830411
6.011435008,1.0000984400007333,61.609041109519154
6.013722112,1.0002230631202447,61.44836268502802
6.016009216,1.0003336805419534,61.285968938092964
6.01829632,1.0004231076508798,61.12211628780599
6.020583424,1.0004858011207631,60.95714890783035
6.022870016,1.0005178556951244,60.791490945283584
6.02515712,1.000517153160022,60.62558883167765
6.027444224,1.0004837636138055,60.45993400726297
6.029731328,1.0004197330874935,60.29496797425141
6.032018432,1.0003291540169492,60.13113322094555
6.034305536,1.000217696667818,59.96875102197656
6.036592128,1.0000923693282686,59.80806304686203
6.038879232,0.9999612071671906,59.64923110079415
6.041166336,0.9998323872107107,59.49229134360713
6.04345344,0.9997140393107663,59.33714868575174
6.045740544,0.9996138267955083,59.18355316069913
6.048027648,0.9995379701869441,59.03125582221212
6.05031424,0.999491193329778,58.87983411923589
6.052601344,0.999476593143878,58.72886472569931
6.054888448,0.9994951615299197,58.57782957637619
6.057175552,0.9995456294270882,58.426300638665346
6.059462656,0.9996247664778367,58.27383716338061
6.06174976,0.9997276774788194,58.12003493447341
6.064036352,0.9998478894038014,57.964580759647234
6.066323456,0.9999775984389822,57.80732938997696
6.06861056,1.0001088140997703,57.6481632995533
6.070897664,1.0002332046383635,57.48713271929771
6.073184768,1.0003428174266782,57.32440602136698
6.075471872,1.000430824153357,57.160200996332975
6.077758464,1.0004915376404202,56.994933358808396
6.080045568,1.0005212020020582,56.82900040510332
6.082332672,1.000517903982092,56.66285281560288
6.084619776,1.0004819049893772,56.496984913514375
6.08690688,1.0004153812111574,56.33182873753183
6.089193984,1.0003225521207726,56.167838177553136
6.091481088,1.0002091787831668,56.00533154266888
6.09376768,1.0000825906163195,55.84455436077374
6.096054784,0.9999507743945095,55.68561935518388
6.098341888,0.9998219056339746,55.52860302751838
6.100628992,0.9997042184548693,55.37334083035001
6.102916096,0.9996052808457401,55.21964121546768
6.1052032,0.9995310761359674,55.067193795411704
6.107489792,0.9994866101211807,54.915603920264445
6.109776896,0.9994745318461479,54.76441062798752
6.112064,0.9994956715651945,54.61316072313887
6.114351104,0.999548685555215,54.46133006254536
6.116638208,0.9996303130320197,54.30852542281199
6.118925312,0.9997352906922482,54.15434167464317
6.121211904,0.9998569233661303,53.99851896029363
6.123499008,0.9999877208383495,53.84084259399671
6.125786112,1.0001192355201107,53.68122911173112
6.128073216,1.0002432874352405,53.51976574120454
6.13036032,1.0003519145182025,53.35660792927273
6.132647424,1.0004383084494495,53.19200319370878
6.134934016,1.0004970868326324,53.02632612855194
6.13722112,1.0005242764348345,52.86001608099868
6.139508224,1.0005184443741844,52.69354274157742
6.141795328,1.00047979855441,52.52739082293308
6.144082432,1.000410690581087,52.36198485312908
6.146369536,1.000315659344789,52.1977614685474
6.148656128,1.0002006281172309,52.0350359065965
6.150943232,1.000072676007928,51.8740608560292
6.153230336,0.9999402275266837,51.714987245455234
6.15551744,0.9998114339189592,51.55776414615622
6.157804544,0.9996944309247892,51.40233140728186
6.160091648,0.9995967320749476,51.24843375240642
6.162378752,0.9995244067609005,51.09576876355223
6.164665344,0.9994821473819862,50.94390035015751
6.166952448,0.9994725569134111,50.79241258812932
6.169239552,0.999496372666296,50.64079524035291
6.171526656,0.9995519852671509,50.48862241769226
6.17381376,0.9996359085408615,50.33538328041528
6.176100864,0.999742837528849,50.18074489581301
6.178387456,0.9998661334856177,50.02442445494922
6.18067456,0.9999977380740377,49.86625151997054
6.182961664,1.0001296632440084,49.70613290200368
6.185248768,1.0002532978544953,49.54414518384186
6.187535872,1.000360949614147,49.38045435950138
6.189822976,1.0004458444209658,49.21536713903799
6.192109568,1.0005024686750856,49.04922842559417
6.194396672,1.0005273268090422,48.882465355837034
6.196683776,1.00051886313695,48.71557718845646
6.19897088,1.0004776248951026,48.54903246348615
6.201257984,1.000406032480471,48.38328626034495
6.203545088,1.0003088252685934,48.21875873681535
6.20583168,1.0001920252825542,48.05575572004543
6.208118784,1.000062957355158,47.89450602657609
6.210405888,0.9999298328322284,47.73514427650007
6.212692992,0.9998011064864596,47.57766721525594
6.214980096,0.9996848250497532,47.42197643667999
6.2172672,0.9995884149722226,47.267781688348975
6.219553792,0.9995178905821609,47.11480747253997
6.221840896,0.9994779029915308,46.96259841438054
6.224128,0.9994708819704898,46.81072290508164
6.226415104,0.9994972822272561,46.6586864846409
6.228702208,0.9995553917713935,46.50603228267478
6.230989312,0.9996417664125204,46.352288124712544
6.233275904,0.9997506991755652,46.197115720266545
6.235563008,0.9998753424273333,46.04022068353788
6.237850112,1.0000078943736315,45.88145280727012
6.240137216,1.0001399715645316,45.72073717538531
6.24242432,1.000263273917849,45.55812621498207
6.244711424,1.0003698135798686,45.39386700529757
6.246998528,1.0004530297217236,45.22818380168091
6.24928512,1.0005076275531184,45.061477105825794
6.251572224,1.0005301674906644,44.89421615233938
6.253859328,1.0005190972406663,44.726831980643205
6.256146432,1.0004752103578962,44.559823179051634
6.258433536,1.0004012281354033,44.39364675803726
6.26072064,1.000301939185477,44.22871277329757
6.263007232,1.0001833022391298,44.065327321936394
6.265294336,1.0000531782483766,43.90373047725842
6.26758144,0.9999194379697596,43.74402286644284
6.269868544,0.9997908214816297,43.586210130767
6.272155648,0.9996752588205403,43.43014998022543
6.274442752,0.9995802247120135,43.27558572128813
6.276729344,0.9995116746929933,43.12220896797934
6.279016448,0.999473863561379,42.96956131751682
6.281303552,0.9994693514273778,42.817202252445604
6.283590656,0.9994983897970954,42.664675081105784
6.28587776,0.9995591011874084,42.5114404406496
6.288164864,0.999647645534187,42.3571121915512
6.290451456,0.99975846899602,42.201321274044616
6.29273856,0.9998846343620377,42.043766138330355
6.295025664,1.0000180864409975,41.88431640826929
6.297312768,1.0001503808681895,41.72291752513562
6.299599872,1.0002731247516004,41.559635330301276
6.301886976,1.00037864785694,41.39467049137444
6.304173568,1.0004602362538428,41.22834540510818
6.306460672,1.0005127648773284,41.061008331578726
6.308747776,1.0005327996289173,40.89311506561952
6.31103488,1.0005191732820904,40.725155599678054
6.313321984,1.0004727180883706,40.55759696351698
6.315609088,1.0003963083300869,40.39091916633226
6.317896192,1.0002947743957424,40.225500395787385
6.320182784,1.0001745983221118,40.06167037594127
6.322469888,1.0000432538944353,39.89962827000568
6.324756992,0.9999090414808305,39.739488378539
6.327044096,0.9997805485324538,39.581236327999484
6.3293312,0.9996658047563081,39.424721733604216
6.331618304,0.9995721382963829,39.26970994448581
6.333904896,0.9995054431786624,39.11582833865615
6.336192,0.9994699607014723,38.96267781649014
6.338479104,0.9994679285321515,38.80977345319254
6.340766208,0.9994994699655889,38.65661029784118
6.343053312,0.9995626773134152,38.50277181587741
6.345340416,0.999653608515448,38.347753408565744
6.347627008,0.9997663922961098,38.191226670399196
6.349914112,0.9998938472352238,38.03294750578391
6.352201216,1.0000280950663847,37.87275705514286
6.35448832,1.0001604676111533,37.71057553947512
6.356775424,1.00028284932595,37.54653090156838
6.359062528,1.0003872776266263,37.380798002797206
6.36134912,1.0004671455242045,37.21371288918364
6.363636224,1.0005175939395494,37.04566519205713
6.365923328,1.0005352217932526,36.877073017284225
6.368210432,1.0005190505277912,36.70847046979991
6.370497536,1.0004700617509796,36.54029878808474
6.37278464,1.0003912789547984,36.37299901617464
6.375071232,1.0002876594426398,36.20702267734836
6.377358336,1.0001657595300755,36.0426447196095
6.37964544,1.0000333902925882,35.88007366818051
6.381932544,0.9998987751357727,35.719424901036554
6.384219648,0.9997704074647248,35.560660443173006
6.386506752,0.999656512088977,35.40362499733206
6.388793344,0.999564142702434,35.24807067363965
6.391080448,0.9994993972290349,35.09360637290537
6.393367552,0.9994661154657251,34.9398379916451
6.395654656,0.9994666608810966,34.78628150757775
6.39794176,0.9995008239223524,34.6324435610021
6.400228864,0.9995664779871979,34.477856047749945
6.402515968,0.9996595742696386,34.32207474060915
6.40480256,0.9997742009375965,34.164774455007894
6.407089664,0.9999030269290068,34.00565925993215
6.409376768,1.000037997274627,33.84460699965468
6.411663872,1.0001705889568084,33.68158321616395
6.413950976,1.0002923982101504,33.516687040491774
6.41623808,1.0003956720691176,33.3501133628103
6.418524672,1.0004739349676957,33.18221034496451
6.420811776,1.0005223228158213,33.0133443187346
6.42309888,1.00053758968887,32.843977900807346
6.425385984,1.0005188559412797,32.67462682176278
6.427673088,1.0004672907691488,32.50573961567912
6.429960192,1.0003860807998703,32.337778078890544
6.432246784,1.0002804936782712,32.171148189660755
6.434533888,1.0001571168769763,32.0061371341751
6.436820992,1.0000236401676432,31.84297548109488
6.439108096,0.9998885411915449,31.681729258914515
6.4413952,0.9997603916671887,31.522362285350116
6.443682304,0.9996473468635506,31.364698738674225
6.445968896,0.999556479272363,31.208494855127796
6.448256,0.9994935165569975,31.05337176580785
6.450543104,0.9994625337295591,30.898901682155564
6.452830208,0.9994655016186275,30.744642304858658
6.455117312,0.9995022335834943,30.590002256519337
6.457404416,0.9995703419867202,30.434602836734545
6.459691008,0.9996656587327216,30.277983702759645
6.461978112,0.9997820634558937,30.11979357893946
6.464265216,0.9999122412474394,29.95977067668823
6.46655232,1.000047995618019,29.797795577545372
6.468839424,1.000180637443522,29.633829332003145
6.471126528,1.0003017699152865,29.468008327533564
6.473413632,1.0004040169042616,29.300499999040913
6.475700224,1.0004806326393387,29.131681793238023
6.477987328,1.0005268755297578,28.961944126022477
6.480274432,1.0005397192629424,28.79172639076912
6.482561536,1.0005185094588178,28.62152480850503
6.48484864,1.0004645124960612,28.451855749559193
6.487135744,1.0003810465257765,28.283135153398387
6.489422336,1.000273485086507,28.115772073056505
6.49170944,1.0001484160766596,27.950064730839564
6.493996544,1.0000139216226052,27.786192005375074
6.496283648,0.999878434083775,27.62424783523981
6.498570752,0.9997505481377437,27.464203305777588
6.500857856,0.9996383936534193,27.305826052324676
6.503144448,0.9995489108849266,27.148900137099634
6.505431552,0.9994878492272878,26.993044709548954
6.507718656,0.9994591719578702,26.837785004501495
6.51000576,0.9994645362004227,26.682687066540822
6.512292864,0.9995037645933539,26.527204803609298
6.514579968,0.9995743793719717,26.37089864375744
6.51686656,0.9996717194116678,26.213357466780778
6.519153664,0.9997899092155875,26.054186725463193
6.521440768,0.9999212727923894,25.893188836425292
6.523727872,1.0000577046426333,25.730183984783388
6.526014976,1.000190364640344,25.56521090113279
6.52830208,1.000311069010773,25.39835810198369
6.530588672,1.0004120648163826,25.229858643377796
6.532875776,1.0004870528898941,25.060043031107984
6.53516288,1.0005312185561435,24.889331328677137
6.537449984,1.0005417319495766,24.718177409321072
6.539737088,1.0005180536903393,24.547077548257402
6.542024192,1.0004615245181052,24.37653046090457
6.544310784,1.0003758261063462,24.20697296958846
6.546597888,1.0002662905896207,24.03880021091438
6.548884992,1.0001398367837355,23.872281279647257
6.551172096,1.0000043387336308,23.707635037193466
6.5534592,0.9998685767802581,23.54491128717508
6.555746304,0.9997409471867552,23.38407270280242
6.558033408,0.9996295346220209,23.224931723775846
6.56032,0.9995415362215992,23.06719846231629
6.562607104,0.9994823523006164,22.910502485453524
6.564894208,0.9994558858937758,22.754367938132578
6.567181312,0.9994637043044022,22.598351449031895
6.569468416,0.9995053551757292,22.441942170621132
6.57175552,0.9995782735058519,22.284644142978507
6.574042112,0.9996778546318569,22.1260670171669
6.576329216,0.9997976930137492,21.96587047497807
6.57861632,0.9999302908500994,21.8037830223456
6.580903424,1.0000673363330987,21.639698977693822
6.583190528,1.0002000893088698,21.473618384505652
6.585477632,1.000320149133166,21.30565979434032
6.587764224,1.0004199969681928,21.13606957310735
6.590051328,1.0004933339793096,20.96519236478236
6.592338432,1.0005353887373905,20.793426460947295
6.594625536,1.0005436729418928,20.62126507355153
6.59691264,1.0005175093003915,20.44917135907448
6.599199744,1.0004586215241198,20.27766064317165
6.601486336,1.000370612053071,20.107173404906604
6.60377344,1.0002592778003856,19.93810357566678
6.606060544,1.000131301369817,19.770700696209097
6.608347648,0.9999949076258828,19.605190289107266
6.610634752,0.9998588201723722,19.44160433231113
6.612921856,0.9997315441204523,19.279914395246717
6.615208448,0.9996209807202243,19.119871091761585
6.617495552,0.9995344258745892,18.9612464909592
6.619782656,0.9994770983197888,18.803618529708725
6.62206976,0.999452753370948,18.64655126663592
6.624356864,0.9994628931200773,18.489544133744523
6.626643968,0.9995070150756528,18.332103241591163
6.628931072,0.9995821579409756,18.173748454631795
6.631217664,0.9996837518744993,18.014051334999508
6.633504768,0.9998053376670455,17.852719599896005
6.635791872,0.9999390768702957,17.689490573471442
6.638078976,1.0000766698446042,17.524229595546572
6.64036608,1.0002094272976585,17.35695973431162
6.642653184,1.0003289301147513,17.18782910738782
6.644939776,1.0004276321559777,17.017078303804144
6.64722688,1.0004992216609727,16.84502000573298
6.649513984,1.0005393017541533,16.672138431706653
6.651801088,1.0005453225177143,16.49887068347395
6.654088192,1.0005167766142238,16.325717460525162
6.656375296,1.0004554793515836,16.153156584444123
6.658661888,1.0003654281152767,15.981677797366201
6.660948992,1.0002521119423773,15.811607904534021
6.663236096,1.0001228128406077,15.643253306919389
6.6655232,0.9999855924195133,15.476767074671804
6.667810304,0.9998491253197797,15.312248281354737
6.670097408,0.9997221966265132,15.149580485783863
6.672384,0.9996126071875171,14.988608315829275
6.674671104,0.999527379598855,14.82899215590022
6.676958208,0.9994718494057516,14.670362961596826
6.679245312,0.9994497189568717,14.512249610829588
6.681532416,0.9994622086764086,14.354171596032307
6.68381952,0.9995087366513787,14.195595635227203
6.686106112,0.9995861801415535,14.036100115801268
6.688393216,0.9996897201252805,13.875233237401027
6.69068032,0.9998128242196692,13.712664133197498
6.692967424,0.9999477586587571,13.548193226415956
6.695254528,1.000085956321397,13.381685037716421
6.697541632,1.0002186315268082,13.213161383839491
6.699828224,1.0003376347615802,13.042780256049584
6.702115328,1.0004350541828684,12.87077607926099
6.704402432,1.000505109308124,12.697496299995125
6.706689536,1.000543233375477,12.523395215982545
6.70897664,1.0005469607663227,12.34892401841349
6.711263744,1.0005160767964196,12.174637436938948
6.713550848,1.0004525942487612,12.000967287530914
6.71583744,1.0003603386359117,11.82836859796169
6.718124544,1.00024523095806,11.657249081570178
6.720411648,1.0001145847055226,11.48783735149218
6.722698752,0.9999765233783552,11.320316601724615
6.724985856,0.9998398094009678,11.154771541103273
6.72727296,0.9997131063082871,10.991052803097386
6.729559552,0.9996043915894369,10.829037572814345
6.731846656,0.9995206027882164,10.668357113191368
6.73413376,0.9994669142215842,10.508622156152096
6.736420864,0.9994468954013418,10.349393825600993
6.738707968,0.9994617375048135,10.190144512103712
6.740995072,0.9995104724980627,10.030379017875687
6.743281664,0.9995900909047363,9.869634308301578
6.745568768,0.9996955893389339,9.707516413658452
6.747855872,0.9998203534394046,9.543669858995484
6.750142976,0.9999563580256752,9.377869500537585
6.75243008,1.000095138765122,9.21003230979236
6.754717184,1.000227792282289,9.040164542666355
6.757003776,1.0003460381377476,8.86842743337478
6.75929088,1.0004425150816265,8.695106024390348
6.761577984,1.000510918355523,8.52051429114689
6.763865088,1.0005469846480683,8.34512568832019
6.766152192,1.0005485741245497,8.169409305313435
6.768439296,1.0005154031458667,7.993870251740408
6.770725888,1.0004496620360002,7.81898712710842
6.773012992,1.000355386746159,7.645225299053504
6.775300096,1.0002385548705544,7.472920896124164
6.7775872,1.000106595797155,7.302369832410047
6.779874304,0.9999677839584338,7.133765465895874
6.782161408,0.9998307838760677,6.967085107954856
6.784448512,0.9997043825706032,6.80228063268772
6.786735104,0.9995965633097502,6.63911436344284
6.789022208,0.9995141273121526,6.477276583259907
6.791309312,0.9994621432768491,6.316370032122436
6.793596416,0.9994441034472114,6.155916680912947
6.79588352,0.999461234317191,5.995427800266074
6.798170624,0.9995121656378949,5.834383181364094
6.800457216,0.999594043477375,5.672348210170218
6.80274432,0.9997014699873161,5.508852777849351
6.805031424,0.9998276780503658,5.343625732974767
6.807318528,0.9999647088417765,5.176433793391509
6.809605632,1.0001039930628042,5.007192270598668
6.811892736,1.000236601518943,4.835916615314857
6.814179328,1.000354236842489,4.662765048710812
6.816466432,1.0004496278919666,4.488006098844776
6.818753536,1.0005165791449107,4.312035269411296
6.82104064,1.0005507010247734,4.13527310983166
6.823327744,1.0005501277991005,3.9582243347568626
6.825614848,1.0005147062108917,3.781367332705339
6.82790144,1.000446784015904,3.605215065235675
6.830188544,1.0003505260996721,3.4301857805686167
6.832475648,1.0002321025880463,3.2566469418016815
6.834762752,1.0000988539605074,3.0849014653533935
6.837049856,0.9999590712583346,2.915054075586735
6.83933696,0.9998219542612508,2.747183554833261
6.841623552,0.9996958724719134,2.581170450612055
6.843910656,0.9995888417483624,2.416788258484701
6.84619776,0.9995077262832763,2.253718272600598
6.848484864,0.9994574762414594,2.0915339436032814
6.850771968,0.9994415190443067,1.929813569588813
6.853059072,0.9994607254889961,1.7679941794583047
6.855345664,0.9995139674263624,1.6055851777299441
6.857632768,0.9995977904418447,1.4421396208191324
6.859919872,0.9997069924873946,1.277232201111613
6.862206976,0.9998346549162177,1.1105612334058008
6.86449408,0.999972751871241,0.9418898078039748
6.866781184,1.0001125199113399,0.7711619350918725
6.869068288,1.0002451643928938,0.5983822894484889
6.87135488,1.0003622173168385,0.42374589667953444
6.873641984,1.0004564892962537,0.24751519662939356
6.875929088,1.0005218123276411,0.07008530308114568
6.878216192,1.0005541974376664,-0.10812378869242266
6.880503296,1.00055158126416,-0.28659326733104573
6.8827904,1.0005140579157041,-0.46485549162360973
6.885076992,1.0004439881373033,-0.6423712588657724
6.887364096,1.0003458009351045,-0.8187628151861275
6.8896512,1.000225613616826,-0.9935900989895727
6.891938304,1.0000911463051918,-1.1666524526527016
6.894225408,0.9999508036932043,-1.3377683762997998
6.896512512,0.9998134552535505,-1.5069308266289645
6.898799104,0.9996876127860499,-1.6742405661395479
6.901086208,0.9995814058887166,-1.8399193917329253
6.903373312,0.9995015389557307,-2.004310872475983
6.905660416,0.9994530402727302,-2.1678176991727627
6.90794752,0.9994388780085209,-2.3309305949491925
6.910234624,0.9994602922297714,-2.4941675764520457
6.912521216,0.9995156079251942,-2.658001020346862
6.91480832,0.9996014049723777,-2.822914326139831
6.917095424,0.9997123743544327,-2.989306638409769
6.919382528,0.9998415614397009,-3.1575196942612798
6.921669632,0.9999805476127407,-3.3277370946676643
6.923956736,1.0001207901276905,-3.5000476794495934
6.926243328,1.0002533970241076,-3.674373708015488
6.928530432,1.0003699893879685,-3.850582590100432
