freq,mag,phase
6.0,1.0003623088544407,-155.1447314578928
6.002286592,1.0003928156971127,-155.29100431172597
6.004572672,1.0003987839915145,-155.4375540377518
6.006859264,1.0003801176865432,-155.58400460002983
6.009145344,1.0003380638090595,-155.73003330677628
6.011431936,1.000275059024493,-155.8752906696298
6.013718016,1.0001952622567931,-156.01954021123566
6.016004608,1.0001037277454803,-156.16251430469342
6.018290688,1.0000061682400283,-156.30412215560528
6.02057728,0.9999086209606477,-156.44431904146836
6.022863872,0.9998176361504173,-156.58319435123713
6.025149952,0.9997385692518433,-156.72077050746128
6.027436544,0.9996766881783838,-156.85734895469582
6.029722624,0.9996357695475397,-156.9932093907728
6.032009216,0.9996186604683175,-157.12860408840655
6.034295296,0.9996260270607572,-157.26397306108785
6.036581888,0.9996578055240665,-157.39959987123453
6.03886848,0.9997118227591096,-157.5358703446708
6.04115456,0.9997847809035472,-157.6730676388605
6.043441152,0.9998718775091369,-157.81141443344313
6.045727232,0.9999676990683053,-157.9511005586714
6.048013824,1.0000662620259877,-158.0921852076211
6.050299904,1.0001612075711908,-158.23471287794555
6.052586496,1.000246606906959,-158.37852275528786
6.054872576,1.0003170265930263,-158.52347486981202
6.057159168,1.0003679917316621,-158.6693354433453
6.05944576,1.0003962924307717,-158.8157560540611
6.06173184,1.0004001027497134,-158.96242218716074
6.064018432,1.0003793387239017,-159.1089611472922
6.066304512,1.0003349953160814,-159.2550196677847
6.068591104,1.0002700576019556,-159.40028982995523
6.070877184,1.0001886992936886,-159.54452481539388
6.073163776,1.0000958352755984,-159.6874718013626
6.075450368,0.9999975279408699,-159.82906553734725
6.077736448,0.9998998604785416,-159.96921240500353
6.08002304,0.9998092125394622,-160.10800698101738
6.08230912,0.9997310823929879,-160.24557262940317
6.084595712,0.9996706109936138,-160.3821416835793
6.086881792,0.9996314877971606,-160.5179805755698
6.089168384,0.9996162592636998,-160.6534240630647
6.091454464,0.9996259366962723,-160.78883892302463
6.093741056,0.999660003567246,-160.9245725299136
6.096027648,0.9997160427955764,-161.06096282653505
6.098313728,0.9997908350235757,-161.19828164493947
6.10060032,0.9998793786658294,-161.3368138883947
6.1028864,0.9999760950050555,-161.47668554639304
6.105172992,1.0000750890083343,-161.61798678749176
6.107459072,1.0001699294776396,-161.7606891823145
6.109745664,1.000254589582043,-161.90469665392152
6.112032256,1.0003238817878661,-162.04983212102178
6.114318336,1.0003732484820942,-162.19582628778406
6.116604928,1.0003996193098756,-162.34240667140745
6.118891008,1.0004012982494745,-162.4891691699891
6.1211776,1.0003781765233828,-162.6357726799424
6.12346368,1.0003317481225822,-162.78189138702086
6.125750272,1.0002648546546342,-162.92718037328748
6.128036352,1.0001818058164034,-163.0713802186056
6.130322944,1.0000878231674375,-163.214295277615
6.132609536,0.9999887616536142,-163.35582546659725
6.134895616,0.9998910083848457,-163.4959175172043
6.137182208,0.9998007303268169,-163.63464086498792
6.139468288,0.9997235749341639,-163.77216649753268
6.14175488,0.999664497489505,-163.90870732372755
6.14404096,0.9996271963751601,-164.04452174143552
6.146327552,0.999614149841203,-164.17999662331482
6.148614144,0.9996260213164289,-164.3154589156105
6.150900224,0.9996622397263906,-164.45127136787366
6.153186816,0.9997204204138233,-164.58774961616095
6.155472896,0.9997969121552983,-164.72524113910532
6.157759488,0.9998868675682407,-164.8639165459171
6.160045568,0.9999846438529622,-165.00398052053356
6.16233216,1.0000839707878817,-165.14546464933667
6.16461824,1.0001787098009653,-165.28836357552174
6.166904832,1.0002627266293362,-165.43256621856005
6.169191424,1.0003306401809677,-165.57786198985045
6.171477504,1.0003783977267935,-165.72401332711698
6.173764096,1.0004028324748935,-165.87068596386143
6.176050176,1.0004022280374922,-166.0175392839608
6.178336768,1.0003769263538669,-166.1642117937667
6.180622848,1.0003283695643872,-166.31032728539995
6.18290944,1.0002595971768076,-166.4556228593013
6.18519552,1.0001748525486145,-166.59979808738552
6.187482112,1.000079755739003,-166.74267878885533
6.189768704,0.9999800871549638,-166.88414601655626
6.192054784,0.9998822115608389,-167.0241554742006
6.194341376,0.9997923502151936,-167.1628168347757
6.196627456,0.9997162025260081,-167.3002810020294
6.198914048,0.9996585986591476,-167.43676925836417
6.201200128,0.999623067451735,-167.5725630278704
6.20348672,0.9996121652878565,-167.70804980900033
6.205773312,0.9996263005604392,-167.84357184273796
6.208059392,0.9996646726096857,-167.97943471458996
6.210345984,0.9997249115163539,-168.11603739407693
6.212632064,0.9998031714043601,-168.25365168458524
6.214918656,0.9998945789265526,-168.39247767171358
6.217204736,0.9999932064958469,-168.53271666303561
6.219491328,1.0000929507665457,-168.67437310518613
6.221777408,1.0001874247826932,-168.8174499392077
6.224064,1.0002706378191129,-168.96183822855554
6.226350592,1.000337327565562,-169.10730095079634
6.228636672,1.0003833893359195,-169.2535904628324
6.230923264,1.0004057256238637,-169.4003627162523
6.233209344,1.000403090477865,-169.5472836971312
6.235495936,1.000375488738234,-169.69400781661605
6.237782016,1.0003247049656503,-169.84014245644852
6.240068608,1.0002538899464062,-169.9854166897543
6.2423552,1.0001676831372737,-170.12952956445483
6.24464128,1.0000713956126936,-170.2723393723092
6.246927872,0.9999711192503219,-170.41373581495975
6.249213952,0.9998732275120504,-170.55368922916668
6.251500544,0.9997838731296395,-170.69228456450676
6.253786624,0.9997087455334589,-170.82966642947108
6.256073216,0.9996526157719332,-170.96609923508464
6.258359296,0.9996191204518966,-171.10187927521528
6.260645888,0.9996102149143938,-171.2373617187806
6.26293248,0.9996266809466487,-171.37288826926056
6.26521856,0.9996673589006847,-171.50882711745857
6.267505152,0.9997296307478202,-171.6455290055681
6.269791232,0.9998096172491352,-171.78324873476882
6.272077824,0.9999023839567822,-171.92227380889017
6.274363904,1.0000019374418312,-172.06265785754906
6.276650496,1.0001019846499264,-172.20448727138478
6.278937088,1.0001961884235913,-172.3477499009154
6.281223168,1.000278595064554,-172.4922706122665
6.28350976,1.0003440319897872,-172.63786496751345
6.28579584,1.0003883201967607,-172.78429551876246
6.288082432,1.0004087208512566,-172.9311698643636
6.290368512,1.000403782422367,-173.0781648309233
6.292655104,1.0003739284470385,-173.2248939547404
6.294941184,1.0003209431888664,-173.37106376805255
6.297227776,1.0002482869021372,-173.5162942387626
6.299514368,1.000160477817776,-173.66036486185018
6.301800448,1.000063056444229,-173.8030936878892
6.30408704,0.999962137997802,-173.94438923767828
6.30637312,0.9998642996499922,-174.08425756543943
6.308659712,0.9997754127298153,-174.22272908077466
6.310945792,0.9997014625271026,-174.360046967474
6.313232384,0.9996468819227529,-174.49643813726857
6.315518464,0.9996152416920084,-174.632165664281
6.317805056,0.9996085148239751,-174.76765712448034
6.320091648,0.9996271765009511,-174.90319384287696
6.322377728,0.999670065008093,-175.03922079354953
6.32466432,0.999734493987891,-175.17601030966463
6.3269504,0.9998161838605698,-175.31385362041613
6.329236992,0.9999102788176895,-175.45297875271626
6.331523072,1.0000105987844514,-175.5935199184389
6.333809664,1.0001109430291877,-175.73551223231354
6.336096256,1.000204795608479,-175.87891898627578
6.338382336,1.0002863459762474,-176.02361474165983
6.340668928,1.0003504801125263,-176.16937513732677
6.342955008,1.0003930040748035,-176.31586965849846
6.3452416,1.000411200650504,-176.46284151173816
6.34752768,1.0004041243165547,-176.60989410995154
6.349814272,1.0003719317144186,-176.75665151909823
6.352100352,1.000316935074409,-176.9027847131876
6.354386944,1.0002422703281213,-177.04797666964666
6.356673536,1.0001529184575586,-177.19198759919425
6.358959616,1.0000544379104592,-177.33462028419132
6.361246208,0.9999530832988052,-177.47581164756875
6.363532288,0.9998551687317716,-177.61556435127704
6.36581888,0.9997669499317814,-177.7539660180616
6.36810496,0.9996941048811441,-177.89119039527972
6.370391552,0.9996411556040332,-178.02749731030863
6.372678144,0.9996114430519734,-178.16320309154477
6.374964224,0.9996069616224411,-178.29867721524013
6.377250816,0.9996278253605334,-178.43423465677574
6.379536896,0.9996730215644257,-178.57029764006134
6.381823488,0.9997393889386417,-178.7071720071244
6.384109568,0.9998228854058664,-178.84510612022854
6.38639616,0.9999182538097139,-178.98437165218562
6.38868224,1.0000193207274095,-179.1250594124112
6.390968832,1.0001199435764832,-179.2672055312955
6.393255424,1.0002134636168956,-179.41078382851822
6.395541504,1.0002942562101504,-179.55559948330512
6.397828096,1.0003567821554833,-179.70146975846808
6.400114176,1.0003977407415152,-179.84810186925014
6.402400768,1.0004137790582561,-179.9951297032783
6.404686848,1.0004043405667158,179.8577759026668
6.40697344,1.0003699941308937,179.71102004636893
6.409260032,1.0003126790782917,179.56490743168052
6.411546112,1.000236183347605,179.41976562769815
6.413832704,1.0001453301725534,179.2758315369943
6.416118784,1.0000458666314336,179.1333024905125
6.418405376,0.9999440314235378,178.99222315616774
6.420691456,0.999846192647975,178.8525951192425
6.422978048,0.9997585877820169,178.7143042831334
6.425264128,0.9996869117087415,178.57716476945575
6.42755072,0.9996354791754254,178.4409554176218
6.429837312,0.9996078962082414,178.30528684972313
6.432123392,0.9996055834859806,178.1698509589446
6.434409984,0.9996288077332915,178.03426226803276
6.436696064,0.9996762206221592,177.89815033797606
6.438982656,0.9997446326607525,177.761223933901
6.441268736,0.9998297846419566,177.62317111770355
6.443555328,0.9999264944545841,177.4837849404968
6.44584192,1.0000283501214766,177.34294677832003
6.448128,1.0001290796984879,177.2006766645289
6.450414592,1.0002223129126038,177.05696615251318
6.452700672,1.000301912727998,176.912002693241
6.454987264,1.000363252653399,176.76604057261028
6.457273344,1.0004021556159963,176.61931530070711
6.459559936,1.0004161587558995,176.47220340215802
6.461846016,1.0004045552123106,176.3251042788889
6.464132608,1.000367741312906,176.17833072682342
6.4664192,1.0003084046564386,176.03227961341628
6.46870528,1.0002300600452216,175.88720499610278
6.470991872,1.000137678648391,175.74335760098745
6.473277952,1.0000372058234657,175.60094564186355
6.475564544,0.9999348379490569,175.45997452423794
6.477850624,0.9998371236002203,175.32045831424915
6.480137216,0.9997502958089917,175.18230355064682
6.482423296,0.9996797197564621,175.04529360789937
6.484709888,0.9996300717646972,174.90914323593947
6.48699648,0.9996044351880645,174.77354813706967
6.48928256,0.9996043212105253,174.63813681447456
6.491569152,0.9996299771950828,174.50254369453344
6.493855232,0.9996795426848831,174.36641087062984
6.496141824,0.9997499243189402,174.22939952934064
6.498427904,0.9998369261437995,174.0912478769987
6.500714496,0.9999347788556534,173.95175727514993
6.503001088,1.0000373851222426,173.810791582426
6.505287168,1.0001383035276263,173.66837126683114
6.50757376,1.0002310241341175,173.52454699472216
6.50985984,1.0003097592230832,173.37944989125603
6.512146432,1.0003696534280377,173.23335539611188
6.514432512,1.0004065488640048,173.08658060796714
6.516719104,1.0004184405220977,172.93944578044983
6.519005184,1.0004044603342288,172.79230003535665
6.521291776,1.0003654996051705,172.64556309752496
6.523578368,1.0003039092608719,172.49953647184105
6.525864448,1.000223742257595,172.3545436027265
6.52815104,1.0001298049222762,172.21082295822046
6.53043712,1.000028330909794,172.06850704731735
6.532723712,0.9999256006421448,171.92768005810623
6.535009792,0.9998281775648589,171.78831235366158
6.537296384,0.9997420033351788,171.6502941384477
6.539582976,0.9996727781234208,171.51338793547842
6.541869056,0.9996247692397242,171.37732399619958
6.544155648,0.9996011754627481,171.24177826724613
6.546441728,0.9996033923368268,171.1064237858959
6.54872832,0.9996312464567402,170.9708451623927
6.5510144,0.9996830578691669,170.83467210084706
6.553300992,0.9997556587331016,170.6975899378036
6.555587072,0.9998443066659819,170.55936475025118
6.557873664,0.999943226951062,170.4197757531909
6.560160256,1.0000466092336309,170.27868495750926
6.562446336,1.0001474898350367,170.13614042921813
6.564732928,1.0002399106705497,169.99217214586096
6.567019008,1.0003175434573355,169.84700133233576
6.5693056,1.0003758079334684,169.7007979811702
6.57159168,1.000410863323512,169.5539421276235
6.573878272,1.0004206384119394,169.40676852489838
6.576164864,1.0004043400068274,169.25964599312732
6.578450944,1.0003629768785371,169.1129104559927
6.580737536,1.0002993061620788,168.96697351598556
6.583023616,1.0002171202321128,168.82206798318836
6.585310208,1.0001219119623097,168.678435129614
6.587596288,1.0000195290781106,168.5362763111759
6.58988288,0.9999163463402274,168.3956060142147
6.59216896,0.9998190660166428,168.2563686855525
6.594455552,0.999733769183838,168.1184691006038
6.596742144,0.9996658139171196,167.98168666065968
6.599028224,0.9996195931567365,167.84576235930606
6.601314816,0.9995980587763219,167.71028454582952
6.603600896,0.999602496238694,167.5749611070272
6.605887488,0.9996327961972195,167.43938504500983
6.608173568,0.9996868307057577,167.30318284069622
6.61046016,0.9997613524262986,167.16607751157466
6.612746752,0.9998514894680293,167.02774998617147
6.615032832,0.9999517940802694,166.88804911015694
6.617319424,1.0000557814465116,166.74687133155686
6.619605504,1.000156768046276,166.6041916140965
6.621892096,1.0002485213838304,166.46012327122833
6.624178176,1.000325179695008,166.31482872379473
6.626464768,1.0003818580075448,166.16857586927014
6.628750848,1.000414969555345,166.0216874009194
6.63103744,1.0004225288102118,165.8744697956573
6.633324032,1.0004038353747384,165.72732793094767
6.635610112,1.000360187196218,165.58065713240185
6.637896704,1.000294333876817,165.4347757430345
6.640182784,1.000210512354083,165.28996270586913
6.642469376,1.0001136856805606,165.14649200144743
6.644755456,1.0000104815540027,165.0044725327208
6.647042048,0.9999069085758225,164.86393527853122
6.649328128,0.9998098919730237,164.72489013584965
6.65161472,0.9997253560789269,164.58713484929186
6.653901312,0.999658812659329,164.45048623015975
6.656187392,0.9996143731338479,164.31466463984538
6.658473984,0.9995949559808546,164.17928007798622
6.660760064,0.9996017845171041,164.04401113637647
6.663046656,0.9996344288222486,163.90844483537535
6.665332736,0.9996906725780179,163.7722278238698
6.667619328,0.9997671319340689,163.63506336166134
6.66990592,0.9998590708112075,163.4966719540054
6.672192,0.9999604623036102,163.35687348141164
6.674478592,1.000064981358284,163.2155947774186
6.676764672,1.0001660575995488,163.07280812680114
6.679051264,1.0002571118241925,162.92864780644496
6.681337344,1.000332773976742,162.78325882634292
6.683623936,1.0003878269177522,162.63692196676666
6.685910016,1.0004189067901528,162.48997774498037
6.688196608,1.0004243273290219,162.34274427565117
6.6904832,1.0004032010397732,162.19563143011504
6.69276928,1.000357170707137,162.0490089870268
6.695055872,1.0002891847676039,161.90321603726642
6.697341952,1.0002035789378412,161.75853824850037
6.699628544,1.000105429494776,161.6152143266978
6.701914624,1.0000012557939437,161.47332913236627
6.704201216,0.9998974421034689,161.33296001149887
6.706487808,0.9998006964193875,161.1940574169188
6.708773888,0.9997171497004428,161.05647367673475
6.71106048,0.999651877058471,160.91996161276148
6.71334656,0.9996093601818757,160.78425674478007
6.715633152,0.999592069116878,160.64896860205732
6.717919232,0.9996013186412116,160.51375207663202
6.720205824,0.9996362015616921,160.37823251264683
6.722491904,0.999694853654898,160.24201566951044
6.724778496,0.9997733053369654,160.1047994546302
6.727065088,0.9998667778060285,159.96632540807926
6.729351168,0.9999693331368054,159.82647097006736
6.73163776,1.0000743774662368,159.68507774469197
6.73392384,1.0001755061551494,159.5421838692422
6.736210432,1.0002660300471466,159.39790523852338
6.738496512,1.0003404807660485,159.25245544681357
6.740783104,1.000393854352864,159.10605564135383
6.743069696,1.0004228686069776,158.95907051696102
6.745355776,1.0004258632219623,158.81183056049292
6.747642368,1.00040252702839,158.66476818600842
6.749928448,1.000354219923455,158.51821017603322
6.75221504,1.0002841149089436,158.37251941347427
6.75450112,1.0001965033988591,158.22795556170342
6.756787712,1.0000971257764502,158.08476944266326
6.759073792,0.9999919783251328,157.94307311349297
6.761360384,0.9998880584668962,157.80288428874985
6.763646976,0.9997916674842848,157.6641418456652
6.765933056,0.9997089555153892,157.52672142252055
6.768219648,0.9996452651429586,157.39036741547122
6.770505728,0.9996045219283917,157.25478818674748
6.77279232,0.9995895285423945,157.11958973061002
6.7750784,0.9996009217191025,156.9844272262317
6.777364992,0.9996382762985071,156.84893248445897
6.779651584,0.9996991670490234,156.7127179321661
6.781937664,0.9997796601820683,156.5754655829397
6.784224256,0.9998746414272248,156.43694944397453
6.786510336,0.9999782965816637,156.29699496885897
6.788796928,1.0000839749147141,156.15550328138767
6.791083008,1.0001848927135508,156.01253418930514
6.7933696,1.0002748003272286,155.868191102366
6.79565568,1.0003478790763314,155.72264138924174
6.797942272,1.0003996319191995,155.57621703212016
6.800228864,1.0004266816060612,155.42918980254439
6.802514944,1.000427348577865,155.28197120113035
6.804801536,1.0004015405576006,155.1349367600476
6.807087616,1.0003508289107288,154.98845930221387
6.809374208,1.0002786077954673,154.84287492469744
6.811660288,1.0001892664712968,154.69845796489304
6.81394688,1.000088491212156,154.5554427951213
6.81623296,0.999982626329518,154.41390467977817
6.818519552,0.9998784910589319,154.27389624348524
6.820806144,0.9997824602711463,154.13536126574164
6.823092224,0.9997007112728475,153.99811576718236
6.825378816,0.9996385394275952,153.8619152773986
6.827664896,0.9995997830486913,153.7264451777463
6.829951488,0.9995869331108783,153.5913701119449
6.832237568,0.9996008437224599,153.45629798279202
6.83452416,0.9996405157256076,153.3208201484066
6.836810752,0.9997036125343236,153.1846112104775
6.839096832,0.9997861472113987,153.04734094262497
6.841383424,0.9998828694355397,152.9087650351929
6.843669504,0.9999874980315865,152.7687411191067
6.845956096,1.0000936339780067,152.62716910752013
6.848242176,1.0001944242559186,152.48410827325336
6.850528768,1.0002834312259283,152.33966319147086
6.852814848,1.0003553785821253,152.19406275358833
6.85510144,1.0004052996372796,152.04758953316295
6.857388032,1.0004302354952448,151.90054140233684
6.859674112,1.0004285606818333,151.7533693901102
6.861960704,1.0004003606388898,151.60636945211448
6.864246784,1.0003472775092388,151.45997524543984
6.866533376,1.000272942046504,151.31451898085828
6.868819456,1.000181896236289,151.1702625265109
6.871106048,1.0000797375378347,151.02740601809938
6.87339264,0.9999731803248965,150.88606269400933
6.87567872,0.9998687817592896,150.7462591512598
6.877965312,0.9997732484322903,150.60792673465085
6.880251392,0.9996926035438418,150.47085613293922
6.882537984,0.9996319011316392,150.3348182099322
6.884824064,0.9995951128839599,150.19947875340364
6.887110656,0.9995845434231666,150.06451966335467
6.889396736,0.9996008240246529,149.92951540216526
6.891683328,0.9996430314272605,149.79408539561874
6.89396992,0.9997084091474923,149.65787212638034
6.896256,0.9997927772503357,149.52057371122945
6.898542592,0.9998909528416221,149.38196151053856
6.900828672,0.9999966731707678,149.24186532191473
6.903115264,1.0001032699521553,149.10023982209
6.905401344,1.0002038998386067,148.9570932758044
6.907687936,1.0002921603639097,148.81257290176853
6.909974528,1.0003627072328098,148.66692370995753
6.912260608,1.0004109192445196,148.52039419388657
6.9145472,1.0004336570334134,148.37336793686168
6.91683328,1.0004296693064143,148.22620760461135
