freq,mag,phase
6.0,1.0004934761852886,151.51111592784105
6.002285056,1.0005774506207632,151.34540303888647
6.004570112,1.0006250133239343,151.1787935164553
6.006855168,1.0006335410816918,151.01179286240216
6.009140224,1.000602489999857,150.84496070671338
6.01142528,1.0005337543176964,150.67888173163993
6.013710336,1.000431681447595,150.51405490930586
6.015995392,1.000302704821179,150.35094188405355
6.018280448,1.0001551068933687,150.18984252736615
6.020565504,0.9999978278214512,150.0309915425013
6.02285056,0.9998412895252493,149.8744315966692
6.025135616,0.9996949925232661,149.7201259668784
6.027420672,0.999568289505448,149.56781651480435
6.029705728,0.999469247897517,149.4171318292943
6.031990784,0.9994042802510277,149.26771775641714
6.03427584,0.9993772128974124,149.11898539288853
6.036560896,0.9993901298511791,148.97039175083438
6.038845952,0.9994419889737477,148.8213310882125
6.041131008,0.9995294247746014,148.67130827423412
6.043416064,0.9996471446151263,148.51979966883476
6.04570112,0.9997877677484356,148.36643032705842
6.047986176,0.9999421836722636,148.21096204515217
6.050271232,1.0001006006160704,148.05323777779645
6.052556288,1.0002532623030955,147.89329997023592
6.054841344,1.0003904332829694,147.73127839444012
6.0571264,1.000503378000002,147.56745871891184
6.059411456,1.0005849521346692,147.40224549224908
6.061696512,1.0006300609814327,147.23614495453103
6.063981568,1.0006357968054531,147.06969570375904
6.066266624,1.0006018762822226,146.90347519382027
6.06855168,1.000530257780053,146.7380351251942
6.070836736,1.0004256113030892,146.5739005875687
6.073121792,1.0002944658749622,146.41152331870293
6.075406848,1.0001449016858768,146.25117623344303
6.077691904,0.9999866353396129,146.09311649649817
6.07997696,0.9998296644592108,145.93734837190266
6.082262016,0.9996836570732246,145.78379514375573
6.084547072,0.9995580640750494,145.63224842149674
6.086832128,0.999460860064659,145.48236664165066
6.089117184,0.9993979657851425,145.3336580299071
6.09140224,0.9993736386232127,145.18559319121903
6.093687296,0.9993894549890375,145.03764627942732
6.095972352,0.9994440722262662,144.88922931699298
6.098257408,0.9995344598621796,144.73973953657796
6.100542464,0.999654755108677,144.58876295811677
6.10282752,0.9997972550078458,144.43591300045998
6.105112576,0.9999530664903697,144.2808938462226
6.107397632,1.000112361233699,144.12365818761575
6.1096832,1.0002650580252288,143.96413297924533
6.111968256,1.0004013761619168,143.80256346552127
6.114253312,1.0005129734819158,143.63921676554781
6.116538368,1.0005925111620544,143.47451345854196
6.118823424,1.000635110446979,143.30894752779034
6.12110848,1.0006379979324935,143.1430571051878
6.123393536,1.0006011116012559,142.97745314433783
6.125678592,1.0005264632613693,142.81268794596846
6.127963648,1.0004192315701197,142.6492269076617
6.130248704,1.000285720000107,142.4875885451814
6.13253376,1.0001344333153388,142.32799670429097
6.134818816,0.9999752047166472,142.1706858508278
6.137103872,0.9998177900490869,142.01572206833555
6.139388928,0.9996722069798885,141.8629422187432
6.141673984,0.99954781877327,141.71218410839253
6.14395904,0.9994523221138205,141.5630565613518
6.146244096,0.9993918949023949,141.4150953987223
6.148529152,0.9993702911194029,141.26770246440194
6.150814208,0.9993889541250816,141.12041560461137
6.153099264,0.9994466759688492,140.9725980080942
6.15538432,0.9995398338821224,140.82366603790027
6.157669376,0.9996625586169346,140.67321520968252
6.159954432,0.999807169154595,140.52087265415184
6.162239488,0.9999644898368523,140.36633759026014
6.164524544,1.0001244081150171,140.20952729923027
6.1668096,1.0002769725477523,140.05047080588577
6.169094656,1.0004125234885899,139.88932971290492
6.171379712,1.0005225964359385,139.72646151692757
6.173664768,1.0005999910769785,139.56223339451384
6.175949824,1.0006399622941216,139.39718982942347
6.17823488,1.0006399229666538,139.23189364887898
6.180519936,1.0006000296875446,139.06689417967453
6.182804992,1.0005225589996998,138.90277092975236
6.185090048,1.0004124245006774,138.74003929118228
6.187375104,1.0002768109472995,138.57911068319711
6.18966016,1.000123940287752,138.42029871110003
6.191945216,0.9999633963715937,138.26378019947157
6.194230272,0.9998056946790377,138.10959503874892
6.196515328,0.9996606193182738,137.9576370925892
6.198800384,0.9995374575379243,137.80764065509865
6.20108544,0.9994438028754502,137.65927258445907
6.203370496,0.99938580275968,137.51199488811528
6.205655552,0.9993668993712522,137.36536176158927
6.207940608,0.9993886779192375,137.21868207892442
6.210225664,0.9994494172762824,137.0714420536873
6.21251072,0.99954545133197,136.9231020234584
6.214795776,0.9996707610070529,136.7731853133292
6.217080832,0.9998173445592391,136.6212831194013
6.219365888,0.9999759947220801,136.46721842589744
6.221650944,1.0001365957139245,136.31086555299947
6.223936,1.0002891153815945,136.15224702819643
6.226221056,1.0004237477962643,135.99156691751287
6.228506112,1.0005322012109628,135.82915164677036
6.230791168,1.0006074115482968,135.6654464040526
6.233076224,1.0006446330474332,135.5009166093256
6.23536128,1.0006418663062435,135.33618494859886
6.237646336,1.0005987097957834,135.1718071933819
6.239931392,1.0005182311378704,135.00834135236133
6.242216448,1.0004054523054207,134.84630707345642
6.244501504,1.0002673682244052,134.68611496489714
6.24678656,1.0001128096570435,134.52805361206435
6.249071616,0.999951327715316,134.3723408806851
6.251356672,0.9997933768774034,134.21896738283186
6.253641728,0.9996489549043128,134.06778002086867
6.255926784,0.999526971432244,133.91857966859985
6.25821184,0.9994353212605219,133.77095105724976
6.260496896,0.9993797736419623,133.62441010981354
6.262781952,0.9993638408824539,133.478443263256
6.265067008,0.9993885630953384,133.33244271372638
6.267352064,0.9994526166366453,133.1857750684684
6.26963712,0.999551560343823,133.0379934742849
6.271922176,0.9996794352759402,132.8885801687396
6.274207232,0.9998279862432774,132.73718293426458
6.276492288,0.9999879352312904,132.58355350143128
6.278777344,1.0001491946257208,132.42762204797964
6.2810624,1.0003015430975422,132.26944498407775
6.283347456,1.0004352952178055,132.10922345550802
6.285632512,1.0005419737871235,131.94726697587552
6.287917568,1.0006149256975512,131.78402532579054
6.290202624,1.0006494776597687,131.620066488859
6.29248768,1.000643454642871,131.45588209387253
6.294772736,1.0005972561285017,131.29213659901046
6.297057792,1.0005136617948545,131.12933286277607
6.299342848,1.0003980170607376,130.96800603641202
6.301627904,1.0002575818094053,130.80853671616805
6.30391296,1.0001013327976913,130.65123614988389
6.306198016,0.9999389435475925,130.49630401840736
6.308483072,0.9997807639533155,130.34371459848256
6.310768128,0.9996368888897159,130.19334062282638
6.313053184,0.9995163234382448,130.04490487128297
6.31533824,0.9994267665668567,129.89805787827507
6.317623296,0.9993738424567122,129.75223199361818
6.319908352,0.9993608163626259,129.60694388231448
6.322193408,0.9993887977101992,129.46156112288952
6.324478976,0.9994559568032919,129.31550257913932
6.326764032,0.9995579335303407,129.16823888625717
6.329049088,0.9996883175452109,129.01934707238422
6.331334144,0.9998389453064134,128.86840651183385
6.3336192,1.0000002500366498,128.71523539059618
6.335904256,1.000162133558196,128.55974217680128
6.338189312,1.0003140431966635,128.4019814453574
6.340474368,1.0004467550442422,128.2421971036925
6.342759424,1.0005516555984846,128.08071879800715
6.34504448,1.000622223954514,127.91797298928029
6.347329536,1.0006539733898498,127.75449901136804
6.349614592,1.000644802356958,127.59089529771371
6.351899648,1.000595443169816,127.42774964894411
6.354184704,1.000508720178356,127.26559706457306
6.35646976,1.0003903179927038,127.10496177265992
6.358754816,1.0002475320839535,126.94624711461188
6.361039872,1.0000894441504136,126.78973066363673
6.363324928,0.999926250902102,126.63557417017692
6.365609984,0.9997680345900941,126.48378404076371
6.36789504,0.999624825712654,126.33420135062507
6.370180096,0.9995056493429594,126.18656844674356
6.372465152,0.9994182177353035,126.04046140640838
6.374750208,0.9993679819865269,125.8953508655967
6.377035264,0.9993581055079207,125.7507076716667
6.37932032,0.9993893308779107,125.60597316849766
6.381605376,0.999459613900433,125.46048054123483
6.383890432,0.9995646250090394,125.31378120109767
6.386175488,0.9996976866798746,125.16535122827591
6.388460544,0.9998503364793093,125.01487232070842
6.3907456,1.0000129211218547,124.86212146493138
6.393030656,1.0001752280511047,124.70704771935351
6.395315712,1.000326914325137,124.54973217195422
6.397600768,1.0004583647495955,124.39037740553735
6.399885824,1.0005615715315002,124.22931773082094
6.40217088,1.0006296246498683,124.06705931288393
6.404455936,1.000658341557774,123.90410557765286
6.406740992,1.000646019392807,123.74106752551866
6.409026048,1.000593246109656,123.57854103415382
6.411311104,1.0005033065177968,123.41704474223441
6.41359616,1.000382124243563,123.25711519643532
6.415881216,1.0002370990626843,123.09914461259015
6.418166272,1.0000774391736436,122.94339547263742
6.420451328,0.9999132604781578,122.79003217323188
6.422736384,0.9997549665092827,122.63901939136917
6.42502144,0.999612509965992,122.4902356515349
6.427306496,0.9994949006183236,122.34334973031366
6.429591552,0.9994097247816518,122.19799618616501
6.431876608,0.9993622389643954,122.0535812177034
6.434161664,0.9993556050995737,121.9096084693053
6.43644672,0.999390105333055,121.76548369439791
6.438731776,0.999463706515786,121.62056995734083
6.441016832,0.9995717623359922,121.4743732506057
6.443301888,0.9997073197667306,121.3264409153409
6.445586944,0.9998620549863845,121.17640307631675
6.447872,1.0000259004389036,121.0240634370151
6.450157056,1.0001885179653045,120.86942938248451
6.452442112,1.0003399723400144,120.71250017671204
6.454727168,1.0004702473828613,120.55354902411997
6.457012224,1.0005713546710393,120.39295060065704
6.45929728,1.0006369544138418,120.23115479271655
6.461582336,1.0006625841465848,120.06874682192576
6.463867392,1.000646906788543,119.90624129528582
6.466152448,1.0005908545919389,119.74432777960727
6.468437504,1.0004978273301652,119.58348243669931
6.47072256,1.0003736233414233,119.42424261718
6.473007616,1.0002263011538814,119.26700751235782
6.475292672,1.000065031816932,119.11204442058356
6.477577728,0.9999000240375588,118.95944992604653
6.479862784,0.9997416283722045,118.80922279683135
6.48214784,0.9996000459080049,118.66120939686645
6.484432896,0.9994840734451829,118.51511034674752
6.486717952,0.9994011508941388,118.37045935056308
6.489003008,0.9993565900140948,118.2267671606176
6.491288064,0.9993531957738659,118.08347176205176
6.49357312,0.9993911043175533,117.93989569258073
6.495858176,0.9994680229501036,117.7955681294253
6.498143232,0.9995791198237375,117.64986265118503
6.500428288,0.9997173872757237,117.50239408178564
6.502713344,0.9998739602261992,117.35278272072874
6.5049984,1.0000390669033965,117.20087829010775
6.507283456,1.000202211001659,117.04662742114492
6.509568512,1.0003530557522493,116.89007705681608
6.511853568,1.0004820745699252,116.73154969230691
6.514138624,1.0005812683335078,116.57136737678577
6.51642368,1.00064404633988,116.41006196551538
6.518708736,1.0006667270458665,116.24814779933511
6.520993792,1.000647619117626,116.08622607736785
6.523278848,1.0005880034924812,115.9248942598374
6.525563904,1.0004917719069868,115.76470571748948
6.52784896,1.0003647494312788,115.60616069573773
6.530134016,1.0002151330051277,115.44963971167671
6.532419072,1.0000522737060948,115.29542973166777
6.534704128,0.9998864561031512,115.1436145246615
6.536989184,0.9997281040841537,114.99416538315877
6.53927424,0.9995874037533793,114.84694784700073
6.541559808,0.9994731896084998,114.70158761933713
6.543844864,0.9993926755485479,114.55766744684205
6.54612992,0.999351132899159,114.41465942308201
6.548414976,0.9993509996276188,114.27199037602547
6.550700032,0.9993923977227949,114.12903818631247
6.552985088,0.9994727937035562,113.98523651936831
6.555270144,0.9995869703592889,113.8400455017705
6.5575552,0.9997277813417706,113.69299794481573
6.559840256,0.9998863266687553,113.54382541634105
6.562125312,1.000052620317177,113.39230137860208
6.564410368,1.00021603385952,113.23841294148734
6.566695424,1.000366381089296,113.08225988136155
6.56898048,1.0004940884547,112.92411656676207
6.571265536,1.0005909938259694,112.76436193692436
6.573550592,1.0006510265766047,112.60352463832083
6.575835648,1.0006704838992506,112.4420871169398
6.578120704,1.000647996034736,112.28071559029458
6.58040576,1.0005849504782758,112.11997494682345
6.582690816,1.000485312619303,111.96044821440825
6.584975872,1.0003555455413828,111.80259907804334
6.587260928,1.0002035219129464,111.6468067157288
6.589545984,1.0000390932777408,111.4933251588749
6.59183104,0.9998724712548944,111.34229589235662
6.594116096,0.9997143208633794,111.19363462995966
6.596401152,0.9995746104608457,111.04715659278226
6.598686208,0.9994622173039747,110.90256105305582
6.600971264,0.9993842972777793,110.75933127592141
6.60325632,0.9993457985380362,110.61701119119913
6.605541376,0.9993490306608179,110.47497389074216
6.607826432,0.9993939913307396,110.33261236657742
6.610111488,0.9994778253677404,110.18930388441585
6.612396544,0.9995951687622139,110.04458106560028
6.6146816,0.99973864462295,109.89798289337377
6.616966656,0.99989917900455,109.74920460645389
6.619251712,1.0000665936849644,109.59805442200714
6.621536768,1.0002302460319787,109.44452947335657
6.623821824,1.0003799131659525,109.28876026254476
6.62610688,1.0005061119260945,109.13098557494165
6.628391936,1.0006008697005302,108.97165439507273
6.630676992,1.000657969003207,108.81123366209918
6.632962048,1.00067415258554,108.65029800234863
6.635247104,1.000648076214284,108.48946543995827
6.63753216,1.0005815348141722,108.32930923198055
6.639817216,1.0004786311186757,108.17041062834298
6.642102272,1.0003458645861936,108.01325517993536
6.644387328,1.0001916304754344,107.85817446756718
6.646672384,1.0000256468078728,107.7054733696194
6.64895744,0.9998583689226904,107.55518734882733
6.651242496,0.9997004346114595,107.40731207889219
6.653527552,0.9995619138822591,107.26158248916987
6.655812608,0.9994514737951308,107.11772369571375
6.658097664,0.9993761353421295,106.97519329357318
6.66038272,0.999340710376297,106.83352286297074
6.662667776,0.999347482196393,106.6921040685509
6.664952832,0.9993959971145717,106.55027309189147
6.667237888,0.9994833636577641,106.40748574456865
6.669522944,0.9996038093117328,106.26322143202977
6.671808,0.9997499001984692,106.11703913434975
6.674093056,0.9999122477140933,105.96864462749916
6.676378112,1.0000808541307726,105.81785401592522
6.678663168,1.0002447215790484,105.66466977280523
6.680948224,1.0003937215210468,105.50924029651463
6.68323328,1.0005183751468996,105.35183480765568
6.685518336,1.000610641698191,105.19291222617483
6.687803392,1.000664869309656,105.03291423176448
6.690088448,1.000677592994645,104.87248930200197
6.692373504,1.0006479770288126,104.71215906778866
6.69465856,1.0005777644196365,104.55258812550125
6.696943616,1.0004715001835347,104.39432802180734
6.699228672,1.000335803112818,104.23784299881002
6.701513728,1.0001791359604593,104.08348187871398
6.703798784,1.0000117521454428,103.9314884903783
6.70608384,0.9998439645351312,103.78197916265553
6.708368896,0.9996862308010127,103.63485380708347
6.710653952,0.9995488339334525,103.4898832534716
6.712939008,0.9994404982450281,103.3467376815437
6.715224064,0.9993678137457703,103.20491436220884
6.71750912,0.9993357730862341,103.06387499662614
6.719794176,0.9993460245832884,102.92303444419866
6.722079232,0.9993983010910867,102.78176198755963
6.724364288,0.9994891690565664,102.63946382903801
6.726649344,0.99961286840188,102.4956262465537
6.7289344,0.9997614085827798,102.34984316625443
6.731219456,0.9999258395864269,102.20178531265192
6.733504512,1.0000953384896587,102.0513508284429
6.735789568,1.0002594172678787,101.8984992284064
6.738074624,1.000407631150253,101.74340979601781
6.74035968,1.0005304658787733,101.58636999825532
6.742644736,1.000620357084503,101.42781436144982
6.744929792,1.0006715507881703,101.26824443151082
6.747214848,1.0006808840557593,101.10825088726054
6.749499904,1.0006474916493742,100.94847188984927
6.75178496,1.0005736135204026,100.78949507358121
6.754070016,1.0004639431747744,100.63182402421917
6.756355072,1.0003253627041813,100.47599799466722
6.75864064,1.0001665495865846,100.32237653352814
6.760925696,0.9999976016618666,100.17112248723633
6.763210752,0.9998291411677435,100.02232852072473
6.765495808,0.999671956764551,99.8759334060725
6.767780864,0.999535874652255,99.73171674877958
6.77006592,0.9994295424664589,99.58927440766121
6.772350976,0.9993598328865847,99.44813175887295
6.774636032,0.9993310154305624,99.30772262328315
6.776921088,0.9993451602662407,99.16746012560036
6.779206144,0.9994010104478653,99.02669720947657
6.7814912,0.9994954038185655,98.88486494210355
6.783776256,0.9996223082054863,98.74145461664114
6.786061312,0.999773527692724,98.5960363061604
6.788346368,0.999939814864088,98.44834342065633
6.790631424,1.0001102488502476,98.2982066723162
6.79291648,1.0002742736034609,98.14567788329295
6.795201536,1.000421616153244,97.99089475050454
6.797486592,1.0005427509373739,97.8341828870148
6.799771648,1.0006301728287055,97.6760037678542
6.802056704,1.0006781399177558,97.51683400913377
6.80434176,1.0006837754993023,97.3573118243907
6.806626816,1.0006467246840007,97.19802069961031
6.808911872,1.0005691787787054,97.0395806004043
6.811196928,1.0004560305218904,96.88255675613411
6.813481984,1.0003144876675845,96.72738347883812
6.81576704,1.0001534220191213,96.57444310327612
6.818052096,0.9999830862645261,96.4239153135113
6.820337152,0.9998141905470419,96.27586474352752
6.822622208,0.9996573867475099,96.13020696004764
6.824907264,0.9995226977632357,95.98670524242162
6.82719232,0.9994186913959195,95.8449585421466
6.829477376,0.9993517893603207,95.70446536627833
6.831762432,0.9993264231002704,95.56466698457191
6.834047488,0.999344290265269,95.42496055891361
6.836332544,0.9994040055010042,95.28469804579086
6.8386176,0.999502000831479,95.14333191298394
6.840902656,0.9996321202072718,95.00027890783807
6.843187712,0.9997860236207021,94.8552245071026
6.845472768,0.9999539922034153,94.70784714878947
6.847757824,1.0001253868388418,94.55801537526382
6.85004288,1.0002894430255196,94.40578689207544
6.852327936,1.0004357973902223,94.25129522303914
6.854612992,1.0005549608929447,94.0949046928751
6.856898048,1.0006397058488596,93.93707043512075
6.859183104,1.0006844641536694,93.77830598738146
6.86146816,1.0006865521743744,93.61922725252252
6.863753216,1.0006455408719326,93.46043595535014
6.866038272,1.000564240834358,93.30254819066828
6.868323328,1.0004476167568628,93.14612611221986
6.870608384,1.0003031586679616,92.99161207696241
6.87289344,1.0001398994308173,92.83933156271033
6.875178496,0.9999682118159929,92.68950102397902
6.877463552,0.9997989704911858,92.54218959493221
6.879748608,0.999642707681395,92.39725879957594
6.882033664,0.999509428661622,92.25446007858476
6.88431872,0.9994077671854467,92.11338318209272
6.886603776,0.9993439901295554,91.97352949552956
6.888888832,0.9993222008759571,91.83432328340851
6.891173888,0.9993437743400223,91.69514163427186
6.893458944,0.999407388599956,91.55535920879865
6.895744,0.9995091116947779,91.41440691156653
6.898029056,0.999642332396457,91.27177240722146
6.900314112,0.9997987723190528,91.1270236774544
6.902599168,0.9999685105737605,90.97994141124448
6.904884224,1.0001408012106145,90.83039544214738
6.90716928,1.0003048466554874,90.67843145013595
6.909454336,1.0004499274302792,90.52422032769273
6.911739392,1.0005673467484653,90.36813425058033
6.914024448,1.0006492992825216,90.21062465106569
6.916309504,1.0006906376248763,90.05223360622142
6.91859456,1.000688848796371,89.89356968652957
6.920879616,1.0006439199981165,89.73527863927606
6.923164672,1.0005588210415863,89.57793134351054
6.925449728,1.0004389172050807,89.42208424186462
