freq,mag,phase
6.0,1.0003039973755583,-106.00774887253301
6.00329216,1.0003412768297917,-106.20255626587449
6.00658432,1.0003577451847332,-106.39781779975945
6.00987648,1.0003522534381104,-106.59315568819274
6.01316864,1.0003252275243741,-106.78827306804133
6.0164608,1.0002779711193113,-106.98289892801739
6.01975296,1.0002137374949582,-107.1767415288565
6.02304512,1.0001364267371164,-107.36959197653951
6.02633728,1.0000507125625773,-107.5612966766293
6.02962944,0.9999618801297389,-107.75175811503154
6.0329216,0.9998753939590891,-107.94097677697688
6.03621376,0.9997966231742246,-108.12907474362558
6.03950592,0.9997305914677752,-108.31610519062596
6.042798592,0.999681143360007,-108.50232234115067
6.046090752,0.9996514604861638,-108.68802586848548
6.049382912,0.9996433348626161,-108.87345866775469
6.052675072,0.9996573659754333,-109.05893764363572
6.055967232,0.9996926236891854,-109.24481671276342
6.059259392,0.9997470264755371,-109.43133223923674
6.062551552,0.9998171122422395,-109.61876587822829
6.065843712,0.9998986290330636,-109.80731595994459
6.069135872,0.9999865928898787,-109.99707117167463
6.072428032,1.0000755093388125,-110.18814974992907
6.075720192,1.0001598062271113,-110.3804615149343
6.079012352,1.0002344396015612,-110.57393628915096
6.082304512,1.0002948103259302,-110.76845231949493
6.085596672,1.0003369570705078,-110.96366678788601
6.088888832,1.00035858296897,-111.15936620271185
6.092180992,1.000357973179299,-111.35523500425305
6.095473152,1.000335495354967,-111.55094691347949
6.098765312,1.000292366680525,-111.74621660824451
6.102057472,1.0002312852597308,-111.94077715794121
6.105349632,1.000155813882204,-112.13435430857693
6.108641792,1.0000709454181955,-112.32681654270485
6.111933952,0.9999816894260503,-112.5180438238892
6.115226112,0.9998935098394514,-112.7080134951093
6.118518272,0.9998119866826926,-112.8967939961935
6.121810944,0.9997420814446143,-113.08449475386244
6.125103104,0.9996880801845242,-113.27133547094168
6.128395264,0.9996534651219204,-113.45750555618459
6.131687424,0.9996402602388725,-113.64339552956496
6.134979584,0.9996494771582711,-113.82925986492226
6.138271744,0.9996802511373319,-114.01543908280364
6.141563904,0.9997309432565026,-114.20219886274522
6.144856064,0.9997983537503943,-114.3897994194191
6.148148224,0.9998782398544311,-114.57852092491085
6.151440384,0.9999659094999837,-114.76844399528697
6.154732544,1.0000557098800036,-114.95966954630343
6.158024704,1.0001422413592211,-115.15214581497523
6.161316864,1.0002200782693278,-115.34583140240663
6.164609024,1.0002844498876198,-115.54057082836621
6.167901184,1.000331390628641,-115.73610023719391
6.171193344,1.0003580813593491,-115.932176647073
6.174485504,1.0003626405926107,-116.1284820156908
6.177777664,1.0003449207245685,-116.3247171020748
6.181069824,1.0003059403464813,-116.5205874229875
6.184361984,1.0002481647157893,-116.71578059477126
6.187654144,1.0001750409662558,-116.9100260718323
6.190946304,1.0000912485803717,-117.10315816030763
6.194238464,1.0000018412134057,-117.29506815138885
6.197530624,0.9999122179460909,-117.48572849741244
6.200823296,0.9998281183609116,-117.6751452368757
6.204115456,0.9997545831781085,-117.8634339899536
6.207407616,0.9996961370062648,-118.05080062213379
6.210699776,0.9996566011757193,-118.237490182241
6.213991936,0.999638337570877,-118.4237278657157
6.217284096,0.9996424047061867,-118.60993712894629
6.220576256,0.9996686001533456,-118.79632806897052
6.223868416,0.9997153364182598,-118.98330090802426
6.227160576,0.9997797568034766,-119.17105403922682
6.230452736,0.9998579949260921,-119.35984744489556
6.233744896,0.9999449597152584,-119.54982080607789
6.237037056,1.0000354171235197,-119.74112736041232
6.240329216,1.0001239649804856,-119.93368485750271
6.243621376,1.0002048273212936,-120.12752981293103
6.246913536,1.000273197461742,-120.32239828903163
6.250205696,1.0003248428737597,-120.51812576121266
6.253497856,1.0003564724196872,-120.71449202822058
6.256790016,1.0003662147771066,-120.91120127119328
6.260082176,1.0003534928716127,-121.1078841248024
6.263374336,1.0003189429157406,-121.30422220055289
6.266666496,1.000264687092543,-121.49995777171087
6.269958656,1.0001941777824965,-121.69479808643035
6.273250816,1.000111671760616,-121.88854099037972
6.276542976,1.0000223033096716,-122.08111686299725
6.279835136,0.9999315699231489,-122.27237765399579
6.283127808,0.9998450446021963,-122.46236533326422
6.286419968,0.9997680370082251,-122.65120067683571
6.289712128,0.9997054548362486,-122.83906925822471
6.293004288,0.9996610077983527,-123.02616260440925
6.296296448,0.9996375458937812,-123.21275246871436
6.299588608,0.9996364511210418,-123.39922366989002
6.302880768,0.9996579594563064,-123.58579783666981
6.306172928,0.9997005609606855,-123.77286802499107
6.309465088,0.9997617692510538,-123.96071300995642
6.312757248,0.9998378796064031,-124.14953527307958
6.316049408,0.999923941617252,-124.33951620173922
6.319341568,1.0000148030214016,-124.53078423839032
6.322633728,1.0001049808667557,-124.72336982041392
6.325925888,1.000188671250699,-124.91722093568788
6.329218048,1.0002609051859193,-125.11218102876403
6.332510208,1.0003170664718255,-125.3080818362405
6.335802368,1.00035386490609,-125.50465696916744
6.339094528,1.0003687414737679,-125.70161848117742
6.342386688,1.0003610529025864,-125.8986572358314
6.345678848,1.0003311045168792,-126.09541764660204
6.348971008,1.000280762322938,-126.29159737022499
6.352263168,1.000213085974019,-126.48696192354984
6.355555328,1.000132223442627,-126.68125944516191
6.358847488,1.0000432760250366,-126.87437464110297
6.36214016,0.9999516509098061,-127.06617368830129
6.36543232,0.9998629273061685,-127.25671989872606
6.36872448,0.9997827385840754,-127.44601895857788
6.37201664,0.9997159189287642,-127.63431474687854
6.3753088,0.9996666661275196,-127.82175732926801
6.37860096,0.9996379871200821,-128.00867001823275
6.38189312,0.999631724494972,-128.19531679222837
6.38518528,0.9996482189984313,-128.3820617378849
6.38847744,0.9996865388454047,-128.56918208853233
6.3917696,0.9997442542477651,-128.75699692557615
6.39506176,0.999817909602306,-128.94580333866548
6.39835392,0.9999027666775109,-129.13568656464534
6.40164608,0.9999938968401246,-129.32688221654152
6.40493824,1.0000854321906643,-129.51941551108888
6.4082304,1.0001717070537495,-129.7131960356269
6.41152256,1.0002476786187833,-129.90818724996237
6.41481472,1.0003083130261248,-130.10411934123417
6.41810688,1.0003500889305383,-130.30080676688743
6.42139904,1.0003701672222396,-130.4979685217893
6.4246912,1.000367654830371,-130.69524026733686
6.42798336,1.0003424548746127,-130.89232742730502
6.43127552,1.0002962147076673,-131.08893533064864
6.43456768,1.0002315341251118,-131.284720906846
6.43785984,1.0001527148562332,-131.47948544946732
6.441152512,1.0000644369595169,-131.67306439771508
6.444444672,0.999972100387412,-131.8653788151345
6.447736832,0.9998814864345622,-132.0563708183262
6.451028992,0.9997982226997709,-132.24609609736282
6.454321152,0.9997274017852993,-132.43476904844692
6.457613312,0.9996732895706801,-132.6225304823975
6.460905472,0.9996394344493307,-132.80963244227922
6.464197632,0.9996278595429902,-132.996432383001
6.467489792,0.9996393767716238,-133.18326216248465
6.470781952,0.9996731413987127,-133.3703776756524
6.474074112,0.9997271809891661,-133.55814723570612
6.477366272,0.9997980914152756,-133.7468298844285
6.480658432,0.9998815452678138,-133.93660393230687
6.483950592,0.9999724622650614,-134.12763328450814
6.487242752,1.0000651441916786,-134.3200079492414
6.490534912,1.0001539411457414,-134.51365333303363
6.493827072,1.000233266952942,-134.70855249055828
6.497119232,1.0002982561315175,-134.9044540523098
6.500411392,1.0003449971311567,-135.10117336228112
6.503703552,1.0003704928881374,-135.29841529676656
6.506995712,1.0003731872820731,-135.4958575475646
6.510287872,1.0003529247512715,-135.6931998266525
6.513580032,1.0003108553083904,-135.89009969423384
6.516872192,1.0002495701088931,-136.08623619591702
6.520164864,1.0001729440984162,-136.28142690586242
6.523457024,1.0000856591502763,-136.47541004584946
6.526749184,0.9999929462108151,-136.66812671859773
6.530041344,0.9999006832213443,-136.85948844480563
6.533333504,0.9998146235472128,-137.0496391811206
6.536625664,0.9997398329435704,-137.23858715942868
6.539917824,0.9996811379790101,-137.42657913919356
6.543209984,0.9996421315543976,-137.61387861871873
6.546502144,0.9996252093580061,-137.8007548287595
6.549794304,0.9996314287272444,-137.98760522029585
6.553086464,0.9996605011909886,-138.17469309519774
6.556378624,0.9997105562626422,-138.3623261612719
6.559670784,0.9997785229588132,-138.55080826542914
6.562962944,0.9998603037478904,-138.74040840073854
6.566255104,0.999950770158095,-138.93118983262417
6.569547264,1.000044349379145,-139.12332330447327
6.572839424,1.0001352641089005,-139.3167645372124
6.576131584,1.0002178711460716,-139.51148530009664
6.579423744,1.000287162499196,-139.7072602555606
6.582715904,1.0003388138104634,-139.90390821271063
6.586008064,1.0003695659284606,-140.10117563544773
6.589300224,1.000377697064969,-140.29870142631515
6.592592384,1.0003624927631638,-140.49617327626052
6.595884544,1.000324855963588,-140.6932794838446
6.599176704,1.00026718280426,-140.8897322596215
6.602469376,1.0001930792838087,-141.08517811368603
6.605761536,1.000107010402712,-141.2795533366766
6.609053696,1.0000142467407491,-141.47260539381944
6.612345856,0.999920582492782,-141.6643215645356
6.615638016,0.9998318368433987,-141.85473789839727
6.618930176,0.9997533931058333,-142.04393535377264
6.622222336,0.9996901004427656,-142.23214337783347
6.625514496,0.9996459792630541,-142.41953594750152
6.628806656,0.999623685487674,-142.60650200054232
6.632098816,0.9996246823177343,-142.79326547524684
6.635390976,0.9996488195841449,-142.98023823379157
6.638683136,0.9996947055470506,-143.16768943467827
6.641975296,0.9997594659970197,-143.35595102278492
6.645267456,0.9998392037544667,-143.54522967197315
6.648559616,0.9999288696826503,-143.73574792130498
6.651851776,1.0000230678553306,-143.9275547816284
6.655143936,1.00011590023892,-144.12073261712868
6.658436096,1.0002016372203781,-144.31518107555274
6.661728256,1.0002751013031992,-144.51075241065388
6.665020416,1.0003315080739283,-144.70727445463856
6.668312576,1.0003676334224674,-144.9044306731956
6.671604736,1.0003810666726638,-145.10195949336563
6.674896896,1.0003710821828975,-145.2995046536464
6.678189056,1.0003381162853975,-145.49673898306685
6.681481728,1.00028438482562,-145.69337866480393
6.684773888,1.0002129986721933,-145.88909294945273
6.688066048,1.0001284837771771,-146.08368420203772
6.691358208,1.0000359464429032,-146.27700789517482
6.694650368,0.9999412248171325,-146.46902226993623
6.697942528,0.9998499829707014,-146.65968290123405
6.701234688,0.9997680112868695,-146.8490602565167
6.704526848,0.999700326362971,-147.03737827063156
6.707819008,0.9996510915901892,-147.22486840687392
6.711111168,0.9996233887418615,-147.41182286867502
6.714403328,0.9996189448868517,-147.59848794387548
6.717695488,0.9996380938788275,-147.78526623051874
6.720987648,0.999679544453233,-147.97249842404742
6.724279808,0.9997408293237051,-148.16044120052916
6.727571968,0.9998182294649057,-148.34937082009648
6.730864128,0.9999069250932735,-148.5395053035173
6.734156288,1.0000014433665279,-148.73096176492638
6.737448448,1.000095886424372,-148.92370624173546
6.740740608,1.0001845274600767,-149.11783880345652
6.744032768,1.0002618399002472,-149.31311267745593
6.747324928,1.000323081911855,-149.50938537753765
6.750617088,1.0003644578342834,-149.70636135975738
6.753909248,1.0003833270259168,-149.90382451062948
6.757201408,1.0003786245890647,-150.1013507501444
6.76049408,1.0003505881616288,-150.29863752473693
6.76378624,1.0003008743407802,-150.4953833874007
6.7670784,1.0002325830639456,-150.69124223625417
6.77037056,1.0001498762153702,-150.8860562620331
6.77366272,1.0000579078041596,-151.07958562650856
6.77695488,0.9999622389212105,-151.27179360847606
6.78024704,0.9998689216009918,-151.4626079537511
6.7835392,0.9997836547175908,-151.6521314184785
6.78683136,0.9997116413101838,-151.84054717855787
6.79012352,0.9996573780088623,-152.02804264371187
6.79341568,0.999624319667322,-152.21489074641488
6.79670784,0.9996144282361266,-152.40143669019662
6.8,0.9996283090536215,-152.58796036835156
6.80329216,0.9996652023647737,-152.77489304176135
6.80658432,0.9997227825599309,-152.96247772790554
6.80987648,0.9997975784806965,-153.15099693001682
6.81316864,0.9998848942438573,-153.3406927386431
6.8164608,0.9999794208334314,-153.531642748371
6.81975296,1.0000753029258087,-153.7240020580683
6.82304512,1.0001665261552504,-153.91767381320062
6.82633728,1.0002476174182353,-154.1125778067644
6.82962944,1.0003134401402773,-154.30851733765496
6.8329216,1.0003600800588923,-154.50526653566948
6.83621376,1.0003845098632993,-154.7025206972337
6.83950592,1.0003851878666508,-154.89994790321177
6.842798592,1.0003621861448455,-155.09719486239646
6.846090752,1.0003166856231196,-155.29394722913267
6.849382912,1.000251792014351,-155.48993439083884
6.852675072,1.0001711777189652,-155.6848526605421
6.855967232,1.0000800702478758,-155.87852119292432
6.859259392,0.9999838912687674,-156.07083374962195
6.862551552,0.9998886027597906,-156.26179284359884
6.865843712,0.9998002539100161,-156.45140219324236
6.869135872,0.9997240591217252,-156.63981504341172
6.872428032,0.9996648711676742,-156.82726014655026
6.875720192,0.9996263346723173,-157.0139932295076
6.879012352,0.9996109776851925,-157.20031313754225
6.882304512,0.9996194926236827,-157.38661017084078
6.885596672,0.9996516133123076,-157.57314210431932
6.888888832,0.9997052883997324,-157.76030814026436
6.892180992,0.9997771851476327,-157.9483848366504
6.895473152,0.9998628427428076,-158.13754639561193
6.898765312,0.9999570675820885,-158.3279618359768
6.902057472,1.0000540965488998,-158.5197811132261
6.905349632,1.000147794274747,-158.71294605951036
6.908641792,1.000232441919283,-158.9073872196228
6.911933952,1.0003027976208736,-159.10293723023526
6.915226112,1.0003544881043647,-159.29933409211174
6.918518272,1.0003844375193498,-159.49631580681702
6.921810944,1.0003905429218747,-159.6935412113616
6.925103104,1.0003726950799785,-159.8906835662929
6.928395264,1.000331819540472,-160.0874103121884
6.931687424,1.0002703985730537,-160.2833691080816
6.934979584,1.0001922872291844,-160.47832747539607
6.938271744,1.0001021548090978,-160.67207262650362
6.941563904,1.0000057912384435,-160.86446542381998
6.944856064,0.9999088362077615,-161.05545544387738
6.948148224,0.999817551472956,-161.24507227824594
6.951440384,0.9997373915178714,-161.43346915368195
6.954732544,0.9996734994537699,-161.62082277691906
6.958024704,0.9996295673955821,-161.8073804217637
6.961316864,0.9996086182099105,-161.99344856821494
6.964609024,0.9996116825446387,-162.17938677961234
6.967901184,0.9996388578148842,-162.36552278453883
6.971193344,0.9996882173197167,-162.55219111065068
6.974485504,0.999757010184251,-162.7397097590109
6.977777664,0.9998407888287218,-162.9283103040178
6.981069824,0.9999343889714285,-163.11814987904094
6.984361984,1.0000321996672663,-163.30936330263688
6.987654144,1.0001281121797647,-163.50193997366947
6.990946304,1.0002160535757412,-163.69584268071364
6.994238464,1.0002908438488094,-163.89088516810884
6.997530624,1.0003476525271446,-164.0868812201791
7.000823296,1.0003830682352406,-164.28350199307957
7.004115456,1.000394764602162,-164.48043651374027
7.007407616,1.0003822551547068,-164.6773757439141
7.010699776,1.0003460396441557,-164.87396915223408
7.013991936,1.000288509354281,-165.06985177255888
7.017284096,1.0002130579164763,-165.2647948271721
7.020576256,1.000124404171971,-165.45852017045829
7.023868416,1.0000280534526185,-165.6509406549495
7.027160576,0.9999297852388297,-165.84192581129395
7.030452736,0.999835877679956,-166.03153025791804
7.033744896,0.9997519636037191,-166.21982881583313
7.037037056,0.999683218756976,-166.40703395467153
7.040329216,0.999634062748097,-166.59337140845545
7.043621376,0.9996075554515937,-166.77912450375769
7.046913536,0.9996051012084667,-166.9646672323663
7.050205696,0.9996271126876773,-167.15035145110602
7.053497856,0.9996721520287133,-167.33649152527926
7.056790016,0.9997375028363216,-167.52338914887906
7.060082176,0.9998190240526776,-167.7113239999645
7.063374336,0.9999118040680638,-167.90055796614513
7.066666496,1.000010087084519,-168.09108990985368
7.069958656,1.0001078660931753,-168.28300989832695
7.073250816,1.0001989870633061,-168.47628956716008
7.076542976,1.000278022490855,-168.67076586016984
7.079835136,1.0003398170500732,-168.86622537815254
7.083127808,1.0003805671077004,-169.062403232187
7.086419968,1.000398010739814,-169.2590108730928
7.089712128,1.0003908800570713,-169.4556766673693
7.093004288,1.0003596501419372,-169.6520440058086
7.096296448,1.0003061283972157,-169.84778601574877
7.099588608,1.0002336420641564,-170.0426250063557
7.102880768,1.0001467562497321,-170.23628901282677
7.106172928,1.000050581624205,-170.42864410379408
7.109465088,0.999951287873732,-170.61955127198308
7.112757248,0.999854900927856,-170.809077497834
7.116049408,0.9997674717858218,-170.99723851117997
7.119341568,0.9996941758467961,-171.18423726678404
7.122633728,0.9996398203731806,-171.37029347091888
7.125925888,0.9996075690156957,-171.5557194230406
7.129218048,0.9995995358274244,-171.74083997320307
7.132510208,0.9996161838909866,-171.9259945879629
7.135802368,0.9996566066206871,-172.111523789832
7.139094528,0.9997182672844472,-172.29780455457922
7.142386688,0.9997974263653593,-172.48504476448318
7.145678848,0.999889015553421,-172.67350681112973
7.148971008,0.999987516791728,-172.86330639005686
7.152263168,1.0000868984971223,-173.05450796169592
7.155555328,1.0001808915298627,-173.2471006859292
7.158847488,1.00026386351416,-173.44091061082938
7.16214016,1.0003305533471318,-173.63580363534444
7.16543232,1.000376928129056,-173.83149081273382
7.16872448,1.0003999647685617,-174.02765358148307
7.17201664,1.0003984717233714,-174.22394666373478
7.1753088,1.0003722048355341,-174.42001784452745
7.17860096,1.000322984840688,-174.6155541106196
7.18189312,1.000253733189161,-174.81021573605392
7.18518528,1.0001687778526283,-175.00374379058871
7.18847744,1.0000733764051524,-175.19597475690682
7.1917696,0.9999732410300405,-175.38677310655294
7.19506176,0.9998747412490993,-175.57615339575543
7.19835392,0.9997838423696134,-175.7641179580527
7.20164608,0.9997062052864855,-175.9508645488359
7.20493824,0.9996466110524749,-176.13661269041904
7.2082304,0.9996088453041323,-176.32165972679243
7.21152256,0.9995951543572247,-176.50629614166056
7.21481472,0.9996064261530673,-176.69086232280233
7.21810688,0.999642099115558,-176.87579755452757
7.22139904,0.9996998023411009,-177.06134147508502
7.2246912,0.9997761080151509,-177.24785264211872
7.22798336,0.9998662663578609,-177.43550547108944
7.23127552,0.9999647079229833,-177.6245146715003
7.23456768,1.0000654818418386,-177.8149437023295
7.23785984,1.0001622479650367,-178.00674424680668
7.241152512,1.0002490274535643,-178.19984973676515
7.244444672,1.0003204786087132,-178.3940858873719
7.247736832,1.0003721648822905,-178.58916333482827
7.251028992,1.0004009388362216,-178.78483179057127
7.254321152,1.0004049559762256,-178.98067588708793
7.257613312,1.000383972526921,-179.17639048385857
7.260905472,1.000339230577525,-179.37161478809642
7.264197632,1.0002736619826078,-179.56606867252597
7.267489792,1.000190850692071,-179.75940633331345
7.270781952,1.0000963228456927,-179.95142797719868
7.274074112,0.9999956821914466,179.85795309098924
7.277366272,0.9998952945918147,179.66876250391496
7.280658432,0.9998012864330362,179.48100809297446
7.283950592,0.9997193978434994,179.29455775655677
7.287242752,0.9996547782845323,179.1091614926907
7.290534912,0.9996113788585,178.9245874110177
7.293827072,0.9995920036492759,178.74047306460668
7.297119232,0.9995977419842124,178.5564781228927
7.300411392,0.999628340378614,178.3722417422382
7.303703552,0.9996820006760068,178.1874337700533
