freq,mag,phase
6.0,0.9998554811869174,136.70300729812928
6.002285056,1.0000041126316508,136.5574289445792
6.004570112,1.0001528256067056,136.40972287085432
6.006855168,1.0002919563473998,136.25998619948942
6.009140224,1.0004130829841407,136.10840764402727
6.01142528,1.0005082653850106,135.9553413648183
6.013710336,1.000571825843727,135.80117056736367
6.015995392,1.0005993381591818,135.6463581932013
6.018280448,1.0005892130712337,135.4914761742081
6.020565504,1.0005421978157092,135.33710904505267
6.02285056,1.0004608988257793,135.18366057800912
6.025135616,1.0003505028195672,135.03170776590338
6.027420672,1.0002181233724614,134.88153697065397
6.029705728,1.0000720893346022,134.73341547235228
6.031990784,0.999921411605764,134.5875268448111
6.03427584,0.9997758259070255,134.44384081921302
6.036560896,0.9996443842141294,134.30222357200654
6.038845952,0.999535563928449,134.16242738605914
6.041131008,0.999456243034483,134.02407210457724
6.043416064,0.9994115236104137,133.88662193655074
6.04570112,0.9994042369483764,133.74965911769766
6.047986176,0.9994348924830407,133.6125440631847
6.050271232,0.9995016288482771,133.4748005391098
6.052556288,0.9996001023565978,133.33593516242482
6.054841344,0.9997241473362598,133.1954708089707
6.0571264,0.999866119012003,133.0531466042585
6.059411456,1.0000169651715942,132.90873324540803
6.061696512,1.000167125742423,132.76218847886466
6.063981568,1.00030695110673,132.61360432210827
6.066266624,1.0004277955352279,132.46317089418562
6.06855168,1.0005216812596218,132.31124860535823
6.070836736,1.0005830578319537,132.15823831916973
6.073121792,1.0006077275137246,132.00463805795172
6.075406848,1.0005943683278087,131.8510152050174
6.077691904,1.0005434852590307,131.69790157537113
6.07997696,1.0004584426355774,131.54582519107328
6.082262016,1.0003443809169335,131.395262789355
6.084547072,1.0002086492345916,131.24653396550755
6.086832128,1.0000596956783794,131.09995073642477
6.089117184,0.9999070417360327,130.95560266019038
6.09140224,0.9997604657557357,130.81344083645465
6.093687296,0.9996288921985539,130.67340607690318
6.095972352,0.9995210523955751,130.53516205331087
6.098257408,0.9994435459164533,130.39828201476695
6.100542464,0.9994013036161061,130.2623778725236
6.10282752,0.9993972021083375,130.12684021528491
6.105112576,0.9994316524486344,129.99113551316182
6.107397632,0.9995021403791826,129.85471013644008
6.1096832,0.9996045170932185,129.7171360588313
6.111968256,0.9997323397273121,129.5779049323682
6.114253312,0.9998773903869894,129.4367302580631
6.116538368,1.0000305403073255,129.29348557948867
6.118823424,1.0001822133255753,129.14804385018368
6.12110848,1.0003225459655356,129.00055943659817
6.123393536,1.000442676272416,128.85119907859948
6.125678592,1.0005354492922522,128.70034607969737
6.127963648,1.0005944206544117,128.54845687440732
6.130248704,1.0006161388110884,128.39603556763916
6.13253376,1.000599137663534,128.2436247602256
6.134818816,1.0005443959939682,128.0917862320059
6.137103872,1.0004552481542957,127.94102461509415
6.139388928,1.0003374610619524,127.79179954176021
6.141673984,1.0001983013978648,127.64451326572207
6.14395904,1.0000467834691622,127.49935519218899
6.146244096,0.9998920806354149,127.35651204907639
6.148529152,0.9997444387226408,127.21587509303343
6.150814208,0.9996129356797392,127.07735865238682
6.153099264,0.99950603064306,126.94060592488616
6.15538432,0.9994304942519776,126.80523287221801
6.157669376,0.9993911902391729,126.67076410587929
6.159954432,0.9993906513076148,126.53663764598743
6.162239488,0.9994286269749681,126.4023167299744
6.164524544,0.9995033694563681,126.26720415115099
6.1668096,0.9996097724239786,126.13081294572635
6.169094656,0.9997410854306569,125.99273834702308
6.171379712,0.9998893498051104,125.85273904793725
6.173664768,1.0000447449037841,125.71053458481003
6.175949824,1.00019761041548,125.5661705694676
6.17823488,1.0003385181894349,125.41969410772022
6.180519936,1.0004582602175645,125.27137161822446
6.182804992,1.000549278273618,125.12159568052405
6.185090048,1.000605843360478,124.97079026974959
6.187375104,1.0006243653285782,124.81947432247122
6.18966016,1.0006035847133814,124.66820933021398
6.191945216,1.000544660449237,124.51759747289579
6.194230272,1.0004514749176976,124.36812254013317
6.196515328,1.0003297142154204,124.22021796544593
6.198800384,1.0001871996681968,124.07430126440605
6.20108544,1.0000328402288612,123.93060630516047
6.203370496,0.9998763784793505,123.78920756837462
6.205655552,0.9997279797719681,123.65006209929568
6.207940608,0.999596603740648,123.5130272046069
6.210225664,0.9994908454892608,123.37775063447796
6.21251072,0.9994175342677474,123.24383057781162
6.214795776,0.9993810736689871,123.11076191088644
6.217080832,0.9993841305060672,122.9779749205776
6.219365888,0.9994264618198156,122.84494325253283
6.221650944,0.999505240171423,122.71106020890264
6.223936,0.9996156683314121,122.57587481937445
6.226221056,0.9997508452971836,122.43892835032965
6.228506112,0.9999019835403938,122.29995121421385
6.230791168,1.0000598341131068,122.15880870152851
6.233076224,1.000214178032151,122.01540482239771
6.23536128,1.0003552412758754,121.86994824923366
6.237646336,1.0004742624387664,121.72260864642644
6.239931392,1.0005634419403422,121.57381178487678
6.242216448,1.0006172921575631,121.42401876748822
6.244501504,1.0006323670298274,121.27378879141648
6.24678656,1.0006076712219794,121.12365025931994
6.249071616,1.0005446157592912,120.97420412826494
6.251356672,1.0004471004202224,120.82597554072623
6.253641728,1.0003214335080826,120.67937952162609
6.255926784,1.0001754756039114,120.53483191235112
6.25821184,1.0000184781299202,120.39251845609785
6.260496896,0.9998601444854315,120.2525353927513
6.262781952,0.9997108291083937,120.11483224031623
6.265067008,0.9995797441153506,119.97922886495054
6.267352064,0.9994754952778746,119.84538978802124
6.26963712,0.9994044337339051,119.71289621204293
6.271922176,0.999371244390447,119.5811708152789
6.274207232,0.999378085956816,119.44967821757461
6.276492288,0.999424645656626,119.31788811738053
6.278777344,0.9995076925744036,119.18520005988067
6.2810624,0.9996223924398351,119.05112504201456
6.283347456,0.9997612461557194,118.91524717323715
6.285632512,0.9999156023515077,118.77728874770149
6.287917568,1.0000756061486724,118.6370924693374
6.290202624,1.0002311824708798,118.49463364969164
6.29248768,1.000372482658716,118.35008454485201
6.294772736,1.0004905437414,118.20370153149752
6.297057792,1.000577737352629,118.05586151457887
6.299342848,1.0006287225872335,117.90705234514269
6.301627904,1.0006402770659502,117.75785184888552
6.30391296,1.0006112515708057,117.60877238595613
6.306198016,1.000543736282972,117.4604783896097
6.308483072,1.0004420517493575,117.31342796967593
6.310768128,1.0003123523684039,117.16813908500308
6.313053184,1.0001628936674478,117.02489157782159
6.31533824,1.000003186077421,116.88392122436382
6.317623296,0.9998431885527242,116.74532741606372
6.319908352,0.9996931388442355,116.60904261405446
6.322193408,0.9995626021327244,116.47484890389411
6.324478976,0.9994598069850655,116.34239695775099
6.326764032,0.9993912700547729,116.21121246522796
6.329049088,0.9993614256805352,116.08083537772443
6.331334144,0.9993723331662132,115.95065187218182
6.3336192,0.9994232497532766,115.82002713286994
6.335904256,0.9995108588789391,115.68846440006385
6.338189312,0.9996297255443486,115.5554235548823
6.340474368,0.9997724088379186,115.42056288658254
6.342759424,0.9999297739473586,115.28355622762916
6.34504448,1.000091983842411,115.14426110697696
6.347329536,1.0002487693208135,115.00271533078147
6.349614592,1.0003900700679536,114.85903359686566
6.351899648,1.000507047450411,114.713494812111
6.354184704,1.0005922491235513,114.56655994535225
6.35646976,1.000640055532861,114.4186953016078
6.358754816,1.000647683134187,114.27046030884641
6.361039872,1.0006144449076297,114.12245153510331
6.363324928,1.0005424555089315,113.97524524072021
6.365609984,1.0004361954753456,113.82938473599647
6.36789504,1.0003023159973476,113.68529609428923
6.370180096,1.0001494703712543,113.54331513697392
6.372465152,0.9999869846673651,113.40366459087565
6.374750208,0.9998254124097135,113.26644689271183
6.377035264,0.9996748303538121,113.13152550800044
6.37932032,0.9995448087439897,112.99867088411774
6.381605376,0.9994438253361778,112.86757446618846
6.383890432,0.9993780836945704,112.73772835962434
6.386175488,0.9993519449427174,112.60858467320293
6.388460544,0.999366988556562,112.47958427439504
6.3907456,0.9994223515577132,112.350121356757
6.393030656,0.9995147148533409,112.21962012945774
6.395315712,0.9996378407963276,112.08761407848608
6.397600768,0.9997845424664048,111.95367968662698
6.399885824,0.9999450063558886,111.81757339347416
6.40217088,1.0001094062251248,111.67912141929287
6.404455936,1.0002671341705627,111.53838887697076
6.406740992,1.0004083179730563,111.39552442772164
6.409026048,1.0005240484307545,111.25080630887356
6.411311104,1.0006066970948233,111.10472292429499
6.41359616,1.0006512441933721,110.95774064909716
6.415881216,1.0006549053348548,110.81045097148238
6.418166272,1.000617229863071,110.66342732861773
6.420451328,1.000540518821756,110.51730021588774
6.422736384,1.000429669077104,110.37253132533247
6.42502144,1.0002916432681912,110.22963312671715
6.427306496,1.000135148006527,110.08892251734125
6.429591552,0.9999701947365385,109.95055555253813
6.431876608,0.999807024872499,109.81464358082854
6.434161664,0.9996559925900076,109.68103987896873
6.43644672,0.999526873837174,109.5495357307027
6.438731776,0.9994277778268973,109.41974255018222
6.441016832,0.9993650069812794,109.2911447950872
6.443301888,0.9993425850459648,109.16324613084691
6.445586944,0.9993621001109202,109.03540661652832
6.447872,0.9994221270650161,108.9070248062997
6.450157056,0.9995190981458558,108.77754598570392
6.452442112,0.9996469093505903,108.64647019560562
6.454727168,0.9997974034053271,108.51342402889289
6.457012224,0.9999609032754565,108.37810354229254
6.45929728,1.000127431676671,108.24047626494017
6.461582336,1.000286024331102,108.10049421702914
6.463867392,1.0004269017923815,107.95840977554549
6.466152448,1.0005411694294954,107.81446668086377
6.468437504,1.0006213672989115,107.66916812612138
6.47072256,1.000662478426535,107.52302932739315
6.473007616,1.000661858415483,107.37663605076497
6.475292672,1.0006194689633023,107.23055458125259
6.477577728,1.0005378549956347,107.08546827900284
6.479862784,1.0004224233537278,106.94180335722751
6.48214784,1.0002801943637099,106.80002641813394
6.484432896,1.0001201540513966,106.66052369831993
6.486717952,0.9999525960597786,106.52342327631321
6.489003008,0.9997878206862626,106.38879114960557
6.491288064,0.9996366283270484,106.25650549970513
6.49357312,0.9995084412463685,106.12624571969131
6.495858176,0.9994115255869768,105.997701474841
6.498143232,0.9993519285034898,105.87035820544574
6.500428288,0.9993335183306485,105.74359683358747
6.502713344,0.999357504030302,105.61685665099714
6.5049984,0.9994225414940731,105.48949189404402
6.507283456,0.9995243467729164,105.36096983616953
6.509568512,0.9996565987087559,105.2308032626751
6.511853568,0.9998110173633402,105.09856731960916
6.514138624,0.999977650754844,104.96402791124552
6.51642368,1.0001461586479257,104.82713257915248
6.518708736,1.0003055866122628,104.68786091108572
6.520993792,1.0004461462876462,104.54646881721278
6.523278848,1.0005585842532454,104.40323831484044
6.525563904,1.000636041548442,104.25867685941053
6.52784896,1.0006733467752669,104.11334191339911
6.530134016,1.0006683049508052,103.96778861413513
6.532419072,1.0006210599601368,103.82263826689268
6.534704128,1.000534516116061,103.67852419959952
6.536989184,1.0004142671396254,103.5358878368513
6.53927424,1.000267732611578,103.39527822600556
6.541559808,1.000104228033078,103.25692862098713
6.543844864,0.9999340581205686,103.12104405842497
6.54612992,0.9997681398048068,102.98766054338753
6.548414976,0.9996168066062889,102.85658145875166
6.550700032,0.9994897521680615,102.72759878165063
6.552985088,0.9993951637049597,102.60026986675182
6.555270144,0.9993389101188708,102.47407414867362
6.5575552,0.9993247018841173,102.34845009493012
6.559840256,0.9993535414637328,102.22272747532145
6.562125312,0.9994235410591307,102.09636515548364
6.564410368,0.9995303627986645,101.96872900211865
6.566695424,0.9996672190272613,101.83936826565605
6.56898048,0.9998255685572071,101.70791282455302
6.571265536,0.9999952926177298,101.57410801969382
6.573550592,1.0001654848355697,101.43787097655907
6.575835648,1.0003257343957934,101.29926674859452
6.578120704,1.0004655436274805,101.15847187817724
6.58040576,1.0005761918366458,101.01595465728494
6.582690816,1.000650623065068,100.87210044379928
6.584975872,1.000684078833161,100.72747282560609
6.587260928,1.0006743624727312,100.58274181626554
6.589545984,1.0006220295851214,100.4384702877346
6.59183104,1.0005304378704365,100.29527727586542
6.594116096,1.000405281855883,100.15369493802523
6.596401152,1.0002544726158993,100.01414403526663
6.598686208,1.000087424062445,99.87693069932638
6.600971264,0.9999149631252483,99.74222850369253
6.60325632,0.9997477638608999,99.610009700818
6.605541376,0.9995964045965456,99.48017444240789
6.607826432,0.9994708021358057,99.35239053053122
6.610111488,0.9993787365369337,99.22623837239334
6.612396544,0.999326033239423,99.10116126412801
6.6146816,0.999316296382095,98.97657754651622
6.616966656,0.9993500695495114,98.85187999504667
6.619251712,0.9994252394394475,98.7264029683937
6.621536768,0.999537183565073,98.59963233592889
6.623821824,0.9996788212114327,98.47102541818528
6.62610688,0.9998410339797693,98.34026492592413
6.628391936,1.0000136376470115,98.20711010215443
6.630676992,1.0001856958853537,98.07145516452597
6.632962048,1.0003463873051102,97.93342382324005
6.635247104,1.0004853879261804,97.79327250119678
6.63753216,1.0005939901697798,97.65134194448886
6.639817216,1.0006652099652578,97.5081398780536
6.642102272,1.0006945233588815,97.364206578726
6.644387328,1.000680034850746,97.22025141025757
6.646672384,1.000622526209789,97.07683497805922
6.64895744,1.0005256623665808,96.93450937773498
6.651242496,1.0003955569373986,96.79392746732763
6.653527552,1.0002404366849824,96.65542414305193
6.655812608,1.0000698971404094,96.51930091808615
6.658097664,0.9998949167652862,96.38573689437588
6.66038272,0.9997266270054761,96.2546963180667
6.662667776,0.9995755317438425,96.1260320946655
6.664952832,0.9994515019520839,95.99940489660567
6.667237888,0.9993621434629558,95.87435457266001
6.669522944,0.9993134233079201,95.75037026498194
6.671808,0.999308244963514,95.62678765373327
6.674093056,0.9993471586986457,95.5030152145129
6.676378112,0.9994276272127214,95.37842232540672
6.678663168,0.9995448663839714,95.25240868012474
6.680948224,0.9996910859750741,95.12453209359708
6.68323328,0.9998572722600656,94.99439928695932
6.685518336,1.0000327022654298,94.86182622835351
6.687803392,1.0002065796783708,94.72675500517771
6.690088448,1.0003675121251672,94.58928264820199
6.692373504,1.0005056559208358,94.44963521006417
6.69465856,1.0006119189374643,94.3082664086865
6.696943616,1.0006796179371593,94.16565108105641
6.699228672,1.0007046801112043,94.02240842534415
6.701513728,1.0006851004705521,93.87912644146301
6.703798784,1.00062224575699,93.73650676887415
6.70608384,1.0005199706062518,93.59507384247988
6.708368896,1.0003848582301018,93.45542387674877
6.710653952,1.0002252843604185,93.31790427631822
6.712939008,1.0000514922869486,93.18288098505707
6.715224064,0.999874334507073,93.05041426220875
6.71750912,0.9997049517036934,92.9204965948031
6.719794176,0.9995543556982603,92.7929665269455
6.722079232,0.9994319848994467,92.6674561244688
6.724364288,0.9993457468040129,92.54347220511309
6.726649344,0.9993009431019194,92.42052622894688
6.7289344,0.9993007641351305,92.29790525374395
6.731219456,0.9993449381288075,92.1750011080265
6.733504512,0.9994310182214329,92.05120408845188
6.735789568,0.9995533800658658,91.92591894136646
6.738074624,0.9997044611611191,91.79864922054078
6.74035968,0.999874396592385,91.6691328430058
6.742644736,1.000052940423632,91.53708093972632
6.744929792,1.000228286134727,91.4024702296911
6.747214848,1.000389429456795,91.26546924230773
6.749499904,1.0005262798971875,91.12636240716832
6.75178496,1.00063008485791,90.98546389574187
6.754070016,1.0006942113324686,90.843411109605
6.756355072,1.0007145285549113,90.70078614924613
6.75864064,1.0006897880610712,90.5581917630188
6.760925696,1.000621385954427,90.41630109017046
6.763210752,1.0005136948954074,90.27572836389105
6.765495808,1.00037347953177,90.13695453135286
6.767780864,1.0002094507520518,90.00044605911279
6.77006592,1.0000322818591205,89.8664167901819
6.772350976,0.9998528566147725,89.73505665381074
6.774636032,0.9996827926996444,89.60620127864216
6.776921088,0.9995327157441187,89.47975864817089
6.779206144,0.9994123271505174,89.35528957971658
6.7814912,0.999329186512253,89.23239170642432
6.783776256,0.9992887938591152,89.11036195144281
6.786061312,0.9992935398017628,88.98868331711743
6.788346368,0.9993433514827461,88.86660333582613
6.790631424,0.9994350490889222,88.74352742258542
6.79291648,0.999562838554063,88.61891281424359
6.795201536,0.9997186057062352,88.49225895264736
6.797486592,0.9998925673660517,88.36322431142867
6.799771648,1.000073709019566,88.23164488304388
6.802056704,1.0002504915725245,88.09748953846142
6.80434176,1.0004117541752737,87.96089873033208
6.806626816,1.0005470937015146,87.82218630408374
6.808911872,1.0006481181945517,87.68178368104117
6.811196928,1.0007084249149254,87.54023305917978
6.813481984,1.00072394502605,87.39817213013417
6.81576704,1.000693688191596,87.25620353983895
6.818052096,1.000619629771368,87.1150332974872
6.820337152,1.0005064235821057,86.97524383516183
6.822622208,1.0003610024720357,86.83736845186692
6.824907264,1.000192634939641,86.70179073801535
6.82719232,1.000012106871069,86.5687619087048
6.829477376,0.9998306177596356,86.43840048090594
6.831762432,0.9996598623795697,86.31064486096481
6.834047488,0.9995107072194397,86.18524074064337
6.836332544,0.9993924763758305,86.0618177115094
6.8386176,0.9993129003663247,85.93984926027072
6.840902656,0.999276860785392,85.81876692742351
6.843187712,0.9992869054196929,85.69793518800563
6.845472768,0.9993424068494412,85.57661777560998
6.847757824,0.99943986954674,85.4542426033862
6.85004288,0.9995730107032742,85.3301971416005
6.852327936,0.99973372817122,85.2040714139868
6.854612992,0.9999114829597854,85.07548626794174
6.856898048,1.0000952881717446,84.94431256050748
6.859183104,1.0002733770671757,84.81054719712685
6.86146816,1.0004344119201012,84.67432607096195
6.863753216,1.0005682475420845,84.53598659162874
6.866038272,1.0006664195845416,84.39600173989655
6.868323328,1.0007224870660762,84.25490441461011
6.870608384,1.0007329497910955,84.11333649246477
6.87289344,1.0006971538698297,83.97199110334657
6.875178496,1.000617234445984,83.83151214758117
6.877463552,1.0004982907671724,83.6924739962347
6.879748608,1.0003476213741898,83.55541520286678
6.882033664,1.0001749349230393,83.4207705366529
6.88431872,0.9999911104089407,83.28869933507012
6.886603776,0.9998078061188878,83.15932916610437
6.888888832,0.9996366156548574,83.03256419715318
6.891173888,0.99948838263181,82.90817156922168
6.893458944,0.999372609914095,82.78573304716942
6.895744,0.9992966204592612,82.66471116676584
6.898029056,0.999265458322352,82.54449998045112
6.900314112,0.9992808648050305,82.4244551481788
6.902599168,0.9993422745447708,82.3038550331641
6.904884224,0.9994456065195296,82.18208399590817
6.90716928,0.9995843217901585,82.05860885072892
6.909454336,0.9997498267786291,81.9329307606029
6.911739392,0.9999314364978449,81.80476478312688
6.914024448,1.0001178600729475,81.67391291015825
6.916309504,1.0002970037263945,81.5404723212022
6.91859456,1.0004576997489345,81.40456752582858
6.920879616,1.000589622970971,81.26653648927918
6.923164672,1.0006844880751482,81.126916967236
6.925449728,1.0007362530487278,80.98622721891026
6.927734784,1.0007415195940579,80.84514770052068
6.93001984,1.0006998409935721,80.7043604220608
