freq,mag,phase
6.0,1.0003559880956365,-160.22588412715967
6.002285568,1.000252995609095,-160.37422528340542
6.004571648,1.0001340773526315,-160.52093677136278
6.006857216,1.0000067112866269,-160.66586229952273
6.009142784,0.9998792183536378,-160.80895776186497
6.011428352,0.9997595565846816,-160.95022309857856
6.013714432,0.9996553077839098,-161.089864768909
6.016,0.9995731106035255,-161.22818691030193
6.018285568,0.9995183208431263,-161.36546075040985
6.020571648,0.9994943584267029,-161.5021653288468
6.022857216,0.9995026029605278,-161.63873218175988
6.025142784,0.9995427888517737,-161.7756945695844
6.027428352,0.9996122986203667,-161.91339808378152
6.029714432,0.999706587681689,-162.0523304263717
6.032,0.9998199104849805,-162.1927641015323
6.034285568,0.9999447961800687,-162.33492248378508
6.036571648,1.00007355851971,-162.47892091318522
6.038857216,1.0001979936592167,-162.6247495343913
6.041142784,1.000310055210798,-162.7723400091155
6.043428352,1.0004028511578544,-162.92136552000542
6.045714432,1.0004703480359702,-163.07158925195793
6.048,1.000508248028866,-163.222546980422
6.050285568,1.0005140991915937,-163.37386025038603
6.052571648,1.0004877120609637,-163.52500130408728
6.054857216,1.0004306288233755,-163.67554608455546
6.057142784,1.0003464176040098,-163.82505818367312
6.059428352,1.0002403819306955,-163.97318190417053
6.061714432,1.0001192863566297,-164.11966277336884
6.064,0.9999908774926725,-164.26428519679692
6.066285568,0.9998632400776016,-164.4071078471857
6.068571648,0.9997443755651203,-164.54808927134175
6.070857216,0.999642061677577,-164.68748819490008
6.073142784,0.9995626165160685,-164.8255251383712
6.075428352,0.9995110325255547,-164.96260326411226
6.077714432,0.9994908514804959,-165.09918486946214
6.08,0.9995032650539908,-165.2356955111655
6.082285568,0.9995473601003915,-165.37260521198783
6.084571648,0.9996205289749572,-165.51035455156537
6.086857216,0.9997180254065808,-165.64937135044119
6.089142784,0.9998336954442066,-165.78989247350475
6.091428352,0.9999602605017728,-165.93222837600726
6.093714432,1.0000895998628425,-166.07639039336433
6.096,1.000213637469506,-166.22238542513512
6.098285568,1.0003243633956147,-166.37010923077236
6.100571648,1.000414717671337,-166.51927570016886
6.102857216,1.0004791405328475,-166.66956906210945
6.105142784,1.0005134297202654,-166.82058574832766
6.107428352,1.0005154108713534,-166.97187401141403
6.109714432,1.0004849386877122,-167.12292892200696
6.112,1.000423941588746,-167.27331562154893
6.114285568,1.0003362805267226,-167.42262973601785
6.116571648,1.0002274249151355,-167.57051872430478
6.118857216,1.0001044006407183,-167.71671391554185
6.121142784,0.9999748682053634,-167.86106935258385
6.123428352,0.9998472158191314,-168.00356054109037
6.125714432,0.9997294413512686,-168.1442476749441
6.128,0.9996289690341473,-168.28334872293777
6.130285568,0.9995522826109132,-168.42116469781547
6.132571648,0.9995041944125944,-168.55806823557216
6.134857216,0.9994878039514745,-168.69446839704804
6.137142784,0.9995042422401244,-168.83088803250558
6.139428352,0.9995524365254754,-168.96777326102588
6.141714432,0.9996292819522521,-169.1055656515094
6.144,0.9997299364593306,-169.24463285547017
6.146285568,0.9998479189769545,-169.38529100879762
6.148571648,0.9999759827502605,-169.527738895425
6.150857216,1.0001058509776644,-169.6720579002473
6.153142784,1.0002292097880208,-169.8182165156472
6.155428352,1.0003384052300954,-169.96607185453368
6.157714432,1.0004263918046734,-170.11533791725444
6.16,1.0004875868704541,-170.2657126166737
6.162285568,1.0005182058886377,-170.416740638624
6.164571648,1.000516030930109,-170.56794165543423
6.166857216,1.000481550163661,-170.71893643570792
6.169142784,1.0004166098010079,-170.86913727563532
6.171428352,1.0003256060284937,-171.01825999850266
6.173714432,1.000213994164488,-171.16589696610737
6.176,1.0000891556811096,-171.31179173339729
6.178285568,0.9999587723436179,-171.45582776932824
6.180571648,0.9998310680066824,-171.5980172560848
6.182857216,0.9997142791349937,-171.738388406046
6.185142784,0.9996160373996501,-171.8771867308902
6.187428352,0.9995421974360554,-172.01473391920993
6.189714432,0.9994977213983366,-172.15141789913008
6.192,0.9994852452750542,-172.28766928326547
6.194285568,0.9995057904851463,-172.42399667895074
6.196571648,0.9995579181906729,-172.56083821460075
6.198857216,0.9996384106656648,-172.69865519774552
6.201142784,0.9997421263857572,-172.83778282260369
6.203428352,0.9998625668861709,-172.97854714324563
6.205714432,0.9999919507973597,-173.121116527554
6.208,1.0001220984008756,-173.26558163135581
6.210285568,1.0002448459356337,-173.411890862674
6.212571648,1.0003524030331874,-173.5598660201993
6.214857216,1.000437750447548,-173.70922937890919
6.217142784,1.000495795455809,-173.85961348990472
6.219428352,1.0005224226678249,-174.0106403976553
6.221714432,1.0005163848689953,-174.16183282902722
6.224,1.000477745782035,-174.31266701991126
6.226285568,1.0004090081841732,-174.4627124619872
6.228571648,1.0003146328624921,-174.61157191340462
6.230857216,1.0002003533055013,-174.75893963145003
6.233142784,1.0000736534834762,-174.90453849155577
6.235428352,0.999942347033001,-175.04823294677124
6.237714432,0.9998150069451959,-175.19004375444283
6.24,0.9996995241366776,-175.33009235643198
6.242285568,0.9996033596774802,-175.46860774816705
6.244571648,0.999532409296825,-175.60589870313268
6.246857216,0.999491585548576,-175.74237918140187
6.249142784,0.9994831731704049,-175.87846790675724
6.251428352,0.9995078583558992,-176.01467766868123
6.253714432,0.9995639292674341,-176.15144874935083
6.256,0.9996480714005743,-176.2892792885339
6.258285568,0.9997547405494789,-176.42849167409042
6.260571648,0.9998773458322155,-176.56932475361222
6.262857216,1.0000080703049161,-176.71203719433322
6.265142784,1.0001385068828703,-176.85662425020442
6.267428352,1.000260463049612,-177.00305038980517
6.269714432,1.0003661734935818,-177.15113329922553
6.272,1.0004489589239933,-177.30057169807176
6.274285568,1.0005035057064926,-177.45100841246182
6.276571648,1.0005263732711165,-177.60196823666203
6.278857216,1.0005161231502389,-177.75306173319444
6.281142784,1.0004733644811332,-177.90375540116366
6.283428352,1.0004008669083304,-178.05362660417643
6.285714432,1.0003030085921987,-178.20221987730085
6.288,1.0001861982375015,-178.34926194012178
6.290285568,1.0000578361312376,-178.49454858112287
6.292571648,0.9999258753370447,-178.63789292237178
6.294857216,0.9997987968509373,-178.77936683451026
6.297142784,0.999684665588712,-178.91908078967094
6.299428352,0.9995908675853419,-179.05729778668857
6.301714432,0.9995229877337888,-179.194277904878
6.304,0.9994857729404637,-179.330519425923
6.306285568,0.9994814972956769,-179.46648140735226
6.308571648,0.9995103142634472,-179.60255908469696
6.310857216,0.9995704043994357,-179.73931053722387
6.313142784,0.999658201505309,-179.87711673884579
6.315428352,0.9997678807431032,179.9836242318704
6.317714432,0.9998924877966708,179.8426695835358
6.32,1.0000244475598614,179.69988363727566
6.322285568,1.0001549538065542,179.55517539065994
6.324571648,1.000275962497537,179.40862917632734
6.326857216,1.0003798032208226,179.2604660046911
6.329142784,1.0004598203857802,179.11097847095462
6.331428352,1.000510948970557,178.96053891541203
6.333714432,1.0005298154089588,178.80959619271738
6.336,1.0005154626338424,178.65860731596177
6.338285568,1.000468739272771,178.5080658078288
6.340571648,1.0003922567851526,178.35845340922452
6.342857216,1.0002911866145758,178.2100989892263
6.345142784,1.0001719128899982,178.0634023147148
6.347428352,1.0000417683814706,177.91847726798423
6.349714432,0.9999093145261042,177.77545089313372
6.352,0.9997826326127752,177.6343496405314
6.354285568,0.9996700790173805,177.49499881331397
6.356571648,0.9995785780250732,177.35712091106367
6.358857216,0.9995140612642552,177.2204040816743
6.361142784,0.9994805458281862,177.0844041766428
6.363428352,0.9994803282270937,176.94862032977377
6.365714432,0.9995133654649687,176.81265101246535
6.368,0.9995774679787478,176.6759819275909
6.370285568,0.9996687715305356,176.53818282671403
6.372571648,0.9997813294384608,176.3988820954056
6.374857216,0.999908090020193,176.25784128369204
6.377142784,1.0000408891522563,176.11493734474567
6.379428352,1.0001714732078228,175.9701359046788
6.381714432,1.0002914173125481,175.8234928568973
6.384,1.000393219573311,175.67526027358207
6.386285568,1.000470307299953,175.525717624571
6.388571648,1.0005178978184512,175.37527704918338
6.390857216,1.0005329116310415,175.22439925367533
6.393142784,1.0005143227819349,175.07355260757933
6.395428352,1.0004633887020866,174.92318092639994
6.397714432,1.0003831404412014,174.7738033595752
6.4,1.000278902695813,174.62576245849908
6.402285568,1.0001571273523613,174.47937399771848
6.404571648,1.0000255523969206,174.3348059588046
6.406857216,0.9998924883876068,174.1921968124811
6.409142784,0.9997664739129076,174.0514540463952
6.411428352,0.9996555166296724,173.9124633850835
6.413714432,0.9995666159317889,173.77493188141943
6.416,0.9995052669384259,173.63847604599178
6.418285568,0.9994757017715479,173.5027499100254
6.420571648,0.9994795415534954,173.3671579423003
6.422857216,0.9995167179381427,173.2313027498884
6.425142784,0.9995849512068568,173.09470020173288
6.427428352,0.9996797016930573,172.95689289425516
6.429714432,0.9997950958086298,172.8175719963956
6.432,0.9999238035558665,172.67648343338823
6.434285568,1.000057521108629,172.5334739281812
6.436571648,1.0001880078511571,172.3885520209924
6.438857216,1.0003068646456224,172.2418648543722
6.441142784,1.0004065042820174,172.09353261359752
6.443428352,1.0004806041438037,171.9439793122846
6.445714432,1.0005245135239,171.79357629749964
6.448,1.0005353691444987,171.64276695534926
6.450285568,1.0005126063455627,171.4920502791067
6.452571648,1.000457401883456,171.34189258588657
6.454857216,1.0003735462505976,171.19278849570063
6.457142784,1.0002661296392825,171.04503694106018
6.459428352,1.0001419847603086,170.8989886886601
6.461714432,1.0000091086848708,170.7548226216001
6.464,0.9998756774920736,170.6126085157225
6.466285568,0.9997503955108836,170.4722581218663
6.468571648,0.999641096601267,170.33364125230875
6.470857216,0.9995548166247276,170.1964434860392
6.473142784,0.9994969595046059,170.06033188352083
6.475428352,0.9994713716616473,169.92479407605302
6.477714432,0.9994794669910575,169.78942729683658
6.48,0.9995208630004049,169.65367282405413
6.482285568,0.9995930142660686,169.51714511740752
6.484571648,0.9996912084505432,169.37936135552957
6.486857216,0.9998093483603764,169.2400047527147
6.489142784,0.9999399067272781,169.0988546627356
6.491428352,1.0000744973878817,168.9557546185426
6.493714432,1.000204721035824,168.81076744352478
6.496,1.0003222730580277,168.66397390172168
6.498285568,1.000419596493121,168.51563005219236
6.500571648,1.000490587918359,168.36606141675458
6.502857216,1.0005308964222306,168.21567739997082
6.505142784,1.0005376140153983,168.064984863577
6.507428352,1.0005105400483283,167.91440792803016
6.509714432,1.0004512337450966,167.7645130875359
6.512,1.0003635229689196,167.61566279410266
6.514285568,1.0002530602344453,167.4682382985
6.516571648,1.000126641568457,167.3225649440186
6.518857216,0.9999922955944212,167.17880185263655
6.521142784,0.99985880610991,167.03697962705996
6.523428352,0.9997341969049163,166.89704932699792
6.525714432,0.9996268277293825,166.75879800417204
6.528,0.9995433279021556,166.62197109362845
6.530285568,0.9994889458345749,166.4861458111284
6.532571648,0.9994672940327213,166.3508852605124
6.534857216,0.9994796626114417,166.21571188053613
6.537142784,0.9995253812210558,166.08009518074863
6.539428352,0.9996014246727474,165.94359970728678
6.541714432,0.999703068363437,165.80584218736197
6.544,0.9998238503223006,165.66648291352783
6.546285568,0.9999561571862516,165.52527030208873
6.548571648,1.0000915087217679,165.38210884393996
6.550857216,1.0002213368661463,165.2370289977027
6.553142784,1.000337460534093,165.09018482613268
6.555428352,1.0004323588539663,164.94178978287428
6.557714432,1.0005001345869446,164.79226230852728
6.56,1.000536548614814,164.64191324678566
6.562285568,1.0005390766290059,164.49132320502724
6.564571648,1.0005077287205317,164.3409487109522
6.566857216,1.0004442899650485,164.19128360917205
6.569142784,1.0003528861971382,164.04272084660687
6.571428352,1.0002393639680074,163.8956698086224
6.573714432,1.0001108077288945,163.75035933098644
6.576,0.9999752519433313,163.60703582272342
6.578285568,0.9998416442238692,163.46561052919452
6.580571648,0.9997181208749527,163.32612284831472
6.582857216,0.9996127980162143,163.18827737910152
6.585142784,0.9995321177369816,163.05177961180848
6.587428352,0.9994813638192763,162.91628484353834
6.589714432,0.9994637331672653,162.7812823398745
6.592,0.9994804688669702,162.64628192911294
6.594285568,0.9995303799326082,162.51079705417007
6.596571648,0.9996103836425863,162.37440332403798
6.598857216,0.9997154668035577,162.23665250982592
6.601142784,0.999838817048188,162.09726023817518
6.603428352,0.9999727559797477,161.95598974065555
6.605714432,1.0001086738448,161.81278123603337
6.608,1.0002380526321717,161.6676326460619
6.610285568,1.0003525546918635,161.52074357872186
6.612571648,1.0004449100387094,161.37234590103307
6.614857216,1.000509397790817,161.22279150031713
6.617142784,1.0005418283704113,161.0725409942874
6.619428352,1.0005401904208484,160.92209522905222
6.621714432,1.0005044559497265,160.7719030269275
6.624,1.0004368495746654,160.622516410387
6.626285568,1.0003419299013467,160.47427948277283
6.628571648,1.0002253675550083,160.3275743177637
6.630857216,1.000094675100503,160.18268459560554
6.633142784,0.999958191766025,160.0397606912244
6.635428352,0.999824417300584,159.89879999456255
6.637714432,0.9997021148540215,159.75967553579773
6.64,0.9995987952743166,159.62225617074736
6.642285568,0.9995211573981916,159.4861432314768
6.644571648,0.9994741054404976,159.350963262088
6.646857216,0.9994607098141399,159.2161888540932
6.649142784,0.999481773579856,159.08142727170875
6.651428352,0.9995360160102511,158.9460832110451
6.653714432,0.9996199231241533,158.80975455011227
6.656,0.9997283106442847,158.67202978559516
6.658285568,0.9998542422635576,158.53262997710738
6.660571648,0.999989640533403,158.3913337085096
6.662857216,1.0001258960757435,158.24802523501526
6.665142784,1.00025462669824,158.10283880585442
6.667428352,1.0003673972124159,157.95589915868862
6.669714432,1.000457361705881,157.8074795187752
6.672,1.0005183916136597,157.65797555646859
6.674285568,1.0005468353568703,157.50781903272002
6.676571648,1.000540742420961,157.3575317295076
6.678857216,1.0005006551480897,157.20756320215798
6.681142784,1.000428981893518,157.05842366097048
6.683428352,1.0003304679396472,156.9105248001796
6.685714432,1.0002108336882318,156.76421069967384
6.688,1.0000782289002035,156.619740195531
6.690285568,0.9999407346352188,156.4772350234909
6.692571648,0.999807295163024,156.3367320051248
6.694857216,0.9996860793352882,156.19806871967594
6.697142784,0.9995850021465362,156.0610481498372
6.699428352,0.9995104647155313,155.92531611033152
6.701714432,0.9994673320487869,155.79043364851364
6.704,0.9994581406504087,155.65596193072903
6.706285568,0.9994835230525732,155.52137425198117
6.708571648,0.9995419823308422,155.3861838025113
6.710857216,0.9996298885431075,155.24992553173794
6.713142784,0.999741431363781,155.1122251593411
6.715428352,0.999869850167539,154.97281406313044
6.717714432,1.0000067934839705,154.83145144283418
6.72,1.000143468622679,154.68811864309282
6.722285568,1.0002713799866574,154.54290004527397
6.724571648,1.0003823733415114,154.39589594978355
6.726857216,1.000469354460688,154.2475060614264
6.729142784,1.0005268104583895,154.09805567654644
6.731428352,1.000551217556175,153.94800738475286
6.733714432,1.0005409183378282,153.79787261752745
6.736,1.0004964247740784,153.64813836857027
6.738285568,1.000420517702311,153.49929649122035
6.740571648,1.0003183825113877,153.35174633857577
6.742857216,1.000196055394599,153.20584663780218
6.745142784,1.0000615289509809,153.06178518550928
6.747428352,0.9999231659010709,152.91974727333476
6.749714432,0.9997899302291857,152.77970361614265
6.752,0.9996702571951673,152.6414813509854
6.754285568,0.9995715339393632,152.5048683592673
6.756571648,0.9995002336017462,152.3695101553547
6.758857216,0.9994608277388863,152.23497202970074
6.761142784,0.9994561225605587,152.10076872349052
6.763428352,0.9994860381344478,151.9663723073453
6.765714432,0.9995487536911565,151.8313131010713
6.768,0.9996403814432908,151.69516889224448
6.770285568,0.9997552679732052,151.55748774972975
6.772571648,0.9998859046925447,151.41807552060848
6.774857216,1.0000240941970473,151.27666069860973
6.777142784,1.0001611071204355,151.13330375210694
6.779428352,1.0002880275020811,150.98801529951717
6.781714432,1.0003971096704765,150.84100996255472
6.784,1.0004811440572332,150.6926274227645
6.786285568,1.000534962822234,150.54322559049047
6.788571648,1.0005551298566973,150.39333715638813
6.790857216,1.000540329334713,150.24336660843872
6.793142784,1.0004914911433913,150.09387674287083
6.795428352,1.0004115136542029,149.94532818487215
6.797714432,1.0003058319832336,149.79815641647357
6.8,1.0001807983188387,149.6526558613228
6.802285568,1.000044442950563,149.50906448149019
6.804571648,0.9999054567533301,149.36747032511997
6.806857216,0.9997724845314099,149.22790973025587
6.809142784,0.9996543069544152,149.0901379964584
6.811428352,0.9995581943587502,148.9539571537623
6.813714432,0.9994902691580798,148.81898814677413
6.816,0.9994549183943063,148.68476819882318
6.818285568,0.9994545127986215,148.55082338082522
6.820571648,0.9994888929042912,148.4166371662297
6.822857216,0.9995558979409446,148.281743621403
6.825142784,0.9996514406963473,148.14564069242707
6.827428352,0.9997694857186569,148.00801747525506
6.829714432,0.9999024407698682,147.86857868109084
6.832,1.0000416694551624,147.7271630569465
6.834285568,1.0001787571953689,147.58375307123214
6.836571648,1.0003046313311923,147.43841135172406
6.838857216,1.000411517102167,147.291413457258
6.841142784,1.0004926058182833,147.14304715776487
6.843428352,1.0005428405804777,146.99375647669416
6.845714432,1.0005586034031269,146.84397369933765
6.848,1.000539265086568,146.6942156120002
6.850285568,1.000485902542283,146.54499723610255
6.852571648,1.0004020252892805,146.39677075950564
6.854857216,1.000292796749978,146.24995868506034
6.857142784,1.0001650953130505,146.1049077869362
6.859428352,1.0000270831931233,145.96176987560062
6.861714432,0.9998874008401383,145.8206593457968
6.864,0.9997551795595531,145.68155006722037
6.866285568,0.9996385707497067,145.54426199370354
6.868571648,0.9995451604352023,145.40851271773005
6.870857216,0.9994807344115942,145.27391279686134
6.873142784,0.9994493558748963,145.1400375427757
6.875428352,0.9994533278187114,145.00636993276026
6.877714432,0.9994922853894009,144.87237500870913
6.88,0.9995636191504039,144.73762403516295
6.882285568,0.9996629529339522,144.60162898513184
6.884571648,0.9997840882678773,144.4640233090975
6.886857216,0.9999190277907845,144.3245919802322
6.889142784,1.0000594521548865,144.18313866901372
6.891428352,1.0001963043470339,144.03967490827043
6.893714432,1.000321192393977,143.89434028198107
6.896,1.0004258088112794,143.7473244850798
6.898285568,1.000503677523824,143.59900091127395
6.900571648,1.0005499163626823,143.44977095494073
6.902857216,1.0005616034289,143.30016213647457
6.905142784,1.000537674164654,143.15061331276198
6.907428352,1.0004800064224832,143.0016675472209
6.909714432,1.000391992050688,142.85381505235077
6.912,1.0002791459808853,142.70740458084944
6.914285568,1.0001489769935141,142.56275827134723
6.916571648,1.000009327754872,142.42011244985113
6.918857216,0.9998693312208438,142.2795037437478
6.921142784,0.9997376882182674,142.14085541852813
6.923428352,0.9996229927862075,142.0040379920958
6.925714432,0.9995321651368504,141.8687241315603
6.928,0.9994714481340311,141.73452197711282
6.930285568,0.999444427400872,141.6009757133069
