freq,mag,phase
6.0,0.9998554931666246,-131.67781896005454
6.002287104,0.999951839915869,-131.8202586939461
6.004574208,1.000050567005577,-131.9641287649956
6.006861312,1.0001460222804557,-132.1093536681327
6.009147904,1.0002322172101152,-132.2558966395232
6.011435008,1.0003034949278666,-132.40361909258954
6.013722112,1.0003556949955608,-132.5521577388774
6.016009216,1.0003850458362564,-132.7013462992647
6.01829632,1.000390097224091,-132.8507143329514
6.020583424,1.0003702316548322,-133.0000139963698
6.022870016,1.0003267777851754,-133.14883000868696
6.02515712,1.000262561324044,-133.296801995874
6.027444224,1.000181592224176,-133.4437773716147
6.029731328,1.000088977965109,-133.58943593665109
6.032018432,0.999990697263623,-133.7336728323499
6.034305536,0.9998928802065683,-133.8765029791384
6.036592128,0.9998017910713765,-134.01792578167252
6.038879232,0.9997232676060009,-134.15812757094957
6.041166336,0.9996621352558955,-134.29725451515026
6.04345344,0.9996224932156107,-134.43565994663365
6.045740544,0.9996067357480345,-134.5736604654885
6.048027648,0.9996159215252138,-134.71155893013173
6.05031424,0.9996494257316861,-134.84981437436608
6.052601344,0.9997052274028143,-134.98866141490564
6.054888448,0.9997797083925268,-135.12848322631422
6.057175552,0.9998681166010388,-135.26941395471292
6.059462656,0.9999648963492704,-135.41170657299074
6.06174976,1.000063913560877,-135.555414582823
6.064036352,1.0001587784458656,-135.7005275821904
6.066323456,1.000243578442127,-135.84692748038333
6.06861056,1.0003127736256383,-135.9944028398074
6.070897664,1.0003621041951714,-136.14277557770365
6.073184768,1.0003885431666488,-136.29165621341537
6.075471872,1.000390130358717,-136.44075218063702
6.077758464,1.0003669066727403,-136.58966263154005
6.080045568,1.000320350763935,-136.7380540764555
6.082332672,1.0002534076349638,-136.88560846919833
6.084619776,1.0001701678714823,-137.03204204081717
6.08690688,1.0000761302080023,-137.17716912325682
6.089193984,0.9999771766724956,-137.3209108633435
6.091481088,0.999879645324857,-137.46319098620094
6.09376768,0.9997895641728466,-137.60408504207354
6.096054784,0.9997128119351005,-137.74372127199732
6.098341888,0.9996542249167992,-137.88240435083938
6.100628992,0.999617588962349,-138.0203381291222
6.102916096,0.9996051482704824,-138.1579278450442
6.1052032,0.9996177174460102,-138.29551474890044
6.107489792,0.9996545645201487,-138.43339916369914
6.109776896,0.9997132735351388,-138.5719944378156
6.112064,0.9997901920310265,-138.71156746517687
6.114351104,0.9998804185125807,-138.85232666097485
6.116638208,0.9999781836083389,-138.9944334244845
6.118925312,1.0000773290531073,-139.13795481710895
6.121211904,1.0001715256929395,-139.28288474430616
6.123499008,1.0002548513113076,-139.42908345681417
6.125786112,1.000321842566529,-139.57636661460458
6.128073216,1.0003683980010827,-139.7244643422461
6.13036032,1.0003915656091367,-139.87303328565702
6.132647424,1.0003897346942687,-140.02173704154376
6.134934016,1.0003631787612295,-140.17023983119233
6.13722112,1.000313428960691,-140.31818409261177
6.139508224,1.000243753372115,-140.46522559721328
6.141795328,1.0001585197783445,-140.61115215668303
6.144082432,1.0000630933899388,-140.75568702646234
6.146369536,0.9999636091371562,-140.89883904434373
6.148656128,0.9998663804426726,-141.04052493770993
6.150943232,0.9997774481405733,-141.1808343102973
6.153230336,0.9997026648783491,-141.31994462896517
6.15551744,0.9996467068896372,-141.4580842243837
6.157804544,0.9996131151125348,-141.59556942687823
6.160091648,0.9996040120887314,-141.73270035675796
6.162378752,0.9996200423341666,-141.86987660662294
6.164665344,0.9996600904341792,-142.00743724540047
6.166952448,0.999721781470334,-142.14574106197526
6.169239552,0.9998011330159196,-142.2850092571341
6.171526656,0.99989308952196,-142.42553673262907
6.17381376,0.9999917165033296,-142.5674210799436
6.176100864,1.0000908479127293,-142.71076514011776
6.178387456,1.0001842456201848,-142.85549564779814
6.18067456,1.000265950837123,-143.00143589342528
6.182961664,1.0003305469581685,-143.14842033102192
6.185248768,1.0003742653988492,-143.29620935906453
6.187535872,1.0003941061171548,-143.4444515165312
6.189822976,1.000388896872541,-143.59277112486686
6.192109568,1.0003589443154608,-143.74078205875782
6.194396672,1.0003061164918121,-143.88819572625022
6.196683776,1.0002338019642893,-144.034720188952
6.19897088,1.0001464748727762,-144.1800410018688
6.201257984,1.0000498774117828,-144.32400460981566
6.203545088,0.9999498990796686,-144.46652820159835
6.20583168,0.9998530992808098,-144.6076119386111
6.208118784,0.999765425780256,-144.7472901333373
6.210405888,0.9996927234744634,-144.88581067309127
6.212692992,0.9996394107837762,-145.023371882469
6.214980096,0.9996089317640815,-145.16031265753742
6.2172672,0.9996032386827004,-145.29700833808357
6.219553792,0.9996227711345854,-145.43372950433422
6.221840896,0.9996660727114375,-145.57092697064604
6.224128,0.9997307204062486,-145.70887915268742
6.226415104,0.9998123506088319,-145.84789979154337
6.228702208,0.999905874838519,-145.98816347465154
6.230989312,1.0000053801654427,-146.1297857986615
6.233275904,1.0001044139541242,-146.27286005293902
6.235563008,1.000196849789409,-146.41728999789768
6.237850112,1.0002767601368754,-146.56297069679704
6.240137216,1.00033904781159,-146.70970201912013
6.24242432,1.00037975873595,-146.85711500527333
6.244711424,1.0003962502370127,-147.00494737444848
6.246998528,1.000387613064657,-147.15279309435195
6.24928512,1.0003542007812507,-147.3003485977678
6.251572224,1.0002982697831355,-147.447235839705
6.253859328,1.0002233851009474,-147.59312940215005
6.256146432,1.000134117804739,-147.7378288811611
6.258433536,1.0000362870645594,-147.88111667912005
6.26072064,0.9999360181128427,-148.02298523544707
6.263007232,0.9998398258851878,-148.16338099221514
6.265294336,0.9997536349864451,-148.302430799496
6.26758144,0.9996830074236321,-148.44030080647366
6.269868544,0.9996325094971644,-148.57732246489468
6.272155648,0.9996052129380093,-148.71369486007106
6.274442752,0.9996029824431281,-148.84987188663277
6.276729344,0.9996258700010312,-148.98616163693313
6.279016448,0.9996726225927479,-149.12296892209093
6.281303552,0.9997400204099375,-149.26053435717506
6.283590656,0.9998239280717219,-149.39922648605688
6.28587776,0.9999189501581847,-149.5391811325841
6.288164864,1.0000191543643164,-149.6805379819792
6.290451456,1.0001180786947368,-149.8233385349358
6.29273856,1.0002094156506673,-149.96749083531998
6.295025664,1.0002874748358872,-150.1128369137773
6.297312768,1.0003472340210184,-150.25919392153943
6.299599872,1.0003848516104212,-150.40622529509014
6.301886976,1.0003979442395505,-150.55363034219775
6.304173568,1.0003858060302362,-150.70101680647022
6.306460672,1.0003490346661976,-150.8479918385415
6.308747776,1.0002899902982607,-150.9942613700848
6.31103488,1.0002125566923943,-151.13956397126083
6.313321984,1.00012140523784,-151.28358405664275
6.315609088,1.0000225531775018,-151.42619846116642
6.317896192,0.9999221243203725,-151.5673387212629
6.320182784,0.9998265817806277,-151.70705414019505
6.322469888,0.9997418726186181,-151.8454033131782
6.324756992,0.9996735274921195,-151.98262588240743
6.327044096,0.9996258920410634,-152.1190257272964
6.3293312,0.9996019198961303,-152.25484164274735
6.331618304,0.9996032054165062,-152.39047905989236
6.333904896,0.9996296032871248,-152.52627521504587
6.336192,0.9996795427002887,-152.66263498145702
6.338479104,0.9997497606982211,-152.79983144306928
6.340766208,0.9998358926000254,-152.93815555222182
6.343053312,0.999932408804895,-153.07780383487517
6.345340416,1.0000331186179052,-153.21882748366255
6.347627008,1.0001317616203045,-153.36131322115472
6.349914112,1.0002218764803048,-153.5051238541626
6.352201216,1.000297939498411,-153.65013043624808
6.35448832,1.0003550328324526,-153.79609572443212
6.356775424,1.000389585716075,-153.94271614751395
6.359062528,1.0003992238162815,-154.08961324967171
6.36134912,1.000383488610724,-154.2364573414871
6.363636224,1.0003433830578692,-154.38287938993966
6.365923328,1.0002813218397395,-154.5285462361386
6.368210432,1.0002013184932905,-154.67313787974987
6.370497536,1.0001084665734685,-154.81646614375722
6.37278464,1.0000085727427364,-154.95833705506092
6.375071232,0.9999080777186422,-155.0987629122147
6.377358336,0.9998132801480828,-155.23772966040903
6.37964544,0.99973030541103,-155.3753560943356
6.381932544,0.9996643022353857,-155.51190807001979
6.384219648,0.9996196589621511,-155.64765971477536
6.386506752,0.9995990153687028,-155.78285346308166
6.388793344,0.9996039489070272,-155.91794724572188
6.391080448,0.9996339156019592,-156.05323566762831
6.393367552,0.9996869867670197,-156.18914906445502
6.395654656,0.9997600237562559,-156.3259204686759
6.39794176,0.999848194734475,-156.46385857288362
6.400228864,0.9999460966113447,-156.6031250898287
6.402515968,1.000047284139243,-156.74385452577354
6.40480256,1.0001454256645184,-156.88596436054632
6.407089664,1.0002342939415654,-157.02942124430098
6.409376768,1.0003082788562125,-157.17404936977965
6.411663872,1.0003625653674837,-157.31957216994493
6.413950976,1.0003937897133273,-157.46574064932838
6.41623808,1.000399938053205,-157.61212301338082
6.418524672,1.0003806630384644,-157.75840520187927
6.420811776,1.000337083767783,-157.90419454982552
6.42309888,1.0002720602078539,-158.04917809097395
6.425385984,1.0001896029221855,-158.19304292005418
6.427673088,1.0000950795334365,-158.33562145233157
6.429960192,0.9999943274739388,-158.47674491796806
6.432246784,0.9998939292924826,-158.61639962735643
6.434533888,0.9998000734533141,-158.7545978532211
6.436820992,0.9997188381145423,-158.89148871713468
6.439108096,0.9996553978332459,-159.02734765703846
6.4413952,0.9996138042831212,-159.16238351779774
6.443682304,0.9995966587560832,-159.29696079049907
6.445968896,0.9996050500737018,-159.4314690108533
6.448256,0.9996385431559401,-159.56625773428294
6.450543104,0.9996949435535619,-159.7016727434407
6.452830208,0.9997706212821256,-159.83799668563853
6.455117312,0.9998608689573257,-159.97554140496052
6.457404416,0.9999599272362923,-160.11441481537676
6.459691008,1.0000614832317574,-160.25474879700852
6.461978112,1.0001590296189504,-160.3965002706835
6.464265216,1.0002465865029238,-160.5395538082421
6.46655232,1.0003182639145016,-160.68377983984067
6.468839424,1.0003697456323002,-160.82887271523774
6.471126528,1.000397629355585,-160.97449445247182
6.473413632,1.0004002133462995,-161.12032024983196
6.475700224,1.0003773706042844,-161.26599501317835
6.477987328,1.0003304849741048,-161.411141808203
6.480274432,1.0002624088629117,-161.55539951696906
6.482561536,1.0001776221658938,-161.69851453107833
6.48484864,1.0000814193030305,-161.84035439601203
6.487135744,0.9999799694830059,-161.98064755197584
6.489422336,0.9998797059973711,-162.11949771476168
6.49170944,0.9997869201866222,-162.256910590586
6.493996544,0.9997076332676325,-162.39303936246594
6.496283648,0.9996468183087645,-162.5281274386821
6.498570752,0.999608386228409,-162.6624692830477
6.500857856,0.999594775531387,-162.7963965260665
6.503144448,0.9996067978290964,-162.93032074266233
6.505431552,0.9996437525190174,-163.06451655631153
6.507718656,0.9997033783107178,-163.19942200768992
6.51000576,0.9997817923223424,-163.33528843805578
6.512292864,0.9998739308873195,-163.4724373937642
6.514579968,0.9999741368088771,-163.61090795576297
6.51686656,1.0000758773809166,-163.75083067408127
6.519153664,1.0001727757772982,-163.8921659653647
6.521440768,1.0002585816202592,-164.03483925329778
6.523727872,1.0003280407343527,-164.17857603103806
6.526014976,1.000376569657598,-164.3231733113473
6.52830208,1.0004010269988464,-164.46826668072794
6.530588672,1.00040003180286,-164.61353840676801
6.532875776,1.0003735177130264,-164.75853911483233
6.53516288,1.0003231618348776,-164.90296958994168
6.537449984,1.00025225813622,-165.04650205905395
6.539737088,1.0001651658414796,-165.18885721010426
6.542024192,1.000067415913202,-165.32983660913928
6.544310784,0.9999654422597574,-165.46935823143698
6.546597888,0.9998654396986252,-165.60735943911567
6.548884992,0.999773817815533,-165.7439456407036
6.551172096,0.9996965956217069,-165.87928419900916
6.5534592,0.9996385069496907,-166.01360152325014
6.555746304,0.9996033966618572,-166.14720877520867
6.558033408,0.9995933378928741,-166.28046878190057
6.56032,0.9996090649086313,-166.41376963677192
6.562607104,0.9996495895380232,-166.54741305317074
6.564894208,0.9997122753665059,-166.6817860925028
6.567181312,0.9997932897077696,-166.81719611198346
6.569468416,0.9998873463525787,-166.95382543159087
6.57175552,0.999988561647724,-167.09190954045832
6.574042112,1.0000903927611,-167.23141621785885
6.576329216,1.000186458823806,-167.37230593198603
6.57861632,1.0002705680186852,-167.51454005697775
6.580903424,1.0003375490183624,-167.65781516170932
6.583190528,1.000382954644531,-167.80186769542777
6.585477632,1.0004039790876287,-167.9463929226569
6.587764224,1.0003991934580703,-168.0909970003058
6.590051328,1.0003690838089843,-168.23534376667072
6.592338432,1.0003153340596151,-168.3790514185311
6.594625536,1.0002414706108158,-168.52181585609264
6.59691264,1.0001522932436633,-168.66335120965476
6.599199744,1.000053182231327,-168.80348544027697
6.601486336,0.9999506162396964,-168.94214029208294
6.60377344,0.999851097976497,-169.0793133186156
6.606060544,0.9997609141007876,-169.21504563690667
6.608347648,0.9996857506967485,-169.3495422100476
6.610634752,0.9996306238169266,-169.4830731215561
6.612921856,0.999598720123148,-169.61594265467093
6.615208448,0.999592360689799,-169.74851344481993
6.617495552,0.9996118382897436,-169.88113686363226
6.619782656,0.9996558844058613,-170.01423794849973
6.62206976,0.9997217957024876,-170.14804008151543
6.624356864,0.9998053267038873,-170.28295259006927
6.626643968,0.9999011336446504,-170.4191469690844
6.628931072,1.0000032660295601,-170.55674641338157
6.631217664,1.0001050657097326,-170.69581596172864
6.633504768,1.0002001901661601,-170.8362741147517
6.635791872,1.0002825287898263,-170.97799860805154
6.638078976,1.0003468125032813,-171.12075413009146
6.64036608,1.0003889894396683,-171.26426698896933
6.642653184,1.0004064612959016,-171.4081995958381
6.644939776,1.0003980137463626,-171.5521704622519
6.64722688,1.0003641073098155,-171.69580046258
6.649513984,1.0003071304020439,-171.83875497262014
6.651801088,1.000230446161775,-171.9806691144002
6.654088192,1.0001389715931606,-172.12137826893348
6.656375296,1.0000386592860644,-172.26067228707112
6.658661888,0.9999356831075455,-172.3984083599905
6.660948992,0.9998366892807906,-172.53469703822802
6.663236096,0.9997480215357163,-172.6695748507099
6.6655232,0.9996752411202103,-172.80321555658472
6.667810304,0.9996230506165804,-172.93595112951365
6.670097408,0.9995946605171198,-173.06807631080594
6.672384,0.9995919801268386,-173.1998982400246
6.674671104,0.9996151972343482,-173.3319150185834
6.676958208,0.9996627476688621,-173.46437098663887
6.679245312,0.9997317121844044,-173.59764188972744
6.681532416,0.9998177715590414,-173.7320230503997
6.68381952,0.999915250267943,-173.86773070075176
6.686106112,1.0000180850143032,-174.00485653923542
6.688393216,1.0001197238023702,-174.14347711330348
6.69068032,1.0002137785156038,-174.2834504211173
6.692967424,1.0002941533674485,-174.42466438948304
6.695254528,1.0003556583681228,-174.56692300312542
6.697541632,1.000394633983836,-174.7098437130673
6.699828224,1.0004083555775989,-174.85313240616884
6.702115328,1.0003961680336915,-174.99643960067436
6.704402432,1.0003587055677388,-175.13931187079382
6.706689536,1.0002982725889904,-175.281450474517
6.70897664,1.0002187746338433,-175.42257004783613
6.711263744,1.0001253944401332,-175.56237456582363
6.713550848,1.0000237575462683,-175.70073606314702
6.71583744,0.999920675890692,-175.8376083563457
6.718124544,0.9998224483132111,-175.97296506560062
6.720411648,0.9997353250992034,-176.10696620980147
6.722698752,0.9996649986390322,-176.23975862405112
6.724985856,0.999615877929037,-176.37164364470846
6.72727296,0.9995909802990651,-176.502984251382
6.729559552,0.9995920967908536,-176.6341144979028
6.731846656,0.9996190550082913,-176.76541573802436
6.73413376,0.9996701896582099,-176.89727222500235
6.736420864,0.9997422768366007,-177.03001389021117
6.738707968,0.9998305280252475,-177.163843414163
6.740995072,0.9999296927987366,-177.2990617772932
6.743281664,1.0000332347878744,-177.43569934460865
6.745568768,1.000134575516607,-177.57377624076398
6.747855872,1.0002272788454865,-177.71329116216205
6.750142976,1.000305419072005,-177.85401591674727
6.75243008,1.0003641933975185,-177.99568079803157
6.754717184,1.0003997186216025,-178.1379988493066
6.757003776,1.000409761489738,-178.28062790846244
6.75929088,1.0003937164164731,-178.42318919210814
6.761577984,1.0003525750260893,-178.56531678814355
6.763865088,1.000288806197802,-178.70666585210904
6.766152192,1.0002067236681045,-178.8468982313978
6.768439296,1.0001112585530012,-178.98580335226126
6.770725888,1.0000086557138383,-179.12325162521245
6.773012992,0.9999054218700607,-179.25917986876112
6.775300096,0.9998080360476347,-179.39362415604387
6.7775872,0.9997227377646679,-179.5266794042687
6.779874304,0.9996549315853976,-179.65860910855986
6.782161408,0.9996089937959987,-179.7896654400488
6.784448512,0.9995877898086453,-179.92021242011455
6.786735104,0.9995928137110878,179.94936978015102
6.789022208,0.9996235926232672,179.81873091026563
6.791309312,0.9996782202086749,179.68751925310357
6.793596416,0.9997532974973814,179.55538292910626
6.79588352,0.9998439148109469,179.42207607787157
6.798170624,0.999944543399173,179.28737392499949
6.800457216,1.0000485077698598,179.1512546436542
6.80274432,1.0001493859922237,179.01366210427517
6.805031424,1.000240715126979,178.87468995597285
6.807318528,1.0003167024172859,178.73450906252498
6.809605632,1.0003724862591592,178.5934138954475
6.811892736,1.0004044571996347,178.45171601089282
6.814179328,1.0004107161456048,178.3097723411762
6.816466432,1.0003907245084618,178.16795342569543
6.818753536,1.0003458476256621,178.0266281696654
6.82104064,1.0002788215942413,177.88616065133346
6.823327744,1.0001940707829977,177.74679901784063
6.825614848,1.0000967882612448,177.60882766471227
6.82790144,0.9999933152995604,177.47229933643075
6.830188544,0.9998899937440305,177.337334084457
6.832475648,0.999793679601723,177.20385136863064
6.834762752,0.9997102775641659,177.07172036280835
6.837049856,0.9996452309068335,176.94069269453487
6.83933696,0.999602648364825,176.8104642097735
6.841623552,0.9995851566239662,176.68071227782295
6.843910656,0.9995940581946892,176.55106138498672
6.84619776,0.9996286598791043,176.4211051458097
6.848484864,0.999686803709155,176.29052215142445
6.850771968,0.99976485064038,176.1589729829089
6.853059072,0.9998577755939893,176.02622160879898
6.855345664,0.9999595782531555,175.89207668130214
6.857632768,1.0000640449847935,175.756442014147
6.859919872,1.00016427422908,175.6193438354715
6.862206976,1.0002540273947105,175.48092910604714
6.86449408,1.0003275725041276,175.3413050989869
6.866781184,1.0003802244230975,175.2008291895269
6.869068288,1.0004086424429446,175.05979688577062
6.87135488,1.000411036397624,174.91854922349077
6.873641984,1.0003870867175946,174.7774800097319
6.875929088,1.000338579995289,174.63700745617737
6.878216192,1.000268319643261,174.49736614598623
6.880503296,1.0001810671475742,174.35895340357698
6.8827904,1.0000820626629212,174.2219285155989
6.885076992,0.9999776627845143,174.0863524766717
6.887364096,0.9998745514871846,173.9523674677033
6.8896512,0.9997794171320498,173.81985196105782
6.891938304,0.9996981393049719,173.6886521645325
6.894225408,0.9996358603488847,173.5585177868021
6.896512512,0.9995967782087417,173.42915416186625
6.898799104,0.9995831222275458,173.30022757877998
6.901086208,0.9995959556790023,173.17132821769445
6.903373312,0.9996344017534304,173.04208614061955
6.905660416,0.9996959534637487,172.9121345040354
6.90794752,0.9997769170141544,172.78117977956558
6.910234624,0.9998719688794827,172.64897799635395
