freq,mag,phase
6.0,0.9996684338311542,-23.49027903506856
6.008048128,0.9998844627176137,-23.781452821029998
6.016096768,1.000107110250997,-24.075632481030972
6.024144896,1.0003240767250359,-24.37287892342825
6.032193024,1.0005235665122105,-24.672958976672383
6.040241664,1.0006949845193105,-24.975658109651118
6.048289792,1.0008288110500234,-25.280459621421542
6.05633792,1.0009177803918146,-25.586883378033292
6.06438656,1.0009571868918061,-25.89421226735084
6.072434688,1.000944945854006,-26.201817643411317
6.080482816,1.0008814877215304,-26.50901590652243
6.088530944,1.0007703746195296,-26.815106681568476
6.096579584,1.000617564892904,-27.119548017417074
6.104627712,1.000430954527405,-27.421789528602243
6.11267584,1.0002208954378176,-27.721450380681
6.12072448,0.9999986938116194,-28.01831953959861
6.128772608,0.9997761855119337,-28.312279136557603
6.136820736,0.9995656156590752,-28.603443525617777
6.144869376,0.9993782310655682,-28.89198075008038
6.152917504,0.9992241853997785,-29.17829828484376
6.160965632,0.9991120131128924,-29.462904485388165
6.169014272,0.9990478004619436,-29.746419971449342
6.1770624,0.9990349684327469,-30.02950698763465
6.185110528,0.9990742107172332,-30.31283812276619
6.193159168,0.9991637148784582,-30.597134371431117
6.201207296,0.999298187869108,-30.882979690153444
6.209255424,0.9994709854846461,-31.17097379876266
6.217304064,0.9996721845431064,-31.461565770108844
6.225352192,0.9998914992993012,-31.755081968728433
6.23340032,1.0001164826758504,-32.05164459325153
6.241448448,1.0003354837110472,-32.35127906026859
6.249497088,1.0005363927856816,-32.65381172384503
6.257545216,1.0007083272091941,-32.95889043026144
6.265593344,1.0008421337019004,-33.26614037984777
6.273641984,1.00093041145737,-33.57496752809561
6.281690112,1.000968554310089,-33.88473351849523
6.28973824,1.0009542772318196,-34.19474363939841
6.29778688,1.0008884615580491,-34.50430353007121
6.305835008,1.0007744841717354,-34.812736244564476
6.313883136,1.0006185720128078,-35.11944746321829
6.321931776,1.000428879544899,-35.42397264196299
6.329979904,1.0002158741803313,-35.72587665574175
6.338028032,0.9999909531980716,-36.0249185268722
6.346076672,0.9997661116853624,-36.321034411012036
6.3541248,0.9995537453387869,-36.61428106076497
6.362172928,0.9993650637566608,-36.9049492117159
6.370221568,0.9992108225597889,-37.193392677642706
6.378269696,0.9990989218003755,-37.48010599224229
6.386317824,0.9990354862873709,-37.765748296578664
6.394365952,0.9990242098372857,-38.050948434607136
6.402414592,0.9990656670344814,-38.33645223121757
6.41046272,0.9991576744755085,-38.62292442495202
6.418510848,0.9992952498799842,-38.9109791855092
6.426559488,0.9994710259656924,-39.201274050276666
6.434607616,0.9996754651401611,-39.49417224711886
6.442655744,0.9998974160606001,-39.790033719483645
6.450704384,1.0001250352751592,-40.08902607084855
6.458752512,1.000346200769189,-40.39107044670978
6.46680064,1.0005486399197605,-40.69601072417585
6.47484928,1.0007215375954324,-41.00361350075099
6.482897408,1.0008555917905462,-41.31332958528117
6.490945536,1.0009434513219544,-41.624617783182075
6.498994176,1.0009802993582164,-41.936856451080985
6.507042304,1.0009642793372184,-42.249333248429956
6.515090432,1.0008961601630377,-42.56128760191391
6.523139072,1.000779368430265,-42.872145168443296
6.5311872,1.0006204642247443,-43.1811976493104
6.539235328,1.0004277408675968,-43.48803732146797
6.547283456,1.0002115312445803,-43.79223338925926
6.555332096,0.9999837280896057,-44.09352163599553
6.563380224,0.9997565542400075,-44.391832983102795
6.571428352,0.9995421533154489,-44.687264332166535
6.579476992,0.9993522883884912,-44.98007676782217
6.58752512,0.9991971936693304,-45.27068483570257
6.595573248,0.9990853686746124,-45.559533577804366
6.603621888,0.9990226814849085,-45.84733162067863
6.611670016,0.9990128677314141,-46.1347015670674
6.619718144,0.9990562735567642,-46.42238536634193
6.627766784,0.9991507784260393,-46.71105645706777
6.635814912,0.9992911776024658,-47.00139450061559
6.64386304,0.99946992187465,-47.29399376670931
6.65191168,0.9996775365074925,-47.589247023576384
6.659959808,0.9999024391483652,-47.887482077331875
6.668007936,1.0001329332548416,-48.18883070055819
6.676056576,1.0003563151033559,-48.493348361535745
6.684104704,1.0005606593632723,-48.80080374667763
6.692152832,1.0007347449917297,-49.110898154938106
6.70020096,1.000869277063824,-49.423133257846665
6.7082496,1.0009568296469176,-49.736926678890086
6.716297728,1.0009927810798918,-50.05166930932148
6.724345856,1.000975223690538,-50.36665063819057
6.732394496,1.0009048027440655,-50.681088538643024
6.740442624,1.0007854770142106,-50.994350334174136
6.748490752,1.0006234011909172,-51.30587937922596
6.756539392,1.000427809810346,-51.61504233165668
6.76458752,1.0002084499040165,-51.92156977720439
6.772635648,0.9999777572255933,-52.22513469267491
6.780684288,0.9997478978184363,-52.52569721147439
6.788732416,0.9995314400852475,-52.82339164997479
6.796780544,0.9993398636746627,-53.11839041043325
6.804829184,0.9991838123272571,-53.41112875728416
6.812877312,0.9990715724684898,-53.70220348127736
6.82092544,0.9990095856706734,-53.992149808065044
6.82897408,0.9990007503123073,-54.28171200069094
6.837022208,0.999046195653781,-54.571577146642305
6.845070336,0.9991428433648252,-54.86252673110453
6.853118464,0.9992860657719339,-55.15515543679688
6.861167104,0.9994678593280975,-55.45003689444291
6.869215232,0.9996786033822628,-55.74765296749048
6.87726336,0.9999067997072569,-56.04826852488567
6.885312,1.0001401663836225,-56.35207878026732
6.893360128,1.0003661342481278,-56.65905931618864
6.901408256,1.0005724336730732,-56.969037795910836
6.909456896,1.000747768320172,-57.28165260649696
6.917505024,1.0008830639501076,-57.596408700997856
6.925553152,1.0009707308544382,-57.912799274780724
6.933601792,1.0010058810592195,-58.23008594897865
6.94164992,1.0009869495958712,-58.54755198075538
6.949698048,1.0009145857763564,-58.86452956332225
6.957746688,1.000792765875074,-59.18029785054227
6.965794816,1.0006278609504446,-59.49423266803176
6.973842944,1.000428881368597,-59.805844380579245
6.981891584,1.000206581022008,-60.11469856527722
6.989939712,0.9999727009868392,-60.42060368060464
6.99798784,0.9997398340538483,-60.72348233172507
7.006035968,0.9995209070196029,-61.02340878748605
7.014084608,0.9993274403249287,-61.32064951389222
7.022132736,0.9991702463901151,-61.61560112686197
7.030180864,0.9990574966432696,-61.90886061844629
7.038229504,0.998995696395433,-62.20100115481792
7.046277632,0.9989878242753031,-62.49274859064883
7.05432576,0.9990348753780015,-62.78487429389689
7.0623744,0.999133900621943,-63.078036606455996
7.070422528,0.9992798349698351,-63.372930312175114
7.078470656,0.9994647056451458,-63.67013701192415
7.086519296,0.9996785692667384,-63.97012297076114
7.094567424,0.9999100398401328,-64.27315792021733
7.102615552,1.0001464617686868,-64.57942140656975
7.110664192,1.0003750913495517,-64.88887980539918
7.11871232,1.0005836465271705,-65.20136086268244
7.126760448,1.000760904673456,-65.51653531639019
7.134809088,1.0008969580700853,-65.83384760326706
7.142857216,1.0009850194045384,-66.15278825725825
7.150905344,1.0010198138402038,-66.47264914779299
7.158953472,1.000999574219881,-66.79271695802609
7.167002112,1.000925310243393,-67.11221614640213
7.17505024,1.0008009777505704,-67.43048970008762
7.183098368,1.0006333165168557,-67.74691681566567
7.191147008,1.0004313064455779,-68.06093369938301
7.199195136,1.0002054479177622,-68.37223129022473
7.207243264,0.9999684159540402,-68.6804972718464
7.215291904,0.9997327578386049,-68.98567134040609
7.223340032,0.9995111391053796,-69.28785000928517
7.23138816,0.9993155318433726,-69.58733549039218
7.2394368,0.9991566868154601,-69.8845659299446
7.247484928,0.9990432194980068,-70.1799502485813
7.255533056,0.99898133039496,-70.47433391983989
7.263581696,0.9989742551221306,-70.76830514849287
7.271629824,0.9990225938853634,-71.06261987796115
7.279677952,0.9991237282416007,-71.35805016790519
7.287726592,0.9992721652357471,-71.65522228290438
7.29577472,0.9994602224880732,-71.95473201068283
7.303822848,0.9996774130452152,-72.25705444589087
7.311870976,0.9999121412979037,-72.5625030999498
7.319919616,1.0001518832532243,-72.87120807989731
7.327967744,1.0003834126296498,-73.18314146656157
7.336015872,1.000594574824228,-73.49815760964573
7.344064512,1.0007737691372156,-73.81584936178231
7.35211264,1.0009113687300821,-74.13577158725047
7.360160768,1.0009998646826443,-74.45728846236176
7.368209408,1.001034441986404,-74.77973959092748
7.376257536,1.0010132031721966,-75.10237005360707
7.384305664,1.0009372033601243,-75.42446916566799
7.392354304,1.000810621939114,-75.74527574426594
7.400402432,1.0006401752944611,-76.06417368529826
7.40845056,1.0004347918596244,-76.3806951710697
7.4164992,1.0002056687268066,-76.69435890508358
7.424547328,0.9999651885787936,-77.00501145957125
7.432595456,0.9997261580994228,-77.31253216177188
7.440644096,0.9995016678917154,-77.61700221191188
7.448692224,0.999303700990341,-77.91876082782538
7.456740352,0.9991430773353395,-78.21818804657244
7.46478848,0.9990283467005634,-78.51583580097092
7.47283712,0.9989662038705365,-78.81238654564524
7.480885248,0.9989595684297021,-79.1085401727244
7.488933376,0.999009078905712,-79.40506583627186
7.496982016,0.999112295673149,-79.70270352954704
7.505030144,0.9992634378250721,-80.0021520644658
7.513078272,0.9994543816074664,-80.30393662429313
7.521126912,0.9996750010918062,-80.60858185139978
7.52917504,0.9999131676224692,-80.91642139584218
7.537223168,1.0001564275590757,-81.22752827623869
7.545271808,1.0003912745918726,-81.54197163860063
7.553319936,1.0006052872152549,-81.85946751845295
7.561368064,1.0007865610636,-82.17971673389673
7.569416704,1.0009258257253455,-82.50220954755501
7.577464832,1.0010152416887457,-82.8263358170977
7.58551296,1.0010498367091498,-83.15138630511193
7.5935616,1.0010278849216476,-83.47660065597843
7.601609728,1.0009504273947492,-83.80124106867919
7.609657856,1.0008216508343455,-84.12458245783003
7.617705984,1.0006483325307212,-84.44602708026693
7.625754624,1.000439706916471,-84.76500083506275
7.633802752,1.0002071154190901,-85.08111437499589
7.64185088,0.9999630354884133,-85.39415329123254
7.64989952,0.9997206177250745,-85.7039968326526
7.657947648,0.9994928158138067,-86.01078402854588
7.665995776,0.9992920683111989,-86.31477773550984
7.674044416,0.9991293711077088,-86.61639638275786
7.682092544,0.9990134141469842,-86.91625922537506
7.690140672,0.9989504472099884,-87.21496348779948
7.698189312,0.9989439809594827,-87.51331141115583
7.70623744,0.9989946588224252,-87.81201968215028
7.714285568,0.9990996534671805,-88.11187765645118
7.722334208,0.9992531722186285,-88.41352004074908
7.730382336,0.9994472169159101,-88.71760113041533
7.738430464,0.9996712463055202,-89.02457085105314
7.746479104,0.999913204505755,-89.33473540147928
7.754527232,1.0001599924260414,-89.6482424435682
7.76257536,1.0003983444746707,-89.96511315228706
7.770623488,1.000615589144311,-90.28512975344401
7.778672128,1.0007994814116117,-90.60790918835106
7.786720256,1.0009406849602782,-90.9329281168048
7.794768384,1.0010312987429613,-91.25960924281347
7.802817024,1.0010662244950048,-91.58725725637449
7.810865152,1.0010436935169258,-91.91504545635443
7.81891328,1.0009648952798378,-92.2422654048482
7.82696192,1.0008341534391394,-92.56816677261574
7.835010048,1.0006579407440044,-92.89214117929248
7.843058176,1.0004461488029126,-93.21359739650016
7.851106816,1.0002099134191549,-93.5321406029492
7.859154944,0.9999619655903117,-93.84752746817269
7.867203072,0.9997158084613161,-94.15970629236628
7.875251712,0.999484488280527,-94.46876489550819
7.88329984,0.9992807539754913,-94.77499361515288
7.891347968,0.9991155269103904,-95.07880196902963
7.899396608,0.9989977384149097,-95.38084402950484
7.907444736,0.9989338322368059,-95.6817047698563
7.915492864,0.9989274540971449,-95.98217788022318
7.923540992,0.9989789116339414,-96.28306358485499
7.931589632,0.9990853925509299,-96.58504126434877
7.93963776,0.9992415535625565,-96.88886497815452
7.947685888,0.999438622245481,-97.19513324526628
7.955734528,0.9996661269660657,-97.50437096740934
7.963782656,0.9999118772557256,-97.81683665044645
7.971830784,1.0001625506615084,-98.13273904780353
7.979879424,1.0004047689476239,-98.45201357261674
7.987927552,1.0006252962932243,-98.77446967242989
7.99597568,1.0008123676320502,-99.09970751683254
8.00402432,1.00095575224483,-99.42728041379492
8.012072448,1.0010476690295367,-99.7565644651228
8.020120576,1.0010833800546313,-100.08672314518768
8.028169216,1.0010606538516158,-100.4170982402143
8.036217344,1.0009807450180783,-100.74687063479062
8.044265472,1.0008477733291723,-101.07532242763082
8.052314112,1.0006690033067536,-101.40177503967604
8.06036224,1.0004537618448628,-101.72568132859482
8.068410368,1.0002138092548993,-102.04665334839154
8.076459008,0.9999619503578386,-102.36439232163514
8.084507136,0.9997116970297477,-102.67889974687183
8.092555264,0.9994765580608151,-102.99020254513916
8.100603392,0.9992694187535239,-103.29864486195139
8.108652032,0.9991013615443324,-103.60464705140441
8.11670016,0.9989815304249743,-103.90875437857214
8.124748288,0.9989164002276513,-104.21169835703103
8.132796928,0.9989097336219444,-104.51426321076484
8.140845056,0.9989617324053078,-104.81722083366213
8.148893184,0.9990698464169131,-105.12132513286306
8.156941824,0.9992283809870675,-105.42729997865284
8.164989952,0.9994284844062037,-105.73574278633457
8.17303808,0.9996596479212323,-106.04714304388818
8.18108672,0.9999094823263538,-106.36186329764024
8.189134848,1.0001643414353116,-106.68004720441859
8.197182976,1.0004104663935254,-107.0016932621932
8.205231616,1.0006348898903774,-107.32654885447403
8.213279744,1.0008253127220654,-107.65427967833276
8.221327872,1.0009714035075925,-107.98433093528317
8.229376512,1.0010652673097324,-108.3160910316528
8.23742464,1.0011019315483316,-108.64880520306761
8.245472768,1.0010791567518196,-108.98169865056491
8.253520896,1.0009982514689824,-109.31400349960413
8.261569536,1.0008633814389603,-109.64496274954364
8.269617664,1.0006818269497035,-109.97391411820296
8.277665792,1.000463201432531,-110.30024391894241
8.285714432,1.0002192848910965,-110.62359522535127
8.29376256,0.9999632088424706,-110.94368429742582
8.301810688,0.9997087110698891,-111.26044642800667
8.309859328,0.9994694333154536,-111.57396402576786
8.317907456,0.9992584892002508,-111.88456927110293
8.325955584,0.9990872572599168,-112.19266805072985
8.334004224,0.9989649515439153,-112.49884840425426
8.342052352,0.9988982699064586,-112.80386863964907
8.35010048,0.9988908751187981,-113.1084676298152
8.35814912,0.9989433583258129,-113.41342584578966
8.366197248,0.9990528212942069,-113.71952110023017
8.374245376,0.9992135737420973,-114.02754768861716
8.382294016,0.9994167826188447,-114.33806740682442
8.390342144,0.9996517987846893,-114.65161012243189
8.398390272,0.9999056679811545,-114.96850500919375
8.4064384,1.0001649909978043,-115.28893017002108
8.41448704,1.0004156152511556,-115.61284669152883
8.422535168,1.0006441149502006,-115.94004749170372
8.430583296,1.0008382079848706,-116.27015388604097
8.438631936,1.0009873955763646,-116.60265988918202
8.446680064,1.0010834966455622,-116.93687727441905
8.454728192,1.0011213914994233,-117.27207741444984
8.462776832,1.001098916697997,-117.60749182044414
8.47082496,1.0010171644624306,-117.94228318190719
8.478873088,1.0008805869813389,-118.27570531724966
8.486921728,1.0006963793391412,-118.60711965947802
8.494969856,1.0004742434597902,-118.93583973396896
8.503017984,1.0002262130547823,-119.26155055100796
8.511066624,0.9999656682381083,-119.58389576399587
8.519114752,0.9997065442865906,-119.90289148529347
8.52716288,0.9994628171870249,-120.2185719869851
8.53521152,0.9992476366168016,-120.53126788232672
8.543259648,0.9990727161757197,-120.8413890717344
8.551307776,0.9989476094285015,-121.14959958793924
8.559355904,0.998878914208841,-121.45658475679564
8.567404544,0.9988706826547731,-121.76310582946238
8.575452672,0.9989233569609746,-122.06998675428522
8.5835008,0.9990340946252254,-122.37804397023889
8.59154944,0.9991969261670379,-122.68800417981467
8.59959808,0.9994033705495601,-123.00054184461007
8.607645696,0.9996421518392337,-123.31611730440295
8.615694336,0.9999005356007606,-123.63509927375688
8.623741952,1.0001644753097594,-123.95766160962548
8.631790592,1.0004199530974083,-124.28377972744958
8.639839232,1.000653046904815,-124.61324544001923
8.647886848,1.000851272814272,-124.94567231910105
8.655935488,1.0010038310707667,-125.28052162675377
8.663984128,1.0011025465846581,-125.61715824649811
8.672031744,1.001142088476012,-125.95479241028012
8.680080384,1.001120094086227,-126.29263488379522
8.688129024,1.0010377503345957,-126.62987909197803
8.69617664,1.0008994388959216,-126.96571351314323
8.70422528,1.0007124359496362,-127.29947885147422
8.71227392,1.0004868337263906,-127.63058369665316
8.720321536,1.0002345904531724,-127.95856560541594
8.728370176,0.9999693051234736,-128.2831712383131
8.736418816,0.9997052310840756,-128.60430820909963
8.744466432,0.9994566763103131,-128.922093900548
8.752515072,0.999236889882763,-129.23680287966286
8.760563712,0.9990579538801058,-129.5489045779972
8.768611328,0.9989295555730353,-129.85901751999566
8.776659968,0.9988586386891992,-130.16785301955335
8.784708608,0.9988491423601266,-130.4762253140077
8.792756224,0.9989016114275568,-130.7849693186052
8.800804864,0.9990134454568594,-131.09485204594213
8.808853504,0.9991786056956526,-131.4066635297277
8.81690112,0.9993881359314328,-131.7210954221188
8.82494976,0.9996309808463831,-132.0385862318458
8.8329984,0.9998940130224344,-132.3595625841097
8.841046016,1.0001630382784148,-132.68414811569207
8.849094656,1.0004235622475994,-133.01239267372011
8.857143296,1.0006616831960717,-133.34401188384976
8.865190912,1.0008643902587913,-133.67867733542158
8.873239552,1.001020853492708,-134.01582851290468
8.881288192,1.0011226120062677,-134.3547757171857
8.889335808,1.0011639971422737,-134.69477317757676
8.897384448,1.0011428127507342,-135.0349872223378
8.905433088,1.0010600865452786,-135.37459346196655
8.913480704,1.00092011793223,-135.71277772115445
8.921529344,1.0007304894269065,-136.04887215856326
8.92957696,1.0005011815635467,-136.3822588899209
8.9376256,1.0002444903256118,-136.7124673800903
8.94567424,0.999974213296044,-137.03922089197502
8.953721856,0.9997048453242019,-137.36246080705294
8.961770496,0.9994508557861953,-137.68225166693983
8.969819136,0.999226141413584,-137.99889743708314
8.977866752,0.9990426657516143,-138.31285844599267
8.985915392,0.998910566630896,-138.62478385571598
8.993964032,0.9988370465461338,-138.9353959166049
9.002011648,0.9988260376662506,-139.2455033717285
9.010060288,0.9988782262565017,-139.5559336627341
9.018108928,0.9989909786080562,-139.86753811380166
9.026156544,0.9991582560173569,-140.18110755924542
9.034205184,0.9993711671390725,-140.49726760305867
9.042253824,0.9996181469478478,-140.81657902518901
9.05030144,0.999886100795397,-141.13939914705313
9.05835008,1.000160466600334,-141.4659447661388
9.06639872,1.0004265222327064,-141.79616196767918
9.074446336,1.0006700509283886,-142.12986268837065
9.082494976,1.000877676446014,-142.4666436066559
9.090543616,1.0010384863284534,-142.80599092916313
9.098591232,1.0011436310896475,-143.14717674204394
9.106639872,1.0011873563713372,-143.48943573065117
9.114688512,1.0011672352734227,-143.83194481061278
9.122736128,1.0010842977042627,-144.17384450252231
9.130784768,1.0009428183061138,-144.51434166705187
9.138833408,1.000750427730832,-144.8526853625881
9.146881024,1.0005173640875582,-145.18825442667585
9.154929664,1.0002559584490873,-145.52059598308733
9.162978304,0.9999803308673546,-145.84943139924553
9.17102592,0.9997053297528365,-146.17462994597201
9.17907456,0.9994456281055971,-146.49634298205945
9.1871232,0.9992154083809028,-146.81482045080332
9.195170816,0.9990271311731612,-147.13057641294122
9.203219456,0.9988908220545996,-147.44420741181307
9.211268096,0.9988141639502055,-147.75644293433254
