freq,mag,phase
6.0,0.999860552288189,-161.15078502686274
6.013675008,0.9998641722897922,-161.94707260940868
6.027350528,0.9998737846565798,-162.74329098538297
6.041025536,0.9998888854306109,-163.53959413790946
6.054701056,0.9999088003073463,-164.33600698536102
6.068376064,0.9999326262734919,-165.13257809237226
6.082051072,0.9999594980313554,-165.92934001482334
6.095726592,0.9999881602562565,-166.72634847588964
6.1094016,1.0000172930774105,-167.52357493826173
6.12307712,1.000045807331525,-168.32106604515533
6.136752128,1.0000723868808112,-169.11874356748092
6.150427136,1.0000960009842494,-169.91663941487982
6.164102656,1.000115501848033,-170.71467905976382
6.177777664,1.000130135129294,-171.51280583254754
6.191453184,1.0001391071615136,-172.31094121207298
6.205128192,1.0001423274904362,-173.10907487820757
6.2188032,1.0001394089533544,-173.90710182845135
6.23247872,1.000130528235165,-174.7049234582835
6.246153728,1.0001160630483323,-175.50249648724903
6.259829248,1.0000966339508466,-176.29974882401274
6.273504256,1.0000731918811867,-177.0966431626375
6.287179264,1.0000465089192676,-177.8931072465502
6.300854784,1.0000178241451274,-178.68910786484153
6.314529792,0.999988474582031,-179.4846527540361
6.328205312,0.9999595249799423,179.72027018929646
6.34188032,0.9999324118868911,178.9256630855898
6.355555328,0.9999081521482833,178.13146822589886
6.369230848,0.999887737326589,177.33768815260393
6.382905856,0.9998722850878148,176.544231383916
6.396581376,0.9998623586073868,175.75106607035715
6.410256384,0.9998582500461798,174.95810496650594
6.423931392,0.9998602123023871,174.16528062242446
6.437606912,0.9998683598268238,173.37255295206543
6.45128192,0.9998820416019423,172.5797999360198
6.46495744,0.9999008526520375,171.78700242796435
6.478632448,0.9999239398667892,170.9941013759989
6.492307456,0.9999503796142218,170.20102704653706
6.505982976,0.9999789332638872,169.40775845693562
6.519657984,1.0000084906322217,168.61426509203181
6.533333504,1.000037676391339,167.82058190006722
6.547008512,1.0000653834503765,167.0266857387908
6.56068352,1.0000902244826575,166.23261185325015
6.57435904,1.0001112638873833,165.43843822388126
6.588034048,1.0001276195323199,164.64415277852598
6.601709568,1.0001384228546255,163.84984247761759
6.615384576,1.0001433802135253,163.0555883437397
6.629059584,1.000142257950152,162.26143780999035
6.642735104,1.0001349472541683,161.46751909276918
6.656410112,1.0001218676633463,160.67382570382753
6.670085632,1.000103721358401,159.88048125642
6.68376064,1.0000809961325765,159.08750463030333
6.697435648,1.0000546859851642,158.29501040056914
6.711111168,1.0000261626748985,157.5029629021747
6.724786176,0.9999964521929533,156.71141964848795
6.738461696,0.9999669842084155,155.9203779395713
6.752136704,0.9999387827643437,155.12982089935883
6.765811712,0.9999131978167141,154.33973358547615
6.779487232,0.9998914649696061,153.5501012637812
6.79316224,0.9998743239008775,152.76083231338734
6.80683776,0.9998624693550415,151.9718851670794
6.820512768,0.9998566728861761,151.1831995795467
6.834188288,0.9998569133104803,150.39472475692347
6.847863296,0.9998634084320454,149.60634817653983
6.861538304,0.99987573107631,148.8180069879032
6.875213824,0.99989345426914,148.02963997614555
6.888888832,0.9999157383848394,147.2411987416613
6.902564352,0.999941710724518,146.45261797136425
6.91623936,0.9999702187984565,145.66390411852677
6.929914368,0.9999999695757604,144.87495540443334
6.943589888,1.000029820131257,144.08583376163082
6.957264896,1.00005837421808,143.29650087156037
6.970940416,1.0000845410835764,142.50700888094207
6.984615424,1.000107130517782,141.71737948826393
6.998290432,1.0001251855465496,140.92767474710942
7.011965952,1.000137734206027,140.13792632435784
7.02564096,1.0001444946252718,139.34825860444204
7.03931648,1.0001449658746162,138.55866447927198
7.052991488,1.0001394233829006,137.7692974145414
7.066666496,1.000127684109167,136.98014795815618
7.080342016,1.000110643403154,136.19136677383884
7.094017024,1.0000886977007024,135.40297964939418
7.107692544,1.000062977614925,134.61501188481023
7.121367552,1.0000346146547974,133.827541127272
7.13504256,1.0000046657445596,133.0405814295158
7.14871808,0.999974652610595,132.25413760904235
7.162393088,0.9999454707247883,131.46821290532333
7.176068608,0.9999187577068988,130.68276643432444
7.189743616,0.9998955308092833,129.89781073540203
7.203418624,0.9998766894088374,129.11323777634965
7.217094144,0.9998632402286638,128.32905011734996
7.230769152,0.999855619928567,127.54513534922916
7.244444672,0.9998542460775355,126.76143817621437
7.25811968,0.9998591137066465,125.97788126073655
7.271794688,0.9998700344400131,125.19439255619064
7.285470208,0.9998865192138996,124.41092538599435
7.299145216,0.999908047059379,123.62737190353204
7.312820736,0.999933457672887,122.84369783151647
7.326495744,0.9999617656258354,122.05988719114161
7.340170752,0.9999918539601731,121.275876834173
7.353846272,1.0000222758187411,120.491679407112
7.36752128,1.0000517029973668,119.70726396834972
7.3811968,1.0000790127326364,118.92270163753773
7.394871808,1.000103061195558,118.13798161385442
7.408546816,1.0001226295914891,117.3531656693302
7.422222336,1.0001370548268527,116.56830230365176
7.435897344,1.0001455006241131,115.78346667983106
7.449572864,1.0001477221049904,114.99873686629904
7.463247872,1.0001436650805906,114.21417095215631
7.47692288,1.0001334720574182,113.4298400532415
7.4905984,1.0001175262678175,112.64584629933867
7.504273408,1.000096479440333,111.86222311335585
7.517948928,1.00007133168813,111.0790500329542
7.531623936,1.000043173717972,110.29634378876631
7.545298944,1.0000131435013362,109.51415188148029
7.558974464,0.9999824318954041,108.73247450730035
7.572649472,0.9999524834727312,107.95132328582787
7.586324992,0.9999245986182134,107.17067370995233
7.6,0.9998999626317929,106.39052188396832
7.613675008,0.9998796606386352,105.6107646534358
7.627350528,0.9998644575031379,104.83140582609117
7.641025536,0.9998550913900162,104.05234097856813
7.654701056,0.9998520232066935,103.27353277298982
7.668376064,0.9998552666346184,102.49484379472476
7.682051072,0.9998647936121827,101.71626513023052
7.695726592,0.9998801935177254,100.9376979688295
7.7094016,0.9999007424410565,100.15907572992386
7.72307712,0.999925640086675,99.38031159194544
7.736752128,0.9999537784678275,98.60140738280725
7.750427136,0.99998398912581,97.82229858600371
7.764102656,1.0000149016404736,97.04300367372669
7.777777664,1.0000452411592418,96.26348668161815
7.791453184,1.0000737237387913,95.48377264919598
7.805128192,1.0000990997970174,94.7039049718763
7.8188032,1.0001202038241295,93.9239076536405
7.83247872,1.0001362423963998,93.14381568942389
7.846153728,1.0001465297555323,92.36374509572966
7.859829248,1.000150429587118,91.58372850988087
7.873504256,1.0001480232476734,90.80385480229198
7.887179264,1.000139087332729,90.02421229006522
7.900854784,1.0001244121925033,89.24486110929199
7.914529792,1.00010427800717,88.46585084572703
7.928205312,1.0000796894414534,87.68726466911718
7.94188032,1.0000516924227838,86.90914530903272
7.955555328,1.0000213475760722,86.13150964423676
7.969230848,0.9999902931752356,85.35439669108574
7.982905856,0.9999595523684189,84.57778013715124
7.996581376,0.9999305480828112,83.8017058634848
8.010256384,0.9999045049734389,83.02608446180272
8.023931392,0.9998826714637833,82.25089358805306
8.037606912,0.9998658500865233,81.47609766937056
8.05128192,0.9998548014924592,80.7015957009272
8.06495744,0.9998500235545381,79.92733726596283
8.078632448,0.999851717175796,79.15324160811761
8.092307456,0.9998598572601436,78.37923780005477
8.105982976,0.9998740799643199,77.6052266128323
8.119657984,0.999893783023151,76.83116770012992
8.133333504,0.9999180781964224,76.05697410755752
8.147008512,0.9999460213523362,75.2826206044483
8.16068352,0.9999762724617719,74.50805756029368
8.17435904,1.0000077360361508,73.73325967082067
8.188034048,1.0000388811336167,72.95821988842086
8.201709568,1.0000684490284668,72.18295129308659
8.215384576,1.0000951339095212,71.40749511372488
8.229059584,1.0001178338201713,70.63187386416352
8.242735104,1.00013548440187,69.85614108010574
8.256410112,1.0001474236693264,69.08035928378713
8.270085632,1.0001530140681196,68.30460804968602
8.28376064,1.0001521014273682,67.52896236968036
8.297435648,1.0001446473241966,66.75348371109087
8.311111168,1.000131088505753,65.97828550215813
8.324786176,1.0001119141217236,65.2033844894204
8.338461696,1.0000878619045943,64.42888137090505
8.352136704,1.0000601028691358,63.65480596081547
8.365811712,1.000029738189974,62.88120736440851
8.379487232,0.999998158366924,62.10810540406653
8.39316224,0.9999666847561628,61.335504788028956
8.40683776,0.9999365436036668,60.563371834799696
8.420512768,0.9999092092743534,59.79174083180103
8.434188288,0.9998858624648672,59.02053363273258
8.447863296,0.9998673999787958,58.24965462034631
8.461538304,0.9998547389354352,57.4791294021173
8.475213824,0.9998482938639329,56.708814479532876
8.488888832,0.9998484614395815,55.938657969476694
8.502564352,0.9998551078356583,55.16858319892952
8.51623936,0.9998682084874939,54.39849061084404
8.529914368,0.9998870163393991,53.628336383354004
8.543589888,0.9999107424896432,52.85805042222297
8.557264896,0.9999384075572901,52.087571492095094
8.570940416,0.9999688672346114,51.31684370229649
8.584615424,1.000000647527397,50.545848186459786
8.598290432,1.0000325398582237,49.77460592736445
8.611965952,1.0000632322723353,49.00309045478205
8.625641472,1.0000912261635235,48.23130294598797
8.639315968,1.0001153609296116,47.45934258680191
8.652991488,1.0001347215511334,46.68721214126136
8.666667008,1.0001483337816013,45.91499099023741
8.680341504,1.0001555740440533,45.142743076779546
8.694017024,1.0001561771772358,44.37056190365348
8.707692544,1.0001501510657183,43.598489871594275
8.72136704,1.0001377433743412,42.82665950372858
8.73504256,1.0001194419101986,42.05508200489268
8.74871808,1.0000960454264103,41.2838611753798
8.7623936,1.000068501471214,40.513049065363155
8.776068096,1.0000380371771422,39.74265684837714
8.789743616,1.0000059944784967,38.972749438659726
8.803419136,0.9999737508626454,38.20331207820545
8.817093632,0.9999426044647524,37.43434160851848
8.830769152,0.9999140744921976,36.66582436275092
8.844444672,0.9998891452345781,35.89772261980146
8.858119168,0.9998690393400013,35.1299676941446
8.871794688,0.9998546548561129,34.36251332432318
8.885470208,0.9998466092223596,33.59527843054344
8.899145728,0.9998452187637684,32.828197097244185
8.912820224,0.999850544498625,32.06115863130811
8.926495744,0.9998624462355505,31.29411839051003
8.940171264,0.9998803583704802,30.526974895978256
8.95384576,0.9999035267258064,29.759660943093408
8.96752128,0.9999309186661232,28.99213058433438
8.9811968,0.9999613648287883,28.22434696949889
8.994871296,0.9999937128642654,27.456255632449338
9.008546816,1.000026354931175,26.687842611151
9.022222336,1.000057978000162,25.91913310619332
9.035897856,1.0000872779735221,25.150123502216022
9.049572352,1.0001129400940931,24.38085778274265
9.063247872,1.0001338113864826,23.61136393577599
9.076923392,1.0001490471027497,22.841751582108216
9.090597888,1.0001579668930367,22.07206135022194
9.104273408,1.000160195703821,21.302368845051294
9.117948928,1.000155572800742,20.532739555281633
9.131623424,1.0001442968082845,19.763281522647283
9.145298944,1.0001269636754055,18.994056647625946
9.158974464,1.000104053417371,18.225114744606575
9.172649984,1.0000768359258838,17.45654164098389
9.18632448,1.0000463477302164,16.68839362507641
9.2,1.0000137814881793,15.920655473976188
9.21367552,0.9999807950684279,15.153366877996087
9.227350016,0.9999487069397422,14.386540804779123
9.241025536,0.9999187765042422,13.620133408727826
9.254701056,0.9998923704522609,12.854114407863335
9.268376576,0.999870707900118,12.088435465033909
9.282051072,0.9998546824800446,11.323041487411746
9.295726592,0.9998449255687442,10.557829664519643
9.309402112,0.9998419273684166,9.792769958810176
9.323076608,0.999845909531461,9.027736171146788
9.336752128,0.9998565633094602,8.26266594819363
9.350427648,0.9998735158859331,7.497479517649945
9.364102144,0.999896046568941,6.73210677745441
9.377777664,0.9999231680671116,5.966471112949687
9.391453184,0.9999537632182206,5.200532602415877
9.405128704,0.9999864303710568,4.434250185360817
9.4188032,1.000019889252255,3.667623508765131
9.43247872,1.0000525232781563,2.9006374302659967
9.44615424,1.0000830745596334,2.1332975295014864
9.459828736,1.0001102736426475,1.3656672591484342
9.473504256,1.0001326283625158,0.5977481955700955
9.487179776,1.0001496188468455,-0.17037714703854928
9.500854272,1.0001601914251539,-0.938620663465898
9.514529792,1.0001638414858736,-1.706923147319656
9.528205312,1.000160723656424,-2.475198111760526
9.541880832,1.0001507635560294,-3.24337005595408
9.555555328,1.0001341559530303,-4.011380844491254
9.569230848,1.0001120013736067,-4.779119149453596
9.582906368,1.000085084300594,-5.546545311046098
9.596580864,1.0000544559739963,-6.313607972300414
9.610256384,1.0000216102540247,-7.080274309704107
9.623931904,0.9999879013869895,-7.846526529274973
9.6376064,0.9999546220684791,-8.612338496550656
9.65128192,0.9999234580659947,-9.37777323513269
9.66495744,0.9998956369448304,-10.1428298035601
9.67863296,0.9998723017281246,-10.907559381598164
9.692307456,0.9998546032571405,-11.672039921969471
9.705982976,0.9998431238803621,-12.436328796100126
9.719658496,0.9998386333774958,-13.200520423216348
9.733332992,0.9998411444195716,-13.964673476300424
9.747008512,0.9998505701565817,-14.728898786616275
9.760684032,0.9998664899341817,-15.49327320292129
9.774358528,0.9998884388258295,-16.257856910370474
9.788034048,0.9999151111626592,-17.02272342189116
9.801709568,0.9999457538254564,-17.787951888205328
9.815385088,0.9999788287754227,-18.553535618829617
9.829059584,1.0000129837252323,-19.319550108251153
9.842735104,1.0000467210529813,-20.085946605292005
9.856410624,1.0000785738088456,-20.852735826140314
9.87008512,1.0001071328806364,-21.61989860064764
9.88376064,1.000131286438093,-22.38738836156061
9.89743616,1.000149840333921,-23.155153263461294
9.911110656,1.0001621338162716,-23.923073838348536
9.924786176,1.000167512081416,-24.6911341959472
9.938461696,1.0001658229939847,-25.459212878015798
9.952137216,1.0001570198148,-26.22726559223177
9.965811712,1.0001414870403644,-26.995193085673325
9.979487232,1.0001199925298359,-27.762885193737795
9.993162752,1.0000933493320554,-28.53032064455981
10.006837248,1.0000627978001169,-29.29743437902309
10.020512768,1.0000294657088942,-30.064169593786943
10.034188288,0.9999949714411818,-30.83052144242381
10.047862784,0.9999607955336116,-31.596503234157876
10.061538304,0.9999282316581071,-32.362082870096444
10.075213824,0.9998988245836623,-33.12732641911113
10.088889344,0.9998738678284059,-33.89227686723522
10.10256384,0.9998544814404938,-34.65696361115833
10.11623936,0.9998413321593566,-35.421493681683344
10.12991488,0.9998351064412684,-36.185944429239406
10.143589376,0.9998360598677203,-36.95036024647564
10.157264896,0.9998441417917414,-37.71487240418174
10.170940416,0.9998591043311441,-38.479569015915686
10.184614912,0.9998803306439024,-39.24449289696688
10.198290432,0.9999067119157508,-40.009744608304125
10.211965952,0.9999372769289656,-40.775375358162556
10.225641472,0.9999707654425598,-41.54141443111836
10.239315968,1.00000558115025,-42.307894509205504
10.252991488,1.0000403130723268,-43.07482983903224
10.266667008,1.0000733789534864,-43.84220070505804
10.280341504,1.0001034823580275,-44.6100074367846
10.294017024,1.0001293711297903,-45.378192081477756
10.307692544,1.000149666334107,-46.14671322699232
10.32136704,1.0001636217098147,-46.915445881492154
10.33504256,1.000170639276823,-47.68438062838262
10.34871808,1.0001704015592843,-48.45338086456203
10.3623936,1.000162826197082,-49.22239433054978
10.376068096,1.0001484077401765,-49.991334328890744
10.389743616,1.000127585902699,-50.76010264179692
10.403419136,1.000101229634544,-51.528647050939114
10.417093632,1.000070668149509,-52.296910942936755
10.430769152,1.000036948255889,-53.06482521891767
10.444444672,1.000001699493902,-53.83239674767054
10.458119168,0.9999664231719855,-54.59959371210494
10.471794688,0.9999325691212789,-55.36645042126056
10.485470208,0.999901555969677,-56.13294993607349
10.499145728,0.9998749728720041,-56.89917661408518
10.512820224,0.9998536019972425,-57.66517851498289
10.526495744,0.9998386062612514,-58.43102585532854
10.540171264,0.9998305738959562,-59.196783990141185
10.55384576,0.9998298440997776,-59.96255818174789
10.56752128,0.9998365885962829,-60.72842131842093
10.5811968,0.9998504107255024,-61.49448892139056
10.594871296,0.9998706477879281,-62.26081323169657
10.608546816,0.9998965779443169,-63.02748079828548
10.622222336,0.9999270789153469,-63.794548747960114
10.635897856,0.9999607618606867,-64.56207378585661
10.649572352,0.9999961094107952,-65.33007942491186
10.663247872,1.0000318219705746,-66.09857390552624
10.676923392,1.000066163569697,-66.86758217493755
10.690597888,1.0000976836899849,-67.63704046722636
10.704273408,1.0001250637097339,-68.40694114133859
10.717948928,1.0001470828877395,-69.17719290217774
10.731623424,1.0001627589593916,-69.94776179035911
10.745298944,1.0001714462012623,-70.71854048272068
10.758974464,1.0001726594685332,-71.48946948377547
10.772649984,1.0001663376352168,-72.26045403950444
10.78632448,1.0001529033452805,-73.03140164560843
10.8,1.000132774033607,-73.80221890632774
10.81367552,1.0001067458980335,-74.57285992894698
10.827350016,1.0000760662157644,-75.3432401675205
10.841025536,1.0000418759638026,-76.1133108530762
10.854701056,1.0000057631046928,-76.8830695066235
10.868376576,0.9999693350622328,-77.65246112298495
10.882051072,0.9999338957087254,-78.42150309418459
10.895726592,0.9999012698479154,-79.19022909518729
10.909402112,0.9998726428883588,-79.9586776976241
10.923076608,0.9998493325893244,-80.72690286116442
10.936752128,0.9998324246816194,-81.49498226012284
10.950427648,0.999822561128918,-82.262968096757
10.964102144,0.9998201625959126,-83.03099692947892
10.977777664,0.9998253980132362,-83.79910635867351
10.991453184,0.9998379861945845,-84.56743094952034
11.005128704,0.9998574982019496,-85.33602963723023
11.0188032,0.9998830225158288,-86.10499300802883
11.03247872,0.9999135684047011,-86.87437347510632
11.04615424,0.9999476702358235,-87.64425692726651
11.059828736,0.9999840246965156,-88.41463435659432
11.073504256,1.0000209199929062,-89.18556020188811
11.087179776,1.0000569059570812,-89.95700689195675
11.100854272,1.0000903629676523,-90.72898252178783
11.114529792,1.0001199025212906,-91.50140923535552
11.128205312,1.000144134597695,-92.27428169194228
11.141880832,1.0001621738320738,-93.04748049815983
11.155555328,1.0001730348328688,-93.82098433812948
11.169230848,1.0001763791287008,-94.59463950937887
11.182906368,1.0001720225924797,-95.36842810473135
11.196580864,1.0001602139036823,-96.14217953822529
11.210256384,1.0001412477651395,-96.91589683949768
11.223931904,1.0001161864884944,-97.68943936661242
11.2376064,1.000085908404126,-98.46275222079228
11.25128192,1.0000518013583064,-99.23577680150494
11.26495744,1.0000153506696208,-100.00849272019785
11.27863296,0.999978048722628,-100.7808757579883
11.292307456,0.9999415846959306,-101.55291731900164
11.305982976,0.9999073925008894,-102.32464350497281
11.319658496,0.9998771802142433,-103.09609993747019
11.333332992,0.9998520711775551,-103.86733068780072
11.347008512,0.9998332477534363,-104.63841334435644
11.360684032,0.9998215789569996,-105.40938564717975
11.374358528,0.9998174075695903,-106.18040967814176
11.388034048,0.9998211610061629,-106.9515211887635
11.401709568,0.999832498490057,-107.72281732786227
11.415385088,0.9998510620374959,-108.49441421259974
11.429059584,0.9998759754142135,-109.26639248473543
11.442735104,0.999906443757409,-110.0388006553099
11.456410624,0.999940814383905,-110.81170194128484
11.47008512,0.9999777349838228,-111.58514808840341
11.48376064,1.000015735018361,-112.359158253813
11.49743616,1.0000530985584077,-113.13372539284545
