freq,mag,phase
6.0,0.9999246959416288,128.84982819671913
6.041451008,0.99992664704032,126.03239992826077
6.082901504,0.9999291234412486,123.2178695939785
6.124352512,0.9999323790636013,120.40615887622972
6.165803008,0.9999363989144487,117.59722989955205
6.207254016,0.9999409215028087,114.79099370076682
6.248704512,0.9999462947181854,111.9874004145411
6.29015552,0.9999520570730879,109.18640918536121
6.331606016,0.9999584792269781,106.38791771541736
6.373057024,0.9999653060739008,103.59183368153178
6.41450752,0.9999725610267207,100.79812592777121
6.455958528,0.9999801764995002,98.00671941479816
6.497409536,0.9999880952068921,95.21748333239813
6.538860032,0.9999962182132576,92.4304014648709
6.58031104,1.0000044935693457,89.64535544346228
6.621761536,1.0000128800569303,86.86226538408617
6.663212544,1.0000210952821735,84.08105814158633
6.70466304,1.0000293326788081,81.30162767268324
6.746114048,1.000037385841787,78.52390105707642
6.787564544,1.0000451911377544,75.74777797086082
6.829015552,1.0000526289230838,72.97318167567714
6.87046656,1.000059745442524,70.20001013865017
6.911917056,1.0000663636771594,67.42817542007522
6.953368064,1.0000725444254048,64.65757459488545
6.99481856,1.0000780940456844,61.88812151459163
7.036269568,1.0000830900027453,59.11973868335093
7.077720064,1.0000873184142973,56.352295050749156
7.119171072,1.000090973905096,53.585716506057345
7.160621568,1.0000937587740952,50.8199026366208
7.202072576,1.0000958068760808,48.054773264452606
7.243523072,1.0000970633617177,45.2902098611234
7.28497408,1.0000976000195239,42.52612717037431
7.326425088,1.0000972672256794,39.762420538806616
7.367875584,1.0000962258660784,36.99901142334148
7.409326592,1.000094383631012,34.2357733465082
7.450777088,1.0000917896877968,31.472646528307077
7.492228096,1.0000884329238875,28.709506017811623
7.533678592,1.0000844212862001,25.94626023765265
7.5751296,1.0000797825856378,23.182816892170997
7.616580096,1.0000745420168007,20.419090639459597
7.658031104,1.000068740695598,17.6549623389345
7.699482112,1.0000623751769964,14.890362066638549
7.740932608,1.0000556618794023,12.125171049305433
7.782383616,1.0000485275339142,9.359318139423417
7.823834112,1.000041224737315,6.592702100317805
7.86528512,1.0000335485243124,3.825235883490161
7.906735616,1.0000258057342304,1.0568206526820598
7.948186624,1.0000179138484726,-1.7126261928813458
7.98963712,1.0000101203451983,-4.483198322449794
8.031088128,1.000002359142643,-7.254993158422923
8.072538624,0.9999946271277137,-10.028077078492277
8.113989632,0.9999871673237094,-12.802549415825753
8.15544064,0.9999800666537507,-15.578476529193264
8.196891136,0.9999732075070592,-18.35597064426979
8.238342144,0.999966713114635,-21.135063330909944
8.27979264,0.9999606804877462,-23.915876438642876
8.321243648,0.9999551586975431,-26.6984847578398
8.362694144,0.9999500975573612,-29.48291183756198
8.404145152,0.9999457381171812,-32.26928798832149
8.445595648,0.999941898104256,-35.057658227974635
8.487046656,0.999938691121043,-37.84807729231001
8.528497664,0.9999360392897778,-40.64062936633714
8.56994816,0.999934138933525,-43.43535690318121
8.611398656,0.9999328151112234,-46.23232157724427
8.652850176,0.9999322531055496,-49.031594580027665
8.694300672,0.9999322374263245,-51.83321828446601
8.735751168,0.9999329372062166,-54.63722553927842
8.777201664,0.9999341008921081,-57.443668063134524
8.818653184,0.9999360312220207,-60.25259987370677
8.86010368,0.9999384770442863,-63.064065498151095
8.901554176,0.9999413870833506,-65.87807452006862
8.943004672,0.9999447014286015,-68.69465477944534
8.984456192,0.9999485585492982,-71.51386441442065
9.025906688,0.9999528144543902,-74.33570327103635
9.067357184,0.9999574600694512,-77.16017557921708
9.108808704,0.9999623844879776,-79.98734413582328
9.1502592,0.9999676066626024,-82.817174817134
9.191709696,0.9999729641951496,-85.64968602994766
9.233160192,0.9999785058284921,-88.48489279551883
9.274611712,0.9999842588841111,-91.32278300731596
9.316062208,0.9999899679208271,-94.16335424302099
9.357512704,0.9999957214753408,-97.00660827657401
9.398964224,1.0000014767426033,-99.85250025991074
9.44041472,1.000007228460948,-102.70104174985465
9.481865216,1.0000128132287642,-105.55219856972897
9.523315712,1.0000182915539584,-108.40593871641508
9.564767232,1.0000235862421,-111.26225643817828
9.606217728,1.0000287683510298,-114.12111490952375
9.647668224,1.0000336522706266,-116.98243027996216
9.68911872,1.0000382360062297,-119.84622040734686
9.73057024,1.0000426327004686,-122.7124066885348
9.772020736,1.0000467221826166,-125.58096786461779
9.813471232,1.0000506068166617,-128.45180773757056
9.854922752,1.0000540537981002,-131.32489127871642
9.896373248,1.000057252278857,-134.20018972978235
9.937823744,1.0000601967791554,-137.07759434527398
9.97927424,1.0000627668839182,-139.9570732189532
10.02072576,1.0000649118812879,-142.83853788000184
10.062176256,1.0000668915945379,-145.72190865142005
10.103626752,1.000068418588689,-148.60714584282613
10.145077248,1.0000697200843582,-151.49414295198815
10.186528768,1.0000706496987144,-154.38281565082363
10.227979264,1.0000713410292532,-157.27307914920146
10.26942976,1.0000717537929873,-160.16488164165386
10.31088128,1.000071783022298,-163.05810832649567
10.352331776,1.0000715711306853,-165.9526492357262
10.393782272,1.0000710411342821,-168.84845675016072
10.435232768,1.0000702380886157,-171.7454014254965
10.476684288,1.0000691168127251,-174.64340699342492
10.518134784,1.0000678030533776,-177.54237820331056
10.55958528,1.0000661415908048,179.55781215673466
10.601035776,1.0000642999808025,176.65725045033443
10.642487296,1.0000621283657307,173.7560239404431
10.683937792,1.0000596252209446,170.85426472988118
10.725388288,1.0000570109520204,167.95204932176696
10.766839808,1.0000540841615804,165.04949614493262
10.808290304,1.0000508592143782,162.1467254522826
10.8497408,1.0000473986029919,159.2438027921599
10.891191296,1.0000436258255516,156.3408793843986
10.932642816,1.0000396669544565,153.4380460172723
10.974093312,1.0000354328463001,150.53539560067443
11.015543808,1.0000309999805308,147.63304078793345
11.056995328,1.0000262950337275,144.73110511149258
11.098445824,1.0000214866673334,141.82969679892366
11.13989632,1.0000163756401883,138.9288620062292
11.181346816,1.0000110929855883,136.02876664649926
11.222798336,1.0000055673129036,133.12951284908485
11.264248832,0.9999999081861255,130.23115787285596
11.305699328,0.9999941707419574,127.33383782315475
11.347149824,0.999988316042761,124.4376330949536
11.388601344,0.9999824255818349,121.54265421199754
11.43005184,0.9999764842989655,118.64898652264763
11.471502336,0.9999704072197563,115.75671825232403
11.512953856,0.9999645375597364,112.86594408014291
11.554404352,0.9999586224468658,109.97673820559645
11.595854848,0.9999528722846134,107.08921970382823
11.637305344,0.9999473038124983,104.20342386281476
11.678756864,0.9999419347331573,101.31948122538869
11.72020736,0.9999368007283402,98.43741011206748
11.761657856,0.9999319817949465,95.55732605479811
11.803108352,0.9999275706213129,92.67928475294508
11.844559872,0.9999235163127669,89.80334291970954
11.886010368,0.999920047420759,86.92957238297379
11.927460864,0.9999169646352686,84.05804157422659
11.968912384,0.9999144189102437,81.18877541611022
12.01036288,0.9999126150726477,78.32184781311109
12.051813376,0.9999113582356893,75.45732070442902
12.093263872,0.9999108986070477,72.59519644825339
12.134715392,0.9999110347284763,69.73554515310147
12.176165888,0.9999119907509054,66.87839631704601
12.217616384,0.999913713224141,64.02377517357458
12.25906688,0.9999162482325122,61.17173180353055
12.3005184,0.999919473284091,58.32226627640172
12.341968896,0.9999235848195231,55.475390627178754
12.383419392,0.9999285032096643,52.63115877005135
12.424870912,0.9999342113689802,49.78955653585901
12.466321408,0.9999406301359962,46.95060830202327
12.507771904,0.9999478340141027,44.11429654139543
12.5492224,0.999955739241307,41.2806576216263
12.59067392,0.9999642644513042,38.44967442908042
12.632124416,0.9999733768929431,35.621319706364226
12.673574912,0.9999831401530317,32.795622621258595
12.715025408,0.9999933105042221,29.972552007297065
12.756476928,1.000003884288072,27.152104633516164
12.797927424,1.0000147462191986,24.33425202839208
12.83937792,1.000025871835633,21.518985189856433
12.88082944,1.000037132005473,18.706267450310623
12.922279936,1.000048445513301,15.89607765087102
12.963730432,1.0000596812608855,13.08839975655322
13.005180928,1.0000708098254674,10.283192133948427
13.046632448,1.0000816927674019,7.480417056515068
13.088082944,1.0000921442611193,4.68005542997416
13.12953344,1.0001021859335881,1.882057075237939
13.17098496,1.0001114687851762,-0.9136236656333472
13.212435456,1.000120416138836,-3.7070263988341368
13.253885952,1.000128263651438,-6.498181114220248
13.295336448,1.0001354742202346,-9.287155365847442
13.336787968,1.0001415291647544,-12.07397867568335
13.378238464,1.0001465820247781,-14.858708172985363
13.41968896,1.0001505506163921,-17.641400670021646
13.461139456,1.0001533495901578,-20.42211556417666
13.502590976,1.00015477007207,-23.200899315125852
13.544041472,1.0001550931035283,-25.977803960425163
13.585491968,1.000153834967579,-28.752909893652816
13.626943488,1.0001514168092138,-31.526256128975216
13.668393984,1.0001474284325238,-34.29792054837519
13.70984448,1.0001420759144348,-37.06794265669063
13.751294976,1.0001354085913696,-39.83641503576638
13.792746496,1.0001273468353762,-42.60340265289534
13.834196992,1.0001179088789824,-45.368950900427706
13.875647488,1.0001072178884005,-48.13316711468658
13.917097984,1.00009530423082,-50.896069003705634
13.958549504,1.0000822407109227,-53.657781859267914
14.0,1.0000679561342298,-56.41834281888366
