freq,mag,phase
6.0,0.999439327113393,-35.02821853955215
6.00322816,0.9995077868609973,-35.15239529155137
6.006456832,0.9996064759223832,-35.27775378421101
6.009684992,0.9997291834459737,-35.404797069004246
6.012913664,0.9998687683105977,-35.533702936564765
6.016141824,1.0000163704342673,-35.664711975584076
6.019370496,1.0001627830216084,-35.79787480154454
6.022598656,1.0002987944498833,-35.93310010367376
6.025827328,1.000416048243744,-36.07017272342258
6.029055488,1.0005073455338198,-36.20877330472088
6.03228416,1.0005668331066024,-36.348494096158085
6.03551232,1.0005909325240052,-36.4887680543294
6.038740992,1.0005780622571412,-36.629243196056905
6.041969152,1.0005288433205652,-36.76921169799867
6.045197824,1.0004466636290479,-36.908310550440646
6.048425984,1.000336274090288,-37.04607873261489
6.051654656,1.0002051041236295,-37.182073844898476
6.054882816,1.000060410814597,-37.31616249145345
6.058111488,0.9999119650682217,-37.448104504921155
6.061339648,0.9997686968669531,-37.57800875612474
6.06456832,0.9996395485689553,-37.70594533313372
6.06779648,0.9995324755910078,-37.83222343378743
6.071025152,0.9994543666114073,-37.9571941520982
6.074253312,0.9994098000943439,-38.08132039363541
6.077481984,0.9994018428477195,-38.205069236499284
6.080710144,0.9994308811886488,-38.328965730740656
6.083938816,0.9994951714111839,-38.45360037670451
6.087166976,0.9995907845867688,-38.57938428086522
6.090395648,0.9997116977684863,-38.70677243850384
6.093623808,0.99985033036158,-38.83600833722189
6.09685248,0.9999980050653218,-38.96740503444958
6.10008064,1.0001457486140226,-39.10088699512117
6.103309312,1.0002841760689964,-39.236468563606515
6.106537472,1.0004047051676035,-39.373977332131275
6.109766144,1.000500127713167,-39.51304269005801
6.112994304,1.0005641149869224,-39.65326715035297
6.116222976,1.0005928890081441,-39.79418115120661
6.119451136,1.0005843518935063,-39.93527316502056
6.122679808,1.0005394001085937,-40.07603603648509
6.125907968,1.0004607356351882,-40.21591051601691
6.12913664,1.0003532050985704,-40.35445493475755
6.1323648,1.0002232061303622,-40.49133356643171
6.135593472,1.0000793253655258,-40.62626742612991
6.138821632,0.9999300808111635,-40.75912253109485
6.142049792,0.9997849052708169,-40.88985841332147
6.145278464,0.999652824859194,-41.01865802395163
6.148506624,0.9995421639344354,-41.14567760173819
6.151735296,0.9994597396205073,-41.27134207671062
6.154963456,0.999410543600972,-41.39610516371901
6.158192128,0.9993978904821166,-41.52043402084132
6.161420288,0.9994226872177011,-41.64486581200279
6.16464896,0.9994829681328257,-41.76993731437361
6.16787712,0.9995754118785866,-41.89614529538514
6.171105792,0.9996940451080912,-42.023880529932136
6.174333952,0.999831545493542,-42.15346230237221
6.177562624,0.9999794259293712,-42.28520761061422
6.180790784,1.000128362153559,-42.41901718878265
6.184019456,1.0002690688193556,-42.55501201788426
6.187247616,1.0003930486294228,-42.69289235074767
6.190476288,1.0004922747080705,-42.83241052611237
6.193704448,1.0005608035226237,-42.97316383488418
6.19693312,1.0005941870355226,-43.114674165867825
6.20016128,1.0005904043665288,-43.25642471992878
6.203389952,1.0005498452584445,-43.397872576439234
6.206618112,1.000475014979038,-43.53852842914457
6.209846784,1.0003699253305955,-43.677927529963156
6.213074944,1.0002418591276667,-43.81566439138355
6.216303616,1.000098362820491,-43.951481529111234
6.219531776,0.9999485719085778,-44.08516917266096
6.222760448,0.9998016119942735,-44.216778089849136
6.225988608,0.9996669956243256,-44.34637618630809
6.22921728,0.9995525741880418,-44.47422616276285
6.23244544,0.9994656941072794,-44.60059881049136
6.235674112,0.999411913273039,-44.72600985183205
6.238902272,0.9993945129832625,-44.85090931522077
6.242130944,0.9994146939457117,-44.97586890269016
6.245359104,0.9994709199985166,-45.101423722457334
6.248587776,0.9995599625601065,-45.22803253587012
6.251815936,0.9996764719494418,-45.35613686379541
6.255044608,0.9998125385145138,-45.48605623599885
6.258272768,0.9999602605955182,-45.618092229272946
6.26150144,1.0001103363000978,-45.752278521814596
6.2647296,1.000253291082385,-45.888600804060125
6.267958272,1.000380451518026,-46.02690921090016
6.271186432,1.0004839862186503,-46.16687932419149
6.274415104,1.0005570480060875,-46.30814913961329
6.277643264,1.0005952010520123,-46.450231805041554
6.280871424,1.0005962293646176,-46.59261308232552
6.284100096,1.0005599534518306,-46.73481507946245
6.287328256,1.0004886115689844,-46.87623692321393
6.290556928,1.0003866919182136,-47.01640186512515
6.293785088,1.0002604593888864,-47.15502673122154
6.29701376,1.0001178600929113,-47.2917020921474
6.30024192,0.9999676619513606,-47.426301582826184
6.303470592,0.9998191079423252,-47.55878445891733
6.306698752,0.9996815331962484,-47.68922078719013
6.309927424,0.9995634944609226,-47.81783287095047
6.313155584,0.9994725262910855,-47.9449266391278
6.316384256,0.9994140373949824,-48.07100474787748
6.319612416,0.9993917410827585,-48.19652226664995
6.322841088,0.9994071782798404,-48.32201020786325
6.326069248,0.9994593445306328,-48.44802966139436
6.32929792,0.9995449224700642,-48.574993278382046
6.33252608,0.9996586922109244,-48.70347974736701
6.335754752,0.9997935797258409,-48.83377726969519
6.338982912,0.9999412582336916,-48.966148664830946
6.342211584,1.0000922247200936,-49.100660131198424
6.345439744,1.0002373373414621,-49.237323356036086
6.348668416,1.0003676944840831,-49.37601367987291
6.351896576,1.0004748626780844,-49.5164424056036
6.355125248,1.0005523794269402,-49.65816886477948
6.358353408,1.0005954899307896,-49.800847215017825
6.36158208,1.000601296008797,-49.943919247580645
6.36481024,1.0005695504107681,-50.086773386699186
6.368038912,1.0005022808294302,-50.22896500631408
6.371267072,1.0004033117302051,-50.3700040574268
6.374495744,1.0002791215123976,-50.50946526021344
6.377723904,1.000137440685938,-50.64699908889747
6.380952576,0.999986766533295,-50.78250138129235
6.384180736,0.9998368628887893,-50.915821500695124
6.387409408,0.999696664581813,-51.047099812970544
6.390637568,0.9995750197421647,-51.17650194059722
6.39386624,0.9994798177682976,-51.304358240756436
6.3970944,0.9994166407588211,-51.431088402924715
6.400323072,0.9993895332834513,-51.55719797187819
6.403551232,0.9994001784034707,-51.683262979721626
6.406779904,0.999447990141082,-51.8097044255472
6.410008064,0.9995300129683301,-51.93711621482348
6.413236736,0.9996410402003885,-52.065971320748545
6.416464896,0.9997743285424169,-52.19659110633132
6.419693056,0.9999216754715308,-52.32925037087636
6.422921728,1.000073526611625,-52.46408018206042
6.426149888,1.000220604455656,-52.60114166136911
6.42937856,1.000353914992982,-52.74014817421721
6.43260672,1.000465179888528,-52.881009793878555
6.435835392,1.0005472644572104,-53.02328126847088
6.439063552,1.0005950445726857,-53.166521793698834
6.442292224,1.0006058646858065,-53.3101896420665
6.445520384,1.0005787508922062,-53.45375652039218
6.448749056,1.0005154159562897,-53.596714543199376
6.451977216,1.0004198765623618,-53.73854087844532
6.455205888,1.0002979739120734,-53.87884924851901
6.458434048,1.0001573423043435,-54.017288970496864
6.46166272,1.000006412017508,-54.15364110023325
6.46489088,0.9998550528756541,-54.28786861697086
6.468119552,0.9997124458714479,-54.419972315175414
6.471347712,0.999587360316001,-54.55019957791131
6.474576384,0.9994878385085333,-54.67877891005938
6.477804544,0.9994198442265554,-54.80622565143206
6.481033216,0.9993877513110143,-54.932939187902306
6.484261376,0.9993935972131869,-55.05949588565478
6.487490048,0.9994370713400458,-55.18644467610655
6.490718208,0.9995152800938061,-55.31430340328681
6.49394688,0.9996235347953762,-55.44350037420726
6.49717504,0.9997550268167784,-55.57442547460471
6.500403712,0.9999017888009194,-55.70738669737479
6.503631872,1.0000543521601835,-55.8425900768044
6.506860544,1.0002034664389494,-55.979944556737514
6.510088704,1.0003398367955043,-56.11937943924342
6.513317376,1.0004548577896368,-56.26063444742493
6.516545536,1.000541516445194,-56.403369217059264
6.519774208,1.0005943052238926,-56.547143320952436
6.523002368,1.0006099125572745,-56.69144611959685
6.52623104,1.000587570425211,-56.83570051363046
6.5294592,1.000528417081435,-56.97945348036138
6.532687872,1.0004363433258103,-57.12207558645131
6.535916032,1.0003166733032614,-57.26323916391588
6.539144704,1.00017730725579,-57.40252309203499
6.542372864,1.000026542899334,-57.53977739432438
6.545601536,0.9998738995875893,-57.674855940727404
6.548829696,0.9997288317905829,-57.80783571213027
6.552057856,0.9996003420535089,-57.93884442873845
6.555286528,0.999496361917009,-58.068183523351856
6.558514688,0.9994238847437229,-58.19630040453232
6.56174336,0.9993866876450211,-58.32367143888295
6.56497152,0.9993876858724697,-58.45075431971916
6.568200192,0.9994264058915001,-58.57819244316678
6.571428352,0.9995008104294519,-58.70641135045291
6.574657024,0.9996062017665952,-58.83599033268505
6.577885184,0.9997357321475916,-58.967273831879105
6.581113856,0.9998815994775049,-59.100566802305835
6.584342016,1.000034810425419,-59.236044147992935
6.587570688,1.000185782998879,-59.37369770938016
6.590798848,1.0003249689164473,-59.51352172522157
6.59402752,1.0004438749255387,-59.65518335760146
6.59725568,1.000535018485966,-59.79840631069138
6.600484352,1.0005928193787568,-59.94271935822156
6.603712512,1.0006135690267188,-60.08761098786294
6.606941184,1.0005960555728637,-60.23254674272076
6.610169344,1.0005412781104301,-60.37699538054188
6.613398016,1.000452695741518,-60.52047821151295
6.616626176,1.000335541602761,-60.66247809645345
6.619854848,1.0001975665501677,-60.802634142073614
6.623083008,1.0000469040285198,-60.94078809467529
6.62631168,0.9998931901400838,-61.0767315497133
6.62953984,0.9997458204588268,-61.2105207210931
6.632768512,0.9996138873743223,-61.34238959455177
6.635996672,0.9995058667871629,-61.47250816196848
6.639225344,0.9994284222499943,-61.60130947692958
6.642453504,0.9993863686199547,-61.72924772127202
6.645682176,0.9993820906928783,-61.85690542708373
6.648910336,0.9994162200337027,-61.98481545210365
6.652139008,0.9994866477782585,-62.113472865029316
6.655367168,0.9995887291133239,-62.243416284425294
6.65859584,0.9997163821867076,-62.37503649388194
6.661824,0.9998613441955889,-62.508611931806655
6.665052672,1.000015040435959,-62.64437595641537
6.668280832,1.0001676297494086,-62.782383773677864
6.671509504,1.0003096754565555,-62.92250231986538
6.674737664,1.000432281872559,-63.06460885464524
6.677966336,1.0005278761081053,-63.208282561683575
6.681194496,1.0005907199483253,-63.35309540567552
6.684423168,1.000616625904871,-63.49860466014238
6.687651328,1.0006040631501218,-63.644215572147985
6.690879488,1.000553691798376,-63.78938391140393
6.69410816,1.0004687763571534,-63.93362920481915
6.69733632,1.0003545325683478,-64.07645524058424
6.700564992,1.0002179476982482,-64.21749527196741
6.703793152,1.0000677033553502,-64.35650785446356
6.707021824,0.9999128973544166,-64.49337416080351
6.710249984,0.9997634357680945,-64.6280379175442
6.713478656,0.999628296663532,-64.7606938762676
6.716706816,0.9995160822652857,-64.89156641764568
6.719935488,0.9994337048288028,-65.02110466782142
6.723163648,0.9993864405379501,-65.14969780492571
6.72639232,0.9993772248777318,-65.27789292595864
6.72962048,0.999406507514814,-65.40623775275154
6.732849152,0.9994726737879376,-65.53533621360069
6.736077312,0.999571410309767,-65.66562471146871
6.739305984,0.9996967415212417,-65.7975792713624
6.742534144,0.9998408785927942,-65.93145246648263
6.745762816,0.9999947164456706,-66.06751653068703
6.748990976,1.0001487829805926,-66.20582327629695
6.752219648,1.000293547500058,-66.34630307216656
6.755447808,1.0004200311792653,-66.48873266470684
6.75867648,1.000520185351785,-66.63284380738911
6.76190464,1.000587882250613,-66.77820620393435
6.765133312,1.000618987622571,-66.92425482428357
6.768361472,1.000611391278531,-67.07052515877248
6.771590144,1.000565721982164,-67.21644238708595
6.774818304,1.0004847031612891,-67.36144856776986
6.778046976,1.0003732501615044,-67.50513979964285
6.781275136,1.0002385897207922,-67.64702844418095
6.784503808,1.000088658666719,-67.7869174035774
6.787731968,0.9999331720469188,-67.92467627826419
6.79096064,0.9997814720768752,-68.0601737623966
6.7941888,0.999643159738443,-68.19365683522913
6.797417472,0.999526783200282,-68.32533150450166
6.800645632,0.9994397293955866,-68.45550832584755
6.803874304,0.9993872634461864,-68.58473723666656
6.807102464,0.9993727505740179,-68.7135194809416
6.810331136,0.9993972261397545,-68.84237084424244
6.813559296,0.9994589491009851,-68.97184237542747
6.816787968,0.9995542479251579,-69.10251109093939
6.820016128,0.9996771443857029,-69.23474989351871
6.8232448,0.9998200315494764,-69.36893991479887
6.82647296,0.9999739703676108,-69.50529016547935
6.82970112,1.000129449943561,-69.64388292586044
6.832929792,1.0002768822772445,-69.78465269216171
6.836157952,1.0004068978976608,-69.92750426902104
6.839386624,1.0005115555174142,-70.07202040478359
6.842614784,1.0005843169166473,-70.21782654747933
6.845843456,1.000620568705146,-70.36449701712718
6.849071616,1.000618263167185,-70.51136582928126
6.852300288,1.000577212961856,-70.65800167288053
6.855528448,1.000500263995781,-70.80380399523732
6.85875712,1.0003920069806127,-70.94829177720675
6.86198528,1.0002590455901665,-71.09107257760063
6.865213952,1.0001099446488846,-71.23182162482072
6.868442112,0.9999536058940058,-71.37046327274656
6.871670784,0.9998000631952187,-71.50685032689208
6.874898944,0.9996586494348391,-71.64114275182365
6.878127616,0.9995382526206734,-71.77357837623147
6.881355776,0.9994463699529074,-71.90447695888282
6.884584448,0.999388770829051,-72.03434782961388
6.887812608,0.9993689882570899,-72.16364226476452
6.89104128,0.9993881707004717,-72.29299267518195
6.89426944,0.9994455471194793,-72.42290991774153
6.897498112,0.9995371412091382,-72.55391207281228
6.900726272,0.9996573379819067,-72.68646846331785
6.903954944,0.9997989478236168,-72.82091796535828
6.907183104,0.9999528938804044,-72.9575472993085
6.910411776,1.0001096036149622,-73.09642237468037
6.913639936,1.0002594001630165,-73.23750710027458
6.916868608,1.000393105686838,-73.38068692059512
6.920096768,1.000502121252722,-73.525617308481
6.92332544,1.0005799944403633,-73.6719410479103
6.9265536,1.0006216409477076,-73.81910857608713
6.929782272,1.000624544843362,-73.96664775586947
6.933010432,1.000588475475803,-74.11392269701602
6.936239104,1.000515604750564,-74.26050311097167
6.939467264,1.0004106806967186,-74.40581885892364
6.942695936,1.000279908164833,-74.54942219143176
6.945924096,1.000131574839409,-74.69110755242211
6.949152768,0.9999746749997799,-74.83057316007118
6.952380928,0.9998193704833226,-74.96781876252116
6.9556096,0.9996749913503038,-75.10293879872142
6.95883776,0.999550528824037,-75.23614098522391
6.962066432,0.9994539030020066,-75.36776373297427
6.965294592,0.9993909996051148,-75.49826411626992
6.968522752,0.9993658497290067,-75.62812893922984
6.971751424,0.9993800316120133,-75.75798429456047
6.974979584,0.9994325533731204,-75.8882795454258
6.978208256,0.999520298091894,-76.01965926803592
6.981436416,0.9996378369503758,-76.15253192345955
6.984665088,0.9997778053960299,-76.28724612632351
6.987893248,0.9999313725285861,-76.4241381907998
6.99112192,1.0000893717055508,-76.5632766583501
6.99435008,1.0002414531238182,-76.70465483283051
6.997578752,1.0003787551569543,-76.84813321433413
7.000806912,1.0004922713869802,-76.9934569366634
7.004035584,1.0005750411176777,-77.14022117025532
7.007263744,1.0006219478222051,-77.28794279549386
7.010492416,1.0006302906708278,-77.43607962055022
7.013720576,1.000599177473965,-77.58410306586218
7.016949248,1.0005306948020298,-77.73138188452789
7.020177408,1.0004292647988446,-77.87749151937871
7.02340608,1.000300655353868,-78.02198243954338
7.02663424,1.0001532679670224,-78.16449225192427
7.029862912,0.9999961665510358,-78.30484057890861
7.033091072,0.999839126863138,-78.44295835007689
7.036319744,0.999691901231612,-78.57889621142378
7.039547904,0.9995634261475385,-78.71288516264443
7.042776576,0.9994620609458368,-78.8452256190546
7.046004736,0.999393933202959,-78.97636766205619
7.049233408,0.9993633194404348,-79.1068076951204
7.052461568,0.9993721960462305,-79.23709936762305
7.05569024,0.9994200425003794,-79.36782573123246
7.0589184,0.9995038005657446,-79.49954023054617
7.062147072,0.999618241624422,-79.63268963644661
7.065375232,0.9997563727433553,-79.76771099217802
7.068603904,0.9999097741835558,-79.90480730077941
7.071832064,1.000068534741704,-80.04421125341372
7.075060736,1.0002230465403712,-80.1858749713451
7.078288896,1.0003634737499614,-80.32970979556258
7.081517568,1.0004814516343266,-80.4753746729773
7.084745728,1.000569311517887,-80.62258685678012
7.0879744,1.0006216540890949,-80.77080486235721
7.09120256,1.0006353792105138,-80.9195404065111
7.094431232,1.000609521578755,-81.06820032418472
7.097659392,1.0005455759675208,-81.21622338675559
7.100888064,1.0004475817791347,-81.36314018594724
7.104116224,1.0003215604852027,-81.50842545016626
7.107344384,1.0001753939423859,-81.65184580162108
7.110573056,1.0000181773722803,-81.79304817501479
7.113801216,0.9998595848039878,-81.93200076054812
7.117029888,0.999709404188635,-82.06879215559616
7.120258048,0.9995771230843724,-82.20351347605143
7.12348672,0.9994710359961185,-82.3365880214728
7.12671488,0.9993976137974456,-82.4683706767747
7.129943552,0.9993615729980653,-82.59937717510178
7.133171712,0.9993649694274261,-82.73016638370576
7.136400384,0.9994078126127582,-82.86131180073679
7.139628544,0.999487382577814,-82.99335870794023
7.142857216,0.9995987245643848,-83.12681678954178
7.146085376,0.9997349828953419,-83.26208429283557
7.149314048,0.9998876211897467,-83.39944883669486
7.152542208,1.000047228227392,-83.5390344081033
7.15577088,1.0002038380913658,-83.68096041207349
7.15899904,1.0003477042453446,-83.82509084908814
7.162227712,1.0004698623612867,-83.97112112866051
7.165455872,1.0005627332989582,-84.11875353059726
7.168684544,1.0006207304088548,-84.26745190017688
7.171912704,1.000639904976345,-84.41672012800687
7.175141376,1.0006191980574572,-84.56603637961298
7.178369536,1.0005599013564648,-84.71480976045432
7.181598208,1.000465860654832,-84.86246767752938
7.184826368,1.000342519363067,-85.00861384165488
7.18805504,1.0001976850478052,-85.15286054677307
7.1912832,1.0000405560527272,-85.29492471796405
7.194511872,0.9998805267845776,-85.43477313156066
7.197740032,0.9997277936111282,-85.57234756499062
7.200968704,0.9995916096049152,-85.70788971899533
7.204196864,0.9994807684404025,-85.84165666167458
7.207425536,0.9994021169645051,-85.97406385452383
7.210653696,0.9993603916503635,-86.10564896449235
7.213882368,0.9993583603707576,-86.23691782516805
7.217110528,0.9993961407583334,-86.368469389641
7.2203392,0.9994714044793497,-86.50087938613058
7.22356736,0.9995794136255691,-86.63460457094281
7.226796032,0.9997134256286107,-86.77009580820956
7.230024192,0.9998653357966485,-86.90768852449756
7.233252864,1.000025558132913,-87.04751270006824
7.236481024,1.000184066904392,-87.1896915176671
7.239709696,1.0003310287250697,-87.334076809364
7.242937856,1.0004575614848095,-87.48042546151747
7.246166016,1.0005554506971224,-87.6284292776538
7.249394688,1.0006188708149535,-87.7776142787408
7.252622848,1.0006437226390898,-87.92747467780481
7.25585152,1.0006284947770967,-88.07741056823713
7.25907968,1.0005739833003182,-88.22687179958034
7.262308352,1.0004838684193769,-88.37529843890336
7.265536512,1.0003634683897527,-88.52223544672795
7.268765184,1.0002201291605677,-88.6673160772841
7.271993344,1.0000631234098982,-88.8102707513431
7.275222016,0.9999019414469508,-88.9509380043017
7.278450176,0.999746588871631,-89.0893570804498
7.281678848,0.9996068822472272,-89.22565231173269
7.284907008,0.9994913143985155,-89.3601353432222
7.28813568,0.9994074086455823,-89.49318581561
7.29136384,0.9993599890980112,-89.6253715255924
7.294592512,0.9993523744087139,-89.75711714314204
7.297820672,0.9993849056494066,-89.88906255567893
