freq,mag,phase
6.0,0.9992453181431323,94.3073577911401
6.002285568,0.99956692632044,94.16435504646333
6.004571648,0.9999177618975849,94.01652367651795
6.006857216,1.0002737768809498,93.86354872185794
6.009142784,1.000612445873071,93.70558063920367
6.011428352,1.0009122885126678,93.54300718823637
6.013714432,1.00115458161857,93.37649670702199
6.016,1.0013237796681922,93.20708391192858
6.018285568,1.0014094383158791,93.03584980814895
6.020571648,1.0014059163168054,92.86402003208907
6.022857216,1.001313539867969,92.69291484361516
6.025142784,1.001137946084319,92.52375541377286
6.027428352,1.0008903188895717,92.35770582498905
6.029714432,1.0005860903030854,92.19568406220478
6.032,1.0002446224866581,92.03831150647454
6.034285568,0.9998871873762147,91.88609495264798
6.036571648,0.9995366092207764,91.73902043131902
6.038857216,0.9992148503569518,91.59685431279742
6.041142784,0.9989424831640756,91.45905433229939
6.043428352,0.9987367817776535,91.32476409538468
6.045714432,0.9986106284460436,91.19292548549801
6.048,0.9985723216882874,91.06231946618176
6.050285568,0.9986242414742587,90.93159953451709
6.052571648,0.9987630027413708,90.79957792892284
6.054857216,0.998980027233767,90.66495204002338
6.057142784,0.9992614678212269,90.52675093174969
6.059428352,0.9995896746533188,90.38412352483246
6.061714432,0.9999437346472602,90.23658908523504
6.064,1.0003012415395547,90.08390362567276
6.066285568,1.0006395535874317,89.92619362787018
6.068571648,1.0009376166633104,89.76388144685163
6.070857216,1.001176356241496,89.59773299887978
6.073142784,1.0013406989456208,89.42867569668307
6.075428352,1.0014203443781073,89.25784706347032
6.077714432,1.0014100679709308,89.08656686383577
6.08,1.0013107103534868,88.91607477290842
6.082285568,1.0011283076846462,88.74768254136994
6.084571648,1.0008744650563692,88.5824381083044
6.086857216,1.0005651600089858,88.42129787523344
6.089142784,1.0002195746020612,88.26492411205753
6.091428352,0.9998599368560674,88.11369129683436
6.093714432,0.9995085720373924,87.96765932523677
6.096,0.999187955311104,87.8265157495291
6.098285568,0.9989184325803877,87.68970484865878
6.100571648,0.998717015728097,87.55634172983036
6.102857216,0.9985966080596872,87.42535984009227
6.105142784,0.9985648336885302,87.29551498841802
6.107428352,0.998623719444245,87.16550874251641
6.109714432,0.9987695940220848,87.03404157530737
6.112,0.998993322528498,86.89988172034602
6.114285568,0.999280518242395,86.76206534465274
6.116571648,0.9996133515676559,86.61971540769336
6.118857216,0.9999705114973337,86.47240057363182
6.121142784,1.000329530523248,86.31989432520528
6.123428352,1.0006675619759746,86.16238975642662
6.125714432,1.0009634693294118,86.00026888878915
6.128,1.0011984093359843,85.8343544835214
6.130285568,1.0013576208322248,85.665597266428
6.132571648,1.001430997206037,85.49515269516505
6.134857216,1.0014139529316812,85.32436330393271
6.137142784,1.0013074002298552,85.15446132778072
6.139428352,1.0011181118401735,84.98670809119768
6.141714432,1.0008579672381814,84.8222325504452
6.144,1.0005432084994508,84.66193202233845
6.146285568,1.0001937427172125,84.50646872055795
6.148571648,0.9998316906117934,84.35621514056662
6.150857216,0.9994799044601947,84.21111904918862
6.153142784,0.9991606373681537,84.07096166781899
6.155428352,0.9988941474852189,83.93509272588857
6.157714432,0.9986973755847044,83.80260083371122
6.16,0.9985827681127899,83.67241523482294
6.162285568,0.9985576135847208,83.54328654853259
6.164571648,0.9986237761024636,83.41387171605578
6.166857216,0.9987769288961184,83.28285023995075
6.169142784,0.9990073312939703,83.14912323663263
6.171428352,0.9993005913370275,83.01157664565592
6.173714432,0.9996379611619122,82.86944489637455
6.176,0.9999981617781292,82.72229538838484
6.178285568,1.0003585069055296,82.56992480240433
6.180571648,1.0006961842550235,82.41248240532299
6.182857216,1.0009897743966538,82.25050175035238
6.185142784,1.0012207818553,82.08474841631117
6.187428352,1.0013745987366733,81.91621803845145
6.189714432,1.0014414684576205,81.74611191852014
6.192,1.001417244374904,81.57571083491217
6.194285568,1.001303387920417,81.40630354181958
6.196571648,1.001107003666311,81.23917929263841
6.198857216,1.0008402968536902,81.07543791454009
6.201142784,1.000520356239125,80.91592022324234
6.203428352,1.0001669413300418,80.76131571534683
6.205714432,0.9998026919703614,80.61194040719906
6.208,0.9994504978011398,80.46778046636565
6.210285568,0.9991327495339716,80.3285241902075
6.212571648,0.9988693729078687,80.19351047697023
6.214857216,0.9986773891943475,80.06185190265006
6.217142784,0.9985688631752843,79.93240323112555
6.219428352,0.99855075276342,79.80387801309779
6.221714432,0.9986243733406612,79.67498367731675
6.224,0.9987848994849493,79.54442325438937
6.226285568,0.9990222653037213,79.41098983064323
6.228571648,0.9993214686764548,79.27365233943428
6.230857216,0.9996635447641011,79.13163448365025
6.233142784,1.0000268204296046,78.98454740866212
6.235428352,1.0003884269040189,78.83222407728047
6.237714432,1.0007253644579193,78.67483310723937
6.24,1.0010164232579843,78.51291238556779
6.242285568,1.0012432240014053,78.34723882690359
6.244571648,1.0013915165018117,78.17883857164531
6.246857216,1.0014517244777543,78.0090040642446
6.249142784,1.0014200900855426,77.83895796174816
6.251428352,1.0012987097501003,77.67001312397069
6.253714432,1.0010949874052635,77.50346212591847
6.256,1.000821773233685,77.3403326072168
6.258285568,1.0004962833526816,77.18157562491427
6.260571648,1.0001391076375905,77.02777612190368
6.262857216,0.9997727175619141,76.87924450443737
6.265142784,0.9994202441916451,76.73592888564457
6.267428352,0.9991040971853736,76.59754484276311
6.269714432,0.9988442441130347,76.4633520695216
6.272,0.9986573796122782,76.33244037779444
6.274285568,0.9985552739549508,76.20363137252447
6.276571648,0.998544293552279,76.07568212252232
6.278857216,0.9986254303108325,75.94724937125368
6.281142784,0.9987936393498014,75.81701400159803
6.283428352,0.9990379965325704,75.68378101442161
6.285714432,0.9993432710850854,75.546574673957
6.288,0.999690071683544,75.40463636028863
6.290285568,1.0000563715836062,75.25752384827902
6.292571648,1.0004190014638958,75.10514483728355
6.294857216,1.0007551743216248,74.94770207746434
6.297142784,1.001043576442968,74.78577197359527
6.299428352,1.001265963308755,74.62011877818799
6.301714432,1.0014082107458862,74.4518628481698
6.304,1.0014616335170647,74.28219520576822
6.306285568,1.0014224757240047,74.112417639289
6.308571648,1.0012932071807497,73.94386880794198
6.310857216,1.0010820850107014,73.77779573297416
6.313142784,1.0008022458513104,73.61527623802087
6.315428352,1.000471285364724,73.4572188232206
6.317714432,1.0001102419843955,73.30417823359434
6.32,0.9997416696436432,73.15644496372903
6.322285568,0.9993891632248978,73.01394784632454
6.324571648,0.9990748717747626,72.87635959146918
6.326857216,0.9988187258624553,72.74292383673162
6.329142784,0.9986371366219553,72.61267126089737
6.331428352,0.99854162335845,72.48447935877307
6.333714432,0.9985382662901876,72.35701438458052
6.336,0.9986273458940701,72.22895669822748
6.338285568,0.9988032140182306,72.09897607896508
6.340571648,0.9990547441321048,71.96588281054444
6.342857216,0.9993662255814071,71.82872808525956
6.345142784,0.9997176345999027,71.68676874806397
6.347428352,1.0000868714196998,71.53955906467883
6.349714432,1.0004505439549183,71.38706120142388
6.352,1.000785766501652,71.22949346074327
6.354285568,1.0010713241340725,71.06742891908286
6.356571648,1.0012889835085912,70.90174022254848
6.358857216,1.00142511718983,70.73350735354126
6.361142784,1.0014712078390715,70.56394995475365
6.363428352,1.001424202094496,70.39439895428464
6.365714432,1.0012870011805242,70.22619902160216
6.368,1.0010682085014588,70.0605844843552
6.370285568,1.0007815725156206,69.89860900564322
6.372571648,1.000445195094305,69.74118310746232
6.374857216,1.0000802052693856,69.58883855137333
6.377142784,0.9997098025125598,69.44183252197281
6.379428352,0.9993571640769133,69.30013728234692
6.381714432,0.9990450528981928,69.16327666549245
6.384,0.9987928060156661,69.03053042664062
6.386285568,0.9986167923924816,68.90090719038132
6.388571648,0.9985281591777607,68.7732267030642
6.390857216,0.9985326064934236,68.64620115187789
6.393142784,0.9986298272947753,68.51842329010992
6.395428352,0.9988137013256521,68.38862696698641
6.397714432,0.9990726149037705,68.25561666738129
6.4,0.999390193909029,68.11843424829222
6.402285568,0.9997463842752873,67.97635186611976
6.404571648,1.0001185305128062,67.82897382989508
6.406857216,1.0004831542077814,67.67625433103332
6.409142784,1.0008171759564257,67.51846666457335
6.411428352,1.0010994902728285,67.35622284296286
6.413714432,1.0013122609471212,67.19042584675235
6.416,1.001442056219484,67.02214205567374
6.418285568,1.001480575151239,66.85264834517912
6.420571648,1.0014254168808618,66.6832665437389
6.422857216,1.001280034825217,66.51536520922258
6.425142784,1.0010534801148772,66.35011761423493
6.427428352,1.000759951278205,66.18864917911719
6.429714432,1.0004179715941501,66.03179827442149
6.432,1.0000491954134811,65.88010692926827
6.434285568,0.9996767697091916,65.73382443053421
6.436571648,0.9993244318196687,65.59278195539815
6.438857216,0.9990144935900186,65.45660639704089
6.441142784,0.9987666043340999,65.32449242700213
6.443428352,0.9985964549514599,65.1954437413383
6.445714432,0.9985150885852792,65.06822096415597
6.448,0.9985274519286439,64.94155405320583
6.450285568,0.9986331450704976,64.81401598501074
6.452571648,0.9988252720583619,64.68431573903365
6.454857216,0.9990917862052127,64.55127362292305
6.457142784,0.9994157142238308,64.41394038668638
6.459428352,0.9997765797383179,64.27167176148706
6.461714432,1.0001515541434085,64.1240293548777
6.464,1.0005169787309767,63.971030074654216
6.466285568,1.0008496128235547,63.81296281140303
6.468571648,1.0011285287050777,63.65046755061753
6.470857216,1.0013360544798946,63.4844626603407
6.473142784,1.0014589744175133,63.31606943124359
6.475428352,1.0014896705461394,63.146555439666464
6.477714432,1.0014260749895414,62.977257849256894
6.48,1.0012721579823907,62.809577520916214
6.482285568,1.0010375086041061,62.644681504409135
6.484571648,1.0007369265650639,62.48367895566432
6.486857216,1.0003893539179158,62.32735579352687
6.489142784,1.0000166313378693,62.17628558808193
6.491428352,0.9996424136430625,62.030641055435936
6.493714432,0.9992904741447011,61.89026260260233
6.496,0.998983042457077,61.75471177378494
6.498285568,0.9987396040212471,61.62315014635401
6.500571648,0.99857576860021,61.494614150035765
6.502857216,0.9985019744034347,61.36778626426227
6.505142784,0.9985227601531211,61.24139456375931
6.507428352,0.9986371356296552,61.11400732820315
6.509714432,0.9988377927033981,60.98432722664357
6.512,0.9991120552907801,60.851193720213466
6.514285568,0.9994424438377861,60.71366716873364
6.516571648,0.9998081548874523,60.57107998929337
6.518857216,1.0001859111518738,60.42310164943437
6.521142784,1.0005519330273323,60.26970947971706
6.523428352,1.0008829368335521,60.1112648757669
6.525714432,1.0011581658943185,59.948444388194105
6.528,1.0013601213093892,59.782153375007894
6.530285568,1.001475953301634,59.61358123615002
6.532571648,1.0014983925148926,59.44398647702973
6.534857216,1.0014259377133512,59.27475531579556
6.537142784,1.001263102653398,59.10721486824213
6.539428352,1.0010201392764255,58.94262131197301
6.541714432,1.0007122496328176,58.78200556072455
6.544,1.0003589281686216,58.626180009954034
6.546285568,0.9999823935866057,58.4756718757496
6.548571648,0.9996064854469368,58.33060592184858
6.550857216,0.9992551072959897,58.1908500439023
6.553142784,0.9989504417837649,58.05587925610108
6.555428352,0.9987119576083775,57.92488371985253
6.557714432,0.9985547472720705,57.79674867671187
6.56,0.9984888601747446,57.67027638101765
6.562285568,0.9985186339125893,57.54405342119347
6.564571648,0.9986421874256743,57.416744798979956
6.566857216,0.9988516112293523,57.28699704408494
6.569142784,0.9991338689702004,57.15368395265346
6.571428352,0.9994709019615645,57.01585973912703
6.573714432,0.9998414918089125,56.872870693398625
6.576,1.000221997579819,56.72445083025522
6.578285568,1.000588545332929,56.570583211358176
6.580571648,1.000917737544649,56.41170325962806
6.582857216,1.0011888743196005,56.24844191509505
6.585142784,1.0013846769534658,56.081792510641456
6.587428352,1.0014929097986427,55.91292462914816
6.589714432,1.0015066506189074,55.74320977930849
6.592,1.0014248689242482,55.57396258497345
6.594285568,1.0012527011011625,55.40651546645817
6.596571648,1.0010009916670866,55.242161216617866
6.598857216,1.0006855611261163,55.08191631116649
6.601142784,1.0003263345718747,54.92654916595917
6.603428352,0.9999459162565079,54.77656801944956
6.605714432,0.9995684396825479,54.632054619805984
6.608,0.9992178131880036,54.492877138934716
6.610285568,0.9989162913320543,54.35844258329178
6.612571648,0.9986830527624301,54.227913833289605
6.614857216,0.9985330465575343,54.10016147077455
6.617142784,0.9984756814407173,53.973949577847954
6.619428352,0.9985149591740511,53.84788288217606
6.621714432,0.9986481680811041,53.72054344004164
6.624,0.9988670329892859,53.590646427739806
6.626285568,0.9991577464344229,53.45705652512536
6.628571648,0.9995017267697435,53.31882196534659
6.630857216,0.9998772758792486,53.17534971882587
6.633142784,1.0002605974788226,53.026376022734304
6.635428352,1.0006273149820026,52.87195044945616
6.637714432,1.000954430374349,52.712483516562365
6.64,1.0012210254104923,52.54870349330812
6.642285568,1.0014102953496746,52.38159988021042
6.644571648,1.0015102959020956,52.2124156659653
6.646857216,1.0015145718744751,52.042467139909
6.649142784,1.0014227602116956,51.87312591517038
6.651428352,1.0012407371172454,51.70578067813471
6.653714432,1.0009797765650148,51.541613754049116
6.656,1.0006563807399602,51.381661150719864
6.658285568,1.000290899655656,51.22671165895386
6.660571648,0.9999064750597942,51.07722611519749
6.662857216,0.9995274958019645,50.93327967966809
6.665142784,0.9991778279231106,50.79461045007771
6.667428352,0.9988799163233587,50.66066889860162
6.669714432,0.9986525974511091,50.53056719328241
6.672,0.9985103856691511,50.40317248608006
6.674285568,0.9984624596869418,50.277160745499806
6.676571648,0.9985118890253919,50.15114941080546
6.678857216,0.9986556265860064,50.02371179489083
6.681142784,0.9988845321782908,49.8935806574103
6.683428352,0.999184235041669,49.759585041519834
6.685714432,0.9995355864108559,49.6208534252197
6.688,0.9999163865371461,49.47677993735875
6.690285568,1.0003024666380653,49.327107957130515
6.692571648,1.0006693704949023,49.17197747351979
6.694857216,1.000993841780272,49.01183419302033
6.697142784,1.001255335242197,48.847417882204056
6.699428352,1.0014372606925035,48.67978038438457
6.701714432,1.0015281028567988,48.51015876118287
6.704,1.0015219570283487,48.339900907938315
6.706285568,1.001419248922973,48.170423230387826
6.708571648,1.0012262872107582,48.0030714325782
6.710857216,1.0009553176241694,47.83906382652438
6.713142784,1.0006231961552063,47.67942089634827
6.715428352,1.0002511285883275,47.52487794799105
6.717714432,0.9998625782225508,47.37585647334785
6.72,0.9994819645994787,47.23241415628592
6.722285568,0.9991338124495408,47.09429633585725
6.724571648,0.9988400666581885,46.960847703615634
6.726857216,0.9986194444582925,46.831148248876254
6.729142784,0.998486092058371,46.70402009908173
6.731428352,0.9984485947754419,46.57816182254082
6.733714432,0.9985095272605868,46.45213916210448
6.736,0.9986649397863849,46.324513821623945
6.738285568,0.9989050610720451,46.19402110462622
6.740571648,0.9992146343602925,46.05951089570512
6.742857216,0.9995740550550021,45.92013161407405
6.745142784,0.9999605364643485,45.775298888285796
6.747428352,1.0003494766619487,45.62481892576296
6.749714432,1.0007162638213312,45.46883352936586
6.752,1.0010375882675646,45.30783936289398
6.754285568,1.001293074225197,45.142636385540634
6.756571648,1.001466498721209,44.97432688409575
6.758857216,1.0015468068299012,44.804155039614294
6.761142784,1.0015287372110664,44.63352191068061
6.763428352,1.0014135220528084,44.46380634978428
6.765714432,1.0012081657226273,44.2964221017229
6.768,1.0009257283852862,44.1325419459599
6.770285568,1.0005839002047248,43.973176508304284
6.772571648,1.0002044231069374,43.81906122913447
6.774857216,0.9998112005230432,43.670525422979125
6.777142784,0.9994292439013857,43.52762570015075
6.779428352,0.9990828850873626,43.39005243900895
6.781714432,0.9987941904697252,43.25708092742542
6.784,0.9985816100798607,43.12778099141077
6.786285568,0.9984589167911664,43.00093689191554
6.788571648,0.9984338637053604,42.87516983648231
6.790857216,0.9985081294376407,42.74905111050287
6.793142784,0.9986772844753419,42.621157520633524
6.795428352,0.9989304832427589,42.49014540780037
6.797714432,0.9992516865941106,42.354951347184176
6.8,0.9996204406534654,42.2147134285156
6.802285568,1.0000134056701342,42.068912246868216
6.804571648,1.0004055258208129,41.91739997576457
6.806857216,1.000771817055244,41.76034261346881
6.809142784,1.0010890072860856,41.5982722104189
6.811428352,1.0013369474848461,41.43209675061755
6.813714432,1.0014996995758854,41.26290564879199
6.816,1.0015670111454753,41.09203250569243
6.818285568,1.0015343850023837,40.92087760463296
6.820571648,1.0014036822020185,40.75088784021343
6.822857216,1.0011831251524586,40.58339680020877
6.825142784,1.0008866152147653,40.41966187510321
6.827428352,1.000532895103823,40.26059424222407
6.829714432,1.0001442448454825,40.10693711071641
6.832,0.99974548480321,39.9589882051192
6.834285568,0.9993620038913317,39.816739229426474
6.836571648,0.9990183225110535,39.6797861048007
6.838857216,0.998736320816949,39.547396392542794
6.841142784,0.9985342845643158,39.418553976322265
6.843428352,0.9984252146495616,39.2919802849092
6.845714432,0.9984161747707381,39.166282805278556
6.848,0.9985080382534813,39.03996050322341
6.850285568,0.9986949851536477,38.9116145361199
6.852571648,0.9989651288752021,38.77989808963211
6.854857216,0.9993014841426042,38.64373578025402
6.857142784,0.9996824179677689,38.50232806403908
6.859428352,1.0000836676559524,38.35517529918147
6.861714432,1.0004795877274069,38.202202114705734
6.864,1.0008448632114015,38.043642723402364
6.866285568,1.00115623018887,37.88011036001749
6.868571648,1.0013934720070352,37.712561555035265
6.870857216,1.0015413183898105,37.54216690936863
6.873142784,1.0015903237269335,37.37027406934514
6.875428352,1.0015369968852652,37.19837132927766
6.877714432,1.0013845271599626,37.02793725154149
6.88,1.0011423489822604,36.860300581889874
6.882285568,1.00082578124427,36.69670659112775
6.884571648,1.0004548576708312,36.53809746961187
6.886857216,1.0000532652124239,36.385083535894275
6.889142784,0.9996464812860537,36.23794201374073
6.891428352,0.9992608016877919,36.09659711567756
6.893714432,0.9989210504711559,35.96056499932277
6.896,0.9986492732751151,35.82900402285675
6.898285568,0.9984631424256036,35.70081368817498
6.900571648,0.9983750473250066,35.57462000659039
6.902857216,0.9983908571510661,35.448976179276954
6.905142784,0.9985099802775714,35.32232831910855
6.907428352,0.9987248950903741,35.1932043162398
6.909714432,0.9990221650146456,35.06032395689878
6.912,0.9993825353861855,34.92256976552341
6.914285568,0.9997829821502954,34.779183307219
6.916571648,1.000197583363152,34.62973651309166
6.918857216,1.000599585788353,34.47426310779181
6.921142784,1.0009626575636512,34.31310315764066
6.923428352,1.001263148436675,34.14697122173304
6.925714432,1.0014810897174484,33.97693489223485
6.928,1.001601919053551,33.80429789055725
6.930285568,1.0016170665390822,33.63053899613979
6.932571648,1.0015248645943298,33.4572165985787
6.934857216,1.0013306218792857,33.28585442535396
6.937142784,1.0010461730764704,33.11786470732188
6.939428352,1.0006893892937392,32.9544890925557
6.941714432,1.0002830459703245,32.79662854807957
6.944,0.999853294581464,32.64482087618956
6.946285568,0.9994282440986328,32.49927657977308
6.948571648,0.9990357930360467,32.3597574047297
