freq,mag,phase
6.0,0.999882855113984,92.98171938032152
6.002287104,1.0000584864826385,92.80812369526102
6.004574208,1.0002310250277944,92.63201653354935
6.006861312,1.0003891133122234,92.45353699839556
6.009147904,1.0005227177597993,92.27295397422427
6.011435008,1.000623473441965,92.09070658441465
6.013722112,1.000685046494179,91.9072950905715
6.016009216,1.0007033202664284,91.72333497745815
6.01829632,1.0006773091900072,91.53942023037357
6.020583424,1.0006087281779568,91.35622665661559
6.022870016,1.0005015987920913,91.17430934509663
6.02515712,1.0003629124890452,90.99420935861303
6.027444224,1.000201167330368,90.8162976374751
6.029731328,1.0000266695679865,90.64084527984767
6.032018432,0.9998505417838204,90.46796588668884
6.034305536,0.9996836323165259,90.29759318033081
6.036592128,0.9995368026712198,90.12950747039709
6.038879232,0.9994191185558327,89.96337043023699
6.041166336,0.9993381774469635,89.79871655421545
6.04345344,0.9992989490077329,89.63493354055326
6.045740544,0.9993041987277583,89.47143985698342
6.048027648,0.9993533716618465,89.30756611533577
6.05031424,0.9994435891095602,89.14270211145059
6.052601344,0.9995689810794531,88.9762895805844
6.054888448,0.9997217246884131,88.8078851291893
6.057175552,0.9998922589572941,88.63715027504671
6.059462656,1.000069466619872,88.46391698361572
6.06174976,1.0002426747930173,88.28815328366595
6.064036352,1.0004006400028977,88.11000516026724
6.066323456,1.0005333622433,87.92977216894131
6.06861056,1.0006325931256488,87.74788475197909
6.070897664,1.0006918941679648,87.56485440577954
6.073184768,1.0007077229112726,87.3813028854801
6.075471872,1.0006790098855232,87.19786277439599
6.077758464,1.0006073466535563,87.01516591781872
6.080045568,1.0004973937506887,86.83379555840799
6.082332672,1.0003560292928304,86.65426124508492
6.084619776,1.0001921544743877,86.47698134565191
6.08690688,1.0000161045355007,86.30214368223737
6.089193984,0.9998389825616548,86.12992058480191
6.091481088,0.9996719175048584,85.96020384454555
6.09376768,0.9995255890736376,85.79279913101617
6.096054784,0.9994091451981097,85.62731207995012
6.098341888,0.9993301511528914,85.46326243080198
6.100628992,0.9992932928192992,85.30008331745066
6.102916096,0.9993012063158326,85.13713794958373
6.1052032,0.9993534376480123,84.97378313209757
6.107489792,0.999446600571413,84.80938193524037
6.109776896,0.9995747840226593,84.64338173920355
6.112064,0.9997298615619669,84.47536592003947
6.114351104,0.9999022214841575,84.30499228471908
6.116638208,1.0000809498605194,84.13208030767021
6.118925312,1.0002546088255382,83.95662015541095
6.121211904,1.0004122996359313,83.77878771127071
6.123499008,1.000544152374878,83.59888242850286
6.125786112,1.0006417963329544,83.4173146055409
6.128073216,1.000698972790305,83.23467118479414
6.13036032,1.0007121926669378,83.05149708943263
6.132647424,1.000680428635797,82.86849823618715
6.134934016,1.0006058193944518,82.68626317989468
6.13722112,1.0004929859065839,82.50542142555737
6.139508224,1.000349021375482,82.32644185100887
6.141795328,1.0001829642054552,82.14974848229953
6.144082432,1.0000053176259907,81.97553235725374
6.146369536,0.9998272822654609,81.8039638621538
6.148656128,0.9996600636476253,81.63487897687824
6.150943232,0.9995142939353121,81.46810210311554
6.153230336,0.9993992610677271,81.30323804144977
6.15551744,0.9993221612993666,81.13978795703322
6.157804544,0.9992878248842484,80.97716824954816
6.160091648,0.9992985817806214,80.81474191207327
6.162378752,0.9993538107984635,80.65187293426929
6.164665344,0.9994498862822913,80.48790109287975
6.166952448,0.9995808674031026,80.32231705876772
6.169239552,0.999738497398386,80.15464901445165
6.171526656,0.9999126959349006,79.98459316780448
6.17381376,1.0000925775685123,79.81198290251041
6.176100864,1.0002668585971712,79.63682009143834
6.178387456,1.0004243078739186,79.45927090417338
6.18067456,1.0005551498594696,79.27963079141949
6.182961664,1.0006511162181884,79.09838908224167
6.185248768,1.0007059975036274,78.91607013510522
6.187535872,1.0007165221865235,78.73327596283237
6.189822976,1.0006816962073226,78.55068003773394
6.192109568,1.0006040743956837,78.36890730780382
6.194396672,1.0004882586012824,78.18855272103025
6.196683776,1.000341628580194,78.01012053648984
6.19897088,1.000173292566853,77.83398912773
6.201257984,0.9999941365364398,77.66039331306294
6.203545088,0.9998151875637779,77.48940165849977
6.20583168,0.999647861120947,77.32095819656797
6.208118784,0.9995027879151861,77.15478599768018
6.210405888,0.9993890804428851,76.99052121579328
6.212692992,0.9993138707169663,76.82763497096278
6.214980096,0.9992822019299739,76.66558595240686
6.2172672,0.9992958803527965,76.5036395772625
6.219553792,0.9993541895750163,76.3412292099525
6.221840896,0.9994533929909489,76.17766018612348
6.224128,0.9995872132359571,76.01244317818522
6.226415104,0.9997472487026469,75.84510237981561
6.228702208,0.9999234037363756,75.67532539406221
6.230989312,1.0001046042386716,75.50298501742388
6.233275904,1.000279251307023,75.32806871424309
6.235563008,1.0004363868974484,75.15077891074114
6.237850112,1.0005661254545408,74.97140196528429
6.240137216,1.0006603423044975,74.790444698106
6.24242432,1.0007129345341412,74.6084268355936
6.244711424,1.000720595993004,74.42598935047785
6.246998528,1.0006827993490854,74.24378053786512
6.24928512,1.0006019652577547,74.06242443725536
6.251572224,1.0004832396482817,73.88254489309666
6.253859328,1.0003338661318701,73.70461189085174
6.256146432,1.0001633484148928,73.52902911623525
6.258433536,0.9999826474229709,73.35600767789757
6.26072064,0.999802771946063,73.185620194889
6.263007232,0.9996354634755072,73.01774926352584
6.265294336,0.9994910266738701,72.8521985679855
6.26758144,0.9993788745396696,72.68849137878236
6.269868544,0.9993058488586487,72.52617656399272
6.272155648,0.9992767314676305,72.36459748637431
6.274442752,0.9992935129845102,72.20314167986285
6.276729344,0.9993548418218678,72.04115692817638
6.279016448,0.999457120199906,71.8779673710668
6.281303552,0.9995938797910071,71.71306861351212
6.283590656,0.9997564014207376,71.54602272216205
6.28587776,0.9999344133439699,71.37651685583566
6.288164864,1.000116782572076,71.20439917028058
6.290451456,1.0002919114113662,71.0297097351605
6.29273856,1.0004487306939736,70.85264260664755
6.295025664,1.0005773893148961,70.67351903438801
6.297312768,1.0006696731351832,70.49277584675353
6.299599872,1.0007198188715196,70.31106399069338
6.301886976,1.0007246440737103,70.12891918936894
6.304173568,1.0006837692671673,69.94706287669105
6.306460672,1.0005997757517462,69.76612581258576
6.308747776,1.000477899092738,69.58670227286903
6.31103488,1.0003259238909064,69.40927354843356
6.313321984,1.000153252090548,69.23420205297899
6.315609088,0.9999708376470442,69.06172856874436
6.317896192,0.9997902325886937,68.89190199109227
6.320182784,0.9996229133742391,68.72461086950719
6.322469888,0.9994792288920252,68.55960235134852
6.324756992,0.9993686336857099,68.39646151752738
6.327044096,0.9992977571324534,68.23464445551049
6.3293312,0.9992714261078971,68.07357252441953
6.331618304,0.9992911833848169,67.91256872613147
6.333904896,0.9993557539769033,67.75093766953724
6.336192,0.9994612304103536,67.58812673981117
6.338479104,0.9996008459155586,67.42351041040382
6.340766208,0.9997658578245131,67.25673839934136
6.343053312,0.9999458024984899,67.08743564031303
6.345340416,1.0001293298815426,66.91555119011278
6.347627008,1.0003048376132953,66.74103639207202
6.349914112,1.0004611937622818,66.56416925171571
6.352201216,1.0005886709903862,66.38522421922862
6.35448832,1.0006790848239981,66.20473420698136
6.356775424,1.0007267250630298,66.02322801019754
6.359062528,1.0007285800935664,65.84139562139832
6.36134912,1.000684471244656,65.65988589398924
6.363636224,1.000597334865062,65.4793165583247
6.365923328,1.0004723586183948,65.30031258527526
6.368210432,1.00031759880079,65.1233592591161
6.370497536,1.000142745337461,64.94878375639816
6.37278464,0.9999587831016512,64.77682718148218
6.375071232,0.9997774619352623,64.60754522251692
6.377358336,0.9996100141120517,64.44080970219845
6.37964544,0.9994673131098948,64.2763259486435
6.381932544,0.9993581719435686,64.11371280698327
6.384219648,0.9992897474800926,63.95240123767716
6.386506752,0.9992660680526411,63.79177867811372
6.388793344,0.9992890282921953,63.6311727204687
6.391080448,0.999356897946183,63.46990776241611
6.393367552,0.9994655192084324,63.30740181224551
6.395654656,0.9996081198055695,63.14307750907362
6.39794176,0.99977562837625,62.97649768609571
6.400228864,0.9999574704839638,62.80742030886812
6.402515968,1.000142122269053,62.63567817836999
6.40480256,1.000317949384856,62.46134197847305
6.407089664,1.000473899724449,62.28461516174142
6.409376768,1.0006001038492411,62.10583799972761
6.411663872,1.0006884622871532,61.92554431175871
6.413950976,1.0007335468938932,61.74426001207175
6.41623808,1.0007324103168405,61.56269775226173
6.418524672,1.0006851325467008,61.381482746763496
6.420811776,1.0005945709570678,61.20128357336486
6.42309888,1.0004665084651865,61.02267178908003
6.425385984,1.000309036445024,60.84614904862944
6.427673088,1.0001320079243985,60.67203295582898
6.429960192,0.999946464190484,60.50059113129293
6.432246784,0.9997643725875002,60.331828469227155
6.434533888,0.999597132956014,60.16560931091539
6.436820992,0.999455237515592,60.00164607857942
6.439108096,0.9993477942215384,59.839528497982165
6.4413952,0.9992816130328094,59.67865900541485
6.443682304,0.9992609105382189,59.51847933546715
6.445968896,0.9992869186631016,59.35823719884746
6.448256,0.9993581620543299,59.19730235737011
6.450543104,0.9994700713389025,59.03507265106585
6.452830208,0.9996156625623395,58.870979381083266
6.455117312,0.9997856322325278,58.70460081670961
6.457404416,0.999969342665648,58.53567580337428
6.459691008,1.0001551459443316,58.36407499224287
6.461978112,1.0003312952829362,58.189861245758806
6.464265216,1.0004866892079547,58.013261180256535
6.46655232,1.000611508786019,57.834641576827174
6.468839424,1.0006978426640722,57.65448194759263
6.471126528,1.0007403103833927,57.473412377027145
6.473413632,1.0007361562828962,57.29207099751307
6.475700224,1.000685487003089,57.11114814639056
6.477987328,1.000591613411696,56.9312641529931
6.480274432,1.0004604004645539,56.75302490406383
6.482561536,1.0003001804209033,56.576889917988126
6.48484864,1.0001208230099616,56.40326456689501
6.487135744,0.9999338744607161,56.232288179373946
6.489422336,0.9997511468630396,56.06399193846235
6.49170944,0.9995839070889944,55.898278463972396
6.493996544,0.999442983000043,55.73478736474147
6.496283648,0.9993374189466725,55.57313325002417
6.498570752,0.9992735427565996,55.41270518268393
6.500857856,0.9992557204393854,55.252900327485754
6.503144448,0.9992850264230941,55.09299863072661
6.505431552,0.9993597113873126,54.93237437298389
6.507718656,0.9994748797504955,54.770394107727626
6.51000576,0.9996234180667223,54.60648128223292
6.512292864,0.9997959756283082,54.44027367430445
6.514579968,0.9999815037089818,54.27146891928048
6.51686656,1.0001684094561805,54.09998080533892
6.519153664,1.0003447774435539,53.92585271304573
6.521440768,1.0004996387319807,53.74934552268403
6.523727872,1.0006229773860684,53.570817846562655
6.526014976,1.0007072932166516,53.39081568755033
6.52830208,1.0007469703045884,53.209896566705304
6.530588672,1.0007395903559897,53.028752364658004
6.532875776,1.000685643547712,52.848073218485915
6.53516288,1.000588369031736,52.66850062990676
6.537449984,1.0004540019239379,52.490601732529896
6.539737088,1.0002909088835614,52.31489327410116
6.542024192,1.0001094372298682,52.141650070044705
6.544310784,0.9999209325781137,51.97111086115774
6.546597888,0.9997374854886293,51.803310441088655
6.548884992,0.9995705214421058,51.63804822459792
6.551172096,0.9994306612385436,51.47502224938528
6.5534592,0.9993267867326041,51.313792972511244
6.555746304,0.9992655148398136,51.15377785103339
6.558033408,0.9992507583081129,50.99431555521896
6.56032,0.999283369062537,50.83473905580488
6.562607104,0.999361395000969,50.67439868606995
6.564894208,0.9994798875946846,50.51259806819368
6.567181312,0.9996314933983881,50.34886783352615
6.569468416,0.9998065382042642,50.18278334718599
6.57175552,0.9999939213274435,50.01405506747429
6.574042112,1.0001818801293616,49.84263699445863
6.576329216,1.0003585158184978,49.66857505405168
6.57861632,1.0005126762056484,49.49211385537355
6.580903424,1.0006347088829135,49.313669233537084
6.583190528,1.0007166832850163,49.1337435565823
6.585477632,1.0007535480734588,48.95296371779546
6.587764224,1.0007429603069948,48.7720046202763
6.590051328,1.0006855253621507,48.59155478197059
6.592338432,1.0005848516861162,48.412253905373625
6.594625536,1.000447275309326,48.234658150037134
6.59691264,1.0002813855519568,48.05929502730851
6.599199744,1.0000976585118677,47.88647552910089
6.601486336,0.9999077800497098,47.71637244154622
6.60377344,0.999723680551832,47.548977632719556
6.606060544,0.9995569914992141,47.384158814973546
6.608347648,0.9994181727019262,47.22156901660486
6.610634752,0.9993162010480052,47.06073789709267
6.612921856,0.9992574658715679,46.901079810822225
6.615208448,0.9992457417853489,46.74194988498894
6.617495552,0.999281787578301,46.58265728029201
6.619782656,0.9993632981563425,46.42252114842855
6.62206976,0.9994852570831921,46.26091148377603
6.624356864,0.9996398646534641,46.09731480102848
6.626643968,0.9998173517350437,45.931321365416636
6.628931072,1.0000065967338758,45.76265909196868
6.631217664,1.00019556927853,45.59126659769844
6.633504768,1.0003724059976777,45.417231071837
6.635791872,1.000525834112565,45.240795087969126
6.638078976,1.0006462657225843,45.062383220741125
6.64036608,1.000726000730734,44.88252130515656
6.642653184,1.0007600357908868,44.70186736099308
6.644939776,1.0007461764144754,44.52104297357304
6.64722688,1.0006852284584369,44.34077385356082
6.649513984,1.0005810568013485,44.16171682031189
6.651801088,1.0004402778863104,43.98443356176365
6.654088192,1.0002715301291933,43.80939233195343
6.656375296,1.0000857264332914,43.63693861500159
6.658661888,0.9998943523763096,43.46722656149311
6.660948992,0.9997096723053703,43.30024831785647
6.663236096,0.9995432177079336,43.1358240662317
6.6655232,0.9994057314318775,42.973624953912946
6.667810304,0.9993056468663045,42.81316630430319
6.670097408,0.9992495479260516,42.653862226934905
6.672384,0.9992409652245812,42.4950283638785
6.674671104,0.999280492784781,42.33597183895016
6.676958208,0.9993655760642561,42.176041810338006
6.679245312,0.9994908791900243,42.01458475987503
6.681532416,0.9996485088623358,41.851064088349084
6.68381952,0.9998285633340382,41.68511552444036
6.686106112,1.000019678252088,41.516469808502414
6.688393216,1.0002095820739292,41.345076610614456
6.69068032,1.000386486376987,41.171021655974016
6.692967424,1.00053910107863,40.99458738753279
6.695254528,1.0006579651029393,40.816193474985006
6.697541632,1.0007353147403681,40.63637124248165
6.699828224,1.0007663619684748,40.45576392809475
6.702115328,1.0007491621388833,40.27508069255805
6.704402432,1.0006846593370116,40.09497150479207
6.706689536,1.0005770796227962,39.91611441723162
6.70897664,1.0004329130292642,39.73908503915428
6.711263744,1.000261448091794,39.564361444569634
6.713550848,1.0000733528325956,39.392257785392715
6.71583744,0.9998806510448363,39.2228932475789
6.718124544,0.9996954122484664,39.05631334731333
6.720411648,0.9995293660663589,38.89227569507583
6.722698752,0.9993930104495838,38.73044244303327
6.724985856,0.9992950583015457,38.570326651229934
6.72727296,0.9992416604872512,38.41131452639524
6.729559552,0.9992362736538135,38.25276211416619
6.731846656,0.9992793366622524,38.09390830763909
6.73413376,0.9993679168322063,37.93412813630694
6.736420864,0.9994967289550157,37.77276255219857
6.738707968,0.9996574545546012,37.60932837768546
6.740995072,0.9998400141688619,37.44338925351669
6.743281664,1.000032865978084,37.27472941374275
6.745568768,1.0002237811381494,37.103290317073515
6.747855872,1.000400721327361,36.92919408802577
6.750142976,1.000552577782512,36.752700953673475
6.75243008,1.0006696843358966,36.57429246313969
6.754717184,1.0007446293803877,36.394470252068565
6.757003776,1.000772680605839,36.21391336806687
6.75929088,1.0007520880182812,36.03330577499886
6.761577984,1.0006840677274678,35.8533441844362
6.763865088,1.0005728174725659,35.674689936771145
6.766152192,1.0004253906528864,35.497902143584305
6.768439296,1.0002510969805165,35.323436646150185
6.770725888,1.00006086953338,35.15164132791664
6.773012992,0.9998667211924066,34.98263863688045
6.775300096,0.9996810162991812,34.81638661933333
6.7775872,0.9995153787695868,34.65269878265995
6.779874304,0.9993802894559491,34.49120644940827
6.782161408,0.9992844767842041,34.33139963174427
6.784448512,0.9992337816214416,34.172666824616165
6.786735104,0.9992317123604433,34.0143257836217
6.789022208,0.9992783224916473,33.85566568521279
6.791309312,0.9993705980542772,33.69599584828589
6.793596416,0.9995028967439319,33.53472510178515
6.79588352,0.9996666174392697,33.37130186140142
6.798170624,0.9998517121361931,33.2053384307697
6.800457216,1.000046280107235,33.03662726184247
6.80274432,1.0002381453826685,32.86513175017735
6.805031424,1.0004151348765984,32.690957397978025
6.807318528,1.0005660865836463,32.51438193557636
6.809605632,1.0006814885539685,32.33591167551031
6.811892736,1.0007539462031672,32.156062035419396
6.814179328,1.0007789201981065,31.975517996975523
6.816466432,1.000754795778937,31.794960051244086
6.818753536,1.0006831365477946,31.61511036675607
6.82104064,1.0005683059438395,31.43659691652207
6.823327744,1.0004175423335762,31.260026508113086
6.825614848,1.000240440672253,31.085818353711492
6.82790144,1.0000481463132314,30.914303173620205
6.830188544,0.9998526643969472,30.745601711910588
6.832475648,0.9996664619613662,30.57966817515191
6.834762752,0.9995013023479671,30.41630704915551
6.837049856,0.9993676089349856,30.25511945165589
6.83933696,0.9992739471920012,30.09559559899506
6.841623552,0.9992261700258477,29.937114658700224
6.843910656,0.9992274503412769,29.778950304643043
6.84619776,0.9992775890686184,29.62044551086336
6.848484864,0.9993735363257319,29.46086320905396
6.850771968,0.9995092685592935,29.299627941780866
6.853059072,0.9996761764448683,29.13618477842273
6.855345664,0.9998637529923532,28.970174404820142
6.857632768,1.000060124151768,28.80137794995409
6.859919872,1.0002527994748065,28.629755034157206
6.862206976,1.0004297940737767,28.455480211317763
6.86449408,1.0005797826840948,28.27881424247066
6.866781184,1.000693252718547,28.10023081529082
6.869068288,1.0007631935364036,27.920331447156737
6.87135488,1.0007850025630947,27.739768500569454
6.873641984,1.0007573852376679,27.559237563973056
6.875929088,1.0006819893058299,27.379456683692613
6.878216192,1.0005635814720737,27.201077715844622
6.880503296,1.00040948159058,27.024691208770502
6.8827904,1.0002296382400395,26.850699004387184
6.885076992,1.0000351147707678,26.679449426633262
6.887364096,0.999838363778825,26.51103793346857
6.8896512,0.9996517825412918,26.345402160229856
6.891938304,0.9994870754502241,26.18231195899639
6.894225408,0.9993548476344002,26.021417057248478
6.896512512,0.9992635005499924,25.8621197532978
6.898799104,0.9992186202724456,25.703839950204863
6.901086208,0.9992232187643397,25.545860423781317
6.903373312,0.9992770221403288,25.387466319952093
6.905660416,0.9993766892722601,25.227929378222928
6.90794752,0.9995160410429138,25.06668646261261
6.910234624,0.9996860254337856,24.90319975273246
6.912521216,0.9998760489345848,24.737095877144576
6.91480832,1.0000740539238462,24.568170649784545
6.917095424,1.0002676776875274,24.396406775041775
6.919382528,1.0004445418843857,24.221966192410054
6.921669632,1.0005934371477914,24.045163644553426
6.923956736,1.0007051017613353,23.866472637612187
6.926243328,1.0007724025054885,23.686480312002043
6.928530432,1.0007909509469866,23.505863926457067
6.930817536,1.000759782148929,23.325340876447033
6.93310464,1.000680650906224,23.145605602457035
6.935391744,1.0005584811164887,22.967330968074968
