freq,mag,phase
6.0,0.9998821343154057,-172.07785163025855
6.018561536,0.9998935880089264,-173.18933330833144
6.037123072,0.9999075188027252,-174.30050470497423
6.055684608,0.9999248642798547,-175.41129741489434
6.074246144,0.9999450330357975,-176.5217942035281
6.09280768,0.9999673800933792,-177.63204177246743
6.111368704,0.999991219730137,-178.74200961808188
6.12993024,1.0000155088762093,-179.85170509373575
6.148491776,1.0000397954311961,179.03885140367316
6.167053312,1.0000629520250923,177.9296797778559
6.185614848,1.0000841804380494,176.82077618801614
6.204176384,1.000102837124819,175.71218439605943
6.22273792,1.0001182463020026,174.60395063326217
6.241299456,1.0001300565677311,173.49609207274816
6.259860992,1.00013750015283,172.38867866165086
6.278422528,1.0001406275083349,171.28174180428476
6.296983552,1.0001391531676775,170.17534136994715
6.315545088,1.0001331643186384,169.06950203661907
6.334106624,1.0001229772426385,167.96430278069343
6.35266816,1.0001087638539383,166.85978253224485
6.371229696,1.000091019064616,165.7559888268453
6.389791232,1.000070413813103,164.6529432683858
6.408352768,1.000047617439064,163.5506862603732
6.426914304,1.0000234314890668,162.44921389947777
6.44547584,0.9999987628782957,161.34856083205128
6.464037376,0.9999741330001297,160.24876851002523
6.4825984,0.9999508245477162,159.149738582506
6.501159936,0.9999293220296758,158.05153847698128
6.519721472,0.9999106753768385,156.95411545293842
6.538283008,0.9998950796644085,155.85743254303486
6.556844544,0.9998834847691934,154.76147385842035
6.57540608,0.9998761022595792,153.66616350301666
6.593967616,0.9998732386082906,152.57148144515014
6.612529152,0.9998749012186068,151.47736696226127
6.631090688,0.9998812265462367,150.38380538321906
6.649652224,0.9998919542870883,149.29069814974773
6.668213248,0.9999065312276066,148.19802626342874
6.686774784,0.999924730514541,147.1057440465641
6.70533632,0.9999458606077739,146.01385796341367
6.723897856,0.9999690218026218,144.92227713818605
6.742459392,0.9999936651727885,143.83100686933486
6.761020928,1.0000188323327102,142.74005985513207
6.779582464,1.0000436574596565,141.6493947486888
6.798144,1.0000672413394949,140.5590660765226
6.816705536,1.0000888346006196,139.4690431770294
6.835267072,1.0001076795455914,138.3793745053705
6.853828096,1.000123193163312,137.29009741131495
6.872389632,1.000134604524595,136.2012422976188
6.890951168,1.0001419342840319,135.11283902806107
6.909512704,1.0001443338757081,134.02497059433932
6.92807424,1.0001422708908767,132.9376428312717
6.946635776,1.000135445084917,131.85093748076264
6.965197312,1.0001243142341416,130.76487712797447
6.983758848,1.0001090653532436,129.67952324067912
7.002320384,1.0000903830113967,128.59489763468636
7.02088192,1.0000687000253545,127.51108172444779
7.039442944,1.0000449967948117,126.42803747485397
7.05800448,1.0000198936856977,125.34581076911678
7.076566016,0.999994288377903,124.2644001409981
7.095127552,0.9999691796250992,123.18381721394276
7.113689088,0.999945332927965,122.10405843889556
7.132250624,0.9999235244019907,121.02508467985176
7.15081216,0.9999047313523141,119.94686841382844
7.169373696,0.9998892690363751,118.86938451947246
7.187935232,0.9998779155933615,117.79258243965393
7.206496768,0.999870997177778,116.71642400445005
7.225057792,0.9998688701626157,115.64086153344851
7.243619328,0.9998714660930349,114.565803421318
7.262180864,0.9998787932547639,113.49125389012984
7.2807424,0.9998905331820894,112.41711758769475
7.299303936,0.9999063464161804,111.34336905332437
7.317865472,0.999925734278672,110.26995997427603
7.336427008,0.9999479018630331,109.19684173629054
7.354988544,0.9999721796741822,108.1239828151566
7.37355008,0.9999977822810366,107.05139987674575
7.392111616,1.0000238001601083,105.97904758337621
7.41067264,1.000049109540816,104.90692353581915
7.429234176,1.0000731792129978,103.83504320757218
7.447795712,1.0000950684737013,102.76341465161335
7.466357248,1.0001138082188377,101.69205477744043
7.484918784,1.000129048865134,100.62100739248879
7.50348032,1.0001401354250103,99.55033610280525
7.522041856,1.0001465929151674,98.48004430493864
7.540603392,1.0001481938773746,97.41019643838366
7.559164928,1.0001450490816333,96.34083273377487
7.577726464,1.0001370610985032,95.27201694419118
7.596287488,1.0001245511064956,94.20374753882913
7.614849024,1.000108058909673,93.13613979417785
7.63341056,1.0000879977259547,92.06917832107793
7.651972096,1.0000650995250309,91.00288608016498
7.670533632,1.0000401756425048,89.9373332717204
7.689095168,1.000014092114251,88.87249585162874
7.707656704,0.9999877114772651,87.80839873876035
7.72621824,0.9999619332429045,86.74499887900559
7.744779776,0.9999376759362456,85.68233098637492
7.763341312,0.9999157493053311,84.62032893720954
7.781902336,0.9998969378663314,83.55898962905323
7.800463872,0.9998819434050685,82.49825027002153
7.819025408,0.9998713068564635,81.4380787361024
7.837586944,0.999865218793639,80.37841880459288
7.85614848,0.9998640826097962,79.3191956952148
7.874710016,0.9998679330049278,78.26038527795575
7.893271552,0.9998765584098512,77.20191473809264
7.911833088,0.9998897703354365,76.14370272723293
7.930394624,0.9999069833008615,75.08573933351283
7.94895616,0.9999277475119418,74.02796647965
7.967517184,0.9999513696110823,72.97031721060726
7.98607872,0.9999768424846627,71.91281695463557
8.004640256,1.0000034513685423,70.85539426787788
8.023201792,1.0000303091495701,69.79804796737561
8.041763328,1.0000563538558003,68.74079174033021
8.060324864,1.0000806810605656,67.6836211612677
8.0788864,1.0001026300008882,66.62654969190734
8.097447936,1.0001212483491044,65.56961571848024
8.116009472,1.00013587815613,64.51284535575824
8.134571008,1.0001460789006944,63.456272600694774
8.153132032,1.0001516213986277,62.39995445180503
8.171693568,1.0001520456341555,61.34391487612195
8.190255104,1.0001474828780947,60.28820449169134
8.20881664,1.0001380182870085,59.2329075171943
8.227378176,1.0001239849275227,58.17802556558002
8.245939712,1.0001058214921419,57.12363594962165
8.264501248,1.000084211621809,56.06973564336145
8.283062784,1.000059943850292,55.016384311728544
8.30162432,1.0000337264114652,53.96359572409468
8.320185856,1.0000065481664673,52.91136712999253
8.33874688,0.999979282688299,51.85970087675531
8.357308416,0.9999530024426277,50.80859234970939
8.375869952,0.9999283842300012,49.758019514961916
8.394431488,0.9999065203619538,48.70795742505025
8.412993024,0.9998881121326544,47.65836568289389
8.43155456,0.9998737084383336,46.60918367707665
8.450116096,0.9998639595394904,45.56037554027014
8.468677632,0.9998590379249402,44.51188924179487
8.487239168,0.9998592956179208,43.46366229671035
8.505800704,0.9998646519417573,42.41561859946206
8.524361728,0.9998749342152565,41.36772287785291
8.542923264,0.999889775289609,40.319887766247916
8.5614848,0.9999086874576694,39.27207470835269
8.580046336,0.999931119933198,38.224247810191585
8.598607872,0.9999561534283131,37.17635649450317
8.617168896,0.9999830843130841,36.12837770063521
8.635730944,1.00001078573871,35.08028647736403
8.654291968,1.0000383705548552,34.032061145491554
8.672854016,1.0000649591189383,32.9837213553195
8.69141504,1.000089560922329,31.935265499595815
8.709977088,1.0001113191205813,30.886710755971073
8.728538112,1.0001295433994832,29.83809366273025
8.74710016,1.0001434644950873,28.789434945675783
8.765661184,1.0001527979509452,27.74079829758168
8.784223232,1.0001568824584133,26.69220308489771
8.802784256,1.0001559277681855,25.643747548789968
8.82134528,1.0001497472032155,24.595421795468546
8.839907328,1.0001384878268258,23.547299102980787
8.858468352,1.0001226594295711,22.49941742584449
8.8770304,1.0001028325388386,21.45182279747501
8.895591424,1.0000795649648875,20.404560304986358
8.914153472,1.0000537169837609,19.357642704017696
8.932714496,1.0000262014271302,18.311097626003143
8.951276544,0.999997929258806,17.264904244641414
8.969837568,0.9999698588431443,16.219109632994083
8.988398592,0.9999430188339892,15.173634175798924
9.00696064,0.9999182397768068,14.128528305221117
9.025521664,0.9998966329219589,13.083701788651442
9.044083712,0.9998786499237005,12.039119691258868
9.062644736,0.9998650060100907,10.9947553114113
9.081206784,0.9998564114215853,9.95052737014354
9.099767808,0.9998528302934024,8.90641554386975
9.118329856,0.9998546102046362,7.862314788154632
9.13689088,0.9998617662403261,6.8181765657283275
9.155452928,0.9998737825442429,5.773944374144822
9.174013952,0.9998905109689066,4.729542864850248
9.192574976,0.9999112649126951,3.684952014636818
9.211137024,0.9999354293892466,2.6401078169292083
9.229698048,0.9999620209520337,1.5949626858668442
9.248260096,0.9999902593024714,0.5495047363112465
9.26682112,1.0000190390375256,-0.4963018346343757
9.285383168,1.000047582728632,-1.5424370770319449
9.303944192,1.0000745495840853,-2.5889463152624015
9.32250624,1.0000993665504454,-3.6357591747761773
9.341067264,1.0001209638679565,-4.6828962741419575
9.359628288,1.000138708772862,-5.730307211745715
9.378190336,1.0001518612554092,-6.777952006791583
9.39675136,1.0001599525446003,-7.825802797371127
9.415313408,1.0001627501009938,-8.873779103803974
9.433874432,1.000160179549034,-9.921848153740223
9.45243648,1.0001522094997308,-10.96996745977414
9.470997504,1.0001391930130419,-12.018082176627972
9.489559552,1.0001215333004136,-13.066120854844955
9.508120576,1.0000998015392955,-14.11409755243251
9.526682624,1.0000748272392035,-15.161930810848734
9.545243648,1.000047457524553,-16.20959581156528
9.563804672,1.0000185264260284,-17.257101007989903
9.58236672,0.9999891580782994,-18.304432911802678
9.600927744,0.9999603033982077,-19.351597550463058
9.619489792,0.9999329012394275,-20.398611217294803
9.638050816,0.9999081189686396,-21.445504628253975
9.656612864,0.9998864991045728,-22.492298157160818
9.675173888,0.9998691267898158,-23.53905762111515
9.693735936,0.9998564502697801,-24.58582468838763
9.71229696,0.9998489150025018,-25.632660682548654
9.730857984,0.9998467561692094,-26.67963442184184
9.749420032,0.9998502152231178,-27.726794148769244
9.767981056,0.9998590335407496,-28.774196205456427
9.786543104,0.9998730144838298,-29.821948757026405
9.805104128,0.9998916179878226,-30.870084941800556
9.823666176,0.9999142333831509,-31.918633461961555
9.8422272,0.9999401444930984,-32.96766063723152
9.860789248,0.9999683509031692,-34.01722032305792
9.879350272,0.9999980152994188,-35.0672928352082
9.89791232,1.0000280307784224,-36.117945218936306
9.916473344,1.0000573407409046,-37.16913155999761
9.935034368,1.0000850253479325,-38.220889337124596
9.953596416,1.0001099324468465,-39.27316320478521
9.97215744,1.0001314816121125,-40.32596584575855
9.990719488,1.0001486317612855,-41.37921806144724
10.009280512,1.0001609655359323,-42.432899385501365
10.02784256,1.000168017092013,-43.48695866616436
10.046403584,1.0001694257633738,-44.54135528789867
10.064965632,1.000165239923083,-45.5960267380602
10.083526656,1.0001555401402757,-46.65088192149435
10.10208768,1.000140712711663,-47.70593273688573
10.120649728,1.0001212141964801,-48.76109018153906
10.139210752,1.000097629581506,-49.81631312948829
10.1577728,1.0000709038240017,-50.87157471216196
10.176333824,1.0000418375242668,-51.926871105373564
10.194895872,1.0000114640844286,-52.982151060133184
10.213456896,0.9999809474178983,-54.037427298799045
10.232018944,0.9999510616696619,-55.0927254453435
10.250579968,0.9999231446371503,-56.14803119536254
10.269142016,0.999898084952069,-57.20337818371796
10.28770304,0.9998765920717168,-58.25883271919926
10.306264064,0.9998596839713997,-59.314406128367665
10.324826112,0.9998477487003333,-60.37020822218674
10.343387136,0.999841241636399,-61.426229915141526
10.361949184,0.9998404796812091,-62.48258154119731
10.380510208,0.999845468911427,-63.53930549848848
10.399072256,0.9998560113298082,-64.59649561061168
10.41763328,0.9998717890197404,-65.65418202146661
10.436195328,0.9998923085001307,-66.71244669607911
10.454756352,0.9999169082213112,-67.77131740230638
10.473317376,0.999944588293286,-68.83086592480615
10.491879424,0.9999746235451925,-69.89108485287848
10.510440448,1.0000057327705931,-70.95204414499386
10.529002496,1.000037081458551,-72.01371636976775
10.54756352,1.0000674210908767,-73.07611768190202
10.566125568,1.0000957683378262,-74.13923631838902
10.584686592,1.0001211402400447,-75.20305088082907
10.60324864,1.0001425673551334,-76.26753680338082
10.621809664,1.0001594958799507,-77.3326390189378
10.640371712,1.0001712033023509,-78.398315615223
10.658932736,1.0001772734044874,-79.46449116489079
10.67749376,1.0001775035941793,-80.53114970643581
10.696055808,1.0001718253318053,-81.59819016652185
10.714616832,1.0001604701438513,-82.66558355189864
10.73317888,1.0001438383662984,-83.73324943342803
10.751739904,1.0001223559934191,-84.80116767118135
10.770301952,1.0000968897406903,-85.86926912249402
10.788862976,1.0000682931258469,-86.93751488287148
10.807425024,1.0000373912415044,-88.00590798127641
10.825986048,1.0000054976875739,-89.07439116585861
10.844547072,0.9999735508576411,-90.1430065343128
10.86310912,0.9999425722855277,-91.2117193499522
10.881670144,0.999913838487637,-92.28058298255755
10.900232192,0.999888164095352,-93.34959343240013
10.918793216,0.9998665408982047,-94.41883255366662
10.937355264,0.9998497780315566,-95.4883103224803
10.955916288,0.9998383037100149,-96.55810325425995
10.974478336,0.9998325925767486,-97.62825996740078
10.99303936,0.9998330004374011,-98.6988686859881
11.011601408,0.9998394088055024,-99.76997800528329
11.030162432,0.9998515320640096,-100.84165602252224
11.048723456,0.9998691939317321,-101.91395863955034
11.067285504,0.9998916012053938,-102.98695157854893
11.085846528,0.9999181432242672,-104.0606822759379
11.104408576,0.9999478834136152,-105.13519614168219
11.1229696,0.9999796335988406,-106.21051747901694
11.141531648,1.0000125511209361,-107.28665299811162
11.160092672,1.000045392185104,-108.36362959379177
11.17865472,1.0000771100182044,-109.44144506571523
11.197215744,1.000106452569081,-110.52008184799932
11.215776768,1.0001325433463448,-111.59947579374011
11.234338816,1.0001544228445598,-112.67963958602196
11.25289984,1.0001714177432524,-113.76048304188501
11.271461888,1.0001826787732613,-114.84197912544954
11.290022912,1.000188111752722,-115.92407480951393
11.30858496,1.0001872887723815,-117.00667501483608
11.327145984,1.0001802896495307,-118.08971298261595
11.345708032,1.0001673812642777,-119.17315865341459
11.364269056,1.0001489228842675,-120.25692750916066
11.382831104,1.0001255888560647,-121.3409748893231
11.401392128,1.0000980742253256,-122.42524217310597
11.419953152,1.0000674347724257,-123.50969998501424
11.4385152,1.0000345498098528,-124.59431511579156
11.457076224,1.0000007922733853,-125.67906977959828
11.475638272,0.99996695994256,-126.76395443598457
11.494199296,0.9999345853316715,-127.84898240148921
11.512761344,0.9999045860494372,-128.93415777614413
11.531322368,0.999877930664946,-130.01953539398872
11.549884416,0.9998557894468955,-131.10513106336214
11.56844544,0.9998387609643286,-132.19101286748142
11.587006464,0.9998274197247241,-133.27723727779747
11.605568512,0.9998223378046117,-134.36386634273424
11.624129536,0.9998236286113034,-135.45094141422658
11.642691584,0.9998312470188626,-136.53856498002
11.661252608,0.9998449540304025,-137.62678338777638
11.679814656,0.999864333757629,-138.71564830249937
11.69837568,0.9998887593339523,-139.805247002473
11.716937728,0.9999173521499485,-140.89560217519198
11.735498752,0.9999492400519692,-141.98674640238175
11.7540608,0.9999831998249336,-143.07874460907138
11.772621824,1.0000182035672112,-144.17156905923184
11.791182848,1.0000530420986,-145.26526027339446
11.809744896,1.000086415059993,-146.35977524755324
11.82830592,1.000117295307751,-147.4551201037347
11.846867968,1.0001444174922722,-148.5512396352898
11.865428992,1.0001671982340983,-149.64810050979358
11.88399104,1.0001844951115155,-150.74564247122163
11.902552064,1.0001958377451992,-151.8438106929119
11.921114112,1.0002008615947595,-152.9425254692655
11.939675136,1.0001992065257732,-154.04173477274395
11.95823616,1.0001910492560162,-155.1413533292072
11.976798208,1.000176618071845,-156.24130639481822
11.995359232,1.000156388997977,-157.34152214730418
12.01392128,1.000130948812725,-158.44195970230595
12.032482304,1.0001011928248713,-159.5425564636366
12.051044352,1.0000681750966263,-160.64326542824864
12.069605376,1.0000329954428,-161.74404581875854
12.088167424,0.9999968217563318,-162.8448840739276
12.106728448,0.9999608499112611,-163.94577389121142
12.125290496,0.9999264543139856,-165.04672674640054
12.14385152,0.999894668040836,-166.14775673425106
12.162412544,0.99986669372416,-167.2488792022054
12.180974592,0.9998434698293477,-168.35014724972962
12.199535616,0.9998258026466162,-169.45161465993263
12.218097664,0.9998143145560421,-170.55333527783694
12.236658688,0.9998095023434447,-171.65538957731854
12.255220736,0.9998114594632684,-172.7578150254542
12.27378176,0.9998201157778739,-173.86069888523028
12.292343808,0.9998354396912353,-174.9641021006434
12.310904832,0.9998566388700014,-176.06809057287165
12.329465856,0.9998831513538738,-177.1727071871376
12.348027904,0.9999142168524427,-178.27802501821992
12.366588928,0.9999485239659659,-179.38406205193516
12.385150976,0.9999851394172318,179.5091372907431
12.403712,1.0000226104144103,178.40158983847772
12.422274048,1.000059896046015,177.2932690099612
12.440835072,1.0000955639285853,176.18418732075645
12.45939712,1.0001284261351524,175.07440175971692
12.477958144,1.0001573204435952,173.9639270008593
12.496520192,1.000181195733883,172.8528093248691
12.515081216,1.0001993869808823,171.7411381666319
12.53364224,1.0002110341254329,170.62895036764075
12.552204288,1.000215907032588,169.5163572849427
12.570765312,1.0002135948100792,168.40339851550408
12.58932736,1.0002043287142202,167.29018890239766
12.607888384,1.000188290403356,166.17679579308987
12.626450432,1.0001660419082596,165.06327039221082
12.645011456,1.0001382882809913,163.9497277015964
12.663573504,1.0001060279043918,162.83619584182833
12.682134528,1.0000702401822903,161.7227202297958
12.700695552,1.0000321526325253,160.60937780380925
12.7192576,0.9999930940287132,159.49611805671603
12.737818624,0.9999544528141303,158.38302455054193
12.756380672,0.9999174088634247,157.27004741090693
12.774941696,0.9998834202394166,156.15719778949662
12.793503744,0.999853484753566,155.04444187152063
12.812064768,0.99982861231674,153.93172279718934
12.830626816,0.9998099573887085,152.81898068643036
12.84918784,0.9997979660466746,151.70619468149658
12.867749888,0.9997931220775992,150.59324812117234
12.886310912,0.9997956848960202,149.48010483472294
12.904871936,0.9998055172314987,148.3666677663158
12.923433984,0.999822407509684,147.25290263239526
12.941995008,0.9998457217343077,146.13870453972024
12.960557056,0.9998747697663403,145.02402441497512
12.97911808,0.9999084500346095,143.9088364538123
12.997680128,0.9999458085607139,142.79308471186224
13.016241152,0.9999854765032355,141.67673912995565
13.0348032,1.0000262014237442,140.55978502232043
13.053364224,1.0000663887405687,139.44225226144553
13.071925248,1.0001048680141678,138.3241331759236
13.090487296,1.0001403209652993,137.20545425817653
13.10904832,1.0001712609553184,136.08627778635372
13.127610368,1.0001970201471695,134.96666008897904
13.146171392,1.0002163193969587,133.84665488238815
13.16473344,1.0002286782038665,132.72634727168764
13.183294464,1.0002334835166569,131.6058435233189
13.201856512,1.000230554735697,130.4852008967279
13.220417536,1.000220120933771,129.3645150435027
13.238979584,1.0002024144967974,128.24388148525026
13.257540608,1.0001778965094383,127.1233736098634
13.276101632,1.0001474569075035,126.0030631201563
13.29466368,1.0001120081453458,124.88303098602627
13.313224704,1.0000729510441868,123.7633168574401
13.331786752,1.0000313410512245,122.64396780003857
13.350347776,0.9999889092044717,121.52500859077531
13.368909824,0.9999467404416001,120.40646795658222
13.387470848,0.9999065779214151,119.28830592211408
13.406032896,0.9998695972650181,118.17052694467435
