freq,mag,phase
6.0,0.9998453836633002,-90.99275440567996
6.00319232,0.9998921801849852,-91.15545927236525
6.00638464,0.9999465514776369,-91.31886307725777
6.00957696,1.0000043015672178,-91.48307643350114
6.01276928,1.0000618888307296,-91.64816361323263
6.0159616,1.0001156033628,-91.81407766079384
6.01915392,1.0001623045479169,-91.98074385695526
6.02234624,1.0001990067289666,-92.14798454897092
6.02553856,1.0002234678333235,-92.31571474498098
6.02873088,1.0002342374109607,-92.48373795214235
6.0319232,1.0002305776573892,-92.651757383973
6.03511552,1.0002127169572423,-92.81970035045877
6.03830784,1.0001816946832107,-92.98728766323275
6.04150016,1.000139401009928,-93.15437715359442
6.044692992,1.0000886044673107,-93.3208374785329
6.047885312,1.0000323107457003,-93.4865030136316
6.051077632,0.9999740165315022,-93.65140881650579
6.054269952,0.999917198901636,-93.81546189931993
6.057462272,0.9998656662411558,-93.97880563804739
6.060654592,0.9998222506852691,-94.14144746597756
6.063846912,0.9997900408455365,-94.30358669664139
6.067039232,0.9997706213741994,-94.46534063019168
6.070231552,0.9997655295002151,-94.62694454716589
6.073423872,0.9997748352083706,-94.7886198657888
6.076616192,0.9997981423004555,-94.95056690231988
6.079808512,0.9998340249869944,-95.11287594001742
6.083000832,0.9998803148927545,-95.27587157174814
6.086193152,0.9999338495060821,-95.4395304151178
6.089385472,0.9999918012336362,-95.60406388990035
6.092577792,1.0000500980898843,-95.76939664965492
6.095770112,1.0001055132150722,-95.9355994585258
6.098962432,1.0001543583595551,-96.10258634786199
6.102154752,1.0001939327308642,-96.27020360141779
6.105347072,1.000221505902627,-96.4383002625308
6.108539392,1.0002353279929759,-96.60672316235465
6.111731712,1.0002346854853157,-96.77528559942303
6.114924032,1.0002197764014484,-96.94374015507674
6.118116352,1.0001910962730194,-97.11188925082395
6.121308672,1.0001508303843916,-97.27955668631874
6.124500992,1.0001010989659138,-97.44660497069489
6.127693312,1.0000451206115912,-97.61293988606005
6.130885632,0.9999863400853308,-97.7784165387679
6.134078464,0.9999284504011205,-97.94312511699381
6.137270784,0.999875016420626,-98.10702172121697
6.140463104,0.9998291890802735,-98.27023258930605
6.143655424,0.999794020551347,-98.43288037836638
6.146847744,0.9997715882442012,-98.59509529831482
6.150040064,0.9997631829159441,-98.75713005075839
6.153232384,0.9997695765245097,-98.91918284446699
6.156424704,0.9997902483249909,-99.08142812348179
6.159617024,0.9998237772397879,-99.244072726192
6.162809344,0.9998683576970455,-99.40732322121784
6.166001664,0.9999211930329909,-99.57126220024581
6.169193984,0.9999789485273325,-99.73601071027038
6.172386304,1.0000380405478824,-99.90160198290194
6.175578624,1.0000948734561117,-100.0680848478853
6.178770944,1.0001459726673418,-100.23533419829049
6.181963264,1.0001880613688663,-100.40327794394777
6.185155584,1.0002186634566452,-100.57174291851105
6.188347904,1.0002357214665298,-100.74056668446411
6.191540224,1.000238267352257,-100.9095793411092
6.194732544,1.0002262704998284,-101.07848769899185
6.197924864,1.000200208433537,-101.24718009311009
6.201117184,1.0001618688804315,-101.41540541333265
6.204309504,1.0001134017384061,-101.58304409205495
6.207501824,1.0000581507183495,-101.74997534047687
6.210694144,0.9999991091522155,-101.9160538104128
6.213886464,0.9999402153447376,-102.08136024619705
6.217078784,0.9998849654064222,-102.2458194386698
6.220271104,0.9998367778804208,-102.40957583952198
6.223463936,0.9997987471692066,-102.57268082205226
6.226656256,0.9997731117763253,-102.73538233347183
6.229848576,0.9997615483973102,-102.8978350393168
6.233040896,0.9997648073529662,-103.06022804753478
6.236233216,0.9997825264935033,-103.22281283321853
6.239425536,0.9998138372805355,-103.38575123359712
6.242617856,0.99985665017713,-103.54922819883875
6.245810176,0.999908435195202,-103.71340415977998
6.249002496,0.9999659950178155,-103.87834993678702
6.252194816,1.0000256163704977,-104.04418566155609
6.255387136,1.000083858965597,-104.2108674055451
6.258579456,1.000136854668376,-104.378383548833
6.261771776,1.000181622637256,-104.54660873193197
6.264964096,1.0002151431925617,-104.7153898958805
6.268156416,1.0002354743189856,-104.88460250584984
6.271348736,1.0002412471294762,-105.05402756369851
6.274541056,1.0002322835844433,-105.22340831416372
6.277733376,1.0002089513848933,-105.39257429552086
6.280925696,1.0001727277483483,-105.5613613057666
6.284118016,1.0001258101070287,-105.72958126758584
6.287310336,1.0000711671486688,-105.89705794687993
6.290502656,1.0000121115990277,-106.06371336206747
6.293694976,0.9999522518374666,-106.22956520091539
6.296887296,0.9998954808896122,-106.39458659304812
6.300079616,0.9998450429944477,-106.55885167931098
6.303271936,0.9998042152459188,-106.72247139777008
6.306464256,0.9997755651806918,-106.88562797951522
6.309656576,0.9997606680406144,-107.04846113404953
6.312849408,0.9997606878441844,-107.21120139748034
6.316041728,0.9997755157550083,-107.37407714284475
6.319234048,0.9998042570775926,-107.5372566239715
6.322426368,0.9998451947238381,-107.70094582045657
6.325618688,0.9998957348097158,-107.86537772002522
6.328811008,0.9999528160539352,-108.03053077537756
6.332003328,1.0000128927886254,-108.19652034865196
6.335195648,1.0000722936193054,-108.36342741671864
6.338387968,1.0001272650546202,-108.53115726715994
6.341580288,1.0001744309872045,-108.699620925252
6.344772608,1.0002109970808353,-108.86870560790342
6.347964928,1.0002344506831988,-109.0382673997527
6.351157248,1.000243540396528,-109.20804440185591
6.354349568,1.0002377355491554,-109.37785048681289
6.357541888,1.000217167436254,-109.54751100500567
6.360734208,1.0001833279517913,-109.71676084727511
6.363926528,1.0001379689875458,-109.88551429636779
6.367118848,1.0000842258795244,-110.05350602699436
6.370311168,1.0000253467963587,-110.22074154519146
6.373503488,0.999964859410015,-110.3871690028289
6.376695808,0.999906392702182,-110.55273174150786
6.379888128,0.9998538974270039,-110.7174693387055
6.383080448,0.9998103050512391,-110.8815710095519
6.386272768,0.9997784847469463,-111.0451329583506
6.389465088,0.9997603584321504,-111.20833332279479
6.392657408,0.999757064791837,-111.37143523634676
6.395849728,0.9997688648304739,-111.53457524274782
6.399042048,0.999794915359939,-111.69798536418973
6.40223488,0.999833811778383,-111.86192131906323
6.4054272,0.9998830284543628,-112.02648265247903
6.40861952,0.9999393994775718,-112.19179521302573
6.41181184,0.999999804820972,-112.35797167732194
6.41500416,1.00006018796694,-112.52503868951341
6.41819648,1.0001169877005067,-112.69295100059449
6.4213888,1.000166668684996,-112.86163534537495
6.42458112,1.0002060079464201,-113.03097772202567
6.42777344,1.0002327608107215,-113.20080095312403
6.43096576,1.0002452103737869,-113.37095269557503
6.43415808,1.0002426327936453,-113.54116873690185
6.4373504,1.000224982252075,-113.71124710948413
6.44054272,1.0001935007101705,-113.88102306698816
6.44373504,1.000150136539967,-114.05021667158377
6.44692736,1.0000974382438523,-114.21876362279625
6.45011968,1.000038726093248,-114.38653992811923
6.453312,0.9999776898176153,-114.55342771141987
6.45650432,0.9999179250782351,-114.71952647923715
6.45969664,0.9998632421869582,-114.88476249962761
6.46288896,0.9998171048681675,-115.04931722961332
6.46608128,0.9997821949665411,-115.2132541550427
6.4692736,0.9997607067325927,-115.3768773676767
6.47246592,0.9997541490682875,-115.54023362009382
6.47565824,0.9997627006550148,-115.7036501779553
6.47885056,0.9997860761321232,-115.8673132449591
6.48204288,0.9998227107973665,-116.03139472597069
6.4852352,0.9998703483907988,-116.19612986698708
6.48842752,0.9999260728392463,-116.36156579139467
6.491620352,0.9999863636562902,-116.52791035253226
6.494812672,1.0000476389370379,-116.69508812548455
6.498004992,1.000106101440423,-116.86316210968035
6.501197312,1.0001580498922449,-117.03202682045351
6.504389632,1.0002003781259488,-117.20159577423615
6.507581952,1.0002303083909165,-117.3716744603066
6.510774272,1.0002460883562585,-117.54211360546084
6.513966592,1.000246765082261,-117.7127016342776
6.517158912,1.0002322521382176,-117.8831730068616
6.520351232,1.0002033461197595,-118.05336318080046
6.523543552,1.0001619895780258,-118.22301646650648
6.526735872,1.0001105816417526,-118.39207346167794
6.529928192,1.000052314537602,-118.5603507347135
6.533120512,0.9999907654496772,-118.72777784317907
6.536312832,0.9999299275121694,-118.89430532599414
6.539505152,0.9998733039730677,-119.06002133461016
6.542697472,0.9998245725137168,-119.2250066823855
6.545889792,0.9997866567402321,-119.38935876203946
6.549082112,0.999761856327922,-119.55331572048031
6.552274432,0.9997518991531927,-119.71699683774493
6.555466752,0.9997571889502963,-119.88062574319576
6.558659072,0.9997776258421505,-120.04448739068178
6.561851392,0.9998118864374969,-120.20874744829726
6.565043712,0.9998577406158851,-120.37360202392058
6.568236032,0.9999125948474225,-120.53916909727359
6.571428352,0.9999727448700294,-120.70557916327682
6.574620672,1.0000347719391343,-120.87287674216917
6.577813504,1.0000947245387901,-121.04106360585071
6.581005824,1.0001489135692103,-121.21008326655632
6.584198144,1.0001940098864939,-121.37982485646485
6.587390464,1.0002271695950486,-121.55016200406216
6.590582784,1.0002463374551231,-121.72082511610257
6.593775104,1.0002504194844755,-121.8917108764924
6.596967424,1.0002390676636064,-122.06256833217827
6.600159744,1.0002128859994843,-122.23315487347568
6.603352064,1.0001736515103643,-122.40326785203
6.606544384,1.0001237039735615,-122.57277031848459
6.609736704,1.0000660741564773,-122.74149307233164
6.612929024,1.0000043555719407,-122.90939310922786
6.616121344,0.9999423827472907,-123.07641561558754
6.619313664,0.9998840175101124,-123.24258748090043
6.622505984,0.9998327942149744,-123.40796606294056
6.625698304,0.9997917927169979,-123.5727143233276
6.628890624,0.9997638614427606,-123.73697048955455
6.632082944,0.9997503427258203,-123.90091768447127
6.635275264,0.9997524576660562,-124.06479791103295
6.638467584,0.9997698241995744,-124.22885893820289
6.641659904,0.9998014784019986,-124.39325350561172
6.644852224,0.999845463393034,-124.55820026395112
6.648044544,0.999899071192296,-124.72385928047571
6.651236864,0.9999590134369847,-124.89034194229777
6.654429184,1.000021580340551,-125.05772545822556
6.657621504,1.0000829640677908,-125.22598548029875
6.660813824,1.0001391992377302,-125.39512327610221
6.664006144,1.0001869439525881,-125.56501662262104
6.667198976,1.0002232862516685,-125.7355058928679
6.670391296,1.0002458985451552,-125.90644165888801
6.673583616,1.0002533452570397,-126.0776038301604
6.676775936,1.0002451696101538,-126.24877263045582
6.679968256,1.0002219791603304,-126.41971135760839
6.683160576,1.0001850048643284,-126.59025202466081
6.686352896,1.0001366720218934,-126.76016031605006
6.689545216,1.0000798725386362,-126.92937019359354
6.692737536,1.0000182159658284,-127.09770481082228
6.695929856,0.9999552260660612,-127.26516718267159
6.699122176,0.9998952047187054,-127.4317711311384
6.702314496,0.999841537603045,-127.59752073104603
6.705506816,0.9997977147749539,-127.76262062625452
6.708699136,0.9997663204729172,-127.92718125522018
6.711891456,0.9997494711694815,-128.09140285826783
6.715083776,0.9997481224298322,-128.2554907508932
6.718276096,0.999762308580198,-128.41970647117478
6.721468416,0.999791225822649,-128.58420367868393
6.724660736,0.9998332388398415,-128.74923315661744
6.727853056,0.99988555485692,-128.91494459213308
6.731045376,0.9999449931132992,-129.08148698415195
6.734237696,1.0000079905428,-129.24888524371573
6.737430016,1.0000705265747334,-129.4172150324104
6.740622336,1.0001287676900898,-129.58640044213345
6.743814656,1.0001791091586711,-129.75640104229288
6.747006976,1.000218589176379,-129.92703197406158
6.750199296,1.000244632209995,-130.09816591055448
6.753391616,1.0002555833709057,-130.2695777025869
6.756584448,1.0002507834610055,-130.44099246879426
6.759776768,1.0002305693342475,-130.61229540550164
6.762969088,1.0001961282665661,-130.7831839090694
6.766161408,1.0001495645682994,-130.9535182240765
6.769353728,1.0000937611117233,-131.12311665225576
6.772546048,1.0000321933795346,-131.2918727879464
6.775738368,0.9999686523530392,-131.4597564040595
6.778930688,0.999906942853283,-131.62675649962003
6.782123008,0.9998510335648076,-131.79290597934323
6.785315328,0.999804350312247,-131.95832774876268
6.788507648,0.9997697612427685,-132.12318189439378
6.791699968,0.9997493174016931,-132.2876339994918
6.794892288,0.9997444945080756,-132.4519265516579
6.798084608,0.9997554576438451,-132.61625672839259
6.801276928,0.9997815338621926,-132.78087280887007
6.804469248,0.9998212570497335,-132.94595648044935
6.807661568,0.9998720431004301,-133.1117195778917
6.810853888,0.9999308762209905,-133.27823704707632
6.814046208,0.9999940051975614,-133.4456595378808
6.817238528,1.0000575621631536,-133.61399263683822
6.820430848,1.0001176921449932,-133.7832156022578
6.823623168,1.0001707175614198,-133.9532719177774
6.826815488,1.000213146547483,-134.12400158771345
6.830007808,1.0002426226938865,-134.2953010562886
6.833200128,1.0002570109964162,-134.46686821708613
6.836392448,1.0002556945689063,-134.6385817408016
6.839584768,1.000238629556166,-134.81016152687664
6.842777088,1.000206850271115,-134.98138304603862
6.84596992,1.000162231860451,-135.15209571685403
6.84916224,1.000107745203662,-135.3220434058515
6.85235456,1.0000464317966595,-135.4912334068359
6.85554688,0.9999822674635762,-135.65948913712714
6.8587392,0.9999192944065597,-135.82687026318933
6.86193152,0.999861208424603,-135.99336159969306
6.86512384,0.9998117247096532,-136.1591266292731
6.86831616,0.9997738790403771,-136.3242306921768
6.87150848,0.999750002704297,-136.48891942772525
6.8747008,0.9997415954909283,-136.65336109518088
6.87789312,0.9997491959352941,-136.81782870314544
6.88108544,0.9997723316504513,-136.98250516232866
6.88427776,0.9998096353308336,-137.14763125652584
6.88747008,0.9998587306364516,-137.3133833810527
6.8906624,0.9999166812028468,-137.47987566294185
6.89385472,0.9999798196996748,-137.6472817492091
6.89704704,1.0000443179868652,-137.8155969338377
6.90023936,1.0001061397623918,-137.98482216179795
6.90343168,1.0001615566221647,-138.1548852339034
6.906624,1.0002070337022513,-138.3257134677827
6.90981632,1.0002398474288963,-138.49710077218955
6.91300864,1.0002578538300346,-138.66883349298786
6.91620096,1.0002600919529958,-138.84073836296207
6.91939328,1.0002462047496838,-139.01257974015144
6.9225856,1.0002172468893662,-139.18410884104037
6.92577792,1.0001747432113268,-139.35511983475854
6.92897024,1.000121619196149,-139.52547187608806
6.93216256,1.0000608724567124,-139.69500459022308
6.935355392,0.9999964001513966,-139.86361392445554
6.938547712,0.9999320851003837,-140.0313627723813
6.941740032,0.9998720750730197,-140.19817668870635
6.944932352,0.9998198443730912,-140.3642221245945
6.948124672,0.999778842138388,-140.52960290315593
6.951316992,0.9997513603300208,-140.69449771494865
6.954509312,0.9997394759885007,-140.8590852421919
6.957701632,0.9997435161621031,-141.02363134024762
6.960893952,0.9997636034456536,-141.1883546520825
6.964086272,0.9997982575097263,-141.35349880069228
6.967278592,0.9998455490249634,-141.51920706478944
6.970470912,0.9999024208641746,-141.68568036069144
6.973663232,0.9999653787416051,-141.85303487965768
6.976855552,1.0000306061917505,-142.02128695302508
6.980047872,1.0000939826338335,-142.19045043113147
6.983240192,1.0001517324422595,-142.36056138370537
6.986432512,1.0002001632295012,-142.53137787783564
6.989624832,1.0002363456513221,-142.70282487942234
6.992817152,1.0002579412460497,-142.87469304198692
6.996009472,1.0002637003445634,-143.04675091742845
6.999201792,1.0002532310214918,-143.21880681627314
7.002394112,1.0002272021496093,-143.39058436754937
7.005586432,1.0001871039924595,-143.56188212282194
7.008778752,1.0001354571672691,-143.73256381744343
7.011971072,1.0000754647438181,-143.90242388622917
7.015163392,1.0000108256384777,-144.0713864825534
7.018355712,0.9999454398421634,-144.23944944387122
7.021548032,0.9998834705462875,-144.40661032380098
7.024740864,0.9998286814335557,-144.57293140072693
7.027933184,0.9997845054492928,-144.73850033614764
7.031125504,0.9997536308437206,-144.90360142250185
7.034317824,0.9997379358616661,-145.06831996869457
7.037510144,0.999738622320149,-145.23294115070286
7.040702464,0.9997553427057866,-145.39770239822917
7.043894784,0.999787340041623,-145.56281920568026
7.047087104,0.9998325001194298,-145.72848585949984
7.050279424,0.9998881247986342,-145.89486551928476
7.053471744,0.9999507218632528,-146.06214466572825
7.056664064,1.0000164305684383,-146.23028281688076
7.059856384,1.000081272039406,-146.39941829220078
7.063048704,1.0001412088632655,-146.56941464356697
7.066241024,1.0001924848377344,-146.74022337311683
7.069433344,1.0002319432902462,-146.91169505143796
7.072625664,1.0002571265609552,-147.08362419602395
7.075817984,1.000266615029394,-147.25583071695908
7.079010304,1.0002594932495794,-147.42802983150088
7.082202624,1.0002366297520606,-147.6000449028404
7.085394944,1.0001990106998178,-147.77163971180735
7.088587264,1.0001491201618007,-147.9425643412047
7.091779584,1.0000900409220372,-148.1127591901759
7.094971904,1.0000254134769315,-148.28203813884952
7.098164224,0.9999591600214114,-148.4504241238603
7.101356544,0.9998954576023816,-148.61782209089841
7.104548864,0.9998381990531812,-148.78439649066289
7.107741184,0.9997908543443708,-148.95019374645335
7.110933504,0.9997565704257201,-149.11542966072815
7.114126336,0.9997371772287047,-149.28029547123515
7.117318656,0.9997342055630789,-149.44497375085737
7.120510976,0.9997476753229322,-149.60973659245224
7.123703296,0.9997767087676342,-149.77480050887306
7.126895616,0.999819658072381,-149.9403950001894
7.130087936,0.9998738316138998,-150.10668116293954
7.133280256,0.9999358765305781,-150.27382268749767
7.136472576,1.0000019946132304,-150.44186778620684
7.139664896,1.0000680724478832,-150.61085865933256
7.142857216,1.0001300098794845,-150.78077000348588
7.146049536,1.000184119064214,-150.95152232816784
7.149241856,1.000226883052679,-151.12296278632866
7.152434176,1.0002556803956648,-151.29495068531688
7.155626496,1.0002687414401294,-151.467211473548
7.158818816,1.0002653346067003,-151.63956399855593
7.162011136,1.0002456137020972,-151.81176498741277
7.165203456,1.0002106932976211,-151.983541965865
7.168395776,1.0001628085016387,-152.15477892653865
7.171588096,1.0001048130399433,-152.32522913221194
7.174780416,1.0000403843742218,-152.49479886491685
7.177972736,0.9999733834283054,-152.66343626193918
7.181165056,0.9999080958095138,-152.83111300572105
7.184357376,0.9998484910215905,-152.99793061109867
7.187549696,0.9997982189351581,-153.1639206323186
7.190742016,0.9997604102445435,-153.32931685082423
7.193934336,0.9997373755625796,-153.49425940161993
7.197126656,0.9997306583906846,-153.65894056480667
7.200319488,0.9997406610458446,-153.82371248130116
7.203511808,0.999766583825337,-153.98872604474198
7.206704128,0.9998071954664438,-154.1542108895985
7.209896448,0.9998597411788153,-154.32035601712226
7.213088768,0.99992095472572,-154.4873390256398
7.216281088,0.9999872541487256,-154.65521480142368
7.219473408,1.0000544039243224,-154.82407363634834
7.222665728,1.0001183065958787,-154.99386490607955
7.225858048,1.000175025914568,-155.1645359660148
7.229050368,1.0002209690339385,-155.33591100136624
7.232242688,1.0002533937074523,-155.5078699501177
7.235435008,1.0002702582633298,-155.68018614564818
7.238627328,1.0002704903187034,-155.85262125930927
7.241819648,1.0002539953703973,-156.02493966481845
7.245011968,1.0002219677662574,-156.1969433667247
7.248204288,1.0001761652383117,-156.36837973174067
7.251396608,1.000119564025807,-156.53904133795763
7.254588928,1.0000554597081808,-156.70889486359673
7.257781248,0.9999880303016374,-156.87778530710634
7.260973568,0.9999212923736398,-157.04570365874434
7.264165888,0.9998594270761556,-157.2127125365924
