freq,mag,phase
6.0,1.000440518218277,-103.74029645862345
6.002287616,1.0001043677794044,-103.88314303550966
6.004575232,0.9997609119049379,-104.02103588557338
6.006862848,0.9994324056949577,-104.1541037583604
6.009150464,0.9991398574699532,-104.2826166128888
6.011438592,0.9989017406926903,-104.40725758547376
6.013726208,0.9987334660613398,-104.5289244496982
6.016013824,0.9986453324316197,-104.64873472583517
6.01830144,0.9986436939346159,-104.76792642480594
6.020589056,0.9987279120707122,-104.88770377823764
6.022876672,0.9988932761645898,-105.00927244884727
6.025164288,0.999128941265331,-105.13382180970488
6.027451904,0.9994198203444697,-105.26219755773366
6.029740032,0.9997478312101723,-105.39513755789007
6.032027648,1.0000916505971178,-105.53292015040371
6.034315264,1.0004298578450423,-105.67567412922857
6.03660288,1.0007405844501578,-105.82317782121163
6.038890496,1.0010045035898967,-105.97485506627103
6.041178112,1.0012045446968785,-106.12991980655369
6.043465728,1.0013282205369303,-106.28733138522003
6.045753344,1.0013677104623384,-106.44594114960375
6.04804096,1.0013202538710406,-106.60453412019088
6.050329088,1.0011892289523812,-106.76176046580743
6.052616704,1.0009824737777944,-106.91661637928736
6.05490432,1.0007133391803718,-107.06800363453361
6.057191936,1.0003986844613926,-107.21514079732528
6.059479552,1.0000585447462924,-107.35762225263485
6.061767168,0.9997146371564939,-107.49502669524841
6.064054784,0.9993885249210759,-107.62757788410698
6.0663424,0.9991011540827598,-107.75570375483493
6.068630016,0.9988707378365524,-107.88000060222762
6.070918144,0.9987119932289937,-108.00150556723054
6.07320576,0.9986350978536408,-108.12126136672325
6.075493376,0.9986449520661094,-108.24058445192966
6.077780992,0.998740990723072,-108.3606033942322
6.080068608,0.9989169383707711,-108.48265643219894
6.082356224,0.999161901333227,-108.60778676187985
6.08464384,0.9994601011869532,-108.73692084723386
6.086931456,0.9997925338849034,-108.87061332457829
6.089219584,1.000138297348717,-109.00926109586476
6.0915072,1.0004752416993434,-109.15288454268415
6.093794816,1.0007819440309822,-109.30116667679025
6.096082432,1.0010391666158622,-109.453580440766
6.098370048,1.0012302982168657,-109.60922400153143
6.100657664,1.0013435777053623,-109.76712850730632
6.10294528,1.0013715576806927,-109.92604328084985
6.105232896,1.0013125719599958,-110.0847425349378
6.107520512,1.0011702355102987,-110.2419612247423
6.10980864,1.000953402059123,-110.39662893539635
6.112096256,1.0006760993481565,-110.54768181750464
6.114383872,1.0003558235631271,-110.69442569834219
6.116671488,1.0000126721203793,-110.83634142729957
6.118959104,0.99966832421084,-110.9732775189788
6.12124672,0.9993451142227704,-111.10535760341274
6.123534336,0.9990632770414125,-111.23298181481182
6.125821952,0.9988408102496363,-111.3569988793359
6.128109568,0.9986919270141906,-111.47823804157404
6.130397696,0.9986262767662069,-111.59793890619162
6.132685312,0.9986478064556551,-111.71735807347268
6.134972928,0.9987554121866284,-111.83765349235338
6.137260544,0.9989420061825802,-111.96016763709659
6.13954816,0.999196021619473,-112.08582800786077
6.141835776,0.9995011492598923,-112.2156379706606
6.144123392,0.9998379277742153,-112.35010735713985
6.146411008,1.0001849864577648,-112.48954765456462
6.148699136,1.000520481937776,-112.63394882343648
6.150986752,1.000822811781995,-112.78300870577395
6.153274368,1.0010729428958534,-112.93609103143469
6.155561984,1.0012550774495728,-113.09233412421406
6.1578496,1.001357629383725,-113.2505971748178
6.160137216,1.001374023708565,-113.40975266850137
6.162424832,1.0013033502033566,-113.56850326278933
6.164712448,1.0011497598540795,-113.72568460065709
6.167000064,1.0009233286449575,-113.88004715981856
6.169288192,1.0006381138374663,-114.03074848461839
6.171575808,1.0003122145015015,-114.17704463901389
6.173863424,0.9999662244334018,-114.3183941150166
6.17615104,0.9996223083185647,-114.45479595806776
6.178438656,0.9993022288850738,-114.58629863055032
6.180726272,0.999026245884981,-114.71345978371652
6.183013888,0.9988119865245713,-114.8370667032278
6.185301504,0.9986732847328089,-114.95810455537863
6.18758912,0.9986188535717375,-115.07772153370944
6.189877248,0.9986522454775603,-115.19722366465788
6.192164864,0.9987712645449114,-115.3177626067616
6.19445248,0.9989684399847125,-115.44066907484
6.196740096,0.9992312638370873,-115.56689268465945
6.199027712,0.9995428600183129,-115.69736033439865
6.201315328,0.999883595910006,-115.83253429220879
6.203602944,1.0002317257656481,-115.97272738316245
6.20589056,1.0005652404587722,-116.11792946837315
6.208178688,1.00086279471331,-116.26768599001178
6.210466304,1.001105681945695,-116.42136181509188
6.21275392,1.0012784759951445,-116.57807441599846
6.215041536,1.001370109767368,-116.73671581247034
6.217329152,1.0013749560501979,-116.89606276291029
6.219616768,1.0012924909487535,-117.05479758578709
6.221904384,1.0011279801392445,-117.21179078577305
6.224192,1.0008918874315627,-117.36592821468534
6.226479616,1.0005989464084193,-117.51617287134657
6.228767744,1.0002678135549166,-117.66191007488639
6.23105536,0.9999196797874589,-117.80269530089774
6.233342976,0.9995762748470471,-117.93844118968076
6.235630592,0.9992597152604081,-118.06940846023352
6.237918208,0.9989899730483919,-118.19604479720637
6.240205824,0.9987844593545234,-118.31927112142054
6.24249344,0.9986559489169018,-118.44006880554369
6.244781056,0.998612957658075,-118.55957188661546
6.247068672,0.9986580906294181,-118.67907870758259
6.2493568,0.9987886293827661,-118.79985733278639
6.251644416,0.9989961350311624,-118.92315632703193
6.253932032,0.9992675320845813,-119.04992481595325
6.256219648,0.9995855126797576,-119.18098097861879
6.258507264,0.9999299884287549,-119.31687199313843
6.26079488,1.0002788107581806,-119.4578090829484
6.263082496,1.0006099344691064,-119.60371575852633
6.265370112,1.000902380991974,-119.75413284541693
6.26765824,1.0011376617723977,-119.90838373954452
6.269945856,1.0013007485694618,-120.06552535444163
6.272233472,1.0013814682961097,-120.22442889525803
6.274521088,1.0013744457819176,-120.38391005090409
6.276808704,1.0012803087326247,-120.542587846185
6.27909632,1.0011049217311707,-120.6993572702384
6.281383936,1.0008592313638458,-120.85310983884814
6.283671552,1.0005589594783881,-121.00289114257015
6.285959168,1.000223051145329,-121.14799650506184
6.288247296,0.9998727901742251,-121.28816239872232
6.290534912,0.9995303794662216,-121.42327934880862
6.292822528,0.999217658233698,-121.553563414018
6.295110144,0.9989545937057689,-121.67975027538294
6.29739776,0.9987577579347889,-121.80248751171241
6.299685376,0.9986398448970555,-121.92300606867383
6.301972992,0.9986084602677857,-122.04237091729755
6.304260608,0.9986655015487835,-122.16195686250575
6.306548224,0.9988074852591251,-122.2829314421078
6.308836352,0.9990252445139417,-122.40660311240377
6.311123968,0.9993049712969865,-122.53381540175887
6.313411584,0.999628876954535,-122.66549113275677
6.3156992,0.9999765854545204,-122.80204428060426
6.317986816,1.0003256408005896,-122.94370669220575
6.320274432,1.0006540697515212,-123.09024661689365
6.322562048,1.000941163361333,-123.24125925968609
6.324849664,1.0011684329413832,-123.39605562754204
6.327137792,1.0013217702307222,-123.55356452435284
6.329425408,1.0013911824091248,-123.7126840078166
6.331713024,1.001372357469857,-123.8721797571187
6.33400064,1.001266589512087,-124.03079212493343
6.336288256,1.0010803386567673,-124.18730925978743
6.338575872,1.0008254523904814,-124.34059125926294
6.340863488,1.0005180094585084,-124.48979833144108
6.343151104,1.0001775533761432,-124.63431769034052
6.34543872,0.9998256195325222,-124.77377298914178
6.347726848,0.999484720295361,-124.90820465669663
6.350014464,0.9991762296810686,-125.03789668457598
6.35230208,0.9989199595631438,-125.16343543867978
6.354589696,0.9987323172949131,-125.28575939378403
6.356877312,0.9986252644080287,-125.40592549922854
6.359164928,0.9986055337114371,-125.52513585124991
6.361452544,0.9986744623528007,-125.64470154674308
6.36374016,0.9988276968936276,-125.76591455300724
6.366027776,0.9990554627844053,-125.88990817979426
6.368315904,0.9993434016591825,-126.017611406287
6.37060352,0.9996730633283304,-126.14987386564378
6.372891136,1.0000235371244697,-126.28704848501539
6.375178752,1.0003725629443978,-126.42932992347025
6.377466368,1.0006979653304209,-126.57650341121773
6.379753984,1.00097917495678,-126.72809886863996
6.3820416,1.0011984026306708,-126.88330358499174
6.384329216,1.0013415234977154,-127.04113666396252
6.386617344,1.0013995884658022,-127.20045103322123
6.38890496,1.0013688118542952,-127.35993141266033
6.391192576,1.0012513106577874,-127.51837715821473
6.393480192,1.0010543778576562,-127.67448417263748
6.395767808,1.0007904578048188,-127.82730662227097
6.398055424,1.0004762825394908,-127.97588857890686
6.40034304,1.0001315674673468,-128.1197234881666
6.402630656,0.9997784718927966,-128.25843022682855
6.404918272,0.9994392006293205,-128.3921377304008
6.4072064,0.9991354274695168,-128.52114678238863
6.409494016,0.9988864366399346,-128.64607524648966
6.411781632,0.9987082393450235,-128.76790829379533
6.414069248,0.9986121549793598,-128.88774859846205
6.416356864,0.9986041783923723,-129.00677845119412
6.41864448,0.9986849504555853,-129.12637859413078
6.420932096,0.998849514230392,-129.2477107320134
6.423219712,0.9990872284334016,-129.37204528265747
6.425507328,0.9993829994888231,-129.50022453632917
6.427795456,0.9997180756527306,-129.63301513576926
6.430083072,1.0000710448094206,-129.77080105076905
6.432370688,1.0004196126434746,-129.91370298860394
6.434658304,1.0007416296066614,-130.06145273451727
6.43694592,1.0010165750714306,-130.21353304444048
6.439233536,1.0012270660892304,-130.3691413144147
6.441521152,1.001359793661378,-130.52725038695965
6.443808768,1.001406371259725,-130.68665030447164
6.446096896,1.0013637183916715,-130.8460663720033
6.448384512,1.0012345087070886,-131.00422094103806
6.450672128,1.0010270132869763,-131.15996244815548
6.452959744,1.0007541946667213,-131.31223496207963
6.45524736,1.0004333148272209,-131.4601549082519
6.457534976,1.0000848365293074,-131.60322192509514
6.459822592,0.9997307849916726,-131.74115002402652
6.462110208,0.9993936371393796,-131.8740699062532
6.464397824,0.9990948616368431,-132.00237576414082
6.466685952,0.9988534945467118,-132.12667466084193
6.468973568,0.9986849373284608,-132.2480058429137
6.471261184,0.9985999989604372,-132.36744368111297
6.4735488,0.9986040145740225,-132.4863131978804
6.475836416,0.9986968085740572,-132.60589458505052
6.478124032,0.9988725823162969,-132.72739374772735
6.480411648,0.9991198770213637,-132.85198830742084
6.482699264,0.9994233643508809,-132.9805996241531
6.48498688,0.9997635546477551,-133.11389506642942
6.487275008,1.0001187371284024,-133.25221298899945
6.489562624,1.0004664230577782,-133.39567683465773
6.49185024,1.00078459030275,-133.54395288232152
6.494137856,1.0010530728683373,-133.69651909380644
6.496425472,1.0012546709276144,-133.8524779049283
6.498713088,1.0013768402654064,-134.0107734084882
6.501000704,1.0014117195230108,-134.1702212631686
6.50328832,1.001357013881627,-134.32952890589317
6.505576448,1.0012162053038778,-134.48737690879858
6.507864064,1.000998231647,-134.6426181303925
6.51015168,1.000716819971367,-134.79425566097652
6.512439296,1.0003896889859798,-134.94146301494925
6.514726912,1.0000377611501474,-135.08375064300245
6.517014528,0.9996831737519765,-135.22085177865696
6.519302144,0.9993485587356721,-135.35297217484376
6.52158976,0.9990551960786247,-135.48047112488587
6.523877376,0.9988217825047557,-135.60412784032042
6.526165504,0.9986632292356052,-135.72490562922354
6.52845312,0.9985896092452303,-135.84402298521258
6.530740736,0.9986056830821253,-135.96264211652547
6.533028352,0.9987104350912628,-136.08216916609746
6.535315968,0.9988972466104163,-136.20379929541224
6.537603584,0.9991542154744629,-136.32866148139385
6.5398912,0.9994650283784035,-136.45770404493192
6.542178816,0.9998098696370652,-136.59144736494233
6.544466432,1.000166849278283,-136.73036411809633
6.54675456,1.0005132723423074,-136.87430463108072
6.549042176,1.0008272148262045,-137.02308533158305
6.551329792,1.0010887806345894,-137.1760496144492
6.553617408,1.001281250414918,-137.33230609113306
6.555905024,1.001392582151693,-137.49073468810334
6.55819264,1.0014155185613314,-137.6501439466546
6.560480256,1.0013486766925164,-137.80923664235507
6.562767872,1.0011963542927966,-137.96674690700385
6.565056,1.0009680144313953,-138.1214579791519
6.567343616,1.0006782050317566,-138.2724345441841
6.569631232,1.0003451180586767,-138.41885961584097
6.571918848,0.9999899751489235,-138.56028618713435
6.574206464,0.9996353499932646,-138.69652918789566
6.57649408,0.999303676255808,-138.82774711583676
6.578781696,0.9990160753795726,-138.95449964091682
6.581069312,0.9987909683886282,-139.07742383328386
6.583356928,0.9986426150652227,-139.19767422030333
6.585645056,0.9985805820919831,-139.31632685333702
6.587932672,0.9986088276419878,-139.43478324226123
6.590220288,0.9987255503925534,-139.55422785306789
6.592507904,0.9989233764030166,-139.67599579416964
6.59479552,0.9991896755987935,-139.8011323780692
6.597083136,0.999507638323021,-139.93049499192097
6.599370752,0.9998568836413805,-140.06472867796052
6.601658368,1.0002152264018178,-140.2040709962169
6.603945984,1.0005599888385743,-140.3485851098381
6.606234112,1.000869387595908,-140.49779988491107
6.608521728,1.0011235917835752,-140.65110191574263
6.610809344,1.0013066514012894,-140.8075803687634
6.61309696,1.0014068141644028,-140.9661262395383
6.615384576,1.0014177715028652,-141.12542308617654
6.617672192,1.001338782554745,-141.28425599819977
6.619959808,1.0011748682584685,-141.44131314350145
6.622247424,1.00093640388141,-141.595449739867
6.624535552,1.0006383475720335,-141.74567664495456
6.626823168,1.0002996738441023,-141.89126803442127
6.629110784,0.9999417129294891,-142.03180302126307
6.6313984,0.9995873160980737,-142.16713776927836
6.633686016,0.9992590662128338,-142.2974708021576
6.635973632,0.9989776275980936,-142.4233552898765
6.638261248,0.9987610980182029,-142.5456143772332
6.640548864,0.9986233676601113,-142.66527839771405
6.64283648,0.9985731194741523,-142.78351250267644
6.645124608,0.9986136406381755,-142.9016745069917
6.647412224,0.9987423500815603,-143.02107693084375
6.64969984,0.998951019036996,-143.1429265093649
6.651987456,0.999226554209744,-143.26825429427132
6.654275072,0.9995512560477692,-143.39801136421883
6.656562688,0.999904562967428,-143.532649180265
6.658850304,1.0002640259970994,-143.6725240049965
6.66113792,1.0006067706994892,-143.8174369578925
6.663426048,1.0009110217498136,-143.9670636718418
6.665713664,1.0011576612942612,-144.12070064044457
6.66800128,1.0013308482571,-144.2773357754016
6.670288896,1.0014196364161638,-144.43587927378232
6.672576512,1.0014184552068683,-144.59507114634698
6.674864128,1.0013272995999145,-144.75356906642125
6.677151744,1.0011519143136092,-144.91012182998196
6.67943936,1.0009034452679777,-145.06359452809218
6.681726976,1.0005973625878932,-145.21303163461474
6.684015104,1.0002532892097513,-145.35774446891912
6.68630272,0.9998930061202949,-145.49730633278756
6.688590336,0.9995393482628225,-145.63169271119455
6.690877952,0.9992147513987769,-145.76110236842635
6.693165568,0.9989399509144864,-145.8861339517082
6.695453184,0.9987324132391314,-146.00764665526233
6.6977408,0.9986054399310733,-146.1266526433923
6.700028416,0.9985671758528992,-146.24447399708947
6.702316032,0.99862007435916,-146.36238184125574
6.70460416,0.9987608074267982,-146.48167358990818
6.706891776,0.9989803177674825,-146.60361555850974
6.709179392,0.9992647488633601,-146.72920257367937
6.711467008,0.99959604761975,-146.85925444808265
6.713754624,0.9999530471690136,-146.99433413084165
6.71604224,1.0003131378385781,-147.13459901268007
6.718329856,1.000653339173922,-147.2799597952959
6.720617472,1.0009522145467307,-147.4299438757984
6.7229056,1.001190780946107,-147.583808979071
6.725193216,1.0013538846243188,-147.74060250316396
6.727480832,1.0014310766790604,-147.89911175906303
6.729768448,1.0014175373153367,-148.05808414103092
6.732056064,1.0013141771049179,-148.21616551673318
6.73434368,1.0011273494423885,-148.37218558290112
6.736631296,1.0008689257567103,-148.5249215211128
6.738918912,1.0005552647782103,-148.6735245980852
6.741206528,1.0002061183195319,-148.8173002712279
6.743494656,0.9998437728340489,-148.9558984872524
6.745782272,0.9994911883553946,-149.08924672332512
6.748069888,0.9991707272815106,-149.21767275996368
6.750357504,0.9989029350499501,-149.3418110583934
6.75264512,0.9987047652681038,-149.46254723526158
6.754932736,0.9985889339846622,-149.5809660145045
6.757220352,0.9985628668615321,-149.69831734409152
6.759507968,0.9986281468849176,-149.81595996247032
6.761795584,0.998780803876052,-149.93515937520522
6.764083712,0.9990110555055366,-150.05712148029124
6.766371328,0.9993042380254087,-150.18290198568357
6.768658944,0.999641784687057,-150.31328855112088
6.77094656,1.0000021317113073,-150.44870135500838
6.773234176,1.0003624580825619,-150.58937446765435
6.775521792,1.0006998284382573,-150.73512608983725
6.777809408,1.000992829578147,-150.88543519964395
6.780097024,1.0012229761622529,-151.03952022933476
6.782385152,1.001375652670982,-151.19633831191635
6.784672768,1.0014410656327044,-151.35477367551843
6.786960384,1.0014150952910672,-151.51345479166648
6.789248,1.0012994356511045,-151.67115807689245
6.791535616,1.001101236377333,-151.8265191494471
6.793823232,1.0008331293964379,-151.97850826985774
6.796110848,1.0005119709854136,-152.12619204582447
6.798398464,1.000158228705741,-152.2689770437521
6.80068608,0.9997941849622209,-152.40649022257463
6.802974208,0.999443082605019,-152.53883497522574
6.805261824,0.9991272119770725,-152.66625002313873
6.80754944,0.9988667944427867,-152.78949289941252
6.809837056,0.9986783184737219,-152.90940126352848
6.812124672,0.9985738404983322,-153.02720870812257
6.814412288,0.9985600378751577,-153.14406358682947
6.816699904,0.9986379564839833,-153.26138457442838
6.81898752,0.9988025315791583,-153.38048811179303
6.821275136,0.9990432792250944,-153.50253287452855
6.823563264,0.9993450066747879,-153.62848417084203
6.82585088,0.9996884402200261,-153.7591259288091
6.828138496,1.0000517955877744,-153.8949395805464
6.830426112,1.000411914419704,-154.03598279648426
6.832713728,1.0007459620415076,-154.182065049139
6.835001344,1.0010327981817466,-154.33261036170347
6.83728896,1.0012541107592976,-154.48687435639215
6.839576576,1.0013960437502176,-154.64375606311648
6.841864704,1.001449380728811,-154.80201682879502
6.84415232,1.0014108093442835,-154.96038983480608
6.846439936,1.0012828275224666,-155.1175683018098
6.848727552,1.0010733075263267,-155.27224471018047
6.851015168,1.0007956979037176,-155.42336016383638
6.853302784,1.000467405366372,-155.5700897248298
6.8555904,1.000109314851459,-155.71184264409567
6.857878016,0.999744065237965,-155.84828047800363
6.860165632,0.9993949814906152,-155.97951296891856
6.86245376,0.9990841303898966,-156.1059244288101
6.864741376,0.9988313928326203,-156.22821857974827
6.867028992,0.9986529817599316,-156.34731521643525
6.869316608,0.9985601816274163,-156.46442865716287
6.871604224,0.9985589684816933,-156.5808081948719
6.87389184,0.9986494757985973,-156.69784620088143
6.876179456,0.9988259561512506,-156.8167849350858
6.878467072,0.9990771683713168,-156.93886471227836
6.880754688,0.9993871830583024,-157.06500820745964
6.883042816,0.999736227697015,-157.1959397832395
6.885330432,1.0001020832364451,-157.3320730217653
6.887618048,1.0004616050737791,-157.47343864299472
6.889905664,1.0007919351376953,-157.61983005342321
6.89219328,1.0010720738662562,-157.77063086660522
6.894480896,1.001284244899743,-157.92501643321475
6.896768512,1.001415001584029,-158.08184089607522
6.899056128,1.0014561057813929,-158.23989994288033
6.901344256,1.0014048353977039,-158.39788745895956
6.903631872,1.001264485802864,-158.554471486974
6.905919488,1.0010438230086067,-158.70842439889898
