freq,mag,phase
6.0,0.9993469530656921,88.64625082599629
6.002286592,0.9995351807360934,88.4829764263183
6.004572672,0.9997538239438147,88.31673851352397
6.006859264,0.9999878880771293,88.14724185651505
6.009145344,1.0002226815156487,87.97438745571823
6.011431936,1.0004432507745253,87.79823805618386
6.013718016,1.0006360525700675,87.61911792062382
6.016004608,1.0007886065484157,87.43750417442908
6.018290688,1.0008913605449257,87.25409526354976
6.02057728,1.000937947556315,87.06958457457259
6.022863872,1.0009253402591631,86.88487475030908
6.025149952,1.0008543311054663,86.7007807946903
6.027436544,1.0007293397674488,86.51812613264968
6.029722624,1.000558076076634,86.33762079145075
6.032009216,1.000351515718134,86.15986504020987
6.034295296,1.0001226329115787,85.98529399017676
6.036581888,0.999885513102185,85.81411728368874
6.03886848,0.9996555018418186,85.64634506907248
6.04115456,0.9994469709517786,85.48179941210981
6.043441152,0.9992730380045841,85.32000755152359
6.045727232,0.9991447198249118,85.16045697132317
6.048013824,0.9990702560037251,85.00241383832146
6.050299904,0.99905420022893,84.84503597642596
6.052586496,0.9990976740943767,84.6874869228885
6.054872576,0.9991980399708036,84.52891339500789
6.057159168,0.9993488316887651,84.36855605489865
6.05944576,0.999540768822297,84.20570416739498
6.06173184,0.9997615110944829,84.03988984963394
6.064018432,0.9999972179071469,83.87079029973393
6.066304512,1.0002331062972871,83.69829199734242
6.068591104,1.0004541804963203,83.52248737151152
6.070877184,1.0006466219903953,83.34370028523534
6.073163776,1.000798271842907,83.16245370902203
6.075450368,1.0008995509549008,82.97940603518167
6.077736448,1.0009440180505982,82.7952989041878
6.08002304,1.0009289184261696,82.61099778363595
6.08230912,1.0008551824089738,82.42737696090221
6.084595712,1.000727391216625,82.24521048177351
6.086881792,1.0005535561539793,82.0652544805758
6.089168384,1.0003446195008567,81.8880679796716
6.091454464,1.0001137133764746,81.71409325494982
6.093741056,0.9998752934591353,81.54354097725891
6.096027648,0.9996444840841773,81.37641208900625
6.098313728,0.9994359084764455,81.21248245343813
6.10060032,0.9992625633771929,81.05135853107976
6.1028864,0.9991355672376204,80.89242875783854
6.105172992,0.9990629438347103,80.734988478165
6.107459072,0.999049234397963,80.57819038533094
6.109745664,0.9990954814032759,80.42116122000427
6.112032256,0.999198561263555,80.26308299837032
6.114318336,0.9993521536798277,80.10314614339863
6.116604928,0.9995465917879403,79.9407330591156
6.118891008,0.9997695515032383,79.77527883195802
6.1211776,1.0000070353713806,79.60652663268816
6.12346368,1.000243877328741,79.43432858509408
6.125750272,1.0004654072280652,79.25882927689892
6.128036352,1.000657492164223,79.080375443453
6.130322944,1.000808150037625,78.89943554165825
6.132609536,1.0009077807994924,78.71671583269814
6.134895616,1.0009501416610456,78.53297013983001
6.137182208,1.0009325604475448,78.34905737779123
6.139468288,1.0008559449659784,78.16583428804816
6.14175488,1.0007253520094668,77.98415402067936
6.14404096,1.0005488416460553,77.80469032843631
6.146327552,1.0003374080404397,77.6280682200455
6.148614144,1.000104482427384,77.4546536056986
6.150900224,0.9998647445960556,77.2847049361582
6.153186816,0.9996331977723448,77.11816931732234
6.155472896,0.9994245058421433,76.95485094108561
6.157759488,0.9992519531117817,76.79434392674696
6.160045568,0.9991263307685473,76.63601571476752
6.16233216,0.9990554776961165,76.47911204905158
6.16461824,0.999044306672796,76.32285589551641
6.166904832,0.99909316344461,76.16632807093393
6.169191424,0.9991992263114208,76.0087011543155
6.171477504,0.999355595535905,75.84917427470498
6.173764096,0.9995527213040029,75.68710476843864
6.176050176,0.9997778908343609,75.52198917135958
6.178336768,1.0000169512567192,75.35353506834444
6.180622848,1.0002550095909917,75.18161675957833
6.18290944,1.0004769138184688,75.00639944361963
6.18519552,1.0006686118850554,74.82820400288581
6.187482112,1.0008181542632177,74.64753365298357
6.189768704,1.0009161092738654,74.46510602583763
6.192054784,1.0009562302428845,74.28166876758792
6.194341376,1.0009360008007506,74.0981023729537
6.196627456,1.0008565759846062,73.91530485382104
6.198914048,1.0007230058111423,73.73404132914882
6.201200128,1.0005437790910907,73.55503213702987
6.20348672,1.0003299173599287,73.37890655420989
6.205773312,1.0000950215566877,73.20604834985707
6.208059392,0.9998538632958837,73.0366413304592
6.210345984,0.9996216341604709,72.87070370454424
6.212632064,0.9994129583338844,72.70796732639785
6.214918656,0.9992411291340235,72.54801726682916
6.217204736,0.9991167981725996,72.39022815437515
6.219491328,0.9990481606811308,72.23388283325438
6.221777408,0.9990394180259017,72.07810214711058
6.224064,0.9990910794029934,71.9220269055372
6.226350592,0.9992000043222004,71.76481813337993
6.228636672,0.9993593998927679,71.60566541352259
6.230923264,0.9995590295033568,71.44391987162462
6.233209344,0.9997864493661479,71.27909976196399
6.235495936,1.0000273382136429,71.11089005843256
6.237782016,1.000266356495797,70.939221280496
6.240068608,1.0004886112138782,70.76422422000121
6.2423552,1.0006798851617178,70.58622446703558
6.24464128,1.0008283858646692,70.40580819183455
6.246927872,1.0009245136028144,70.22362680340292
6.249213952,1.0009623559835328,70.04047959476341
6.251500544,1.0009394522776045,69.85724803066485
6.253786624,1.0008571368806023,69.67478356460101
6.256073216,1.0007206316912913,69.49389890660417
6.258359296,1.0005385338631143,69.31535517928972
6.260645888,1.0003221697265714,69.13970637978778
6.26293248,1.0000852307038266,68.96732700927207
6.26521856,0.999842606170807,68.79846168294775
6.267505152,0.999609734676665,68.63305425807918
6.269791232,0.9994011097588128,68.47087350737154
6.272077824,0.9992300328530275,68.31144254376979
6.274363904,0.9991072742517033,68.15418199452368
6.276650496,0.9990407122281129,67.99832523618072
6.278937088,0.9990345345496551,67.84300732600956
6.281223168,0.9990891027378996,67.68734746202855
6.28350976,0.9992010357813712,67.53048904043042
6.28579584,0.9993633622020945,67.37168230278351
6.288082432,0.9995657602745093,67.21021943339842
6.290368512,0.9997954242631096,67.04562923619417
6.292655104,1.0000379755370785,66.87764069276187
6.294941184,1.0002780525451,66.70616513147168
6.297227776,1.00050062150857,66.53134699239824
6.299514368,1.0006915100719356,66.35354476963951
6.301800448,1.000838724141406,66.17330448657539
6.30408704,1.0009330632173974,65.99133367627655
6.30637312,1.000968516511825,65.80843877184945
6.308659712,1.000942728179229,65.625473854158
6.310945792,1.0008574836603423,65.44331453074385
6.313232384,1.0007179251771006,65.2628041873026
6.315518464,1.000532946596535,65.0846698474242
6.317805056,1.0003141360397603,64.90943418557747
6.320091648,1.0000751805811312,64.73754535771113
6.322377728,0.9998312463895571,64.56916991734478
6.32466432,0.9995975584637922,64.40426963921955
6.3269504,0.9993890543355408,64.24260113593706
6.329236992,0.9992188406127145,64.08367622140288
6.331523072,0.9990976970887621,63.926894724595854
6.333809664,0.9990332145623445,63.771483175198334
6.336096256,0.9990296773615802,63.61657194425626
6.338382336,0.9990871787830355,63.46130466009119
6.340668928,0.9992021931925665,63.30478503386011
6.342955008,0.9993675192120257,63.14624868528959
6.3452416,0.9995726049391797,62.98501319478661
6.34752768,0.9998046735385249,62.82064716680484
6.349814272,1.000048871864077,62.652826015814696
6.352100352,1.0002901021159731,62.481502468809055
6.354386944,1.000512807002149,62.30681828754759
6.356673536,1.0007032251244363,62.129167200874896
6.358959616,1.0008492512641145,61.94907975399872
6.361246208,1.0009416358290737,61.767272419990135
6.363532288,1.0009746512016953,61.584573713893576
6.36581888,1.0009460512045245,61.401849910974654
6.36810496,1.00085769286262,61.21997813462587
6.370391552,1.000715188087508,61.039794879385234
6.372678144,1.0005271827537878,60.86200020058452
6.374964224,1.0003058668637257,60.68717564579657
6.377250816,1.0000649076058956,60.51572300344488
6.379536896,0.9998194562217296,60.3478007370841
6.381823488,0.9995852377405691,60.1833672417609
6.384109568,0.9993768586179089,60.02217612076939
6.38639616,0.9992074859474909,59.86372271841994
6.38868224,0.9990880026680009,59.70739226023106
6.390968832,0.9990257639319166,59.55239935313838
6.393255424,0.9990248939222549,59.39786763900249
6.395541504,0.9990854727148295,59.242914605941394
6.397828096,0.9992036509911632,59.0866846703457
6.400114176,0.9993719719637341,58.92838171556555
6.402400768,0.9995798626928335,58.76738378552139
6.404686848,0.9998141379570538,58.60316333785447
6.40697344,1.0000601354733707,58.43545765354032
6.409260032,1.0003023245027542,58.26423046240186
6.411546112,1.0005253776413596,58.08965036766354
6.413832704,1.0007151378919017,57.912086728975936
6.416118784,1.0008598678436975,57.73211299592543
6.418405376,1.000950334192934,57.55045730429089
6.420691456,1.0009808060062382,57.3679176033074
6.422978048,1.0009493171345134,57.18538391857965
6.425264128,1.000857820442062,57.00376368726682
6.42755072,1.0007121320588042,56.823865767877706
6.429837312,1.0005212335157179,56.64639325277743
6.432123392,1.0002973213802877,56.47192658847878
6.434409984,1.0000542923767861,56.30088742644582
6.436696064,0.9998075847095785,56.13337950980979
6.438982656,0.9995726879029045,55.96939612715878
6.441268736,0.9993644748732129,55.8086229357135
6.443555328,0.999196087423983,55.65059704622147
6.44584192,0.9990782051109829,55.494654337470934
6.448128,0.9990183561097747,55.340060335806996
6.450414592,0.9990202389014461,55.18585541794121
6.452700672,0.9990838834033238,55.031207055614
6.454987264,0.999205223615227,54.87522003788157
6.457273344,0.9993766698985376,54.717119511694925
6.459559936,0.9995873065137463,54.556265821088815
6.461846016,0.9998239858417546,54.392155762604595
6.464132608,1.0000716851114984,54.22454152845597
6.4664192,1.0003148413128344,54.053393615016205
6.46870528,1.0005380845392875,53.878860711657545
6.470991872,1.0007273121682554,53.70135449336336
6.473277952,1.0008706995305512,53.52146028426548
6.475564544,1.0009590948762164,53.33986438865486
6.477850624,1.0009869763145638,53.15746304337859
6.480137216,1.0009525098604521,52.975084997943426
6.482423296,1.0008578354104505,52.793661386975856
6.484709888,1.0007089099990074,52.61399239294971
6.48699648,1.0005151114791688,52.43683955907083
6.48928256,1.0002885243907185,52.26271537939093
6.491569152,1.0000434569841816,52.0920207625539
6.493855232,0.9997953507947857,51.9248962119284
6.496141824,0.9995598551620414,51.761294456018554
6.498427904,0.9993518579153011,51.600937960613855
6.500714496,0.9991844887619938,51.44330008650469
6.503001088,0.999068336571806,51.287739813439025
6.505287168,0.9990108157096275,51.133442906571325
6.50757376,0.9990155737267938,50.97956193256933
6.50985984,0.9990824119316889,50.82516565588471
6.512146432,0.9992069682017273,50.669384218125316
6.514432512,0.9993815250453052,50.511440600190774
6.516719104,0.9995949705709339,50.3506870894996
6.519005184,0.9998340233459225,50.18667109945237
6.521291776,1.00008341936207,50.019090537235726
6.523578368,1.000327561035202,49.8479577453032
6.525864448,1.0005509719997037,49.67344076605178
6.52815104,1.0007396196042222,49.49593404529124
6.53043712,1.0008815218284086,49.31605620870107
6.532723712,1.0009677624696427,49.134538306712265
6.535009792,1.0009930082123029,48.95219552303336
6.537296384,1.000955486207121,48.76997193577418
6.539582976,1.0008575976764031,48.58869062700672
6.541869056,1.0007054847927643,48.40925786056629
6.544155648,1.0005086442991207,48.23233700467994
6.546441728,1.0002793717626912,48.058493711593066
6.54872832,1.0000323406392377,47.888114917892835
6.5510144,0.9997827984328803,47.72135982312526
6.553300992,0.9995466905804884,47.558130442818765
6.555587072,0.9993389927261909,47.398123867487364
6.557873664,0.9991726376038338,47.24085507276559
6.560160256,0.9990583570015915,47.0856068975913
6.562446336,0.9990032489839027,46.931629361407964
6.564732928,0.9990109108038546,46.777984466870016
6.567019008,0.9990808496082648,46.62380126574947
6.5693056,0.999208812958226,46.46819771690398
6.57159168,0.9993864898771246,46.31036077415185
6.573878272,0.9996028534039397,46.149679557964625
6.576164864,0.9998442231045815,45.985677629808
6.578450944,1.0000953973515336,45.81810362047796
6.580737536,1.0003404455120117,45.64694796022088
6.583023616,1.0005639875737027,45.47239729961517
6.585310208,1.000751944498743,45.29487983911831
6.587596288,1.0008923922096042,45.11496927031789
6.58988288,1.000976568641194,44.933437233163524
6.59216896,1.000999073248574,44.75116467715958
6.594455552,1.000958398474245,44.56900810512937
6.596742144,1.0008572603608317,44.38786665778185
6.599028224,1.000701897844441,44.20857742590611
6.601314816,1.0005019394989347,44.03187064899583
6.603600896,1.0002700801090134,43.85831211806995
6.605887488,1.0000208977234268,43.68822673312526
6.608173568,0.9997700811691647,43.52178767685496
6.61046016,0.9995334978592895,43.358857959799565
6.612746752,0.9993260684696521,43.19918573390457
6.615032832,0.9991608547854831,43.042210038237464
6.617319424,0.999048401523158,42.88727494323105
6.619605504,0.9989957102139269,42.733552559748325
6.621892096,0.9990064176233564,42.58013518783483
6.624178176,0.9990796424258265,42.426126927386846
6.626464768,0.9992108451818639,42.27061884734151
6.628750848,0.9993917614881961,42.11286541314043
6.63103744,0.9996109794389755,41.95221336101456
6.633324032,0.9998547932450201,41.78820103784608
6.635610112,1.00010765005639,41.62057218165081
6.637896704,1.0003536549000924,41.449358959671656
6.640182784,1.0005773546286105,41.274719470520395
6.642469376,1.0007645657273374,41.09713430967089
6.644755456,1.000903519383915,40.91716052220089
6.647042048,1.0009855399161316,40.73560598077781
6.649328128,1.0010053092186424,40.553313604732
6.65161472,1.0009615160593477,40.371204275060364
6.653901312,1.0008570238047787,40.19015128554022
6.656187392,1.0006982075494673,40.01101283717787
6.658473984,1.0004952893265928,39.83448226897229
6.660760064,1.0002606931258164,39.66111885880292
6.663046656,1.000009473729451,39.49129588996485
6.665332736,0.9997573528244464,39.325120472079995
6.667619328,0.9995202135282484,39.16249545804166
6.66990592,0.9993130426857291,39.003099942171986
6.672192,0.9991490172096656,38.84640616111375
6.674478592,0.9990383781325961,38.69171395690395
6.676764672,0.9989883633385016,38.538201228316375
6.679051264,0.9990019539491581,38.384966859629436
6.681337344,0.9990784048795927,38.2310873695481
6.683623936,0.9992131023058874,38.075664646236895
6.685910016,0.9993972381169274,37.91793307373973
6.688196608,0.9996193457992792,37.757260423239025
6.6904832,0.999865531302538,37.59318156422841
6.69276928,1.000120152234231,37.42547207345818
6.695055872,1.0003670594896017,37.25415364980858
6.697341952,1.0005908262912666,37.07939830423251
6.699628544,1.0007772434835747,36.901671580090465
6.701914624,1.0009146353491254,36.72161787256341
6.704201216,1.000994311543979,36.539998540717235
6.706487808,1.0010112971047456,36.35766243827493
6.708773888,1.000964339350096,36.17555251581094
6.71106048,1.0008564737058032,35.99454180136626
6.71334656,1.0006943783699276,35.81550750264635
6.715633152,1.000488197662668,35.63911536409796
6.717919232,1.0002510412138435,35.465942204589034
6.720205824,0.9999977502238432,35.296328754627005
6.722491904,0.9997443110343793,35.13039851960941
6.724778496,0.999506615622776,34.967993258073605
6.727065088,0.9992999210150061,34.808867042482234
6.729351168,0.9991369053628751,34.65241399378368
6.73163776,0.9990282965519454,34.49793454374903
6.73392384,0.9989808013470436,34.34460395172717
6.736210432,0.9989974982554728,34.19148821388184
6.738496512,0.9990774474737535,34.03768978606655
6.740783104,0.9992153509618695,33.88231661217787
6.743069696,0.9994028445567741,33.724553044160004
6.745355776,0.9996279660321755,33.563816720651225
6.747642368,0.9998764512622051,33.39965535258794
6.749928448,1.0001326877744385,33.23181773283195
6.75221504,1.0003805290635923,33.06032149361138
6.75450112,1.0006043726761304,32.885421388301566
6.756787712,1.0007900866018096,32.707552190951695
6.759073792,1.000925920601345,32.52735899952597
6.761360384,1.0010033237541895,32.34560664455974
6.763646976,1.001017329568671,32.16319573588
6.765933056,1.0009670965523803,31.98103298136626
6.768219648,1.0008558089843649,31.80005908470574
6.770505728,1.0006902820326213,31.621054302862486
6.77279232,1.0004810190903362,31.444773788007062
6.7750784,1.0002411854166953,31.271767510490054
6.777364992,0.9999857773178319,31.102317389670155
6.779651584,0.9997310519287307,30.93657583112198
6.781937664,0.9994928864016407,30.774404615336014
6.784224256,0.9992864721439458,30.6154778730842
6.786510336,0.9991247846674887,30.459214996433296
6.788796928,0.999018184179449,30.30491649770533
6.791083008,0.9989733040375777,30.151724650286564
6.7933696,0.9989931278029389,29.998700355991215
6.79565568,0.9990763233297918,29.8449516929268
6.797942272,0.9992178252774452,29.689566471004927
6.800228864,0.9994086553458417,29.531771014480228
6.802514944,0.9996366116022543,29.370923631341213
6.804801536,0.999887592479567,29.206615284053548
6.807087616,1.0001455289704273,29.038595607402364
6.809374208,1.0003942930958183,28.8669020223269
6.811660288,1.0006180871492318,28.691793566768496
6.81394688,1.000802956652474,28.513730527573625
6.81623296,1.0009371420997748,28.333347344011525
6.818519552,1.001012192320261,28.15144187415771
6.820806144,1.0010233290373556,27.968921537669253
6.823092224,1.0009698693903184,27.786673848024012
6.825378816,1.0008550342364166,27.60566714693765
6.827664896,1.0006861420339597,27.42670432019231
6.829951488,1.0004737233620602,27.250479390365683
6.832237568,1.0002311678572062,27.07756691556601
6.83452416,0.9999737725805263,26.908259639142944
6.836810752,0.9997176135439371,26.742675030734322
6.839096832,0.9994790469308514,26.580692530274337
6.841383424,0.9992730508095844,26.421931267331356
6.843669504,0.9991126661479426,26.265830580966227
6.845956096,0.9990080882102679,26.111661431776295
6.848242176,0.9989658015932187,25.958566395905976
6.850528768,0.9989887705274255,25.805600012677285
6.852814848,0.9990755084890999,25.651834259938923
6.85510144,0.9992204014290346,25.49641867723931
6.857388032,0.9994145023513015,25.33851584650498
6.859674112,0.9996455538796281,25.17753435941858
6.861960704,0.9998988411632395,25.0130110922564
6.864246784,1.0001584130921866,24.844795680488552
6.866533376,1.000408096037727,24.67289019926805
6.868819456,1.0006319800647632,24.497522566186497
6.871106048,1.0008158876698643,24.319207432264214
6.87339264,1.0009483721566417,24.13860159866785
6.87567872,1.0010211260519406,23.95650601241528
6.877965312,1.0010292591406063,23.773817808376744
6.880251392,1.000972430685309,23.591473240202017
6.882537984,1.0008541213971431,23.41039217133952
6.884824064,1.0006818036833947,23.231400173279464
6.887110656,1.0004662452206896,23.055213137595274
6.889396736,1.0002210089702588,22.88235874850502
6.891683328,0.9999614868791961,22.71316239901757
6.89396992,0.9997040646810662,22.547713889599663
6.896256,0.9994650649281575,22.385855051547956
6.898542592,0.9992594196777428,22.22721875507656
6.900828672,0.9991003768842381,22.071233236166616
6.903115264,0.9989978650126425,21.91716467769574
6.905401344,0.9989584275058787,21.76413712342326
6.907687936,0.9989845408298603,21.611194138384523
6.909974528,0.9990747106379374,21.457391757919687
6.912260608,0.9992231244189127,21.30188623522756
6.9145472,0.9994205481040597,21.143830099877718
6.91683328,0.9996545242188423,20.98266548989739
6.919119872,0.9999102792131933,20.817940997479273
6.921405952,1.0001715735217276,20.649441865299003
6.923692544,1.000422159529184,20.477244730461052
6.925978624,1.0006460096698664,20.301606448181545
6.928265216,1.0008290639067359,20.122996665895197
6.930551808,1.000959787373995,19.94213695769997
6.932837888,1.0010300446451228,19.7598111948581
6.93512448,1.001035230180234,19.576903815097314
