freq,mag,phase
6.0,1.0003396767697406,-78.23201228154367
6.005157888,1.0003142712082715,-78.49694920142161
6.010315776,1.0002721653682773,-78.7615221900479
6.015473664,1.0002140203891168,-79.02542109465551
6.020632064,1.000143449978472,-79.28853046936693
6.025789952,1.0000643126800428,-79.5506991663424
6.03094784,0.9999814956754232,-79.81173692529795
6.036105728,0.9998993580903995,-80.07170007695471
6.041263616,0.9998233320101247,-80.33069216716615
6.046421504,0.999757737280722,-80.58872657275909
6.051579392,0.9997060508954259,-80.84596347946007
6.056737792,0.9996715425459177,-81.10272052597956
6.06189568,0.999656393884175,-81.35919191334133
6.067053568,0.999661236595038,-81.61568114359295
6.072211456,0.9996860972275103,-81.87231360298532
6.077369344,0.9997293128602021,-82.12960783391361
6.082527232,0.9997884839709954,-82.38761955699125
6.08768512,0.9998603956372598,-82.6466444425202
6.09284352,0.9999405643434303,-82.90675227565647
6.098001408,1.000024512805393,-83.16811243312779
6.103159296,1.0001070413404072,-83.43068935096458
6.108317184,1.000183845673842,-83.69445023492524
6.113475072,1.00024993017834,-83.959216979982
6.11863296,1.0003018982052767,-84.22496474627407
6.123790848,1.0003361231007697,-84.49130602336278
6.128949248,1.0003511202321038,-84.75812218932319
6.134107136,1.0003455716049905,-85.02500225499205
6.139265024,1.0003198481046487,-85.29176458085732
6.144422912,1.000275645406946,-85.55813013387993
6.1495808,1.0002154156893415,-85.82380742303751
6.154738688,1.0001424320402335,-86.08863412625566
6.159897088,1.000061295691094,-86.35248994312369
6.165054976,0.999976319294356,-86.61520099563585
6.170212864,0.9998927353069617,-86.87681747089124
6.175370752,0.9998153459537482,-87.13734825299662
6.18052864,0.9997488305865019,-87.3969564317132
6.185686528,0.9996968105339992,-87.6558518605602
6.190844416,0.9996626366421785,-87.9141155687127
6.196002816,0.99964808669826,-88.1721285211896
6.201160704,0.9996543151006877,-88.43020670474367
6.206318592,0.9996806731594843,-88.68850689043067
6.21147648,0.999726041243503,-88.94732846971908
6.216634368,0.9997874167750866,-89.20702355183575
6.221792256,0.9998614128010016,-89.46771231706153
6.226950144,0.9999439084990227,-89.7295155627565
6.232108544,1.0000298106605057,-89.99260113381281
6.237266432,1.0001142417057016,-90.25689545491596
6.24242432,1.000192133175837,-90.52239264929037
6.247582208,1.0002592202376333,-90.78896745990676
6.252740096,1.0003113044796155,-91.0564613698313
6.257897984,1.0003455139561501,-91.32459177157695
6.263055872,1.0003596750941923,-91.59311504774803
6.268214272,1.0003528482784863,-91.8617974488873
6.27337216,1.0003255376585902,-92.1302721871382
6.278530048,1.0002793708152131,-92.3983267595142
6.283687936,1.00021679598884,-92.66567116477441
6.288845824,1.0001416021454628,-92.93208553065554
6.294003712,1.0000582068406634,-93.19751470529265
6.2991616,0.9999713617768627,-93.46178088569961
6.30432,0.9998858865871759,-93.72491683468381
6.309477888,0.9998071959379426,-93.98698842564447
6.314635776,0.999739733072387,-94.24807347470316
6.319793664,0.999687376862047,-94.50833750353368
6.324951552,0.9996534955587405,-94.76812935973825
6.33010944,0.9996396803097313,-95.02757712795827
6.335267328,0.9996470163675791,-95.28709790269126
6.340425728,0.9996750396110398,-95.54689171256393
6.345583616,0.9997222981722683,-95.8072407005104
6.350741504,0.9997859201800368,-96.06845353449833
6.355899392,0.9998623568275147,-96.33065686037044
6.36105728,0.9999469493377471,-96.59409352857081
6.366215168,1.0000349826046089,-96.85871726492543
6.371373056,1.000121157695679,-97.12469318861777
6.376531456,1.0002004176378798,-97.39184990092639
6.381689344,1.0002685800243425,-97.66005887626712
6.386847232,1.0003209707897596,-97.92920940122552
6.39200512,1.0003549018183633,-98.19899481995847
6.397163008,1.0003683411092845,-98.46919490213665
6.402320896,1.0003602920420174,-98.73946629272447
6.407479296,1.0003314943905381,-99.00956922670527
6.412637184,1.00028334373598,-99.27916194670091
6.417795072,1.0002185920916742,-99.54807298921916
6.42295296,1.0001411441896941,-99.81602825118614
6.428110848,1.0000554300715379,-100.08288946790648
6.433268736,0.9999663756621421,-100.34858846203551
6.438426624,0.9998792676984882,-100.61313177271094
6.443585024,0.9997991452327787,-100.87655425228571
6.448742912,0.9997307096653448,-101.13897806459433
6.4539008,0.9996779789434718,-101.40066030564175
6.459058688,0.9996440965584138,-101.66172303363284
6.464216576,0.9996309477118275,-101.92254427382346
6.469374464,0.9996395184647786,-102.18337463629571
6.474532352,0.9996691365113948,-102.44450316220254
6.479690752,0.9997183599176112,-102.70626395472631
6.48484864,0.9997842083522552,-102.96885652920328
6.490006528,0.9998628533270951,-103.23249930427889
6.495164416,0.9999498113073765,-103.4974018645837
6.500322304,1.0000399151336303,-103.76350168548296
6.505480192,1.0001279468531885,-104.03093154617486
6.51063808,1.0002088332921315,-104.2996311397435
6.51579648,1.0002777234587803,-104.56938176074983
6.520954368,1.0003306557976723,-104.84005807809247
6.526112256,1.0003645974159694,-105.11139168495137
6.531270144,1.0003773184030187,-105.3831107185258
6.536428032,1.0003681970856717,-105.65487606712516
6.54158592,1.0003376745007841,-105.92646147108393
6.546743808,1.0002875625549872,-106.19753428504995
6.551902208,1.000220668282716,-106.46783001877775
6.557060096,1.0001409228705684,-106.73715808798953
6.562217984,1.0000527480254588,-107.00536906438249
6.567375872,0.9999616938672279,-107.27238768338036
6.57253376,0.9998726516310253,-107.5382102939012
6.577691648,0.9997910190925589,-107.80288492083568
6.582849536,0.9997215287431775,-108.06656532573905
6.588007936,0.9996683612298481,-108.32938288106892
6.593165824,0.9996345353702589,-108.59167701417171
6.598323712,0.9996221003313945,-108.85366612393175
6.6034816,0.9996318477871194,-109.11570131908557
6.608639488,0.9996630907136445,-109.37809974782073
6.613797376,0.999714302194609,-109.64104797641072
6.618955264,0.999782439291599,-109.90493579739014
6.624113664,0.9998633290190533,-110.16988054926935
6.629271552,0.999952582414135,-110.43606231401802
6.63442944,1.0000448553559886,-110.70356007499463
6.639587328,1.0001348811702233,-110.97235149541173
6.644745216,1.0002172102473685,-111.24242220676967
6.649903104,1.0002872716575701,-111.51354769491728
6.655061504,1.0003406077693884,-111.7856459722124
6.660219392,1.000374425149238,-112.05834304007467
6.66537728,1.0003866296811024,-112.33144624612083
6.670535168,1.0003763837699626,-112.60460994539307
6.675693056,1.0003442528189372,-112.87753794355719
6.680850944,1.00029207742761,-113.149944222309
6.686008832,1.0002231284900545,-113.42151944004343
6.691167232,1.0001409306684528,-113.6920738345918
6.69632512,1.0000505174954726,-113.9615155222338
6.701483008,0.9999570458746997,-114.22971675339282
6.706640896,0.9998661454084746,-114.49665819350533
6.711798784,0.9997830230206513,-114.76244196073499
6.716956672,0.9997124265011658,-115.02719282011763
6.72211456,0.9996586238853687,-115.29110314294475
6.72727296,0.9996247906111537,-115.55443600981243
6.732430848,0.9996129362313338,-115.81750674455178
6.737588736,0.9996237239411985,-116.08060643537476
6.742746624,0.9996566723300424,-116.3440358423988
6.747904512,0.9997098929757658,-116.608099273333
6.7530624,0.9997802106963597,-116.87308960740957
6.758220288,0.9998635609990567,-117.13914774225249
6.763378688,0.9999551773821873,-117.4065065802149
6.768536576,1.0000497745454888,-117.67521382152202
6.773694464,1.0001416901868823,-117.94520741564526
6.778852352,1.0002256815474255,-118.2165072921656
6.78401024,1.0002967638971343,-118.48892950843103
6.789168128,1.0003507695542466,-118.76225268751578
6.794326016,1.0003847094822096,-119.03624193117074
6.799484416,1.000396354754525,-119.31057032516004
6.804642304,1.000384892102855,-119.58496400171173
6.809800192,1.0003511860055365,-119.85910750835859
6.81495808,1.0002972007307598,-120.13265408438603
6.820115968,1.0002258367242398,-120.40539140448787
6.825273856,1.000141232954872,-120.67706315003711
6.830431744,1.000048386174629,-120.94756491281672
6.835590144,0.9999526652557449,-121.21677247169397
6.840748032,0.9998597365391002,-121.484691901851
6.84590592,0.9997749065862885,-121.75143229765463
6.851063808,0.9997031458093143,-122.01711438200088
6.856221696,0.999648765187752,-122.28194354418672
6.861379584,0.9996148566785762,-122.54620820279365
6.866537472,0.9996034892517035,-122.81016977017195
6.871695872,0.9996155323417734,-123.07415583297129
6.87685376,0.9996499451187584,-123.33850366177829
6.882011648,0.9997050886063775,-123.60349652204032
6.887169536,0.999777701488648,-123.86946889071913
6.892327424,0.999863610376938,-124.13652600396149
6.897485312,0.9999576470486103,-124.4048967000973
6.9026432,1.0000544622626808,-124.67461382759288
6.9078016,1.0001485253354425,-124.9456822726424
6.912959488,1.0002342031534843,-125.21806305895109
6.918117376,1.000306483347454,-125.49158035353312
6.923275264,1.0003611868211042,-125.7660357474084
6.928433152,1.0003950743933507,-126.04111774860652
6.93359104,1.0004061658788965,-126.31655018170629
6.93874944,1.0003937361429163,-126.59201453733809
6.943907328,1.0003584157565077,-126.86720273607574
6.949065216,1.0003023133003899,-127.14180142954538
6.954223104,1.0002286015488793,-127.41552079201885
6.959380992,1.0001416140743784,-127.68814957845845
6.96453888,1.000046304081919,-127.95954456640462
6.969696768,0.9999482202810259,-128.22961477181855
6.974855168,0.9998531366221889,-128.49836917454957
6.980013056,0.9997665637067676,-128.76590589886004
6.985170944,0.999693604805701,-129.03237272377655
6.990328832,0.999638548913302,-129.29792156340378
6.99548672,0.9996045296381595,-129.56291642969066
7.000644608,0.9995936625957682,-129.8276344797851
7.005802496,0.9996067056896417,-130.09235802092834
7.010960896,0.9996428411156624,-130.35747222480336
7.016118784,0.9996999682451155,-130.6232793131133
7.021276672,0.9997749200010225,-130.8899698539647
7.02643456,0.9998631911922605,-131.15788966628944
7.031592448,0.999959882422533,-131.42708257869552
7.036750336,1.0000590937849803,-131.69768630897136
7.041908224,1.0001552490697725,-131.96968387424255
7.047066624,1.0002427532171476,-132.24298234370315
7.052224512,1.0003163363278111,-132.5174163248854
7.0573824,1.0003718119085354,-132.7928266286177
7.062540288,1.0004058220486485,-133.06884814535425
7.067698176,1.0004163467968632,-133.3452284378235
7.072856064,1.000402825208725,-133.62164716611247
7.078013952,1.0003660052476788,-133.89769691317514
7.083172352,1.0003078390191855,-134.17315155746957
7.08833024,1.0002318553460483,-134.44770873468994
7.093488128,1.0001423160247707,-134.72112979585285
7.098646016,1.000044412607189,-134.99324841687547
7.103803904,0.9999438824879174,-135.26404190495427
7.108961792,0.9998466649164283,-135.5334737722088
7.11411968,0.9997582994169871,-135.80163653533333
7.11927808,0.9996839210743319,-136.06870169372758
7.124435968,0.9996280993412722,-136.33485779735085
7.129593856,0.9995939751481435,-136.60042866041178
7.134751744,0.9995835950198517,-136.86569832356378
7.139909632,0.9995976179082792,-137.13100497634233
7.14506752,0.999635416197228,-137.3966773114563
7.150225408,0.9996946023209332,-137.66308101120347
7.155383808,0.9997718692526036,-137.93041066762555
7.160541696,0.9998627287109683,-138.19896992940215
7.165699584,0.9999619269067832,-138.46884517960382
7.170857472,1.0000637078351617,-138.74017891649615
7.17601536,1.0001621331964374,-139.01289579843976
7.181173248,1.0002514014271298,-139.2869846213766
7.186331648,1.0003263345476745,-139.56216185645184
7.191489536,1.0003825459419327,-139.83834924497518
7.196647424,1.0004167725553914,-140.11520843961128
7.201805312,1.0004268967192624,-140.3923230252468
7.2069632,1.000412373614033,-140.6694876728287
7.212121088,1.000373822720816,-140.94626947075
7.217278976,1.0003135956732736,-141.22244397865038
7.222437376,1.0002352900644598,-141.49766114095496
7.227595264,1.0001431068130866,-141.77169061213507
7.232753152,1.00004256086934,-142.04441136016302
7.23791104,0.9999395311776628,-142.31574420145432
7.243068928,0.9998400150524654,-142.58566557259002
7.248226816,0.9997496919405591,-142.8542988827064
7.253384704,0.9996740088813376,-143.1217879865158
7.258543104,0.99961734874458,-143.38836817836219
7.263700992,0.9995830371606507,-143.65432396656416
7.26885888,0.999573082746774,-143.91996613430652
7.274016768,0.9995882125067718,-144.18567242507575
7.279174656,0.9996275463572979,-144.45175299873793
7.284332544,0.999688877303056,-144.71856965916007
7.289490432,0.9997685814900713,-144.98640384091814
7.294648832,0.999862095486094,-145.2554164860608
7.29980672,0.9999639915486205,-145.5258200549242
7.304964608,1.0000683151625955,-145.7976525944478
7.310122496,1.000169110227837,-146.07096633029076
7.315280384,1.0002603057266395,-146.34560997024977
7.320438272,1.0003366578031905,-146.6214436795152
7.32559616,1.0003937478077054,-146.89821960300605
7.33075456,1.0004282047041715,-147.1756638398274
7.335912448,1.000437922010235,-147.45342257169543
7.341070336,1.000422303967911,-147.7311753338341
7.346228224,1.0003822216595877,-148.00855422997964
7.351386112,1.0003198852698827,-148.28521015912784
7.356544,1.0002389909069884,-148.5609156878447
7.361701888,1.0001442286664843,-148.83543632775394
7.366860288,1.0000409036016575,-149.10855199085427
7.372018176,0.9999352817911282,-149.38025810324868
7.377176064,0.9998334057718358,-149.65050393445534
7.382333952,0.9997411549364775,-149.9194442528017
7.38749184,0.999664025978534,-150.18716784983897
7.392649728,0.9996064000402504,-150.45399129506907
7.397807616,0.9995718218090619,-150.72015509104378
7.402966016,0.9995623434507954,-150.98603739558712
7.408123904,0.9995785466998864,-151.251946447179
7.413281792,0.999619448884633,-151.51825845747797
7.41843968,0.9996829164737443,-151.78534234918448
7.423597568,0.9997651101737426,-152.05341689785664
7.428755456,0.9998613640117708,-152.32272987593953
7.433913856,0.999965969926997,-152.59345820488272
7.439071744,1.0000730104586126,-152.86565807332704
7.444229632,1.0001761267404659,-153.13935392634139
7.44938752,1.0002694111386345,-153.41442775185948
7.454545408,1.000347271953545,-153.69069651051282
7.459703296,1.0004053095321432,-153.96790669552905
7.464861184,1.0004399792111491,-154.24579247069414
7.470019584,1.0004491943683311,-154.5240248795767
7.475177472,1.0004325678444748,-154.80218490304978
7.48033536,1.000390781229188,-155.07996350120857
7.485493248,1.000326404412054,-155.35702250807694
7.490651136,1.0002429433614874,-155.633061169021
7.495809024,1.0001453713588988,-155.90782416970626
7.500966912,1.0000393434257682,-156.18120422951742
7.506125312,0.9999309815573948,-156.45309829704897
7.5112832,0.9998265555424392,-156.72348453829028
7.516441088,0.9997322814203963,-156.99252411044293
7.521598976,0.9996535350270045,-157.2603258251815
7.526756864,0.9995949896453531,-157.52720251493596
7.531914752,0.9995601681061379,-157.7934031504099
7.53707264,0.999551021245602,-158.05931705972958
7.54223104,0.9995683312991839,-158.32526881931975
7.547388928,0.9996109365056215,-158.59163874532572
7.552546816,0.9996765930099898,-158.8587979663903
7.557704704,0.999761330661414,-159.1269569472866
7.562862592,0.9998603681777651,-159.39639704013953
7.56802048,0.9999678386335102,-159.6672630098117
7.573178368,1.000077713179498,-159.9396797215462
7.578336768,1.000183354041926,-160.2135801704004
7.583494656,1.0002786723756127,-160.488894697598
7.588652544,1.0003582497336658,-160.76542624981815
7.593810432,1.0004171946025753,-161.04292723553868
7.59896832,1.0004521082508395,-161.32110172351585
7.604126208,1.0004610434158938,-161.59960653442988
7.609284096,1.0004432520918218,-161.8780016646781
7.614442496,1.0003998164734944,-162.156029803353
7.619600384,1.0003331859782858,-162.43328153982523
7.624758272,1.0002470865855027,-162.70943954315456
7.62991616,1.00014672528472,-162.9843509836377
7.635074048,1.000037739070983,-163.25778864267681
7.640231936,0.9999264667333692,-163.52966909018392
7.645389824,0.9998195422953902,-163.8000707148647
7.650548224,0.9997229960743315,-164.0690169463002
7.655706112,0.9996427069739674,-164.33674732079126
7.660864,0.9995832055740931,-164.60347073310263
7.666021888,0.9995479869524116,-164.86952098495036
7.671179776,0.9995392801241184,-165.13529912344066
7.676337664,0.9995576781838483,-165.40110501354567
7.681496064,0.9996020417984226,-165.66735909318515
7.686653952,0.9996698905419583,-165.93435772049546
7.69181184,0.9997572373053247,-166.2024738935919
7.696969728,0.9998591970336059,-166.47184664775466
7.702127616,0.9999696843537023,-166.74273057005507
7.707285504,1.0000823078097598,-167.01515030189555
7.712443392,1.0001907046558949,-167.28911769863146
7.717601792,1.00028827207555,-167.56450972684857
7.72275968,1.0003693646958705,-167.8411403364079
7.727917568,1.0004293240348088,-168.11874333302995
7.733075456,1.000464624861499,-168.3970219423221
7.738233344,1.0004731058941032,-168.67561167224218
7.743391232,1.000454267681903,-168.95412455369467
7.74854912,1.0004090221539552,-169.23216401008568
7.75370752,1.0003401422634723,-169.5094637785528
7.758865408,1.0002513834700404,-169.78564312021126
7.764023296,1.0001480266263751,-170.06044783199474
7.769181184,1.0000360053281954,-170.33377544130514
7.774339072,0.9999218553806901,-170.6055261658953
7.77949696,0.9998121754132662,-170.87568798484324
7.784654848,0.9997133719021568,-171.14442222528044
7.789813248,0.9996313045387178,-171.4118598970973
7.794971136,0.999570774337594,-171.6782985896909
7.800129024,0.999535259475658,-171.94404599524833
7.805286912,0.9995268963756343,-172.209481867328
7.8104448,0.9995464107399694,-172.47497203028115
7.815602688,0.9995925470161604,-172.74090830122464
7.820760576,0.9996627770266522,-173.00763769867464
7.825918976,0.9997528601015785,-173.27546517985496
7.831076864,0.9998577676536067,-173.54463502709694
7.836234752,0.9999714568084593,-173.8153118756069
7.84139264,1.0000870585069053,-174.08759257020964
7.846550528,1.0001981207032704,-174.36142974194237
7.851708416,1.0002979683980064,-174.63672864550534
7.856866304,1.000380940759835,-174.91326916998838
7.862024704,1.0004419572993535,-175.19084016695405
7.867182592,1.0004776343764172,-175.46908102404606
7.87234048,1.0004856395636317,-175.74760386395718
7.877498368,1.000465699316363,-176.02603703549568
7.882656256,1.0004186221796354,-176.30399318941173
7.887814144,1.0003473135509853,-176.58111895426978
7.892972032,1.0002558145322482,-176.8571140144654
7.898130432,1.0001493854363912,-177.13172961297218
7.90328832,1.0000341705964866,-177.404767832969
7.908446208,0.9999169116562913,-177.67618138804016
7.913604096,0.9998045261267687,-177.94599140800491
7.918761984,0.9997033629823627,-178.21428531309925
7.923919872,0.9996194445218217,-178.48127186393677
7.92907776,0.9995578783595471,-178.74723532773044
7.93423616,0.9995220664341984,-179.01249495911122
7.939394048,0.9995141969338202,-179.27740470518026
7.944551936,0.9995347735629687,-179.54241288588332
7.949709824,0.9995827249473532,-179.80787103850483
7.954867712,0.9996553082283547,179.92588474246926
7.9600256,0.9997483487877892,179.65846422997728
7.965184,0.9998563958404065,179.38966823377794
7.970341888,0.9999732171323644,179.1193524514998
7.975499776,1.000092032034287,178.84737627669514
7.980657664,1.000205826054209,178.57383359391906
7.985815552,1.000308210859199,178.29881249707992
7.99097344,1.0003929109433132,178.02245665144588
7.996131328,1.000455119919793,177.74512466852258
8.001289728,1.0004910768218678,177.46712463117765
8.006447616,1.000498663560418,177.18880691489383
8.011605504,1.0004774801714333,176.9105927607557
8.016763392,1.0004286193393859,176.63287575422353
8.02192128,1.000354844894939,176.3560354034422
8.027079168,1.0002604255896805,176.08038462147204
8.032237056,1.0001507323319836,175.80618292698583
8.037395456,1.0000323372316828,175.53358330316325
8.042553344,0.999912025019477,175.26264642058268
8.047711232,0.9997965829291393,174.99338712503126
8.05286912,0.9996930600437067,174.7256632239753
