freq,mag,phase
6.0,0.9995555934561703,129.71343394008696
6.002287104,0.9994121419739795,129.56190061317523
6.004574208,0.9993048620323911,129.4122100665442
6.006861312,0.9992415172556,129.26379032840484
6.009147904,0.9992262246911029,129.11599313365366
6.011435008,0.9992600820345104,128.96805865435167
6.013722112,0.9993406085421962,128.81935543243804
6.016009216,0.9994631405898793,128.6691463269651
6.01829632,0.9996196209202083,128.5169972798255
6.020583424,0.9998002337550194,128.36237496317435
6.022870016,0.9999936185457114,128.2051063321253
6.02515712,1.0001874513932347,128.04500446251424
6.027444224,1.0003694745652087,127.8822153729143
6.029731328,1.0005281706909168,127.71701127386254
6.032018432,1.00065348827868,127.54971862737816
6.034305536,1.0007374803110758,127.38094819682173
6.036592128,1.000774973708283,127.21132006896387
6.038879232,1.000763460565048,127.04154338358347
6.041166336,1.0007035383319578,126.87228380122677
6.04345344,1.0005991791704916,126.70424915050121
6.045740544,1.0004568177102329,126.53804828121356
6.048027648,1.0002854985114515,126.37411618905985
6.05031424,1.0000958800769066,126.21286565020885
6.052601344,0.9999004039907148,126.05438178310234
6.054888448,0.9997109188001989,125.8987526029518
6.057175552,0.9995396666615767,125.74576655585213
6.059462656,0.9993976938984261,125.59510222896235
6.06174976,0.9992935474814265,125.44622609877565
6.064036352,0.9992342343804569,125.2986004743987
6.066323456,0.9992234538877544,125.15150294724276
6.06861056,0.9992618142831672,125.00421734009116
6.070897664,0.9993470636635327,124.85608074625162
6.073184768,0.9994735963638244,124.70641769991565
6.075471872,0.9996335748186291,124.55469705530568
6.077758464,0.9998167282305827,124.40050382590769
6.080045568,1.0000117223482308,124.243569469768
6.082332672,1.000205988821657,124.08386257051876
6.084619776,1.0003872293639424,123.9214572025735
6.08690688,1.0005440347294692,123.75660650562743
6.089193984,1.0006663987626618,123.58976672350504
6.091481088,1.0007467996883403,123.42144889274184
6.09376768,1.0007799168042881,123.2523533635351
6.096054784,1.0007637245616703,123.083166218548
6.098341888,1.0006991444213627,122.91457541209711
6.100628992,1.0005903741387538,122.74727774298232
6.102916096,1.0004442286667283,122.58182781589116
6.1052032,1.0002698760749507,122.41874034436796
6.107489792,1.0000783351153786,122.25834923607758
6.109776896,0.9998817445111471,122.10074405920109
6.112064,0.9996925604361071,121.94602674735789
6.114351104,0.9995227839265836,121.7939288884187
6.116638208,0.9993830780420918,121.64411793945737
6.118925312,0.9992824223503033,121.4960642646663
6.121211904,0.9992272619462897,121.34917897987566
6.123499008,0.9992209535869673,121.20277184818374
6.125786112,0.9992640034588833,121.0561095826543
6.128073216,0.9993539418842071,120.90853419652343
6.13036032,0.9994845993243323,120.75934604852931
6.132647424,0.9996479820385374,120.60805566017325
6.134934016,0.999833846357893,120.45426425908825
6.13722112,1.0000302000487458,120.29771958399634
6.139508224,1.0002247226229977,120.13834868076704
6.141795328,1.0004050638994464,119.97627735742348
6.144082432,1.0005599760016428,119.81179674370532
6.146369536,1.0006793652789436,119.64536657464406
6.148656128,1.0007559030483861,119.47751332524493
6.150943232,1.0007845179806303,119.30893628236349
6.153230336,1.0007635827510792,119.14031400896025
6.15551744,1.0006944589455256,118.97237288356455
6.157804544,1.0005811668447664,118.80581435707943
6.160091648,1.0004311866492201,118.6411157487895
6.162378752,1.0002537396992581,118.47886805836434
6.164665344,1.0000602525507563,118.31931827443157
6.166952448,0.9998628146437044,118.16263764821124
6.169239552,0.9996739494676368,118.00877855388156
6.171526656,0.9995055618064448,117.85754449091644
6.17381376,0.9993685668347888,117.70857435115839
6.176100864,0.9992715199919872,117.56131982192595
6.178387456,0.9992204729501785,117.41515677572096
6.18067456,0.9992188907137283,117.26942486939515
6.182961664,0.9992667857469727,117.123388158632
6.185248768,0.9993611858386966,116.97632134481567
6.187535872,0.9994960770295886,116.82763776135246
6.189822976,0.9996629562241636,116.6767404571912
6.192109568,0.9998512327464096,116.52332587492069
6.194396672,1.0000489779267603,116.36712235898824
6.196683776,1.000243739278711,116.2080692692567
6.19897088,1.0004231384710438,116.04634534090677
6.201257984,1.0005757479792945,115.8822207525532
6.203545088,1.000692035280415,115.71617289240386
6.20583168,1.0007645527473392,115.54878264861014
6.208118784,1.000788797567361,115.38070827382215
6.210405888,1.0007631287563838,115.2126407111583
6.212692992,1.0006891542224818,115.04537109972635
6.214980096,1.000571425496066,114.879483475426
6.2172672,1.0004175799779245,114.71558061002473
6.219553792,1.0002373352552973,114.55411970286902
6.221840896,1.0000417569421949,114.39543214583502
6.224128,0.9998435848035766,114.23959505185248
6.226415104,0.9996552574329437,114.08662270901513
6.228702208,0.9994886091216053,113.93626470619475
6.230989312,0.9993542168919172,113.7881070107598
6.233275904,0.9992608864411208,113.64161809380094
6.235563008,0.9992141313788921,113.49620094955408
6.237850112,0.9992173606151764,113.35112262443354
6.240137216,0.9992701231522298,113.2056386034859
6.24242432,0.9993691544998717,113.05911340933231
6.244711424,0.999508311833265,112.91082873375467
6.246998528,0.999678563841333,112.76036573553355
6.24928512,0.9998692652477071,112.60728945102217
6.251572224,1.000068313017145,112.45140066593117
6.253859328,1.0002631970560276,112.29264557615228
6.256146432,1.000441384436433,112.1312102210565
6.258433536,1.0005917825224742,111.96744422909072
6.26072064,1.000704783563142,111.80177324192346
6.263007232,1.0007731878175345,111.63481805245678
6.265294336,1.0007926973441243,111.46724317146338
6.26758144,1.0007621567795644,111.29975935511898
6.269868544,1.0006832270168262,111.13308965659276
6.272155648,1.0005610931583615,110.96787801075543
6.274442752,1.0004035073833137,110.80474661109459
6.276729344,1.0002201897689944,110.64410880465745
6.279016448,1.0000228996702742,110.48624124285938
6.281303552,0.9998240272894505,110.33129764453699
6.283590656,0.9996362049957248,110.17917394577624
6.28587776,0.9994713313077415,110.02964413096655
6.288164864,0.9993398516852322,109.88229116831187
6.290451456,0.99925026298934,109.73660199408835
6.29273856,0.9992080562571369,109.59185375089571
6.295025664,0.9992160328277874,109.4474124892168
6.297312768,0.9992738214903185,109.30248003334955
6.299599872,0.9993776020507633,109.15642566682503
6.301886976,0.9995208170379314,109.00858292743709
6.304173568,0.9996945873755434,108.85846365380367
6.306460672,0.9998875757711682,108.7056967065848
6.308747776,1.0000878786235299,108.55011682514673
6.31103488,1.0002826501118784,108.39167458530662
6.313321984,1.0004596701081658,108.23053804847264
6.315609088,1.0006075473301435,108.0670609790141
6.317896192,1.0007170422183844,107.9017488128035
6.320182784,1.000781288449825,107.73521785935269
6.322469888,1.0007961339989768,107.56810651670462
6.324756992,1.000760536203478,107.4011743039397
6.327044096,1.0006768386119944,107.23513144375806
6.3293312,1.0005501799341032,107.07062235182777
6.331618304,1.0003886482902975,106.90824191904225
6.333904896,1.000202664418845,106.74839384207299
6.336192,1.0000035170086086,106.59137161736082
6.338479104,0.9998040273850747,106.43727696529653
6.340766208,0.9996169148318632,106.28598283908256
6.343053312,0.9994540475602008,106.1372688140936
6.345340416,0.9993256836839902,105.99068890245512
6.347627008,0.9992399005828517,105.84574533232093
6.349914112,0.9992023311392642,105.70170492992705
6.352201216,0.9992153672222482,105.55783094594423
6.35448832,0.9992780425237671,105.41344667278001
6.356775424,0.9993866389717361,105.26782974517343
6.359062528,0.9995340220808153,105.12039432875821
6.36134912,0.9997110638475505,104.97062928151091
6.363636224,0.9999064999182555,104.81816211783087
6.365923328,1.0001079468565932,104.66282431524385
6.368210432,1.000302527597714,104.50464877142834
6.370497536,1.0004781576962622,104.34376825546015
6.37278464,1.0006233915587992,104.18063747977169
6.375071232,1.0007293942682525,104.0156731763124
6.377358336,1.00078925343884,103.84950854123177
6.37964544,1.0007992143934032,103.68286624383951
6.381932544,1.000758596453237,103.51647443945016
6.384219648,1.0006699431808654,103.35103259734248
6.386506752,1.0005387440414821,103.18721928129028
6.388793344,1.0003734571096052,103.02557728657936
6.391080448,1.000184472448115,102.86650737316363
6.393367552,0.9999836864435139,102.71029138037775
6.395654656,0.9997837768355488,102.5570239975111
6.39794176,0.9995976494547879,102.4065679420203
6.400228864,0.9994367040558151,102.25867723875848
6.402515968,0.9993114642127547,102.11288077943429
6.40480256,0.9992297960088387,101.96861279777201
6.407089664,0.9991970435840002,101.82519292533802
6.409376768,0.9992149400884601,101.68193805985912
6.411663872,0.9992829190788918,101.5380670885243
6.413950976,0.9993961485574214,101.3928951064727
6.41623808,0.9995476865597275,101.2458092283804
6.418524672,0.9997280483310395,101.09633970877523
6.420811776,0.9999257339190327,100.94414300547547
6.42309888,1.0001281886966256,100.78904127663124
6.425385984,1.0003225651632477,100.63109843527535
6.427673088,1.000496485602093,100.47051688825732
6.429960192,1.0006391949359057,100.30763028938789
6.432246784,1.000741451172096,100.14299718511243
6.434533888,1.0007968170821973,99.977211804058
6.436820992,1.0008017475583966,99.81103974972682
6.439108096,1.0007560051738125,99.64516874985044
6.4413952,1.0006623762214917,99.4803358079025
6.443682304,1.0005267765935124,99.31718114371282
6.445968896,1.0003577422208731,99.15625335111967
6.448256,1.0001659410069812,98.99797820311178
6.450543104,0.9999636214659547,98.84255564855876
6.452830208,0.9997633554139674,98.69010081995067
6.455117312,0.9995781736905124,98.54045717755156
6.457404416,0.9994194521547828,98.39335714103794
6.459691008,0.9992975019858548,98.24828714867307
6.461978112,0.9992200944988244,98.10472001229179
6.464265216,0.9991920387531247,97.96193962344098
6.46655232,0.9992151945447486,97.81922894484858
6.468839424,0.9992881932264953,97.67582638636186
6.471126528,0.9994062983422125,97.53104129702365
6.473413632,0.9995620317978755,97.38432192443128
6.475700224,0.9997457418658415,97.23511563361575
6.477987328,0.9999454442234723,97.08315232127906
6.480274432,1.0001487937553843,96.92829725771745
6.482561536,1.0003427699875191,96.77055826854371
6.48484864,1.0005150874796735,96.61017603109578
6.487135744,1.0006549707428138,96.44756034551317
6.489422336,1.0007532974476465,96.28323322722832
6.49170944,1.0008040830603842,96.11783978146273
6.493996544,1.0008039833237174,95.95209410751202
6.496283648,1.0007529442086656,95.78672006780283
6.498570752,1.000654253828631,95.62248627068819
6.500857856,1.0005141402031976,95.45997394303662
6.503144448,1.000341373620477,95.2997468619307
6.505431552,1.0001469606235982,95.14222953661496
6.507718656,0.9999429764917372,94.98762437468447
6.51000576,0.9997425438414007,94.83594070157218
6.512292864,0.9995583503147586,94.68709690109564
6.514579968,0.9994022020941383,94.54075465810632
6.51686656,0.9992836875872511,94.39643836763732
6.519153664,0.9992106133019739,94.25352515409246
6.521440768,0.9991874827167373,94.11134121864474
6.523727872,0.9992159084592802,93.9691469448865
6.526014976,0.9992940964806214,93.82619327016448
6.52830208,0.9994169985755976,93.68179949385025
6.530588672,0.9995769233700531,93.53537566614536
6.532875776,0.9997637147241536,93.38643648566446
6.53516288,0.9999655798602807,93.23467265388277
6.537449984,1.0001697683476423,93.08001346550067
6.539737088,1.0003631368564772,92.92245060153368
6.542024192,1.0005336574171124,92.76228774710454
6.544310784,1.0006705067093808,92.59990088664748
6.546597888,1.0007648526174684,92.43586305131457
6.548884992,1.0008108509940186,92.27082524367728
6.551172096,1.0008056062289785,92.10549352801469
6.5534592,1.00074932843001,91.94062188513634
6.555746304,1.000645576095785,91.77693526356201
6.558033408,1.000500931492652,91.61506047205962
6.56032,1.0003244481769362,91.45556521832043
6.562607104,1.000127362551354,91.29878633516164
6.564894208,0.9999220526576775,91.14492306643028
6.567181312,0.9997215976815451,90.99404057292386
6.569468416,0.9995386555079789,90.84598151699772
6.57175552,0.9993849196354903,90.70037601606049
6.574042112,0.9992699925209826,90.55675651135778
6.576329216,0.9992013958110506,90.4144849028926
6.57861632,0.9991834246133802,90.27289171601893
6.580903424,0.999217088993655,90.13117255361962
6.583190528,0.9993005591410955,89.98863829265844
6.585477632,0.9994283124872057,89.84459786917677
6.587764224,0.9995923230162401,89.69841792378297
6.590051328,0.9997823247498604,89.54970474488896
6.592338432,0.9999862087308831,89.39813477693541
6.594625536,1.000190982742478,89.24362593660534
6.59691264,1.0003837606527761,89.0862224745969
6.599199744,1.0005522811459182,88.926236251485
6.601486336,1.0006859125656946,88.76409004074526
6.60377344,1.0007761562912882,88.60032348460166
6.606060544,1.0008173316871813,88.43558980988385
6.608347648,1.0008067696358767,88.27068348438347
6.610634752,1.0007451444734297,88.10631673198873
6.612921856,1.0006363380136334,87.94318225349781
6.615208448,1.0004871669989717,87.78192826239184
6.617495552,1.0003070224342303,87.62310252681249
6.619782656,1.0001073293935208,87.46704145590094
6.62206976,0.9999007652629739,87.3139454068999
6.624356864,0.9997003881521517,87.16382341731791
6.626643968,0.999518822656126,87.01651966167566
6.628931072,0.9993677080885156,86.87164168722619
6.631217664,0.9992566026983717,86.7286913645336
6.633504768,0.9991925594486348,86.58703175715905
6.635791872,0.9991797618187549,86.44597152371813
6.638078976,0.9992188552471908,86.30472935264285
6.64036608,0.9993075766255518,86.16257394200728
6.642653184,0.9994401967414125,86.01883075195293
6.644939776,0.9996083668846449,85.87291150265446
6.64722688,0.9998014308577069,85.72438174309343
6.649513984,1.0000071101195274,85.57295948329987
6.651801088,1.0002125314102717,85.41861045075733
6.654088192,1.0004044132051773,85.2613370658621
6.656375296,1.0005708874415844,85.10151297596204
6.658661888,1.0007012362663548,84.93952938867857
6.660948992,1.0007872148089143,84.77601185793804
6.663236096,1.0008234016077922,84.61160812831966
6.6655232,1.000807460172937,84.44707835519944
6.667810304,1.0007404563544187,84.28316798328554
6.670097408,1.0006264665719267,84.12056446768865
6.672384,1.0004726828084027,83.95994952142382
6.674671104,1.0002890151575594,83.80180318379149
6.676958208,1.0000869041730895,83.64642714305849
6.679245312,0.9998791079095147,83.49407582647648
6.681532416,0.9996788533344574,83.34473245635239
6.68381952,0.9994989125224898,83.19812179467291
6.686106112,0.9993506193140155,83.05394466117619
6.688393216,0.9992433318290822,82.91165535594851
6.69068032,0.9991841396344262,82.77058845049784
6.692967424,0.9991764641617426,82.63002855375801
6.695254528,0.9992211693253011,82.48922578772897
6.697541632,0.9993151426705469,82.34741264586039
6.699828224,0.999452686897537,82.20395163235852
6.702115328,0.9996248489270921,82.0582524855441
6.704402432,0.9998209861127465,81.90986370749192
6.706689536,1.0000284692509624,81.75857750498878
6.70897664,1.0002342740475956,81.60430359373272
6.711263744,1.0004252708895496,81.44717726281512
6.713550848,1.00058940156509,81.28748144655992
6.71583744,1.0007162630710638,81.12566222884249
6.718124544,1.0007977637593772,80.9623821040971
6.720411648,1.0008289847239251,80.79828236874403
6.722698752,1.0008075338333813,80.63410612334894
6.724985856,1.0007350508838184,80.47065231575985
6.72727296,1.0006159271819601,80.30857581984087
6.729559552,1.0004577757249675,80.14854670839125
6.731846656,1.0002704655435855,79.99103615598263
6.73413376,1.000065918214945,79.83638050209424
6.736420864,0.9998570696389917,79.68475831633813
6.738707968,0.9996571650082535,79.53610203662659
6.740995072,0.9994789394952264,79.39023590831839
6.743281664,0.9993336035235253,79.24673079511284
6.745568768,0.9992304149663055,79.10504614045927
6.747855872,0.9991760415361426,78.96454372707609
6.750142976,0.999173783234035,78.82445253244764
6.75243008,0.9992240052510356,78.68404644311732
6.754717184,0.9993234830629658,78.54256702572239
6.757003776,0.9994657072149465,78.39934253025297
6.75929088,0.9996420072492113,78.25380711831072
6.761577984,0.9998410650693379,78.10557650182031
6.763865088,1.0000502739637123,77.95438153610709
6.766152192,1.0002562670002522,77.80019504116703
6.768439296,1.0004462132819938,77.64313221362396
6.770725888,1.0006078959054259,77.48351577077595
6.773012992,1.000731168767277,77.32186482854571
6.775300096,1.0008081537329159,77.15878761590265
6.7775872,1.0008340790886872,76.994951060777
6.779874304,1.0008070959050237,76.83113920842189
6.782161408,1.0007289918844107,76.66812059493174
6.784448512,1.0006047890204572,76.50657324329003
6.786735104,1.0004421820433376,76.34711017039662
6.789022208,1.0002513451001014,76.19023121152924
6.791309312,1.0000445573309382,76.03626279231594
6.793596416,0.9998347779833906,75.88531600029401
6.79588352,0.9996354216061979,75.73737680109674
6.798170624,0.9994589592336022,75.59218515973888
6.800457216,0.9993167060142416,75.44931985851875
6.80274432,0.9992177864453069,75.3082422284572
6.805031424,0.9991683154289773,75.16826314641405
6.807318528,0.9991715883891601,75.02862574460417
6.809605632,0.999227398815717,74.88858588924478
6.811892736,0.9993322422996294,74.74737964427858
6.814179328,0.9994795042401947,74.6043765296222
6.816466432,0.9996596767759525,74.45898906871598
6.818753536,0.9998615696349284,74.31083925095395
6.82104064,1.000072321964537,74.15970811001354
6.823327744,1.0002785301152808,74.00554949848986
6.825614848,1.000467177633744,73.8485549245943
6.82790144,1.0006263259687065,73.68904311333355
6.830188544,1.0007458512739795,73.5275037976392
6.832475648,1.0008181579449686,73.36460841805244
6.834762752,1.0008387023482712,73.20105640524146
6.837049856,1.0008061974260591,73.03757282278032
6.83933696,1.0007224821442862,72.87495748400003
6.841623552,1.0005931188580985,72.71390590455019
6.843910656,1.0004259555613397,72.55499516791787
6.84619776,1.000231872185741,72.3987489530955
6.848484864,1.00002285039887,72.2454284108811
6.850771968,0.9998123179639485,72.09518308312886
6.853059072,0.9996134933472784,71.94791766261626
6.855345664,0.9994390331546392,71.80337342668327
6.857632768,0.9993001440600737,71.66113499978893
6.859919872,0.9992055216283378,71.52063327165179
6.862206976,0.9991611269284416,71.38113321167502
6.86449408,0.9991699554937368,71.24192548292402
6.866781184,0.9992314368317721,71.10219199458678
6.869068288,0.9993417776471,70.96126498680381
6.87135488,0.9994937970667056,70.81842875178955
6.873641984,0.9996779729517167,70.67314092009117
6.875929088,0.999882671635758,70.52505950284223
6.878216192,1.0000948387384543,70.37394351003537
6.880503296,1.0003010736066174,70.2198300048128
6.8827904,1.0004883101094733,70.06284528971013
6.885076992,1.0006447089098864,69.90338923544606
6.887364096,1.0007602549384398,69.7419534532629
6.8896512,1.0008278021614987,69.57922195425039
6.891938304,1.0008428107574026,69.41589224787805
6.894225408,1.0008045896162308,69.2527395527023
6.896512512,1.0007153545663592,69.09052898494637
6.898799104,1.0005807142232372,68.92994670472413
6.901086208,1.0004092462566037,68.77158386412269
6.903373312,1.0002117149711471,68.61592639464406
6.905660416,1.0000006938886878,68.46324824530237
6.90794752,0.9997893816342636,68.31367050554503
6.910234624,0.9995913970596508,68.1670582524979
6.912521216,0.9994190815011427,68.02315093787473
6.91480832,0.9992836403479516,67.88151758433703
6.917095424,0.9991935204422229,67.74153523035703
6.919382528,0.9991543943947621,67.6025020799369
6.921669632,0.9991688895317894,67.46367520367781
6.923956736,0.9992361671379004,67.32425661565588
6.926243328,0.9993518921638074,67.18352923484885
6.928530432,0.9995087599111537,67.04082516524164
6.930817536,0.999696789205276,66.89563132922189
