freq,mag,phase
6.0,1.0,31.339828491177187
6.008,0.9999997171701595,31.087674740155894
6.016,0.9999983589953967,30.835375972986277
6.024,0.9999970225320833,30.58293272289525
6.032,0.9999957076228125,30.330345526166404
6.04,0.9999944141102889,30.077614922135197
6.048,0.9999931418373339,29.824741453183815
6.056,0.9999918906468931,29.57172566473605
6.064,0.999990660382041,29.31856810525178
6.072,0.9999894508859879,29.06526932622151
6.08,0.999988262002085,28.81182988216054
6.088,0.9999870935738305,28.558250330603197
6.096,0.9999859454448763,28.30453123209661
6.104,0.9999848174590321,28.050673150194648
6.112,0.9999837094602736,27.796676651451353
6.12,0.9999826212927472,27.54254230541445
6.128,0.9999815528007758,27.288270684618617
6.136,0.9999805038288654,27.033862364578493
6.144,0.9999794742217107,26.779317923781658
6.152,0.9999784638242011,26.524637943681363
6.16,0.9999774724814263,26.269823008689052
6.168,0.9999765000386835,26.014873706166846
6.176,0.9999755463414818,25.759790626419683
6.184,0.9999746112355484,25.50457436268744
6.192,0.9999736945668366,25.249225511136775
6.2,0.9999727961815288,24.993744670852838
6.208,0.9999719159260443,24.738132443830853
6.216,0.9999710536470445,24.48238943496742
6.224,0.9999702091914396,24.22651625205173
6.232,0.9999693824063938,23.97051350575663
6.24,0.9999685731393316,23.71438180962938
6.248,0.9999677812379437,23.45812178008238
6.256,0.9999670065501928,23.201734036383645
6.264,0.9999662489243196,22.945219200647177
6.272,0.9999655082088489,22.68857789782302
6.28,0.9999647842525954,22.431810755687316
6.288,0.9999640769046697,22.1749184048321
6.296,0.9999633860144834,21.91790147865486
6.304,0.9999627114317563,21.660760613348074
6.312,0.9999620530065217,21.40349644788844
6.32,0.9999614105891323,21.146109624025975
6.328,0.999960784030265,20.888600786272985
6.336,0.9999601731809292,20.63097058189282
6.344,0.9999595778924697,20.373219660888395
6.352,0.9999589980165754,20.115348675990678
6.36,0.999958433405283,19.857358282646864
6.368,0.9999578839109833,19.59924913900851
6.376,0.9999573493864274,19.34102190591933
6.384,0.9999568296847333,19.082677246903007
6.392,0.9999563246593894,18.824215828150663
6.4,0.9999558341642616,18.56563831850828
6.408,0.9999553580535993,18.306945389463873
6.416,0.9999548961820406,18.04813771513452
6.424,0.9999544484046183,17.789215972253206
6.432,0.9999540145767652,17.53018084015556
6.44,0.9999535945543201,17.271033000766273
6.448,0.9999531881935333,17.011773138585514
6.456,0.9999527953510717,16.752401940675085
6.464,0.999952415884026,16.492920096644387
6.472,0.999952049649914,16.233328298636287
6.48,0.999951696506688,15.973627241312753
6.4879999999999995,0.9999513563127398,15.713817621840402
6.496,0.9999510289269056,15.45390013987561
6.504,0.999950714208472,15.193875497550081
6.5120000000000005,0.9999504120171824,14.933744399455323
6.52,0.99995012221324,14.673507552627944
6.5280000000000005,0.9999498446573156,14.413165666533857
6.536,0.999949579210552,14.152719453053214
6.5440000000000005,0.9999493257345695,13.892169626464257
6.552,0.9999490840914705,13.631516903427956
6.5600000000000005,0.9999488541438465,13.3707620029715
6.568,0.9999486357547813,13.109905646472615
6.5760000000000005,0.9999484287878583,12.848948557642732
6.584,0.999948233107164,12.587891462510978
6.592,0.9999480485772944,12.326735089407055
6.6,0.9999478750633596,12.065480168944736
6.608,0.9999477124309882,11.80412743400474
6.616,0.9999475605463347,11.542677619717598
6.624,0.9999474192760818,11.281131463446371
6.632,0.9999472884874473,11.01948970476914
6.64,0.9999471680481884,10.757753085461442
6.648,0.999947057826607,10.495922349478427
6.656,0.9999469576915538,10.23399824293696
6.664,0.9999468675124347,9.971981514097514
6.672,0.9999467871592139,9.709872913345928
6.68,0.9999467165024197,9.447673193174989
6.688,0.9999466554131503,9.185383108165887
6.696,0.999946603763076,8.923003414969513
6.704,0.9999465614244459,8.660534872287576
6.712,0.9999465282700923,8.397978240853636
6.72,0.9999465041734349,8.135334283413886
6.728,0.9999464890084854,7.872603764707912
6.736,0.9999464826498521,7.609787451449173
6.744,0.9999464849727453,7.346886112305442
6.752,0.9999464958529801,7.083900517879035
6.76,0.9999465151669821,6.820831440686943
6.768,0.9999465427917916,6.557679655140773
6.776,0.9999465786050683,6.29444593752658
6.784,0.9999466224850938,6.031131065984552
6.792,0.9999466743107777,5.767735820488544
6.8,0.9999467339616621,5.504260982825477
6.808,0.9999468013179241,5.240707336574615
6.816,0.9999468762603808,4.977075667086679
6.824,0.9999469586704944,4.713366761462835
6.832,0.9999470484303733,4.449581408533571
6.84,0.99994714542278,4.185720398837394
6.848,0.999947249531132,3.9217845245994436
6.856,0.9999473606395072,3.6577745797099346
6.864,0.9999474786326467,3.3936913597025002
6.872,0.9999476033959601,3.129535661732386
6.88,0.9999477348155278,2.8653082845545317
6.888,0.9999478727781053,2.6010100285015145
6.896,0.9999480171711268,2.33664169546138
6.904,0.9999481678827092,2.0722040888553424
6.912,0.9999483248016551,1.8076980136153515
6.92,0.999948487817456,1.5431242761615789
6.928,0.999948656820297,1.2784836843797311
6.936,0.9999488317010596,1.0137770475982926
6.944,0.9999490123513236,0.749005176565617
6.952,0.9999491986633735,0.4841688834269335
6.96,0.9999493905301978,0.2192689817012031
6.968,0.9999495878454965,-0.04569371374208779
6.976,0.9999497905036809,-0.31071838670629387
6.984,0.9999499983998773,-0.5758042196910537
6.992,0.9999502114299321,-0.840950393915866
7.0,0.9999504294904117,-1.1061560893437246
7.008,0.9999506524786085,-1.371420484704927
7.016,0.9999508802925402,-1.6367427575209312
7.024,0.9999511128309571,-1.9021220841283377
7.032,0.9999513499933402,-2.167557639702967
7.04,0.9999515916799071,-2.433048598284018
7.048,0.9999518377916133,-2.69859413279838
7.056,0.9999520882301555,-2.9641934150849556
7.064,0.999952342897973,-3.229845615919144
7.072,0.9999526016982513,-3.4955499050374006
7.08,0.999952864534924,-3.7613054511618733
7.088,0.9999531313126753,-4.0271114220251265
7.096,0.9999534019369419,-4.292966984394983
7.104,0.9999536763139155,-4.55887130409941
7.112,0.9999539543505452,-4.82482354605152
7.12,0.9999542359545395,-5.090822874274638
7.128,0.9999545210343674,-5.356868451927454
7.136,0.9999548094992626,-5.62295944132925
7.144,0.9999551012592232,-5.889095003985241
7.152,0.9999553962250137,-6.1552743006119
7.16,0.9999556943081689,-6.421496491162488
7.168,0.9999559954209936,-6.687760734852526
7.176,0.9999562994765644,-6.95406619018541
7.184,0.999956606388733,-7.22041201497811
7.192,0.999956916072126,-7.486797366386876
7.2,0.9999572284421465,-7.753221400933046
7.208,0.9999575434149769,-8.019683274528905
7.216,0.9999578609075791,-8.28618214250365
7.224,0.9999581808376957,-8.55271715962932
7.232,0.9999585031238521,-8.819287480146885
7.24,0.9999588276853574,-9.085892257792326
7.248,0.9999591544423047,-9.352530645822789
7.256,0.9999594833155727,-9.619201797042825
7.264,0.9999598142268281,-9.885904863830588
7.272,0.9999601470985239,-10.152638998164214
7.28,0.9999604818539019,-10.41940335164813
7.288,0.9999608184169936,-10.686197075539473
7.296,0.9999611567126198,-10.953019320774528
7.304,0.9999614966663924,-11.219869237995237
7.312,0.9999618382047145,-11.486745977575687
7.32,0.9999621812547811,-11.75364868964872
7.328,0.9999625257445793,-12.020576524132512
7.336,0.9999628716028888,-12.28752863075718
7.344,0.9999632187592825,-12.554504159091554
7.352,0.9999635671441266,-12.821502258569733
7.36,0.9999639166885803,-13.088522078517958
7.368,0.9999642673245973,-13.355562768181267
7.376,0.9999646189849245,-13.622623476750313
7.384,0.9999649716031025,-13.88970335338821
7.392,0.9999653251134654,-14.15680154725729
7.4,0.9999656794511413,-14.42391720754601
7.4079999999999995,0.9999660345520515,-14.691049483495782
7.416,0.99996639035291,-14.958197524427947
7.4239999999999995,0.999966746791224,-15.225360479770458
7.432,0.9999671038052934,-15.492537499085131
7.4399999999999995,0.9999674613342086,-15.759727732094156
7.448,0.999967819317853,-16.026930328707486
7.4559999999999995,0.9999681776968997,-16.29414443904929
7.464,0.999968536412813,-16.56136921348539
7.4719999999999995,0.999968895407845,-16.828603802649777
7.48,0.9999692546250374,-17.095847357471925
7.4879999999999995,0.9999696140082199,-17.363099029203397
7.496,0.9999699735020082,-17.63035796944517
7.504,0.9999703330518039,-17.89762333017422
7.5120000000000005,0.9999706926037939,-18.164894263770783
7.52,0.9999710521049475,-18.432169923044988
7.5280000000000005,0.9999714115030174,-18.69944946126414
7.536,0.9999717707465362,-18.96673203217925
7.5440000000000005,0.9999721297848174,-19.23401679005233
7.552,0.999972488567952,-19.50130288968287
7.5600000000000005,0.9999728470468073,-19.768589486435204
7.568,0.9999732051730263,-20.035875736264874
7.5760000000000005,0.9999735628990255,-20.303160795745924
7.584,0.9999739201779924,-20.57044382209734
7.5920000000000005,0.9999742769638851,-20.83772397321018
7.6,0.9999746332114295,-21.105000407674062
7.6080000000000005,0.9999749888761182,-21.37227228480424
7.616,0.9999753439142065,-21.639538764667947
7.6240000000000006,0.999975698282713,-21.906799008111538
7.632,0.9999760519394153,-22.174052176786702
7.640000000000001,0.999976404842849,-22.44129743317758
7.648,0.9999767569523043,-22.708533940626882
7.656000000000001,0.9999771082278244,-22.975760863362975
7.664,0.9999774586302029,-23.242977366525892
7.672,0.9999778081209814,-23.51018261619435
7.68,0.9999781566624457,-23.777375779411823
7.688,0.9999785042176245,-24.04455602421318
7.696,0.9999788507502853,-24.31172251965099
7.704,0.999979196224933,-24.578874435821927
7.712,0.999979540606805,-24.846010943892985
7.72,0.9999798838618698,-25.113131216127826
7.728,0.9999802259568226,-25.380234425912942
7.736,0.9999805668590829,-25.647319747783808
7.744,0.9999809065367905,-25.914386357451033
7.752,0.9999812449588024,-26.181433431826424
7.76,0.9999815820946885,-26.448460149048984
7.768,0.9999819179147295,-26.715465688510864
7.776,0.9999822523899111,-26.98244923088335
7.784,0.999982585491922,-27.249409958142625
7.792,0.9999829171931484,-27.516347053595624
7.8,0.9999832474666707,-27.78325970190581
7.808,0.9999835762862588,-28.050147089118845
7.816,0.9999839036263686,-28.31700840268819
7.824,0.9999842294621366,-28.58384283150077
7.832,0.9999845537693756,-28.85064956590241
7.84,0.9999848765245705,-29.117427797723355
7.848,0.9999851977048725,-29.38417672030365
7.856,0.9999855172880946,-29.650895528518543
7.864,0.9999858352527068,-29.917583418803673
7.872,0.9999861515778307,-30.184239589180336
7.88,0.9999864662432331,-30.450863239280736
7.888,0.9999867792293213,-30.717453570372946
7.896,0.9999870905171379,-30.98400978538603
7.904,0.9999874000883534,-31.250531088935055
7.912,0.9999877079252609,-31.517016687345887
7.92,0.9999880140107701,-31.783465788680225
7.928,0.9999883183284,-32.04987760276026
7.936,0.9999886208622727,-32.316251341193464
7.944,0.999988921597107,-32.58258621739728
7.952,0.9999892205182094,-32.84888144662371
7.96,0.999989517611469,-33.11513624598389
7.968,0.9999898128633489,-33.38134983447262
7.976,0.9999901062608776,-33.64752143299275
7.984,0.9999903977916418,-33.91365026437959
7.992,0.9999906874437785,-34.179735553425296
8.0,0.9999909752059644,-34.44577652690305
8.008,0.9999912610674085,-34.71177241359133
8.016,0.9999915450178423,-34.97772244429821
8.024000000000001,0.9999918270475104,-35.243625851885206
8.032,0.9999921071471596,-35.509481871291506
8.04,0.9999923853080283,-35.77528973955812
8.048,0.9999926615218377,-36.0410486958518
8.056000000000001,0.9999929357807787,-36.30675798148873
8.064,0.9999932080775003,-36.572416839958734
8.072,0.9999934784050976,-36.83802451694911
8.08,0.9999937467570997,-37.10358026036843
8.088000000000001,0.9999940131274557,-37.36908332037025
8.096,0.9999942775105217,-37.63453294937695
8.104,0.999994539901045,-37.89992840210365
8.112,0.9999948002941509,-38.16526893558184
8.120000000000001,0.9999950586853257,-38.43055380918301
8.128,0.9999953150704006,-38.695782284642426
8.136,0.9999955694455351,-38.960953626083054
8.144,0.9999958218071981,-39.226067100039074
8.152000000000001,0.99999607215215,-39.49112197547964
8.16,0.9999963204774217,-39.75611752383252
8.168,0.9999965667802962,-40.0210530190082
8.176,0.999996811058284,-40.28592773742342
8.184000000000001,0.9999970533091023,-40.55074095802494
8.192,0.9999972935306507,-40.815491962313494
8.2,0.9999975317209853,-41.080180034367885
8.208,0.999997767878293,-41.3448044608688
8.216000000000001,0.9999980020008625,-41.609364531122786
8.224,0.9999982340870555,-41.87385953708644
8.232,0.9999984641352764,-42.13828877339085
8.24,0.9999986921439374,-42.402651537365735
8.248000000000001,0.9999989181114262,-42.6669471290638
8.256,0.9999991420360669,-42.93117485128544
8.264,0.9999993639160838,-43.195334009603556
8.272,0.9999995837495588,-43.45942391238834
8.280000000000001,0.9999998015343879,-43.72344387083226
8.288,0.9999999999999999,-43.987393198975305
8.296,1.0,-44.251271213730654
8.304,1.0,-44.51507723491025
8.312,1.0000000000000002,-44.778810585250554
8.32,1.0,-45.04247059043914
8.328,0.9999999999999999,-45.30605657914075
8.336,1.0,-45.569567883024654
8.344,0.9999999999999999,-45.83300383679128
8.352,1.0000000000000002,-46.09636377820027
8.36,1.0,-46.35964704809805
8.368,1.0,-46.6228529904466
8.376,1.0,-46.885980952351915
8.384,0.9999999999999999,-47.14903028409388
8.392,0.9999999999999999,-47.41200033915578
8.4,1.0,-47.67489047425519
8.408,1.0,-47.93770004937483
8.416,0.9999999999999999,-48.20042842779485
8.424,1.0,-48.4630749761249
8.432,0.9999999999999999,-48.72563906433812
8.44,1.0,-48.988120065804864
8.448,1.0,-49.25051735732832
8.456,1.0,-49.512830319180246
8.464,0.9999999999999999,-49.77505833513861
8.472,1.0,-50.037200792525546
8.48,0.9999999999999999,-50.29925708224728
8.488,0.9999999999999999,-50.5612265988346
8.496,0.9999999999999999,-50.82310874048559
8.504,1.0,-51.084902909108955
8.512,1.0,-51.346608510369826
8.52,0.9999999999999999,-51.60822495373647
8.528,0.9999999999999999,-51.86975165252969
8.536,1.0,-52.131188023973436
8.544,1.0,-52.39253348924823
8.552,1.0,-52.65378747354629
8.56,1.0,-52.914949406129665
8.568,0.9999999999999999,-53.176018720390516
8.576,1.0,-53.4369948539148
8.584,0.9999999999999999,-53.697877248548316
8.592,1.0,-53.958665350466724
8.6,1.0,-54.21935861024843
8.608,1.0,-54.479956482951955
8.616,1.0,-54.74045842819652
8.624,1.0,-55.00086391024799
8.632,1.0,-55.261172398108286
8.64,0.9999999999999999,-55.521383365611214
8.648,1.0,-55.78149629152228
8.656,1.0,-56.041510659645596
8.664,0.9999999999999999,-56.3014259589359
8.672,0.9999999999999999,-56.5612416836183
8.68,0.9999999999999999,-56.82095733331413
8.688,1.0,-57.08057241317571
8.696,1.0,-57.340086434028166
8.704,1.0,-57.59949891252132
8.712,0.9999999999999998,-57.858809371290015
8.72,1.0,-58.11801733912569
8.728,1.0,-58.377122351157986
8.736,1.0,-58.63612394904889
8.744,1.0,-58.89502168119864
8.752,1.0,-59.15381510296581
8.76,1.0,-59.41250377690079
8.768,1.0000000000000002,-59.67108727299544
8.776,1.0,-59.929565168947846
8.784,1.0,-60.18793705044504
8.792,1.0000000000000002,-60.446202511462985
8.8,0.9999999999999999,-60.70436115458629
8.808,1.0,-60.962412591346734
8.815999999999999,0.9999999999999999,-61.22035644258347
8.824,1.0,-61.47819233882368
8.832,0.9999999999999999,-61.735919920684985
8.84,1.0,-61.993538839299916
8.847999999999999,1.0,-62.251048756762074
8.856,1.0,-62.5084493465928
8.864,1.0,-62.76574029422736
8.872,1.0,-63.02292129751849
8.879999999999999,1.0,-63.27999206725352
8.888,1.0,-63.536952327680005
8.896,1.0,-63.79380181703283
8.904,1.0,-64.05054028805365
8.911999999999999,1.0,-64.30716750848968
8.92,0.9999999999999999,-64.56368326155417
8.928,0.9999999999999999,-64.8200873463271
8.936,1.0,-65.07637957806622
8.943999999999999,1.0,-65.33255978839084
8.952,1.0,-65.58862782528828
8.96,1.0000000000000002,-65.84458355288031
8.968,0.9999999427623529,-66.10042685086668
8.975999999999999,0.9999989314284117,-66.35615761354228
8.984,0.9999978112201979,-66.61177574825122
8.992,0.9999965701341704,-66.8672811731068
9.0,0.9999951946595237,-67.12267381375734
9.008,0.9999936695732998,-67.37795359891622
9.016,0.9999919777077693,-67.63312045429967
9.024000000000001,0.9999900996871612,-67.88817429451728
9.032,0.9999880136310977,-68.14311501234032
9.04,0.9999856948225461,-68.39794246462007
9.048,0.9999831153392533,-68.65265645394123
9.056000000000001,0.9999802436493421,-68.90725670486309
9.064,0.9999770441748043,-69.16174283332519
9.072,0.9999734768311547,-69.41611430746343
9.08,0.9999694965585376,-69.67037039769822
9.088000000000001,0.9999650528698253,-69.92451011355071
9.096,0.999960089456197,-70.1785321242056
9.104,0.9999545439116702,-70.43243465948355
9.112,0.9999483476672795,-70.68621538766847
9.120000000000001,0.9999414262649896,-70.93987126679161
9.128,0.9999337001525548,-71.19339836675782
9.136,0.9999250862448936,-71.44679166160728
9.144,0.9999155005720076,-71.70004479484403
9.152000000000001,0.9999048624118411,-71.9531498270513
9.16,0.9998931003708886,-72.20609698491376
9.168,0.9998801608944212,-72.45887444532667
9.176,0.9998660196085469,-72.71146820786593
9.184000000000001,0.9998506956411423,-72.96386213252
9.192,0.9998342685440561,-73.21603824324816
9.2,0.9998168965606217,-73.4679774130337
9.208,0.9997988337410175,-73.71966053816345
9.216000000000001,0.999780441960187,-73.97107025961581
9.224,0.9997621926773648,-74.22219318081939
9.232,0.9997446530303646,-74.47302236223364
9.24,0.9997284524507964,-74.72355967553982
9.248000000000001,0.9997142299263647,-74.97381744716472
9.256,0.9997025678286487,-75.22381881153738
9.264,0.9996939239971607,-75.47359640292099
9.272,0.9996885767899932,-75.72318942348883
9.280000000000001,0.9996865959571081,-75.97263959800385
9.288,0.9996878455392971,-76.22198685934545
9.296,0.9996920161692977,-76.47126565258326
9.304,0.9996986768788688,-76.72050249223221
9.312000000000001,0.999707333450931,-76.96971499402864
9.32,0.9997174817837996,-77.21891221390922
9.328,0.9997286489690664,-77.46809589082048
9.336,0.9997404195533108,-77.71726213429164
9.344,0.9997524481196804,-77.96640317315448
9.352,0.9997644612996017,-78.21550891415274
9.36,0.9997762528247518,-78.46456818911778
9.368,0.9997876748070293,-78.71356966629743
9.376,0.9997986276244802,-78.96250245905537
9.384,0.9998090499539493,-79.21135649061662
9.392,0.9998189098048555,-79.46012267782895
9.4,0.9998281969214328,-79.70879298999228
9.408,0.9998369166155144,-79.95736042753231
9.416,0.9998450849232705,-80.20581895368704
9.424,0.999852724903357,-80.4541634023133
9.432,0.9998598638740228,-80.70238937704822
9.44,0.9998665313969459,-80.95049315124818
9.448,0.999872757840051,-81.19847157411094
9.456,0.9998785733801285,-81.44632198568557
9.464,0.9998840073336451,-81.69404214177575
9.472,0.9998890877287057,-81.94163014870786
9.48,0.9998938410513794,-82.18908440736281
9.488,0.9998982921160519,-82.43640356558001
9.496,0.9999024640222532,-82.68358647795341
9.504,0.999906378170331,-82.9306321720238
9.512,0.9999100543159196,-83.17753981995729
9.52,0.9999135106485976,-83.42430871486728
9.528,0.9999167638845254,-83.67093825105911
9.536,0.9999198293657959,-83.91742790755961
9.544,0.9999227211615321,-84.16377723439564
9.552,0.9999254521674132,-84.40998584116369
9.56,0.9999280342014509,-84.65605338751018
9.568,0.9999304780947343,-84.90197957519787
9.576,0.9999327937763657,-85.1477641414952
9.584,0.9999349903523322,-85.39340685366247
9.592,0.9999370761782167,-85.63890750435228
9.6,0.9999390589259319,-85.88426590777038
9.608,0.9999409456447238,-86.1294818964689
9.616,0.9999427428167896,-86.37455531866743
9.624,0.9999444564078596,-86.61948603601341
9.632,0.9999460919131485,-86.86427392170974
9.64,0.9999476543990384,-87.10891885894883
9.648,0.9999491485408661,-87.3534207396028
9.656,0.9999505786571677,-87.59777946312852
9.664,0.9999519487407011,-87.84199493565126
9.672,0.9999532624865487,-88.0860670692001
9.68,0.9999545233175893,-88.32999578106845
9.688,0.9999557344075795,-88.5737809932812
9.696,0.9999568987020833,-88.81742263215031
