freq,mag,phase
6.0,0.9999914352753995,96.48274977436812
6.008,0.9999920283590975,96.3524595129878
6.016,0.9999926084474702,96.2220952633158
6.024,0.9999931756904155,96.09165696759685
6.032,0.999993730236948,95.96114456833301
6.04,0.9999942722351991,95.83055800828522
6.048,0.9999948018324178,95.6998972304747
6.056,0.9999953191749721,95.56916217818474
6.064,0.9999958244083499,95.43835279496209
6.072,0.9999963176771602,95.30746902461861
6.08,0.9999967991251341,95.17651081123289
6.088,0.9999972688951253,95.04547809915174
6.096,0.999997727129112,94.91437083299184
6.104,0.9999981739681977,94.78318895764129
6.112,0.9999986095526121,94.65193241826123
6.12,0.9999990340217123,94.52060116028737
6.128,0.9999994475139838,94.38919512943167
6.136,0.9999998501670423,94.25771427168391
6.144,1.0,94.12615853331322
6.152,1.0,93.99452786086978
6.16,0.9999999999999998,93.86282220118639
6.168,1.0,93.73104150138005
6.176,0.9999999999999999,93.59918570885364
6.184,1.0000000000000002,93.46725477129743
6.192,1.0,93.33524863669082
6.2,0.9999999999999999,93.20316725330387
6.208,1.0,93.07101056969896
6.216,1.0,92.9387785347324
6.224,1.0,92.8064710975561
6.232,1.0,92.67408820761912
6.24,1.0,92.54162981466939
6.248,1.0,92.40909586875527
6.256,0.9999999999999999,92.2764863202273
6.264,1.0,92.14380111973968
6.272,1.0,92.01104021825203
6.28,1.0,91.87820356703106
6.288,0.9999999999999999,91.7452911176521
6.296,0.9999999999999998,91.61230282200087
6.304,1.0,91.47923863227503
6.312,1.0,91.34609850098596
6.32,0.9999999999999999,91.2128823809603
6.328,1.0,91.07959022534165
6.336,0.9999999999999999,90.94622198759228
6.344,1.0,90.81277762149473
6.352,0.9999999999999999,90.67925708115355
6.36,0.9999999999999999,90.54566032099689
6.368,1.0,90.4119872957782
6.376,1.0,90.27823796057798
6.384,1.0,90.14441227080532
6.392,0.9999999999999999,90.0105101821997
6.4,0.9999999999999999,89.8765316508326
6.408,1.0,89.74247663310926
6.416,1.0,89.60834508577025
6.424,0.9999999999999999,89.47413696589327
6.432,0.9999999999999999,89.33985223089475
6.44,1.0,89.20549083853163
6.448,0.9999999999999999,89.07105274690299
6.456,1.0,88.93653791445179
6.464,1.0,88.8019462999665
6.472,0.9999999999999999,88.66727786258289
6.48,1.0,88.53253256178567
6.4879999999999995,1.0,88.39771035741025
6.496,1.0,88.26281120964428
6.504,1.0,88.12783507902968
6.5120000000000005,0.9999999999999999,87.99278192646396
6.52,1.0,87.85765171320232
6.5280000000000005,0.9999999999999999,87.72244440085896
6.536,1.0,87.58715995140923
6.5440000000000005,1.0,87.4517983271909
6.552,0.9999999999999999,87.3163594909063
6.5600000000000005,1.0,87.18084340562365
6.568,0.9999999999999999,87.04525003477914
6.5760000000000005,1.0,86.90957934217836
6.584,1.0,86.77383129199825
6.592,1.0,86.63800584878861
6.6,1.0,86.50210297747401
6.608,0.9999999999999999,86.36612264335545
6.616,0.9999999999999999,86.23006481211209
6.624,1.0,86.09392944980296
6.632,1.0,85.95771652286872
6.64,1.0,85.8214259981334
6.648,1.0,85.68505784280612
6.656,0.9999999999999999,85.54861202448282
6.664,1.0,85.41208851114803
6.672,1.0,85.27548727117656
6.68,1.0000000000000002,85.13880827333529
6.688,0.9999999999999999,85.00205148678488
6.696,1.0,84.86521688108154
6.704,1.0,84.72830442617871
6.712,1.0,84.5913140924289
6.72,1.0,84.45424585058535
6.728,0.9999999999999999,84.31709967180383
6.736,1.0,84.17987552764437
6.744,1.0,84.04257339007299
6.752,0.9999999999999999,83.90519323146346
6.76,1.0,83.76773502459908
6.768,0.9999999999999999,83.63019874267438
6.776,0.9999999999999999,83.49258435929693
6.784,1.0,83.354891848489
6.792,0.9999999999999998,83.21712118468943
6.8,0.9999999999999999,83.07927234275529
6.808,1.0,82.94134529796365
6.816,1.0,82.80334002601339
6.824,1.0000000000000002,82.6652565030269
6.832,0.9999999999999999,82.5270947055518
6.84,1.0000000000000002,82.3888546105628
6.848,0.9999999999999999,82.2505361954634
6.856,1.0,82.1121394380876
6.864,1.0,81.97366431670173
6.872,1.0,81.83511081000619
6.88,0.9999999999999999,81.69647889713714
6.888,0.9999999999999998,81.55776855766837
6.896,1.0,81.41897977161294
6.904,0.9999999999999999,81.28011251942506
6.912,1.0,81.14116678200168
6.92,0.9999999999999999,81.00214254068445
6.928,1.0,80.86303977726128
6.936,1.0,80.72385847396828
6.944,1.0,80.58459861349132
6.952,1.0,80.44526017896798
6.96,0.9999999999999999,80.30584315398917
6.968,0.9999999999999999,80.16634752260093
6.976,1.0,80.0267732693062
6.984,0.9999999999999998,79.88712037906654
6.992,1.0,79.74738883730393
7.0,0.9999999999999999,79.60757862990248
7.008,0.9999999999999999,79.4676897432102
7.016,0.9999999999999999,79.32772216404076
7.024,1.0,79.18767587967523
7.032,1.0,79.04755087786381
7.04,1.0,78.90734714682769
7.048,1.0,78.76706467526063
7.056,1.0,78.6267034523308
7.064,1.0,78.48626346768258
7.072,0.9999999999999999,78.34574471143819
7.08,0.9999999999999999,78.20514717419952
7.088,1.0,78.0644708470499
7.096,1.0,77.92371572155568
7.104,1.0,77.78288178976818
7.112,1.0,77.6419690442253
7.12,1.0,77.50097747795334
7.128,0.9999999999999999,77.35990708446862
7.136,0.9999999999999999,77.21875785777938
7.144,1.0,77.0775297923874
7.152,1.0,76.93622288328972
7.16,1.0,76.7948371259805
7.168,0.9999999999999999,76.65337251645263
7.176,0.9999999999999999,76.5118290511995
7.184,0.9999999999999999,76.37020672721678
7.192,0.9999999999999999,76.22850554200402
7.2,0.9999999999999999,76.08672549356649
7.208,1.0,75.94486658041691
7.216,1.0,75.80292880157707
7.224,1.0,75.66091215657964
7.232,1.0,75.51881664546985
7.24,0.9999999422090945,75.37664226880722
7.248,0.999999802632151,75.23438902766723
7.256,0.9999996636049387,75.09205692364311
7.264,0.9999995251590263,74.94964595884751
7.272,0.9999993873253878,74.80715613591418
7.28,0.9999992501344079,74.66458745799972
7.288,0.9999991136158813,74.52193992878523
7.296,0.9999989777990177,74.37921355247806
7.304,0.9999988427124442,74.23640833381353
7.312,0.9999987083842083,74.09352427805652
7.32,0.9999985748417801,73.95056139100326
7.328,0.9999984421120556,73.80751967898298
7.336,0.9999983102213604,73.66439914885964
7.344,0.9999981791954508,73.5211998080335
7.352,0.9999980490595178,73.37792166444297
7.36,0.9999979198381904,73.23456472656613
7.368,0.9999977915555375,73.09112900342251
7.376,0.9999976642350719,72.94761450457474
7.384,0.9999975378997522,72.80402124013018
7.392,0.9999974125719864,72.66034922074263
7.4,0.9999972882736349,72.51659845761397
7.4079999999999995,0.999997165026013,72.37276896249587
7.416,0.9999970428498943,72.2288607476913
7.4239999999999995,0.9999969217655142,72.08487382605642
7.432,0.9999968017925714,71.94080821100202
7.4399999999999995,0.9999966829502325,71.7966639164953
7.448,0.999996565257134,71.65244095706136
7.4559999999999995,0.9999964487313859,71.50813934778509
7.464,0.9999963333905749,71.3637591043125
7.4719999999999995,0.9999962192517667,71.21930024285267
7.48,0.9999961063315099,71.07476278017904
7.4879999999999995,0.9999959946458385,70.93014673363139
7.496,0.9999958842102759,70.78545212111713
7.504,0.999995775039836,70.64067896111318
7.5120000000000005,0.9999956671490292,70.4958272726674
7.52,0.9999955605518632,70.35089707540034
7.5280000000000005,0.9999954552618476,70.20588838950668
7.536,0.9999953512919955,70.06080123575705
7.5440000000000005,0.9999952486548285,69.91563563549937
7.552,0.9999951473623786,69.77039161066071
7.5600000000000005,0.9999950474261919,69.6250691837486
7.568,0.9999949488573318,69.4796683778529
7.5760000000000005,0.9999948516663819,69.33418921664708
7.584,0.9999947558634492,69.18863172439009
7.5920000000000005,0.9999946614581683,69.04299592592768
7.6,0.9999945684597034,68.89728184669418
7.6080000000000005,0.9999944768767522,68.75148951271377
7.616,0.9999943867175487,68.60561895060245
7.6240000000000006,0.9999942979898672,68.45967018756912
7.632,0.9999942107010251,68.31364325141753
7.640000000000001,0.9999941248578863,68.16753817054756
7.648,0.9999940404668644,68.0213549739569
7.656000000000001,0.9999939575339261,67.87509369124244
7.664,0.9999938760645943,67.72875435260198
7.672,0.9999937960639522,67.58233698883555
7.68,0.9999937175366459,67.43584163134707
7.688,0.9999936404868874,67.2892683121458
7.696,0.9999935649184597,67.14261706384782
7.704,0.9999934908347174,66.99588791967759
7.712,0.9999934182385934,66.84908091346941
7.72,0.9999933471325994,66.70219607966884
7.728,0.9999932775188308,66.55523345333432
7.736,0.9999932093989701,66.40819307013851
7.744,0.9999931427742893,66.26107496636979
7.752,0.9999930776456548,66.11387917893386
7.76,0.9999930140135299,65.96660574535491
7.768,0.999992951877978,65.81925470377737
7.776,0.999992891238667,65.67182609296718
7.784,0.999992832094872,65.52431995231323
7.792,0.999992774445479,65.37673632182887
7.8,0.9999927182889887,65.2290752421533
7.808,0.9999926636235194,65.08133675455294
7.816,0.9999926104468112,64.9335209009229
7.824,0.9999925587562287,64.78562772378837
7.832,0.9999925085487653,64.63765726630596
7.84,0.9999924598210462,64.48960957226527
7.848,0.9999924125693322,64.34148468608998
7.856,0.9999923667895231,64.19328265283951
7.864,0.9999923224771613,64.04500351821025
7.872,0.9999922796274358,63.89664732853689
7.88,0.9999922382351847,63.74821413079391
7.888,0.9999921982948998,63.5997039725968
7.896,0.9999921598007299,63.45111690220345
7.904,0.9999921227464846,63.30245296851554
7.912,0.9999920871256366,63.15371222107971
7.92,0.9999920529313274,63.004894710089076
7.928,0.9999920201563695,62.85600048638441
7.936,0.9999919887932499,62.707029601455446
7.944,0.9999919588341353,62.55798210744226
7.952,0.9999919302708736,62.40885805713649
7.96,0.9999919030949991,62.2596575039826
7.968,0.9999918772977359,62.11038050207925
7.976,0.9999918528700007,61.961027106180445
7.984,0.9999918298024075,61.81159737169682
7.992,0.9999918080852713,61.662091354697004
8.0,0.9999917877086104,61.512509111908656
8.008,0.9999917686621519,61.3628507007199
8.016,0.9999917509353339,61.21311617918035
8.024000000000001,0.9999917345173106,61.06330560600255
8.032,0.9999917193969546,60.913419040563
8.04,0.9999917055628619,60.763456542903384
8.048,0.9999916930033544,60.613418173731795
8.056000000000001,0.9999916817064848,60.46330399442396
8.064,0.9999916716600393,60.31311406702435
8.072,0.9999916628515426,60.16284845424732
8.08,0.9999916552682598,60.012507219478245
8.088000000000001,0.9999916488972026,59.86209042677484
8.096,0.9999916437251304,59.71159814086813
8.104,0.9999916397385559,59.561030427163544
8.112,0.9999916369237486,59.41038735174211
8.120000000000001,0.9999916352667382,59.25966898136168
8.128,0.999991634753318,59.10887538345779
8.136,0.99999163536905,58.958006626144936
8.144,0.9999916370992676,58.807062778217436
8.152000000000001,0.9999916399290796,58.65604390915084
8.16,0.9999916438433737,58.50495008910272
8.168,0.9999916488268217,58.35378138891376
8.176,0.9999916548638816,58.20253788010879
8.184000000000001,0.9999916619388024,58.05121963489801
8.192,0.9999916700356274,57.89982672617778
8.2,0.9999916791381986,57.74835922753169
8.208,0.9999916892301604,57.59681721323151
8.216000000000001,0.9999917002949625,57.4452007582384
8.224,0.9999917123158657,57.29350993820373
8.232,0.9999917252759435,57.14174482946993
8.24,0.9999917391580876,56.989905509071676
8.248000000000001,0.9999917539450108,56.837992054736695
8.256,0.9999917696192514,56.686004544886856
8.264,0.9999917861631772,56.53394305863887
8.272,0.9999918035589885,56.38180767580531
8.280000000000001,0.999991821788723,56.229598476895696
8.288,0.9999918408342586,56.077315543117116
8.296,0.9999918606773184,55.92495895637524
8.304,0.9999918812994739,55.77252879927515
8.312,0.9999919026821487,55.6200251551223
8.32,0.9999919248066237,55.467448107923246
8.328,0.9999919476540381,55.314797742386574
8.336,0.9999919712053973,55.16207414392366
8.344,0.9999919954415731,55.00927739864957
8.352,0.9999920203433104,54.85640759338373
8.36,0.9999920458912281,54.703464815650925
8.368,0.999992072065827,54.550449153681846
8.376,0.9999920988474894,54.397360696414104
8.384,0.9999921262164866,54.24419953349272
8.392,0.99999215415298,54.09096575527117
8.4,0.9999921826370273,53.93765945281184
8.408,0.9999922116485845,53.78428071788703
8.416,0.9999922411675111,53.630829642979315
8.424,0.9999922711735734,53.47730632128267
8.432,0.9999923016464487,53.323710846702745
8.44,0.999992332565729,53.17004331385788
8.448,0.999992363910925,53.01630381807951
8.456,0.9999923956614701,52.86249245541302
8.464,0.9999924277967237,52.708609322618194
8.472,0.9999924602959764,52.554654517170036
8.48,0.9999924931384528,52.40062813725922
8.488,0.9999925263033153,52.2465302817928
8.496,0.9999925597696687,52.092361050394715
8.504,0.9999925935165643,51.93812054340649
8.512,0.9999926275230024,51.7838088618876
8.52,0.9999926617679387,51.62942610761628
8.528,0.9999926962302846,51.47497238308978
8.536,0.9999927308889148,51.320447791525154
8.544,0.9999927657226693,51.16585243685954
8.552,0.9999928007103567,51.0111864237509
8.56,0.9999928358307602,50.85644985757821
8.568,0.9999928710626391,50.701642844442276
8.576,0.9999929063847349,50.54676549116583
8.584,0.9999929417757735,50.39181790529437
8.592,0.9999929772144699,50.23680019509614
8.6,0.9999930126795323,50.08171246956302
8.608,0.9999930481496655,49.92655483841051
8.616,0.9999930836035742,49.771327412078506
8.624,0.9999931190199688,49.61603030173128
8.632,0.9999931543775675,49.46066361925821
8.64,0.9999931896551005,49.30522747727388
8.648,0.9999932248313148,49.1497219891186
8.656,0.9999932598849771,48.9941472688585
8.664,0.9999932947948778,48.8385034312861
8.672,0.9999933295398349,48.68279059192037
8.68,0.9999933640986988,48.527008867007275
8.688,0.9999933984503551,48.37115837351968
8.696,0.9999934325737279,48.21523922915802
8.704,0.9999934664477856,48.05925155235014
8.712,0.9999935000515431,47.903195462251865
8.72,0.999993533364066,47.74707107874689
8.728,0.9999935663644751,47.59087852244732
8.736,0.9999935990319485,47.43461791469347
8.744,0.9999936313457284,47.27828937755441
8.752,0.9999936632851221,47.121893033827746
8.76,0.9999936948295065,46.96542900704013
8.768,0.9999937259583337,46.80889742144703
8.776,0.9999937566511313,46.65229840203313
8.784,0.9999937868875104,46.495632074512194
8.792,0.9999938166471656,46.338898565327334
8.8,0.9999938459098816,46.18209800165089
8.808,0.9999938746555352,46.02523051138467
8.815999999999999,0.9999939028640994,45.86829622315977
8.824,0.9999939305156484,45.711295266336755
8.832,0.9999939575903591,45.55422777100563
8.84,0.9999939840685175,45.397093867985824
8.847999999999999,0.99999400993052,45.23989368882608
8.856,0.9999940351568786,45.08262736580447
8.864,0.9999940597282245,44.92529503192839
8.872,0.9999940836253108,44.76789682093449
8.879999999999999,0.9999941068290177,44.61043286728839
8.888,0.9999941293203551,44.45290330618479
8.896,0.9999941510804661,44.29530827354728
8.904,0.9999941720906326,44.13764790602827
8.911999999999999,0.999994192332276,43.979922341008624
8.92,0.9999942117869633,43.82213171659768
8.928,0.9999942304364094,43.6642761716331
8.936,0.9999942482624823,43.506355845680574
8.943999999999999,0.9999942652472037,43.34837087903354
8.952,0.9999942813727563,43.1903214127131
8.96,0.9999942966214851,43.03220758846771
8.968,0.9999943109759012,42.874029548773
8.975999999999999,0.999994324418686,42.71578743683125
8.984,0.999994336932695,42.55748139657135
8.992,0.9999943485009599,42.399111572648415
9.0,0.999994359106694,42.2406781104435
9.008,0.9999943687332946,42.082181156063065
9.016,0.9999943773643465,41.923620856338815
9.024000000000001,0.9999943849836262,41.76499735882731
9.032,0.9999943915751051,41.606310811809536
9.04,0.9999943971229523,41.44756136429041
9.048,0.9999944016115395,41.28874916599844
9.056000000000001,0.999994405025443,41.12987436738537
9.064,0.999994407349448,40.97093711962563
9.072,0.9999944085685519,40.81193757461576
9.08,0.9999944086679677,40.652875884974115
9.088000000000001,0.9999944076331271,40.493752204040305
9.096,0.9999944054496845,40.33456668587459
9.104,0.9999944021035198,40.175319485257425
9.112,0.999994397580742,40.0160107576888
9.120000000000001,0.9999943918676923,39.85664065938785
9.128,0.9999943849509486,39.697209347292166
9.136,0.9999943768173262,39.537716979057095
9.144,0.9999943674538847,39.37816371305524
9.152000000000001,0.9999943568479281,39.2185497083758
9.16,0.9999943449870098,39.058875124824
9.168,0.9999943318589353,38.89914012292021
9.176,0.9999943174517651,38.73934486389937
9.184000000000001,0.999994301753819,38.57948950971035
9.192,0.9999942847536782,38.419574223015225
9.2,0.9999942664401891,38.25959916718833
9.208,0.9999942468024662,38.09956450631574
9.216000000000001,0.9999942258298951,37.93947040519443
9.224,0.999994203512136,37.779317029331466
9.232,0.9999941798391262,37.61910454494318
9.24,0.9999941548010844,37.45883311895432
9.248000000000001,0.9999941283885124,37.29850291899737
9.256,0.9999941005921991,37.13811411341159
9.264,0.9999940714032224,36.977666871242015
9.272,0.9999940408129536,36.81716136223875
9.280000000000001,0.9999940088130594,36.65659775685604
9.288,0.9999939753955053,36.49597622625133
9.296,0.9999939405525584,36.33529694228419
9.304,0.9999939042767898,36.174560077515515
9.312000000000001,0.9999938665610789,36.01376580520657
9.32,0.9999938273986146,35.852914299317895
9.328,0.9999937867828994,35.69200573450831
9.336,0.9999937447077514,35.531040286133866
9.344,0.9999937011673073,35.370018130247026
9.352,0.9999936561560261,35.20893944359521
9.36,0.9999936096686899,35.04780440362012
9.368,0.9999935617004088,34.886613188456316
9.376,0.9999935122466215,34.7253659769304
9.384,0.9999934613031004,34.56406294855958
9.392,0.9999934088659516,34.40270428355084
9.4,0.9999933549316192,34.241290162799494
9.408,0.9999932994968879,34.07982076788827
9.416,0.9999932425588848,33.91829628108584
9.424,0.9999931841150819,33.75671688534588
9.432,0.9999931241632998,33.59508276430558
9.44,0.9999930627017085,33.43339410228468
9.448,0.9999929997288316,33.271651084283874
9.456,0.9999929352435468,33.10985389598391
9.464,0.9999928692450901,32.948002723743905
9.472,0.9999928017330575,32.78609775460036
9.48,0.9999927327074063,32.62413917626555
9.488,0.9999926621684587,32.46212717712647
9.496,0.999992590116904,32.30006194624316
9.504,0.9999925165538002,32.13794367334759
9.512,0.9999924414805762,31.975772548842038
9.52,0.999992364899035,31.813548763797918
9.528,0.999992286811354,31.65127250995405
9.536,0.9999922072200892,31.488943979715547
9.544,0.9999921261281752,31.326563366151976
9.552,0.9999920435389291,31.16413086299626
9.56,0.9999919594560511,31.00164666464284
9.568,0.9999918738836272,30.839110966146453
9.576,0.9999917868261309,30.67652396322029
9.584,0.9999916982884246,30.51388585223479
9.592,0.9999916082757624,30.351196830215702
9.6,0.9999915167937913,30.188457094842867
9.608,0.9999914238485529,30.025666844448327
9.616,0.9999913294464848,29.86282627801492
9.624,0.9999912335944239,29.699935595174455
9.632,0.9999911362996059,29.53699499620625
9.64,0.9999910375696679,29.374004682035274
9.648,0.9999909374126501,29.21096485423072
9.656,0.9999908358369971,29.04787571500399
9.664,0.9999907328515595,28.884737467207277
9.672,0.9999906284655946,28.721550314331576
9.68,0.9999905226887689,28.5583144605052
9.688,0.9999904155311585,28.395030110491724
9.696,0.9999903070032511,28.231697469688502
9.704,0.9999901971159462,28.068316744124584
9.712,0.9999900858805577,27.904888140459175
9.72,0.9999899733088135,27.741411865979554
9.728,0.9999898594128577,27.57788812859946
9.736,0.9999897442052511,27.414317136857
9.744,0.9999896276989726,27.250699099913046
9.752,0.9999895099074195,27.087034227548976
9.76,0.9999893908444092,26.92332273016521
9.768,0.9999892705241782,26.759564818778838
9.776,0.9999891489613857,26.59576070502206
9.784,0.9999890261711121,26.43191060113992
9.792,0.9999889021688599,26.2680147199886
9.8,0.9999887769705557,26.104073275033162
9.808,0.9999886505925483,25.940086480345848
9.816,0.9999885230516116,25.776054550603753
9.824,0.9999883943649439,25.611977701087046
9.832,0.9999882645501676,25.447856147676692
9.84,0.9999881336253307,25.28369010685265
9.847999999999999,0.9999880016089064,25.119479795691518
