freq,mag,phase
6.0,0.9999844349424669,155.68110487958623
6.041451008,0.9999788230403807,153.05175328389282
6.082901504,0.9999728726815622,150.4272495703326
6.124352512,0.9999672044118392,147.80756383779408
6.165803008,0.9999619738485626,145.1926534886494
6.207254016,0.9999570376683667,142.5824313818954
6.248704512,0.9999526803904814,139.9768988250054
6.29015552,0.999948768855934,137.37598753711123
6.331606016,0.999945545310168,134.77969399717017
6.373057024,0.9999427787629588,132.1878598200761
6.41450752,0.9999405820938315,129.60052510825255
6.455958528,0.9999392095034285,127.01754883716463
6.497409536,0.9999382943232497,124.43889442622381
6.538860032,0.9999381165508764,121.86448711460321
6.58031104,0.9999385674473416,119.29425409763951
6.621761536,0.9999397563643064,116.72810870203247
6.663212544,0.9999415080727878,114.16594404916711
6.70466304,0.9999439751321179,111.60768049449125
6.746114048,0.9999469508424096,109.05323777928676
6.787564544,0.9999505791255748,106.50252260173168
6.829015552,0.9999547216334774,103.95541767073259
6.87046656,0.9999594006596554,101.41185615361721
6.911917056,0.9999644210393538,98.871706989079
6.953368064,0.9999699626610263,96.33487753100502
6.99481856,0.9999758349339513,93.80124826635574
7.036269568,0.9999820061988101,91.2707528960969
7.077720064,0.9999883747376368,88.743211017265
7.119171072,0.9999950252519412,86.218571490012
7.160621568,1.0000016096488604,83.69668682160096
7.202072576,1.0000083093101393,81.17746524976909
7.243523072,1.0000149674040772,78.66076282667913
7.28497408,1.0000215633900604,76.14648684184101
7.326425088,1.0000279865224062,73.63449237190017
7.367875584,1.000034156882081,71.1246899765585
7.409326592,1.0000400683636732,68.61692389888601
7.450777088,1.0000455994513535,66.1111243420579
7.492228096,1.0000506432029743,63.607091942304066
7.533678592,1.0000552505962856,61.10477007745864
7.5751296,1.0000593347345232,58.603999848723184
7.616580096,1.0000629289858995,56.104673738805715
7.658031104,1.0000658722675078,53.606654955892054
7.699482112,1.0000682244215673,51.109804701027386
7.740932608,1.0000698625765676,48.61403888996345
7.782383616,1.000070780996299,46.11919866605952
7.823834112,1.0000711145732,43.62517282826309
7.86528512,1.0000706507108466,41.13180738163488
7.906735616,1.0000695515286353,38.63899205571585
7.948186624,1.0000676940528188,36.14659806897119
7.98963712,1.0000651351595085,33.654515663149205
8.031088128,1.0000619315101396,31.162574341851865
8.072538624,1.000058164653766,28.670700195157643
8.113989632,1.000053788732373,26.178722999387624
8.15544064,1.0000488212188368,23.686522801587692
8.196891136,1.0000433377640525,21.193971261769224
8.238342144,1.0000373668560478,18.700961203351408
8.27979264,1.0000311398414021,16.207346146796315
8.321243648,1.000024471107029,13.712990210340923
8.362694144,1.0000175230903978,11.217812743728533
8.404145152,1.0000104309389841,8.72163490882892
8.445595648,1.0000031669486764,6.224341339023541
8.487046656,0.9999959523671078,3.7258469700509607
8.528497664,0.9999886369169869,1.225954501052093
8.56994816,0.9999815459790761,-1.2754074618975533
8.611398656,0.9999746324029695,-3.778351787685955
8.652850176,0.9999679347613256,-6.283044422764014
8.694300672,0.9999615147083443,-8.789589601303962
8.735751168,0.9999555370155735,-11.298090174003331
8.777201664,0.999950101656403,-13.808696624816942
8.818653184,0.9999450815592891,-16.32150438976087
8.86010368,0.9999407483325535,-18.836645194179287
8.901554176,0.9999369149622355,-21.354229922408265
8.943004672,0.9999339361205836,-23.874341092442066
8.984456192,0.9999316311633482,-26.397136762212398
9.025906688,0.9999299660565034,-28.922710836788127
9.067357184,0.9999291297415145,-31.451160330500493
9.108808704,0.9999291605025419,-33.982602347942674
9.1502592,0.9999297846004883,-36.517125527406485
9.191709696,0.9999313755256599,-39.054855881365114
9.233160192,0.9999336239911839,-41.59587083270572
9.274611712,0.9999367162853314,-44.14026050193599
9.316062208,0.9999405614439891,-46.68813418774455
9.357512704,0.9999450130022285,-49.23958143074499
9.398964224,0.9999501515572949,-51.79466754029569
9.44041472,0.9999559469754957,-54.353512865716496
9.481865216,0.9999622907561787,-56.916126654503195
9.523315712,0.9999691168957975,-59.482656560836894
9.564767232,0.9999762829113097,-62.05314190532723
9.606217728,0.9999838626259496,-64.62763587186728
9.647668224,0.999991654128833,-67.20622148060033
9.68911872,0.9999995955454376,-69.78893776493071
9.73057024,1.0000076585822157,-72.37585520757433
9.772020736,1.0000157955540157,-74.96703275910676
9.813471232,1.0000237852788594,-77.56248390655571
9.854922752,1.000031551752251,-80.16225666771635
9.896373248,1.0000391771260764,-82.76640765450594
9.937823744,1.0000465093802222,-85.3749313170287
9.97927424,1.0000532877867117,-87.98787892128821
10.02072576,1.0000596147045333,-90.60526259092042
10.062176256,1.0000653961841932,-93.22709712458713
10.103626752,1.0000706350549142,-95.85336701382607
10.145077248,1.0000750778429026,-98.48410260427106
10.186528768,1.0000787755203857,-101.11929748476672
10.227979264,1.0000816654397437,-103.7589271953773
10.26942976,1.0000837465214312,-106.40300682498645
10.31088128,1.0000850840486506,-109.05149632191439
10.352331776,1.0000854298111461,-111.70437303424046
10.393782272,1.0000849481376874,-114.36160311093296
10.435232768,1.000083562482638,-117.02317330459933
10.476684288,1.0000813058628861,-119.68901489851635
10.518134784,1.000078143777735,-122.35910642786152
10.55958528,1.0000742665742361,-125.03338836493435
10.601035776,1.0000695755132412,-127.71179605105574
10.642487296,1.000064061764052,-130.39427323072687
10.683937792,1.000057846581656,-133.08074911811266
10.725388288,1.0000511582505605,-135.77117395628485
10.766839808,1.000043817267891,-138.46542796957397
10.808290304,1.0000359660184048,-141.16345263933783
10.8497408,1.0000277728890516,-143.86517867427403
10.891191296,1.000019175758062,-146.57049103534803
10.932642816,1.0000104860134496,-149.27929987667653
10.974093312,1.000001581031799,-151.9915127527889
11.015543808,0.9999926644174899,-154.70700161996214
11.056995328,0.999983711325852,-157.425670568066
11.098445824,0.9999750824405096,-160.14741282111854
11.13989632,0.9999665872259033,-162.87209939473234
11.181346816,0.9999584399011828,-165.59960791333626
11.222798336,0.9999507636710178,-168.32983501260347
11.264248832,0.9999435124952897,-171.06262094526835
11.305699328,0.9999369234472941,-173.79783733444174
11.347149824,0.9999309485043598,-176.53538004783184
11.388601344,0.9999257803373276,-179.27505931490617
11.43005184,0.9999213462449938,177.98323915378012
11.471502336,0.9999177808714586,175.239657936197
11.512953856,0.9999150774935602,172.49437589755337
11.554404352,0.9999133387181364,169.74749349510253
11.595854848,0.9999124760786113,166.99920644316444
11.637305344,0.999912588921618,164.24966106041109
11.678756864,0.9999137370634588,161.49900612146678
11.72020736,0.9999158277726766,158.74740705249522
11.761657856,0.9999187389817863,155.99502944172391
11.803108352,0.9999226360626089,153.2420293189603
11.844559872,0.9999274159111636,150.48858138455188
11.886010368,0.9999329430580616,147.7348415390782
11.927460864,0.9999392924110316,144.98097143668215
11.968912384,0.9999463178978931,142.22716932183744
12.01036288,0.9999540544571227,139.47356123822388
12.051813376,0.999962266240144,136.72035108659205
12.093263872,0.9999709806890941,133.96768506998367
12.134715392,0.9999800874273358,131.2157234173249
12.176165888,0.9999893856044162,128.46465477714395
12.217616384,0.9999989417878311,125.714641913398
12.25906688,1.000008577131877,122.96584211013338
12.3005184,1.0000182245855405,120.21842241849805
12.341968896,1.0000276737755356,117.47254282062552
12.383419392,1.0000369814322856,114.72836423911306
12.424870912,1.0000459445865304,111.98605272113815
12.466321408,1.0000544378772227,109.24575974398904
12.507771904,1.0000625030469588,106.50764817501577
12.5492224,1.0000699075300885,103.77186342621057
12.59067392,1.0000767382052964,101.0385378615081
12.632124416,1.0000826907608167,98.30784261054565
12.673574912,1.0000879209451596,95.57991572156456
12.715025408,1.0000922875618465,92.85488140811623
12.756476928,1.0000956730626849,90.13288571795651
12.797927424,1.000098189064601,87.41406422553469
12.83937792,1.000099606298206,84.69851003563834
12.88082944,1.000100073255936,81.98639649735178
12.922279936,1.000099541697386,79.27782139832547
12.963730432,1.0000980168020908,76.57287499963414
13.005180928,1.000095393466627,73.87168962524143
13.046632448,1.000091940046531,71.17433900253705
13.088082944,1.0000874525162078,68.48096698191242
13.12953344,1.0000821184099147,65.79163056609298
13.17098496,1.0000759911282937,63.10641810905767
13.212435456,1.0000689312059854,60.42541150391133
13.253885952,1.0000613409602284,57.748696397992
13.295336448,1.0000529493346035,55.07634296606037
13.336787968,1.0000441424150195,52.40840045606977
13.378238464,1.000034874454159,49.74492863485878
13.41968896,1.000025281959915,47.08597922815966
13.461139456,1.0000153908130311,44.43159037017083
13.502590976,1.000005318454868,41.78183543952078
13.544041472,0.9999952044730305,39.1367087792336
13.585491968,0.9999851421487517,36.49626102317281
13.626943488,0.9999752863609612,33.86049277812646
13.668393984,0.9999657063711416,31.229422850280745
13.70984448,0.9999564679718038,28.603101880760615
13.751294976,0.9999476589029876,25.981464067194384
13.792746496,0.99993938646438,23.364590066644105
13.834196992,0.9999318551603862,20.75239326117956
13.875647488,0.9999250184048192,18.144897772790234
13.917097984,0.9999189827848742,15.542086470206964
13.958549504,0.9999137983617008,12.943945991734008
14.0,0.999909452713476,10.350423545296445
