freq,mag,phase
6.0,0.9999948290501152,-139.2336328798045
6.008,0.9999957563895484,-139.64295872791394
6.016,0.9999966525820841,-140.05198167492694
6.024,0.9999975181885065,-140.4607033611935
6.032,0.9999983537637492,-140.86912544230358
6.04,0.999999159856911,-141.27724958889482
6.048,0.9999999370112717,-141.68507748646203
6.056,1.0,-142.09261083516787
6.064,0.9999999999999999,-142.4998513496542
6.072,0.9999999999999999,-142.90680075885538
6.08,0.9999999999999999,-143.3134608058122
6.088,0.9999999999999999,-143.71983324748766
6.096,1.0,-144.1259198545833
6.104,1.0,-144.53172241135735
6.112,0.9999999999999999,-144.93724271544392
6.12,1.0,-145.3424825776735
6.128,1.0,-145.74744382189465
6.136,1.0,-146.15212828479704
6.144,1.0,-146.556537815736
6.152,0.9999999999999999,-146.96067427655763
6.16,1.0,-147.36453954142624
6.168,0.9999999999999999,-147.76813549665223
6.176,0.9999999999999999,-148.1714640405217
6.184,1.0000000000000002,-148.57452708312715
6.192,1.0,-148.97732654619955
6.2,0.9999999999999999,-149.3798643629419
6.208,1.0,-149.78214247786372
6.216,0.9999999999999999,-150.1841628466171
6.224,1.0,-150.58592743583415
6.232,1.0,-150.9874382229654
6.24,0.9999999999999999,-151.38869719611967
6.248,1.0,-151.78970635390544
6.256,0.9999999999999999,-152.19046770527333
6.264,1.0,-152.59098326935978
6.272,1.0,-152.99125507533225
6.28,1.0,-153.39128516223556
6.288,0.9999999999999999,-153.79107557883964
6.296,1.0,-154.1906283834884
6.304,0.9999999999999999,-154.58994564394996
6.312,1.0,-154.9890294372687
6.32,1.0,-155.38788184961714
6.328,1.0,-155.7865049761508
6.336,1.0,-156.18490092086353
6.344,1.0,-156.58307179644362
6.352,1.0,-156.98101972413232
6.36,1.0,-157.37874683358245
6.368,1.0,-157.77625526271936
6.376,0.9999999999999998,-158.17354715760223
6.384,0.9999999999999999,-158.5706246722869
6.392,1.0,-158.9674899686903
6.4,1.0,-159.36414521645563
6.408,1.0,-159.76059259281885
6.416,1.0,-160.1568342824769
6.424,0.9999999999999999,-160.55287247745605
6.432,1.0,-160.9487093769827
6.44,1.0,-161.34434718735451
6.448,1.0,-161.73978812181306
6.456,1.0,-162.1350344004176
6.464,0.9999999999999999,-162.53008824991986
6.472,0.9999999999999998,-162.9249519036405
6.48,1.0,-163.319627601346
6.4879999999999995,0.9999999999999999,-163.71411758912737
6.496,1.0,-164.10842411927956
6.504,1.0,-164.50254945018187
6.5120000000000005,1.0,-164.89649584618047
6.52,1.0,-165.29026557747048
6.5280000000000005,1.0,-165.68386091998062
6.536,1.0,-166.07728415525787
6.5440000000000005,1.0,-166.47053757035417
6.552,1.0,-166.863623457713
6.5600000000000005,1.0,-167.25654411505846
6.568,0.9999999999999999,-167.64930184528396
6.5760000000000005,1.0,-168.04189895634335
6.584,1.0,-168.4343377611418
6.592,1.0,-168.82662057742857
6.6,0.9999999999999999,-169.21874972769066
6.608,0.9999999999999999,-169.61072753904693
6.616,1.0,-170.00255634314397
6.624,0.9999999999999999,-170.39423847605244
6.632,1.0,-170.78577627816463
6.64,0.9999999999999999,-171.17717209409267
6.648,1.0,-171.56842827256827
6.656,0.9999999999999999,-171.9595471663427
6.664,1.0,-172.35053113208826
6.672,1.0,-172.74138253030034
6.68,0.9999999999999999,-173.1321037252006
6.688,0.9999999999999998,-173.5226970846408
6.696,1.0,-173.9131649800079
6.704,0.9999999999999999,-174.3035097861295
6.712,1.0,-174.69373388118063
6.72,1.0,-175.08383964659114
6.728,0.9999999999999999,-175.47382946695407
6.736,1.0,-175.8637057299346
6.744,1.0,-176.2534708261801
6.752,1.0000000000000002,-176.64312714923076
6.76,1.0,-177.03267709543135
6.768,0.9999999999999999,-177.42212306384323
6.776,1.0,-177.8114674561576
6.784,1.0,-178.20071267660933
6.792,1.0,-178.58986113189135
6.8,0.9999999999999999,-178.9789152310703
6.808,0.9999999999999999,-179.36787738550223
6.816,0.9999999999999999,-179.7567500087495
6.824,1.0,179.85446448350183
6.832,1.0,179.46576367352378
6.84,1.0,179.07714514162782
6.848,0.9999999999999999,178.68860646624537
6.856,0.9999999999999999,178.3001452240076
6.864,1.0,177.91175898982482
6.872,1.0,177.52344533696504
6.88,1.0,177.13520183713206
6.888,1.0,176.7470260605428
6.896,0.9999997994744141,176.3589155760043
6.904,0.9999995481749194,175.97086795098988
6.912,0.9999992982843596,175.5828807517148
6.92,0.9999990498863021,175.1949515432116
6.928,0.9999988030618888,174.80707788940452
6.936,0.9999985578898658,174.41925735318367
6.944,0.999998314446613,174.03148749647866
6.952,0.9999980728061737,173.64376588033167
6.96,0.9999978330402829,173.25609006496995
6.968,0.9999975952183975,172.86845760987796
6.976,0.999997359407725,172.48086607386918
6.984,0.999997125673251,172.09331301515707
6.992,0.9999968940777706,171.705795991426
7.0,0.9999966646819121,171.31831255990147
7.008,0.9999964375441706,170.93086027742015
7.016,0.999996212720931,170.54343670049937
7.024,0.9999959902665001,170.15603938540607
7.032,0.9999957702331321,169.7686658882258
7.04,0.9999955526710549,169.3813137649309
7.048,0.9999953376285,168.99398057144873
7.056,0.999995125151729,168.60666386372915
7.064,0.9999949152850587,168.21936119781193
7.072,0.9999947080708903,167.832070129894
7.08,0.9999945035497345,167.4447882163958
7.088,0.9999943017602381,167.05751301402813
7.096,0.9999941027392111,166.670242079858
7.104,0.9999939065216518,166.2829729713747
7.112,0.9999937131407726,165.8957032465554
7.12,0.9999935226280272,165.50843046393047
7.128,0.9999933350131346,165.12115218264876
7.136,0.9999931503241044,164.73386596254244
7.144,0.9999929685872633,164.3465693641918
7.152,0.9999927898272786,163.95925994898977
7.16,0.9999926140671841,163.57193527920623
7.168,0.9999924413284045,163.18459291805226
7.176,0.9999922716307794,162.79723042974416
7.184,0.9999921049925877,162.4098453795672
7.192,0.999991941430573,162.02243533393946
7.2,0.999991780959965,161.6349978604754
7.208,0.9999916235945057,161.2475305280495
7.216,0.9999914693464704,160.86003090685938
7.224,0.9999913182266956,160.4724965684893
7.232,0.999991170244596,160.08492508597334
7.24,0.9999910254081934,159.69731403385853
7.248,0.999990883724135,159.30966098826798
7.256,0.9999907451977199,158.92196352696394
7.264,0.9999906098329181,158.53421922941078
7.272,0.9999904776323963,158.14642567683813
7.28,0.9999903485975374,157.75858045230362
7.288,0.999990222728463,157.37068114075615
7.296,0.9999901000240573,156.98272532909877
7.304,0.9999899804819857,156.59471060625174
7.312,0.9999898640987186,156.20663456321552
7.32,0.9999897508695524,155.81849479313408
7.328,0.9999896407886292,155.43028889135786
7.336,0.9999895338489586,155.04201445550717
7.344,0.9999894300424403,154.65366908553534
7.352,0.9999893293598823,154.26525038379248
7.36,0.9999892317910217,153.87675595508858
7.368,0.9999891373245468,153.48818340675737
7.376,0.9999890459481154,153.09953034872018
7.384,0.9999889576483758,152.71079439354952
7.392,0.9999888724109867,152.32197315653337
7.4,0.9999887902206355,151.93306425573928
7.4079999999999995,0.9999887110610601,151.54406531207883
7.416,0.999988634915067,151.15497394937182
7.4239999999999995,0.9999885617645489,150.76578779441158
7.432,0.9999884915905078,150.37650447702933
7.4399999999999995,0.9999884243730699,149.98712163015972
7.448,0.9999883600915065,149.5976368899058
7.4559999999999995,0.9999882987242519,149.20804789560515
7.464,0.9999882402489222,148.8183522898949
7.4719999999999995,0.9999881846423329,148.42854771877865
7.48,0.9999881318805179,148.03863183169216
7.4879999999999995,0.9999880819387466,147.64860228157045
7.496,0.9999880347915422,147.25845672491408
7.504,0.9999879904126994,146.86819282185712
7.5120000000000005,0.9999879487753018,146.4778082362336
7.52,0.9999879098517398,146.0873006356465
7.5280000000000005,0.9999878736137257,145.69666769153457
7.536,0.9999878400323142,145.30590707924193
7.5440000000000005,0.9999878090779163,144.91501647808585
7.552,0.9999877807203181,144.52399357142667
7.5600000000000005,0.9999877549286957,144.1328360467366
7.568,0.9999877316716329,143.74154159567016
7.5760000000000005,0.9999877109171381,143.35010791413376
7.584,0.9999876926326587,142.95853270235693
7.5920000000000005,0.9999876767850976,142.56681366496275
7.6,0.9999876633408318,142.1749485110398
7.6080000000000005,0.999987652265724,141.7829349542133
7.616,0.9999876435251414,141.39077071271802
7.6240000000000006,0.9999876370839693,140.99845350947038
7.632,0.9999876329066284,140.60598107214207
7.640000000000001,0.9999876309570879,140.21335113323286
7.648,0.9999876311988826,139.82056143014555
7.656000000000001,0.9999876335951255,139.4276097052594
7.664,0.9999876381085264,139.03449370600606
7.672,0.9999876447014022,138.64121118494404
7.68,0.9999876533356948,138.24775989983533
7.688,0.9999876639729836,137.8541376137215
7.696,0.9999876765745012,137.46034209500044
7.704,0.9999876911011462,137.0663711175042
7.712,0.9999877075134994,136.6722224605765
7.72,0.9999877257718346,136.27789390915137
7.728,0.9999877458361354,135.88338325383214
7.736,0.9999877676661073,135.48868829097094
7.744,0.9999877912211927,135.09380682274877
7.752,0.9999878164605815,134.69873665725623
7.76,0.9999878433432271,134.3034756085746
7.768,0.9999878718278586,133.90802149685751
7.776,0.9999879018729948,133.51237214841373
7.784,0.9999879334369545,133.1165253957895
7.792,0.9999879664778736,132.72047907785256
7.8,0.9999880009537133,132.32423103987585
7.808,0.9999880368222759,131.92777913362264
7.816,0.9999880740412161,131.5311212174315
7.824,0.9999881125680534,131.13425515630234
7.832,0.9999881523601839,130.73717882198324
7.84,0.9999881933748938,130.3398900930571
7.848,0.9999882355693699,129.94238685503
7.856,0.9999882789007125,129.54466700041942
7.864,0.9999883233259468,129.14672842884312
7.872,0.9999883688020348,128.74856904710933
7.88,0.9999884152858864,128.35018676930684
7.888,0.9999884627343714,127.95157951689613
7.896,0.9999885111043303,127.55274521880114
7.904,0.9999885603525869,127.15368181150156
7.912,0.9999886104359562,126.75438723912596
7.92,0.9999886613112601,126.35485945354553
7.928,0.9999887129353344,125.95509641446833
7.936,0.9999887652650415,125.55509608953473
7.944,0.9999888182572799,125.15485645441274
7.952,0.9999888718689962,124.75437549289484
7.96,0.999988926057195,124.35365119699495
7.968,0.9999889807789482,123.9526815670464
7.976,0.9999890359914072,123.5514646118004
7.984,0.9999890916518116,123.14999834852533
7.992,0.9999891477174999,122.7482808031068
8.0,0.9999892041459189,122.34631001014809
8.008,0.9999892608946344,121.94408401307192
8.016,0.9999893179213406,121.54160086422199
8.024000000000001,0.9999893751838685,121.13885862496639
8.032,0.9999894326401987,120.73585536580086
8.04,0.9999894902484662,120.3325891664528
8.048,0.9999895479669744,119.92905811598655
8.056000000000001,0.9999896057542013,119.52526031290898
8.064,0.9999896635688085,119.12119386527608
8.072,0.9999897213696536,118.7168568907995
8.08,0.9999897791157947,118.31224751695488
8.088000000000001,0.9999898367665025,117.90736388109049
8.096,0.9999898942812677,117.50220413053626
8.104,0.9999899516198093,117.09676642271361
8.112,0.9999900087420841,116.6910489252465
8.120000000000001,0.999990065608295,116.28504981607291
8.128,0.9999901221788982,115.87876728355678
8.136,0.9999901784146132,115.47219952660086
8.144,0.9999902342764293,115.06534475476032
8.152000000000001,0.9999902897256145,114.65820118835737
8.16,0.999990344723724,114.25076705859591
8.168,0.9999903992326066,113.8430406076773
8.176,0.9999904532144133,113.43502008891677
8.184000000000001,0.9999905066316053,113.02670376686083
8.192,0.9999905594469607,112.6180899174049
8.2,0.9999906116235827,112.20917682791162
8.208,0.999990663124907,111.79996279733027
8.216000000000001,0.9999907139147076,111.39044613631694
8.224,0.9999907639571062,110.98062516735476
8.232,0.9999908132165776,110.57049822487521
8.24,0.9999908616579575,110.16006365538003
8.248000000000001,0.9999909092464491,109.74931981756424
8.256,0.9999909559476295,109.33826508243904
8.264,0.9999910017274575,108.9268978334557
8.272,0.9999910465522789,108.51521646663033
8.280000000000001,0.9999910903888343,108.10321939066924
8.288,0.9999911332042631,107.69090502709469
8.296,0.9999911749661137,107.2782718103712
8.304,0.9999912156423457,106.86531818803296
8.312,0.9999912552013389,106.45204262081171
8.32,0.9999912936118973,106.03844358276461
8.328,0.9999913308432565,105.62451956140397
8.336,0.999991366865088,105.21026905782588
8.344,0.9999914016475068,104.79569058684136
8.352,0.9999914351610758,104.38078267710617
8.36,0.9999914673768109,103.96554387125298
8.368,0.9999914982661878,103.54997272602236
8.376,0.999991527801146,103.13406781239607
8.384,0.9999915559540942,102.7178277157291
8.392,0.9999915826979167,102.30125103588396
8.4,0.9999916080059776,101.884336387364
8.408,0.9999916318521247,101.4670823994484
8.416,0.9999916542106957,101.04948771632667
8.424,0.9999916750565221,100.63155099723465
8.432,0.9999916943649353,100.21327091658974
8.44,0.9999917121117685,99.79464616412804
8.448,0.9999917282733638,99.37567544504039
8.456,0.9999917428265749,98.9563574801103
8.464,0.9999917557487719,98.53669100585094
8.472,0.999991767017845,98.11667477464385
8.48,0.9999917766122086,97.69630755487667
8.488,0.9999917845108068,97.27558813108254
8.496,0.9999917906931143,96.8545153040787
8.504,0.9999917951391418,96.43308789110655
8.512,0.9999917978294403,96.0113047259707
8.52,0.9999917987451027,95.58916465917991
8.528,0.9999917978677691,95.1666665580866
8.536,0.9999917951796289,94.74380930702831
8.544,0.9999917906634239,94.32059180746779
8.552,0.9999917843024523,93.89701297813492
8.56,0.9999917760805712,93.47307175516724
8.568,0.9999917659821983,93.04876709225225
8.576,0.9999917539923179,92.62409796076835
8.584,0.9999917400964791,92.19906334992736
8.592,0.9999917242808027,91.7736622669159
8.6,0.9999917065319802,91.3478937370381
8.608,0.9999916868372781,90.92175680385705
8.616,0.9999916651845396,90.4952505293378
8.624,0.9999916415621869,90.06837399398893
8.632,0.9999916159592224,89.6411262970056
8.64,0.9999915883652318,89.21350655641103
8.648,0.9999915587703848,88.78551390919972
8.656,0.9999915271654377,88.35714751147879
8.664,0.9999914935417341,87.92840653861087
8.672,0.9999914578912074,87.49929018535568
8.68,0.9999914202063802,87.06979766601242
8.688,0.9999913804803686,86.63992821456107
8.696,0.9999913387068802,86.2096810848047
8.704,0.999991294880217,85.77905555051014
8.712,0.9999912489952756,85.34805090554998
8.72,0.9999912010475481,84.91666646404283
8.728,0.9999911510331227,84.48490156049472
8.736,0.9999910989486848,84.05275554993875
8.744,0.9999910447915161,83.62022780807591
8.752,0.9999909885594962,83.18731773141403
8.76,0.9999909302511027,82.75402473740782
8.768,0.9999908698654103,82.32034826459703
8.776,0.9999908074020912,81.88628777274565
8.784,0.9999907428614164,81.45184274297901
8.792,0.9999906762442523,81.01701267792217
8.8,0.9999906075520638,80.5817971018359
8.808,0.9999905367869112,80.14619556075387
8.815999999999999,0.9999904639514509,79.7102076226177
8.824,0.9999903890489341,79.27383287741233
8.832,0.9999903120832061,78.83707093730067
8.84,0.9999902330587054,78.3999214367571
8.847999999999999,0.9999901519804623,77.96238403270033
8.856,0.9999900688540984,77.52445840462576
8.864,0.9999899836858238,77.08614425473722
8.872,0.9999898964824375,76.64744130807723
8.879999999999999,0.9999898072513245,76.2083493126567
8.888,0.9999897160004539,75.76886803958378
8.896,0.9999896227383787,75.32899728319212
8.904,0.9999895274742318,74.8887368611675
8.911999999999999,0.9999894302177254,74.44808661467353
8.92,0.999989330979148,74.00704640847682
8.928,0.9999892297693623,73.56561613107084
8.936,0.9999891265998033,73.12379569479852
8.943999999999999,0.999989021482475,72.68158503597347
8.952,0.9999889144299474,72.23898411500053
8.96,0.999988805455355,71.79599291649515
8.968,0.9999886945723927,71.35261144940094
8.975999999999999,0.9999885817953126,70.908839747106
8.984,0.9999884671389232,70.46467786755844
8.992,0.9999883506185818,70.02012589338021
9.0,0.9999882322501956,69.57518393197947
9.008,0.9999881120502148,69.12985211566121
9.016,0.9999879900356302,68.68413060173695
9.024000000000001,0.9999878662239704,68.2380195726329
9.032,0.9999877406332962,67.79151923599596
9.04,0.999987613282197,67.34462982479842
9.048,0.9999874841897873,66.89735159744112
9.056000000000001,0.9999873533757021,66.44968483785502
9.064,0.999987220860092,66.00162985560081
9.072,0.9999870866636191,65.55318698596635
9.08,0.9999869508074528,65.10435659006318
9.088000000000001,0.9999868133132639,64.65513905492077
9.096,0.9999866742032212,64.20553479357868
9.104,0.9999865334999845,63.755544245176814
9.112,0.9999863912267015,63.30516787504399
9.120000000000001,0.9999862474070016,62.85440617478454
9.128,0.9999861020649906,62.40325966236248
9.136,0.9999859552252448,61.95172888218353
9.144,0.9999858069128068,61.49981440517551
9.152000000000001,0.9999856571531776,61.047516828866385
9.16,0.9999855059723128,60.59483677745988
9.168,0.9999853533966159,60.14177490190871
9.176,0.999985199452932,59.688331879985974
9.184000000000001,0.9999850441685414,59.23450841635413
9.192,0.9999848875711548,58.78030524263134
9.2,0.9999847296889053,58.325723117455254
9.208,0.9999845705503421,57.87076282654479
9.216000000000001,0.9999844101844243,57.41542518275947
9.224,0.9999842486205149,56.95971102615564
9.232,0.9999840858883718,56.5036212240404
9.24,0.9999839220181442,56.047156671023004
9.248000000000001,0.9999837570403615,55.59031828906379
9.256,0.9999835909859293,55.13310702752005
9.264,0.9999834238861213,54.675523863188936
9.272,0.9999832557725714,54.21756980034828
9.280000000000001,0.9999830866772658,53.759245870794345
9.288,0.9999829166325374,53.30055313387655
9.296,0.9999827456710566,52.84149267652908
9.304,0.9999825738258232,52.38206561330018
9.312000000000001,0.9999824011301602,51.92227308637831
9.32,0.9999822276177042,51.46211626561508
9.328,0.9999820533223988,51.00159634854485
9.336,0.9999818782784847,50.54071456040212
9.344,0.9999817025204935,50.079472154135374
9.352,0.9999815260832374,49.61787041041716
9.36,0.9999813490018028,49.155910637652454
9.368,0.9999811713115404,48.6935941719819
9.376,0.9999809930480568,48.23092237728384
9.384,0.999980814247207,47.76789664517112
9.392,0.9999806349450836,47.30451839498637
9.4,0.9999804551780102,46.84078907379217
9.408,0.9999802749825313,46.37671015635964
9.416,0.9999800943954031,45.91228314515183
9.424,0.9999799134535858,45.4475095703054
9.432,0.9999797321942334,44.982390989607076
9.44,0.9999795506546844,44.5169289884684
9.448,0.9999793688724531,44.051125179895145
9.456,0.9999791868852216,43.58498120445494
9.464,0.9999790047308266,43.11849873023957
9.472,0.9999788224472548,42.65167945282529
9.48,0.99997864007263,42.18452509522802
9.488,0.9999784576452055,41.717037407856225
9.496,0.9999782752033528,41.24921816845878
9.504,0.9999780927855534,40.781069182070446
9.512,0.9999779104303888,40.31259228095229
9.52,0.9999777281765307,39.843789324529595
9.528,0.9999775460627317,39.374662199324746
9.536,0.9999773641278141,38.90521281888763
9.544,0.9999771824106616,38.4354431237207
9.552,0.999977000950209,37.96535508120189
9.56,0.9999768197854323,37.494950685501884
9.568,0.9999766389553385,37.024231957499254
9.576,0.9999764584989559,36.55320094468991
9.584,0.9999762784553242,36.08185972109459
9.592,0.9999760988634847,35.61021038716028
9.6,0.9999759197624695,35.138255069659905
9.608,0.9999757411912924,34.66599592158583
9.616,0.9999755631889388,34.19343512204157
9.624,0.999975385794355,33.72057487612753
9.632,0.9999752090464384,33.24741741482447
9.64,0.9999750329840282,32.77396499487145
9.648,0.9999748576458944,32.300219898641224
9.656,0.9999746830707283,31.826184434010095
9.664,0.9999745092971324,31.351860934225424
9.672,0.9999743363636102,30.877251757767326
9.68,0.9999741643085562,30.402359288208114
9.688,0.999973993170246,29.927185934065996
9.696,0.9999738229868272,29.451734128656433
9.704,0.9999736537963075,28.97600632993774
9.712,0.9999734856365465,28.50000502035442
9.72,0.9999733185452448,28.02373270667472
9.728,0.9999731525599347,27.547191919825824
9.736,0.9999729877179706,27.070385214723427
9.744,0.9999728240565184,26.593315170098833
9.752,0.9999726616125457,26.115984388320598
