freq,mag,phase
6.0,0.9999991819476653,120.53544470579189
6.008,0.9999991265009662,120.4513169875689
6.016,0.9999990727121294,120.367170621231
6.024,0.9999990205729309,120.28300558204283
6.032,0.9999989700750422,120.19882184529189
6.04,0.9999989212100313,120.1146193862886
6.048,0.9999988739693617,120.03039818036626
6.056,0.9999988283443941,119.94615820288122
6.064,0.999998784326386,119.86189942921278
6.072,0.9999987419064935,119.77762183476345
6.08,0.9999987010757703,119.69332539495883
6.088,0.9999986618251683,119.60901008524779
6.096,0.9999986241455399,119.52467588110241
6.104,0.9999985880276359,119.44032275801811
6.112,0.9999985534621078,119.35595069151378
6.12,0.9999985204395074,119.27155965713162
6.128,0.9999984889502872,119.18714963043743
6.136,0.9999984589848012,119.10272058702054
6.144,0.9999984305333057,119.01827250249382
6.152,0.9999984035859585,118.93380535249389
6.16,0.9999983781328199,118.84931911268109
6.168,0.9999983541638541,118.76481375873948
6.176,0.9999983316689279,118.68028926637695
6.184,0.9999983106378122,118.59574561132536
6.192,0.9999982910601822,118.51118276934042
6.2,0.9999982729256172,118.42660071620192
6.208,0.9999982562236022,118.34199942771362
6.216,0.9999982409435267,118.25737887970345
6.224,0.9999982270746863,118.17273904802349
6.232,0.9999982146062828,118.08807990855004
6.24,0.9999982035274237,118.00340143718368
6.248,0.999998193827124,117.9187036098493
6.256,0.9999981854943046,117.83398640249621
6.264,0.9999981785177948,117.74924979109808
6.272,0.9999981728863312,117.66449375165315
6.28,0.9999981685885581,117.57971826018422
6.288,0.9999981656130279,117.49492329273863
6.296,0.999998163948202,117.4101088253884
6.304,0.9999981635824506,117.32527483423027
6.312,0.999998164504052,117.24042129538577
6.32,0.999998166701195,117.15554818500112
6.328,0.9999981701619773,117.07065547924762
6.336,0.9999981748744066,116.98574315432127
6.344,0.9999981808264005,116.9008111864432
6.352,0.9999981880057869,116.81585955185955
6.36,0.9999981964003039,116.73088822684144
6.368,0.9999982059976008,116.64589718768528
6.376,0.9999982167852373,116.5608864107125
6.384,0.9999982287506843,116.4758558722699
6.392,0.9999982418813237,116.39080554872952
6.4,0.9999982561644489,116.3057354164887
6.408,0.9999982715872647,116.22064545197026
6.416,0.999998288136888,116.13553563162236
6.424,0.9999983058003463,116.05040593191876
6.432,0.9999983245645804,115.96525632935865
6.44,0.9999983444164415,115.88008680046694
6.448,0.9999983653426943,115.79489732179404
6.456,0.9999983873300148,115.7096878699162
6.464,0.9999984103649916,115.62445842143528
6.472,0.9999984344341252,115.539208952979
6.48,0.9999984595238284,115.45393944120089
6.4879999999999995,0.9999984856204264,115.36864986278042
6.496,0.9999985127101568,115.28334019442289
6.504,0.9999985407791694,115.19801041285969
6.5120000000000005,0.9999985698135262,115.11266049484816
6.52,0.9999985997992018,115.02729041717173
6.5280000000000005,0.9999986307220827,114.9419001566399
6.536,0.9999986625679675,114.85648969008852
6.5440000000000005,0.9999986953225671,114.77105899437937
6.552,0.9999987289715042,114.6856080464007
6.5600000000000005,0.9999987635003137,114.60013682306696
6.568,0.999998798894442,114.51464530131894
6.5760000000000005,0.9999988351392469,114.42913345812381
6.584,0.9999988722199982,114.3436012704752
6.592,0.9999989101218765,114.25804871539316
6.6,0.9999989488299741,114.17247576992423
6.608,0.999998988329293,114.08688241114157
6.616,0.9999990286047474,114.00126861614484
6.624,0.9999990696411611,113.91563436206036
6.632,0.9999991114232681,113.8299796260411
6.64,0.9999991539357124,113.74430438526672
6.648,0.9999991971630473,113.6586086169436
6.656,0.9999992410897359,113.57289229830491
6.664,0.9999992857001497,113.48715540661064
6.672,0.9999993309785692,113.40139791914753
6.68,0.999999376909183,113.31561981322928
6.688,0.9999994234760866,113.22982106619644
6.696,0.9999994706632843,113.14400165541649
6.704,0.9999995184546868,113.05816155828389
6.712,0.9999995668341102,112.9723007522201
6.72,0.999999615785278,112.88641921467351
6.728,0.9999996652918185,112.80051692311966
6.736,0.9999997153372647,112.7145938550611
6.744,0.9999997659050545,112.62864998802748
6.752,0.9999998169785288,112.54268529957555
6.76,0.9999998685409321,112.45669976728922
6.768,0.9999999205754114,112.37069336877957
6.776,0.9999999730650153,112.28466608168479
6.784,1.0,112.19861788367034
6.792,1.0,112.11254875242882
6.8,1.0,112.02645866568012
6.808,0.9999999999999999,111.9403476011713
6.816,1.0000000000000002,111.85421553667672
6.824,0.9999999999999999,111.76806244999797
6.832,1.0,111.6818883189639
6.84,1.0,111.59569312143064
6.848,1.0,111.50947683528159
6.856,0.9999999999999999,111.42323943842746
6.864,0.9999999999999999,111.33698090880615
6.872,0.9999999999999999,111.25070122438296
6.88,1.0,111.16440036315036
6.888,0.9999999999999999,111.07807830312811
6.896,0.9999999999999999,110.99173502236324
6.904,1.0,110.90537049893005
6.912,0.9999999999999999,110.81898471093001
6.92,1.0,110.73257763649184
6.928,0.9999999999999999,110.64614925377144
6.936,1.0,110.55969954095194
6.944,0.9999999999999999,110.47322847624356
6.952,1.0,110.38673603788368
6.96,1.0,110.30022220413672
6.968,1.0,110.21368695329424
6.976,1.0,110.12713026367479
6.984,0.9999999999999999,110.04055211362385
6.992,1.0,109.95395248151394
7.0,1.0,109.8673313457444
7.008,0.9999999999999998,109.78068868474143
7.016,1.0,109.69402447695806
7.024,0.9999999999999999,109.60733870087395
7.032,0.9999999999999999,109.52063133499551
7.04,1.0,109.43390235785577
7.048,1.0,109.34715174801414
7.056,0.9999999999999999,109.26037948405667
7.064,1.0000000000000002,109.17358554459565
7.072,1.0,109.08676990826969
7.08,1.0,108.99993255374358
7.088,0.9999999999999999,108.91307345970822
7.096,1.0,108.82619260488049
7.104,0.9999999999999999,108.73928996800316
7.112,0.9999999999999999,108.65236552784474
7.12,1.0,108.56541926319943
7.128,1.0,108.47845115288692
7.136,0.9999999999999999,108.3914611757523
7.144,0.9999999999999999,108.3044493106659
7.152,1.0,108.21741553652316
7.16,1.0,108.13035983224442
7.168,1.0,108.04328217677487
7.176,0.9999999999999999,107.95618254908426
7.184,1.0,107.86906092816679
7.192,0.9999999999999999,107.78191729304089
7.2,0.9999999999999999,107.69475162274905
7.208,1.0,107.60756389635762
7.216,0.9999999999999998,107.52035409295651
7.224,1.0,107.4331221916591
7.232,0.9999999999999999,107.34586817160188
7.24,0.9999999999999999,107.25859201194429
7.248,1.0,107.17129369186846
7.256,1.0,107.08397319057882
7.264,1.0,106.99663048730199
7.272,1.0000000000000002,106.90926556128638
7.28,1.0,106.8218783918019
7.288,0.9999999999999999,106.73446895813967
7.296,0.9999999999999999,106.64703723961168
7.304,1.0,106.55958321555033
7.312,1.0000000000000002,106.47210686530832
7.32,0.9999999999999999,106.384608168258
7.328,0.9999999999999999,106.29708710379113
7.336,0.9999999999999999,106.20954365131846
7.344,1.0,106.12197779026917
7.352,1.0,106.03438950009068
7.36,0.9999999999999998,105.9467787602479
7.368,1.0,105.85914555022292
7.376,1.0,105.77148984951445
7.384,1.0,105.68381163763735
7.392,1.0000000000000002,105.59611089412196
7.4,0.9999999999999999,105.50838759851365
7.4079999999999995,0.9999999999999999,105.42064173037217
7.416,1.0,105.33287326927102
7.4239999999999995,1.0,105.24508219479686
7.432,0.9999999999999998,105.15726848654877
7.4399999999999995,1.0,105.0694321241376
7.448,0.9999999999999999,104.98157308718528
7.4559999999999995,0.9999999999999999,104.89369135532397
7.464,1.0,104.80578690819526
7.4719999999999995,1.0,104.71785972544957
7.48,1.0,104.62990978674497
7.4879999999999995,0.9999999999999999,104.54193707174659
7.496,0.9999999999999999,104.45394156012549
7.504,1.0,104.36592323155786
7.5120000000000005,0.9999999999999998,104.27788206572386
7.52,0.9999999999999998,104.18981804230677
7.5280000000000005,0.9999999999999999,104.10173114099172
7.536,0.9999999999999999,104.01362134146474
7.5440000000000005,1.0,103.92548862341144
7.552,0.9999999999999998,103.83733296651596
7.5600000000000005,1.0,103.74915435045955
7.568,0.9999999999999999,103.66095275491935
7.5760000000000005,0.9999999999999999,103.572728159567
7.584,1.0,103.48448054406731
7.5920000000000005,1.0,103.39620988807654
7.6,0.9999999999999999,103.3079161712412
7.6080000000000005,1.0,103.2195993731962
7.616,1.0,103.13125947356335
7.6240000000000006,0.9999999999999999,103.04289645194949
7.632,1.0,102.95451028794488
7.640000000000001,1.0,102.86610096112118
7.648,1.0,102.7776684510297
7.656000000000001,1.0,102.68921273719914
7.664,1.0,102.60073379913379
7.672,0.9999999999999999,102.51223161631114
7.68,1.0,102.42370616817978
7.688,0.9999999999999999,102.33515743415697
7.696,1.0,102.24658539362628
7.704,1.0,102.157990025935
7.712,1.0,102.06937131039163
7.72,0.9999999999999999,101.98072922626308
7.728,1.0,101.89206375277186
7.736,1.0,101.80337486909319
7.744,0.9999999999999999,101.71466255435195
7.752,0.9999999999999999,101.62592678761953
7.76,1.0,101.53716754791057
7.768,0.9999999999999999,101.44838481417955
7.776,1.0,101.35957856531732
7.784,1.0,101.2707487801474
7.792,0.9999999999999999,101.18189543742228
7.8,1.0,101.09301851581947
7.808,1.0,101.0041179939374
7.816,1.0,100.91519385029135
7.824,1.0,100.82624606330891
7.832,1.0,100.73727461132577
7.84,1.0,100.64827947258074
7.848,1.0,100.5592606252112
7.856,1.0,100.47021804724798
7.864,0.9999999999999999,100.38115171661035
7.872,1.0,100.29206161110048
7.88,1.0,100.20294770839828
7.888,1.0000000000000002,100.11380998605546
7.896,1.0,100.02464842148984
7.904,1.0,99.93546299197936
7.912,0.9999999999999998,99.8462536746558
7.92,1.0,99.75702044649847
7.928,0.9999999999999999,99.66776328432766
7.936,1.0,99.57848216479789
7.944,0.9999999999999999,99.48917706439101
7.952,0.9999999999999999,99.39984795940912
7.96,0.9999999999999999,99.31049482596727
7.968,1.0,99.22111763998612
7.976,0.9999999970538492,99.13171637718429
7.984,0.9999998252062061,99.04229101307061
7.992,0.9999996490102004,98.95284152293624
8.0,0.9999994684282121,98.86336788184664
8.008,0.9999992834243557,98.77387006463346
8.016,0.9999990939646594,98.6843480458861
8.024000000000001,0.9999989000172562,98.59480179994365
8.032,0.9999987015525913,98.50523130088621
8.04,0.9999984985436385,98.41563652252651
8.048,0.9999982909661378,98.3260174384014
8.056000000000001,0.9999980787988434,98.23637402176327
8.064,0.9999978620237918,98.14670624557182
8.072,0.9999976406265854,98.05701408248538
8.08,0.9999974145966957,97.96729750485281
8.088000000000001,0.9999971839277864,97.87755648470545
8.096,0.999996948618055,97.78779099374913
8.104,0.9999967086705984,97.69800100335657
8.112,0.9999964640937995,97.60818648456022
8.120000000000001,0.9999962149017374,97.51834740804534
8.128,0.9999959611146232,97.42848374414376
8.136,0.9999957027592596,97.33859546282797
8.144,0.999995439869531,97.24868253370612
8.152000000000001,0.999995172486916,97.15874492601787
8.16,0.9999949006610341,97.06878260863088
8.168,0.9999946244502183,96.97879555003847
8.176,0.9999943439221206,96.8887837183585
8.184000000000001,0.999994059154348,96.79874708133362
8.192,0.9999937702351316,96.7086856063329
8.2,0.9999934772640283,96.61859926035513
8.208,0.9999931803526556,96.528488010034
8.216000000000001,0.9999928796254614,96.4383518216456
8.224,0.9999925752205269,96.3481906611178
8.232,0.9999922672904047,96.25800449404248
8.24,0.999991956002989,96.16779328569044
8.248000000000001,0.9999916415424207,96.07755700102946
8.256,0.9999913241100237,95.9872956047456
8.264,0.999991003925273,95.89700906126826
8.272,0.999990681226791,95.80669733479922
8.280000000000001,0.9999903562733713,95.71636038934601
8.288,0.9999900293450276,95.62599818875995
8.296,0.9999897007440618,95.53561069677922
8.304,0.9999893707961495,95.44519787707742
8.312,0.9999890398514376,95.354759693318
8.32,0.9999887082856477,95.26429610921474
8.328,0.9999883765011792,95.17380708859903
8.336,0.9999880449282047,95.08329259549402
8.344,0.9999877140257478,94.9927525941964
8.352,0.9999873842827361,94.90218704936575
8.36,0.9999870562190162,94.81159592612227
8.368,0.999986730386318,94.72097919015276
8.376,0.9999864073691593,94.63033680782584
8.384,0.999986087785669,94.53966874631583
8.392,0.9999857722883173,94.44897497373623
8.4,0.9999854615645362,94.35825545928247
8.408,0.9999851563372045,94.2675101733845
8.416,0.9999848573649863,94.17673908786834
8.424,0.9999845654424907,94.08594217612769
8.432,0.9999842814002399,93.995119413304
8.44,0.9999840061044132,93.90427077647587
8.448,0.9999837404563446,93.81339624485614
8.456,0.9999834853917527,93.72249579999684
8.464,0.9999832418796677,93.63156942600038
8.472,0.9999830109210353,93.54061710973647
8.48,0.9999827935469714,93.44963884106284
8.488,0.9999825908166395,93.35863461304874
8.496,0.9999824038147297,93.26760442219894
8.504,0.9999822336485129,93.17654826867651
8.512,0.9999820814444571,93.08546615652176
8.52,0.9999819483443854,92.99435809386502
8.528,0.9999818355011613,92.90322409313006
8.536,0.9999817440739021,92.81206417122573
8.544,0.9999816752227109,92.72087834972154
8.552,0.9999816301029346,92.62966665500488
8.56,0.9999816098589627,92.5384291184151
8.568,0.9999816156175825,92.44716577635182
8.576,0.9999816484809241,92.35587667035283
8.584,0.9999817095190308,92.26456184713831
8.592,0.9999817997621024,92.1732213586177
8.6,0.9999819201924718,92.08185526185555
8.608,0.9999820717363799,91.9904636189933
8.616,0.9999822552556294,91.89904649712427
8.624,0.9999824715392025,91.807603968119
8.632,0.9999827212949373,91.71613610839985
8.64,0.9999830051413704,91.62464299866294
8.648,0.9999833235998484,91.53312472354747
8.656,0.99998367708703,91.44158137125248
8.664,0.9999840659078852,91.3500130331027
8.672,0.9999844902493192,91.25841980306487
8.68,0.999984950174524,91.16680177721874
8.688,0.9999854456181773,91.07515905318569
8.696,0.9999859763825825,90.9834917295209
8.704,0.9999865421348478,90.89179990507434
8.712,0.9999871424051806,90.8000836783276
8.72,0.9999877765863608,90.70834314671393
8.728,0.9999884439344435,90.61657840592959
8.736,0.9999891435707139,90.52478954924462
8.744,0.9999898744849083,90.43297666682247
8.752,0.9999906355396794,90.34113984505642
8.76,0.9999914254762808,90.24927916593244
8.768,0.9999922429214047,90.1573947064261
8.776,0.9999930863951018,90.0654865379424
8.784,0.9999939543196885,89.97355472580475
8.792,0.9999948450295237,89.8815993288008
8.8,0.9999957567815353,89.78962039878951
8.808,0.9999966877663493,89.69761798037497
8.815999999999999,0.999997636119884,89.6055921106493
8.824,0.999998599935248,89.51354281900743
8.832,0.9999995772747925,89.4214701270344
8.84,0.9999999999999999,89.32937404846464
8.847999999999999,1.0,89.23725458921176
8.856,1.0,89.14511174746644
8.864,0.9999999999999999,89.05294551385869
8.872,0.9999999999999999,88.9607558716795
8.879999999999999,0.9999999999999999,88.8685427971574
8.888,1.0,88.77630625978357
8.896,0.9999999999999999,88.68404622267933
8.904,1.0,88.59176264299947
8.911999999999999,1.0,88.49945547236462
8.92,1.0,88.40712465731617
8.928,0.9999999999999999,88.31477013978704
8.936,1.0,88.22239185758187
8.943999999999999,1.0,88.12998974486078
8.952,1.0000000000000002,88.03756373262138
8.96,1.0,87.94511374917354
8.968,1.0,87.85263972060278
8.975999999999999,1.0,87.76014157121806
8.984,1.0,87.66761922398085
8.992,1.0,87.5750726009127
9.0,1.0,87.48250162347875
9.008,1.0,87.38990621294566
9.016,1.0,87.29728629071323
9.024000000000001,1.0,87.2046417786182
9.032,1.0,87.11197259921049
9.04,0.9999999999999999,87.01927867600179
9.048,1.0,86.926559933687
9.056000000000001,1.0,86.8338162983391
9.064,1.0,86.74104769757845
9.072,1.0,86.64825406071763
9.08,1.0,86.55543531888317
9.088000000000001,1.0,86.46259140511546
9.096,1.0,86.3697222544484
9.104,0.9999999999999999,86.27682780397014
9.112,0.9999999999999999,86.18390799286666
9.120000000000001,0.9999999999999999,86.09096276244969
9.128,0.9999999999999999,85.99799205617016
9.136,1.0,85.90499581961909
9.144,1.0,85.81197400051705
9.152000000000001,1.0,85.71892654869366
9.16,0.9999999999999999,85.62585341605822
9.168,1.0,85.53275455656294
9.176,0.9999999999999999,85.43962992615954
9.184000000000001,0.9999999999999998,85.34647948275081
9.192,1.0,85.25330318613726
9.2,0.9999999999999999,85.16010099796043
9.208,1.0,85.06687288164336
9.216000000000001,1.0,84.97361880232903
9.224,1.0,84.8803387268171
9.232,0.9999999999999999,84.7870326235
9.24,0.9999999999999999,84.69370046229842
9.248000000000001,0.9999999999999999,84.60034221459696
9.256,0.9999999999999999,84.50695785318023
9.264,0.9999999999999999,84.41354735216933
9.272,0.9999999999999998,84.32011068695992
9.280000000000001,1.0,84.22664783416106
9.288,0.9999999999999999,84.1331587715357
9.296,1.0,84.03964347794278
9.304,0.9999999999999999,83.94610193328097
9.312000000000001,1.0,83.85253411843435
9.32,0.9999999999999999,83.75894001521998
9.328,1.0,83.66531960633725
9.336,1.0,83.57167287531955
9.344,1.0,83.47799980648766
9.352,1.0,83.38430038490517
9.36,1.0,83.29057459633616
9.368,0.9999999999999999,83.19682242720438
9.376,0.9999999999999999,83.10304386455489
9.384,1.0,83.00923889601712
9.392,1.0,82.91540750977019
9.4,0.9999999999999999,82.82154969450956
9.408,1.0,82.72766543941597
9.416,1.0,82.63375473412555
9.424,1.0,82.53981756870192
9.432,0.9999999999999999,82.44585393360964
9.44,1.0,82.35186381968924
9.448,1.0,82.25784721813363
9.456,0.9999999999999999,82.16380412046607
9.464,0.9999999999999999,82.06973451851906
9.472,1.0,81.97563840441494
9.48,1.0,81.88151577054734
9.488,1.0,81.787366609564
9.496,1.0,81.69319091435034
9.504,0.9999999999999998,81.59898867801455
9.512,1.0,81.50475989387306
9.52,1.0,81.41050455543746
9.528,0.9999999999999999,81.31622265640188
9.536,0.9999999999999999,81.22191419063144
9.544,1.0,81.12757915215136
9.552,1.0,81.03321753513686
9.56,1.0,80.93882933390358
9.568,1.0,80.84441454289906
9.576,0.9999999999999998,80.74997315669415
9.584,1.0000000000000002,80.65550516997583
9.592,1.0,80.5610105775397
9.6,1.0,80.46648937428381
9.608,1.0,80.37194155520224
9.616,1.0,80.27736711537972
9.624,1.0,80.18276604998613
9.632,1.0,80.08813835427192
9.64,0.9999999999999999,79.99348402356348
9.648,1.0,79.8988030532591
9.656,1.0,79.80409543882512
9.664,1.0,79.70936117579251
9.672,1.0,79.61460025975353
9.68,0.9999999999999999,79.51981268635896
9.688,1.0,79.42499845131523
9.696,1.0,79.33015755038211
9.704,0.9999999999999999,79.2352899793703
9.712,1.0,79.14039573413955
9.72,1.0,79.04547481059662
9.728,1.0,78.95052720469381
9.736,1.0,78.8555529124272
9.744,1.0,78.76055192983547
9.752,0.9999999999999999,78.66552425299857
9.76,1.0,78.5704698780367
9.768,1.0,78.47538880110926
9.776,1.0,78.38028101841405
9.784,0.9999999999999999,78.28514652618647
9.792,0.9999999999999999,78.18998532069895
9.8,1.0,78.09479739826027
9.808,0.9999999999999999,77.9995827552152
9.816,1.0,77.904341387944
9.824,1.0,77.80907329286222
9.832,0.9999999999999999,77.71377846642028
9.84,0.9999999999999999,77.61845690510341
9.847999999999999,0.9999999999999999,77.52310860543147
9.856,0.9999999999999999,77.42773356395881
9.864,0.9999999999999999,77.33233177727432
9.872,0.9999999999999998,77.2369032420014
9.879999999999999,1.0,77.14144795479802
9.888,1.0,77.04596591235673
9.896,1.0,76.95045711140494
9.904,0.9999999999999999,76.85492154870497
9.911999999999999,1.0,76.7593592210542
9.92,1.0,76.66377012528532
9.928,1.0,76.5681542582667
9.936,1.0,76.47251161690242
9.943999999999999,0.9999999999999999,76.3768421981327
9.952,1.0,76.28114599893408
9.96,0.9999999999999999,76.18542301631989
9.968,1.0,76.08967324734047
9.975999999999999,1.0,75.99389668908347
9.984,1.0,75.89809333867431
9.992,0.9999999999999999,75.8022631932765
10.0,1.0,75.706406250092
10.008,1.0,75.61052250636158
10.016,0.9999999999999999,75.51461195936521
10.024000000000001,1.0000000000000002,75.41867460642254
10.032,0.9999999999999999,75.32271044489323
10.04,0.9999999999999999,75.22671947217728
10.048,0.9999999999999999,75.13070168571555
10.056000000000001,0.9999999999999999,75.03465708299012
10.064,0.9999999999999999,74.93858566152477
10.072,1.0,74.84248741888526
10.08,1.0,74.74636235267977
