freq,mag,phase
6.0,1.0005014582957452,-136.91206510803008
6.00260096,1.000582934757219,-137.0768369070806
6.005201408,1.000628408349309,-137.24252264350798
6.007802368,1.0006347931225197,-137.4085960657005
6.010403328,1.0006015883575414,-137.5744706677411
6.013003776,1.0005310036528086,-137.73961529362174
6.015604736,1.0004272845070288,-137.90348840624526
6.018205696,1.0002970775359994,-138.06570190661898
6.020806144,1.0001484567071997,-138.2258894481583
6.023407104,0.9999907739070164,-138.38388003812375
6.026007552,0.9998339260203732,-138.53959843448786
6.028608512,0.999687905764238,-138.69313210088936
6.031209472,0.9995616117820817,-138.84465629285333
6.03380992,0.9994632092364084,-138.9946105718014
6.03641088,0.999398897686216,-139.1433463872095
6.03901184,0.9993726852603019,-139.2914565305451
6.041612288,0.9993861217191637,-139.43947759063158
6.044213248,0.9994385110326298,-139.58799238150746
6.046814208,0.9995265909464965,-139.73748995946477
6.049414656,0.9996448722909331,-139.8885232728642
6.052015616,0.9997856914801033,-140.04143170087636
6.054616576,0.9999404373655632,-140.19645265855527
6.057217024,1.0000993487739092,-140.35379384170153
6.059817984,1.0002522971712589,-140.51334864589268
6.062418944,1.000389700065445,-140.67504789886587
6.065019392,1.0005031301707388,-140.8385794852096
6.067620352,1.0005853917427563,-141.00348634036948
6.070221312,1.0006311326435497,-141.16935322613534
6.07282176,1.0006375789757052,-141.335589218944
6.07542272,1.0006044531451666,-141.5016417975203
6.078023168,1.0005336046798037,-141.66693385994583
6.080624128,1.0004295566717674,-141.83100377737406
6.083225088,1.0002988673444841,-141.99336912471247
6.085825536,1.000149564683683,-142.15373337394226
6.088426496,0.9999913422545366,-142.3118230851382
6.091027456,0.9998338152423834,-142.46768002576582
6.093627904,0.9996870175366456,-142.62133186159525
6.096228864,0.9995601617408418,-142.77298703867146
6.098829824,0.9994612761499386,-142.9230267359208
6.101430272,0.9993964945239604,-143.0718753581379
6.104031232,0.9993700415013366,-143.2200265705602
6.106632192,0.9993834808578774,-143.3681610046192
6.10923264,0.9994360320940148,-143.5167474419249
6.1118336,0.9995243556913611,-143.66633427653684
6.11443456,0.9996429581209736,-143.8174573747165
6.117035008,0.9997844057921365,-143.97045628988272
6.119635968,0.9999397470552462,-144.1255963765001
6.122236416,1.0000992676199048,-144.28302623749462
6.124837376,1.000252920981406,-144.44273021567614
6.127438336,1.0003911142346753,-144.60456263951312
6.130038784,1.0005050702653193,-144.7681801787699
6.132639744,1.0005877574970283,-144.93326433739887
6.135240704,1.0006337695787515,-145.09927370104026
6.137841152,1.0006404626580336,-145.2656852116266
6.140442112,1.0006072484705795,-145.4318641702752
6.143043072,1.000536182526872,-145.5973429202973
6.14564352,1.0004318748659997,-145.7615201362684
6.14824448,1.0003007021002264,-145.92404546566735
6.15084544,1.0001508787049016,-146.08448099463044
6.153445888,0.9999918342164311,-146.24274486955937
6.156046848,0.9998336294098535,-146.39871195535363
6.158647808,0.9996861548759176,-146.55244963634237
6.161248256,0.9995586930121662,-146.70417964142393
6.163849216,0.9994591977682244,-146.85430763116204
6.166450176,0.9993940115940413,-147.00322082413064
6.169050624,0.9993673419736337,-147.15146120325645
6.171651584,0.9993806892541544,-147.2996356804117
6.174252032,0.9994333217572102,-147.44826857817438
6.176852992,0.9995219680566221,-147.59795042401367
6.179453952,0.9996410146994886,-147.74911192949892
6.1820544,0.999782997344833,-147.90218985712215
6.18465536,0.9999389848203806,-148.05738045299418
6.18725632,1.0000992625265774,-148.21491620648771
6.189856768,1.0002535859988748,-148.37471838916557
6.192457728,1.0003924390816579,-148.5366328255511
6.195058688,1.0005070467125183,-148.70040673849596
6.197659136,1.000590109136934,-148.86560300182532
6.200260096,1.000636519443156,-149.03174476505933
6.202861056,1.0006433373250276,-149.1982415373216
6.205461504,1.0006101355934924,-149.36457845813612
6.208062464,1.000538928310447,-149.5301881402354
6.210663424,1.0004341788863615,-149.69450047674414
6.213263872,1.0003024770222635,-149.85711517831976
6.215864832,1.0001520591779183,-150.01768810568646
6.218465792,0.9999923490750391,-150.17604625046692
6.22106624,0.9998334218651607,-150.33206592951475
6.2236672,0.9996851963492462,-150.4858735555306
6.226267648,0.9995571195618628,-150.63767529939815
6.228868608,0.999457054256462,-150.78785259452712
6.231469568,0.9993915384030277,-150.93681415847507
6.234070016,0.999364515130771,-151.08510106442623
6.236670976,0.9993778032217857,-151.23330697722042
6.239271936,0.9994305807880957,-151.3819851898647
6.241872384,0.9995194867696541,-151.53166743994007
6.244473344,0.9996389824074208,-151.6829060540899
6.247074304,0.9997815229148266,-151.83601902435234
6.249674752,0.9999381783190185,-151.99128828652022
6.252275712,1.000099091797115,-152.14889587576135
6.254876672,1.0002542333938385,-152.30875936239718
6.25747712,1.0003937411357822,-152.47073896214772
6.26007808,1.0005089652161478,-152.63460948457129
6.26267904,1.0005925651569783,-152.79991917319194
6.265279488,1.0006393738303505,-152.96614791709365
6.267880448,1.0006463053861607,-153.13276636747162
6.270480896,1.000613084964123,-153.29921882684746
6.273081856,1.000541694899849,-153.4649069292047
6.275682816,1.0004366252855308,-153.62931109631455
6.278283264,1.0003044727763464,-153.79202204257297
6.280884224,1.000153389656148,-153.95269046484478
6.283485184,0.9999929967543121,-154.11110076880016
6.286085632,0.999833357941841,-154.26719393200125
6.288686592,0.9996844345914533,-154.4210741709457
6.291287552,0.9995556518908907,-154.57291514564983
6.293888,0.9994550860663619,-154.7231252219786
6.29648896,0.9993891023568743,-154.87210165043882
6.29908992,0.9993618061240486,-155.02042840330276
6.301690368,0.9993750176122538,-155.1686256148966
6.304291328,0.9994279369936027,-155.31731379175048
6.306892288,0.9995171284248181,-155.46702297156924
6.309492736,0.9996369807632985,-155.61827456648
6.312093696,0.9997801165849194,-155.77138933973302
6.314694656,0.9999374852199,-155.92670568631465
6.317295104,1.000099133711311,-156.08433900661993
6.319896064,1.0002550488500297,-156.24426132657416
6.322496512,1.0003952467916633,-156.40633648904915
6.325097472,1.0005110812976707,-156.57023826061985
6.327698432,1.000595178590717,-156.73563299821092
6.33029888,1.0006423373025581,-156.90193541292655
6.33289984,1.000649455028552,-157.06864932432237
6.3355008,1.000616236272243,-157.23517491460026
6.338101248,1.0005445980461942,-157.4009552653399
6.340702208,1.0004391730212454,-157.56545080545834
6.343303168,1.0003065038103551,-157.72824142316276
6.345903616,1.0001547292467259,-157.88893758866766
6.348504576,0.9999936720913128,-158.04742391087112
6.351105536,0.9998331582924554,-158.2035476740284
6.353705984,0.9996836458409187,-158.3574532322689
6.356306944,0.9995541322967283,-158.50929997819952
6.358907904,0.9994529267373695,-158.65953583900625
6.361508352,0.9993865206980593,-158.8084884949853
6.364109312,0.9993589747537306,-158.95680600720905
6.36670976,0.9993720725824492,-159.10499582424384
6.36931072,0.999425079306273,-159.25367023361474
6.37191168,0.9995146214702881,-159.40336605656475
6.374512128,0.9996349732110832,-159.55460764336235
6.377113088,0.9997786459042339,-159.70774810509278
6.379714048,0.9999366869213138,-159.8630670182303
6.382314496,1.0000991271182522,-160.02070873805044
6.384915456,1.0002556807786396,-160.18064781918707
6.387516416,1.0003966901907262,-160.3427750767933
6.390116864,1.0005131225772426,-160.50675109225716
6.392717824,1.0005977391982779,-160.67216628709613
6.395318784,1.000645285347635,-160.83852559645143
6.397919232,1.0006526437386436,-161.00531158655153
6.400520192,1.0006193658032547,-161.1718920193716
6.403121152,1.0005475801452834,-161.33773050480548
6.4057216,1.0004417266494747,-161.50231555423028
6.40832256,1.0003084781621536,-161.6651082983336
6.41092352,1.000156180836324,-161.82590025186323
6.413523968,0.9999943277562107,-161.9843896639408
6.416124928,0.9998330834657403,-162.1405401023359
6.418725376,0.999682734314235,-162.29444357291428
6.421326336,0.9995526095229461,-162.44629525553654
6.423927296,0.9994509010846199,-162.59646603099003
6.426527744,0.9993839131705233,-162.74543042623753
6.429128704,0.9993561632609896,-162.89370687635602
6.431729664,0.9993691252260131,-163.04187434166408
6.434330112,0.9994221579587372,-163.19051885165015
6.436931072,0.9995119872421694,-163.3401795942928
6.439532032,0.9996328064146099,-163.49137756220097
6.44213248,0.9997771254902004,-163.64448753960713
6.44473344,0.9999358394985435,-163.79981766521374
6.4473344,1.0000989564246754,-163.9574383366255
6.449934848,1.0002563309555768,-164.11739853779378
6.452535808,1.0003979636511202,-164.27951303007387
6.455136768,1.0005151304526834,-164.44351267070675
6.457737216,1.000600313099373,-164.60896316947048
6.460338176,1.0006481599187682,-164.77540363794006
6.462939136,1.0006556776362805,-164.942209947949
6.465539584,1.0006223752899983,-165.1088178949388
6.468140544,1.0005504426183989,-165.27469859415285
6.470740992,1.0004441670325612,-165.43931016439262
6.473341952,1.0003103937168019,-165.60217130938707
6.475942912,1.0001573489196538,-165.7629483591611
6.47854336,0.9999947771632737,-165.92141783928238
6.48114432,0.9998329047644741,-166.07758407232672
6.48374528,0.999681731712922,-166.2314415971788
6.486345728,0.9995508503396154,-166.38329386072616
6.488946688,0.999448506519296,-166.53345280908584
6.491547648,0.9993812400882109,-166.6823273080318
6.494148096,0.9993531303686676,-166.8305544470687
6.496749056,0.9993660224332377,-166.97866952669915
6.499350016,0.9994192149126104,-167.1272413400679
6.501950464,0.9995092289071796,-167.27687252685843
6.504551424,0.9996304921617434,-167.4279965809201
6.507152384,0.9997755416829086,-167.58108710193207
6.509752832,0.9999349654899332,-167.73635604330502
6.512353792,1.0000989133270182,-167.8939547424748
6.51495424,1.0002570561509545,-168.05391575826755
6.5175552,1.00039950422411,-168.2160106056776
6.52015616,1.0005172613258237,-168.38002861528457
6.522756608,1.0006030053265687,-168.54548760970286
6.525357568,1.000651220627618,-168.71190557387675
6.527958528,1.000658939605039,-168.87877696559525
6.530558976,1.0006256349367502,-169.04540242163588
6.533159936,1.00055346213705,-169.2112909226235
6.535760896,1.0004468373113071,-169.37589522911094
6.538361344,1.0003125510630388,-169.53875868122697
6.540962304,1.0001588501039473,-169.69954329633458
6.543563264,0.999995538424429,-169.85802594029843
6.546163712,0.9998327590349225,-170.01416882182428
6.548764672,0.999680780315055,-170.1679653193291
6.551365632,0.999549230863218,-170.3197609882769
6.55396608,0.999446292182534,-170.4698561176734
6.55656704,0.9993784764467931,-170.618705799289
6.559168,0.9993501648502529,-170.76684044443843
6.561768448,0.9993629690235665,-170.91484224221242
6.564369408,0.9994162861074246,-171.0633467484621
6.566969856,0.999506663048633,-171.21288211935794
6.569570816,0.9996284061008424,-171.3639509304333
6.572171776,0.9997739405374525,-171.51696152579822
6.574772224,0.9999341188383369,-171.67217190017928
6.577373184,1.0000988627663554,-171.8297338259726
6.579974144,1.0002578256636279,-171.98963478510987
6.582574592,1.0004010057980934,-172.15170200535457
6.585175552,1.0005194883583353,-172.31570414555867
6.587776512,1.0006056056634427,-172.48116946150563
6.59037696,1.0006542907845783,-172.64758291595928
6.59297792,1.000662172160399,-172.8144342174224
6.59557888,1.0006288519970974,-172.9810683184258
6.598179328,1.0005564878185365,-173.14697867458477
6.600780288,1.0004494540337876,-173.31157853300377
6.603381248,1.000314534849124,-173.47442360175174
6.605981696,1.0001602032937267,-173.6351687024571
6.608582656,0.9999961099478549,-173.79359750332486
6.611183104,0.9998325886714797,-173.9496804409081
6.613784064,0.999679758340926,-174.10346678357396
6.616385024,0.9995474559051307,-174.2551682966119
6.618985472,0.9994439094017509,-174.40515210064052
6.621586432,0.99937569831809,-174.5539146358423
6.624187392,0.9993469940605828,-174.7019406050605
6.62678784,0.9993597890417094,-174.8498611246608
6.6293888,0.9994130933946629,-174.99825800774937
6.63198976,0.9995038235426453,-175.14770488442312
6.634590208,0.9996261802703276,-175.29865983784103
6.637191168,0.9997723681999103,-175.45157749477514
6.639792128,0.9999332088321636,-175.6067218808541
6.642392576,1.0000988128746933,-175.7642153399826
6.644993536,1.0002585221279396,-175.92405944077407
6.647594496,1.0004025987731924,-176.08609733949905
6.650194944,1.0005216091438875,-176.250046704422
6.652795904,1.0006084626083174,-176.41546137968228
6.655396864,1.000657429677399,-176.58188445629074
6.657997312,1.0006654814568128,-176.74869522895858
6.660598272,1.0006322740805464,-176.9153309097205
6.66319872,1.0005595867639123,-177.08119378393678
6.66579968,1.000452128042446,-177.24574538759634
6.66840064,1.0003166109096189,-177.40856297832246
6.671001088,1.000161602541321,-177.56926096118238
6.673602048,0.9999967106150373,-177.72764820502806
6.676203008,0.9998323309748927,-177.88364077181978
6.678803456,0.9996787343726623,-178.03733837424198
6.681404416,0.9995457257896635,-178.1889649676803
6.684005376,0.9994414843697098,-178.3388611075989
6.686605824,0.9993727745503479,-178.48747099262687
6.689206784,0.9993438790190029,-178.63538213317526
6.691807744,0.9993566247270886,-178.78318011737832
6.694408192,0.9994100796896236,-178.93146327128238
6.697009152,0.9995010586879055,-179.08075365830013
6.699610112,0.9996239561046055,-179.23163486784534
6.70221056,0.9997707633931192,-179.3844292357099
6.70481152,0.9999324638754395,-179.53946159211444
6.707411968,1.0000988727263833,-179.69688029482876
6.710012928,1.0002594317719367,-179.85662336467294
6.712613888,1.000404291433232,179.9813967644251
6.715214336,1.0005241127479838,179.81749973272792
6.717815296,1.000611391568811,179.65211175359482
6.720416256,1.0006606677115815,179.48576452104288
6.723016704,1.0006689926091317,179.319000370072
6.725617664,1.0006356791707847,179.15240268922255
6.728218624,1.0005628912764244,178.98658410214898
6.730819072,1.0004548494993304,178.82205826840126
6.733420032,1.0003189025921084,178.6593113966479
6.736020992,1.0001630364426395,178.49866652489777
6.73862144,0.9999973610625214,178.34037635180542
6.7412224,0.9998321283378628,178.18447040438622
6.74382336,0.9996776574203747,178.03087114654448
6.746423808,0.9995438975830686,177.87937146682168
6.749024768,0.9994390457674861,177.72960589020494
6.751625728,0.9993698396930356,177.58110377378185
6.754226176,0.9993405878272269,177.43333651686925
6.756827136,0.9993532454557043,177.28571047033878
6.759427584,0.9994068821020045,177.13757642977689
6.762028544,0.9994982307584197,176.98842394363194
6.764629504,0.9996215378891606,176.83769431120078
6.767229952,0.9997690359757078,176.68503312339607
6.769830912,0.999931616486063,176.53011760542051
6.772431872,1.000098783563667,176.37280004301124
6.77503232,1.0002602445226034,176.21314201061753
6.77763328,1.0004058558503308,176.0512675960071
6.78023424,1.0005262808741835,175.88744473947418
6.782834688,1.0006141801949862,175.7221518767004
6.785435648,1.0006639530074,175.55583253736967
6.788036608,1.0006723657722278,175.38913432691692
6.790637056,1.0006391304622186,175.22260118664815
6.793238016,1.0005659736930401,175.056834118909
6.795838976,1.0004576860705783,174.89238720810607
6.798439424,1.0003209647973579,174.72971701503857
6.801040384,1.0001644850968991,174.5691574102482
6.803641344,0.999997904209549,174.41096246321302
6.806241792,0.9998317971742675,174.25518551086864
6.808842752,0.9996765909252524,174.10169993709764
6.8114432,0.9995420388553389,173.95034382888284
6.81404416,0.9994365362121025,173.8007151358628
6.81664512,0.9993668977492675,173.65237452441545
6.819245568,0.999337367615108,173.50477232516351
6.821846528,0.9993499566681104,173.35729912842967
6.824447488,0.9994037518241041,173.2093629732306
6.827047936,0.9994954284989991,173.06034236538187
6.829648896,0.9996192739823245,172.90979909157673
6.832249856,0.9997675185068192,172.7572548421883
6.834850304,0.9999307200498266,172.60250238495533
6.837451264,1.000098852744391,172.4453146787484
6.840052224,1.0002612071873482,172.28576854843237
6.842652672,1.0004075999344417,172.1239862815154
6.845253632,1.0005287695165985,171.96028732757924
6.847854592,1.0006172111016092,171.79505213220298
6.85045504,1.0006673637209311,171.62885462702627
6.853056,1.0006759313274898,171.46222985299002
6.855656448,1.0006425192426474,171.29573424505145
6.858257408,1.0005691044803513,171.1300740425015
6.860858368,1.0004602982315745,170.96571716225833
6.863458816,1.0003229872775488,170.8031509691395
6.866059776,1.0001657426253425,170.64269007310548
6.868660736,0.9999983040983594,170.48460719736246
6.871261184,0.999831362527842,170.32894717042828
6.873862144,0.9996752102583019,170.17563206279468
6.876463104,0.9995399298825264,170.02442832369542
6.879063552,0.9994338486195347,169.87498739764976
6.881664512,0.9993636086236364,169.72682993800603
6.884265472,0.9993338817870085,169.5793855069734
6.88686592,0.9993464107447743,169.432124151621
6.88946688,0.9994004074764579,169.28433887094027
6.89206784,0.9994925005002662,169.1355343990337
6.894668288,0.9996168387508639,168.98514859223445
6.897269248,0.999765868153098,168.83280649314156
6.899870208,0.9999298612742368,168.67819812979596
6.902470656,1.0000988684813001,168.52117440947367
6.905071616,1.0002619944798103,168.36176811207582
6.907672064,1.000409196468932,168.20010491687884
6.910273024,1.0005312081382074,168.0365165544619
6.912873984,1.0006201880242929,167.87138660576235
6.915474432,1.000670771390154,167.70525577239232
6.918075392,1.0006795117911798,167.5387204796885
6.920676352,1.0006461145233376,167.3723807857011
6.9232768,1.0005724111910317,167.2067932325348
6.92587776,1.0004631785017388,167.04253079479295
6.92847872,1.0003251121742254,166.88009123293912
6.931079168,1.0001671065579483,166.71973206234364
6.933680128,0.9999988210352694,166.56181593485667
6.936281088,0.9998309366331534,166.4062800229169
6.938881536,0.9996740238065351,166.25314121382297
6.941482496,0.9995378188839629,166.10213296449427
6.944083456,0.9994310789748235,165.95287914107277
6.946683904,0.9993603658727865,165.80489540075754
6.949284864,0.9993304432252123,165.6576829581776
6.951885312,0.9993428010398391,165.51061810451912
6.954486272,0.9993969529689966,165.36302286038907
6.957087232,0.9994894442212293,165.21444893598672
6.95968768,0.9996144733355878,165.06425271620185
6.96228864,0.9997642078413299,164.91207460003002
6.9648896,0.99992914619571,164.75764385398085
6.967490048,1.000099059568315,164.6007958077919
6.970091008,1.0002631295903726,164.44152670946607
6.972691968,1.0004111812641978,164.28003641014618
6.975292416,1.0005337506316003,164.11654235518478
6.977893376,1.0006233623167426,163.951579936952
6.980494336,1.0006741962740318,163.78556440927375
6.983094784,1.0006831087324992,163.6191435086753
6.985695744,1.0006496160505638,163.45286774525061
6.988296704,1.0005756351533175,163.28742500816486
6.990897152,1.0004659340212205,163.12329280952494
6.993498112,1.000327301063833,162.960964452979
6.996099072,1.000168320326566,162.80080742102447
6.99869952,0.9999991512301958,162.64300827445106
7.00130048,0.9998304293089731,162.48765676326494
7.003900928,0.9996725993020731,162.33469023843392
7.006501888,0.9995356749201888,162.18387548203688
7.009102848,0.9994281514942981,162.0348410024281
7.011703296,0.999357213315959,161.88705565658182
7.014304256,0.9993268584828024,161.74007219783255
7.016905216,0.999339252362851,161.59322349038442
7.019505664,0.9993936920764608,161.44589246805293
7.022106624,0.9994864837316424,161.297497234603
7.024707584,0.9996121369892792,161.14753056218723
7.027308032,0.9997625864372192,160.99555977329632
7.029908992,0.9999284451965306,160.84132769178618
7.032509952,1.000099127834708,160.68467317354538
7.0351104,1.000264107490849,160.52556843514202
7.03771136,1.0004129562820525,160.3642289381413
