freq,mag,phase
6.0,0.9990475109130036,158.86414303826444
6.002285056,0.9990441364765464,158.7285254129359
6.004570112,0.9991024887398293,158.59254493386783
6.006855168,0.9992174942486742,158.4553220711092
6.009140224,0.9993820096953918,158.3161103429917
6.01142528,0.9995856021256455,158.17430072401353
6.013710336,0.9998153906358316,158.029350864127
6.015995392,1.0000567457786083,157.8810004663951
6.018280448,1.0002944266786011,157.72925490213262
6.020565504,1.000513462860631,157.5741994048023
6.02285056,1.000699794506436,157.41624542571375
6.025135616,1.000841827559728,157.2559424074045
6.027420672,1.0009304923368165,157.09401892777004
6.029705728,1.0009600655870017,156.9312502920404
6.031990784,1.000928925124421,156.76854923814585
6.03427584,1.000838633380839,156.60677700013665
6.036560896,1.0006951112676006,156.44673073778029
6.038845952,1.0005075579038676,156.28909557178554
6.041131008,1.0002874616562092,156.13450358263796
6.043416064,1.0000488414939388,155.98325521757434
6.04570112,0.9998071058237386,155.83552686038385
6.047986176,0.9995772020780237,155.69131127677173
6.050271232,0.999373706171471,155.5502619895728
6.052556288,0.9992098336651375,155.4119237287697
6.054841344,0.9990957230917445,155.27567771116588
6.0571264,0.9990388214053092,155.14070359534003
6.059411456,0.9990428413460153,155.00614314246056
6.061696512,0.9991071152791431,154.8711617285003
6.063981568,0.9992280896281673,154.73485979634094
6.066266624,0.9993978522894056,154.59643511510066
6.06855168,0.9996057340686869,154.45536627737116
6.070836736,0.9998385045037939,154.31110471732586
6.073121792,1.0000813851306336,154.16344765441764
6.075406848,1.000319017824596,154.01232784416834
6.077691904,1.000536438294229,153.8579509345591
6.07997696,1.0007197873509177,153.70068181985167
6.082262016,1.000857403492294,153.54109829454623
6.084547072,1.0009407788782272,153.38000632280358
6.086832128,1.0009644641388125,153.21815123009938
6.089117184,1.0009269348188436,153.05643302492203
6.09140224,1.0008305943625941,152.8957331306909
6.093687296,1.0006815658197974,152.73685997577434
6.095972352,1.0004890963865998,152.58046481838457
6.098257408,1.0002652709507762,152.4271615410308
6.100542464,1.0000246518383022,152.27723198700792
6.10282752,0.9997821032038895,152.13087174191435
6.105112576,0.9995531191642572,151.98801139163152
6.107397632,0.9993520741947973,151.84830715931463
6.1096832,0.9991919841423956,151.71127192206222
6.111968256,0.9990829421205034,151.57623421720254
6.114253312,0.9990317875262321,151.4423889420506
6.116538368,0.9990418749534928,151.30892179383144
6.118823424,0.9991126871467849,151.17489171942307
6.12110848,0.9992394912272116,151.03944365852666
6.123393536,0.9994145007573638,150.90188859744848
6.125678592,0.9996266009866915,150.76150971922277
6.127963648,0.999862185062353,150.61793559953665
6.130248704,1.000106486799176,150.47089878719495
6.13253376,1.0003438739610035,150.32040966146843
6.134818816,1.000559510272851,150.16665811159677
6.137103872,1.0007395503756071,150.01007848532169
6.139388928,1.0008727636405348,149.85128551973287
6.141673984,1.0009504891454348,149.69096766816628
6.14395904,1.0009681146256943,149.53001906089264
6.146244096,1.00092427288033,149.36930760182392
6.148529152,1.0008216042970504,149.2096920749399
6.150814208,1.0006668932671956,149.0519667943498
6.153099264,1.0004696894763343,148.89681297322426
6.15538432,1.000242443984439,148.7447846173044
6.157669376,0.999999665592445,148.59623577428826
6.159954432,0.9997564825815113,148.45124507327833
6.162239488,0.9995285984793126,148.30973600418463
6.164524544,0.9993303357703132,148.17134945298793
6.1668096,0.9991743042348523,148.03558115658603
6.169094656,0.9990702656640904,147.9017706419205
6.171379712,0.9990252598262112,147.769058299431
6.173664768,0.999041757176001,147.6366309592114
6.175949824,0.9991188015165624,147.5035263541814
6.17823488,0.9992518430682595,147.36894066164322
6.180519936,0.9994321224338357,147.23213974332506
6.182804992,0.999648352949326,147.09248257847335
6.185090048,0.9998866871481179,146.94957760068988
6.187375104,1.000132235129627,146.80315545453874
6.18966016,1.0003693108753013,146.65328624387195
6.191945216,1.0005829458725168,146.50015995453074
6.194230272,1.0007594395550485,146.34430120690752
6.196515328,1.000887926391237,146.18618941171772
6.198800384,1.00096006398375,146.02668481806512
6.20108544,1.000971393045377,145.86664609475
6.203370496,1.0009208262430938,145.70690996764785
6.205655552,1.0008119489211877,145.5483371140084
6.207940608,1.000651490852286,145.39176864741938
6.210225664,1.0004495414901504,145.2379042362488
6.21251072,1.0002188541139716,145.08719210030483
6.214795776,0.9999740278952576,144.93996208913475
6.217080832,0.9997305737163086,144.79633316053298
6.219365888,0.9995040038156296,144.6561491256014
6.221650944,0.9993085348651843,144.51906925589407
6.223936,0.9991567503136076,144.38458502558046
6.226221056,0.9990581940938855,144.2519635004887
6.228506112,0.999019300473286,144.12038825719318
6.230791168,0.99904225531696,143.98897294370582
6.233076224,0.9991260196439932,143.8568012686891
6.23536128,0.9992651084410651,143.72305598650365
6.237646336,0.9994507027429932,143.58699182474825
6.239931392,0.9996709562641953,143.4480063628584
6.242216448,0.9999120001070595,143.30572429646608
6.244501504,1.0001585283957908,143.15987316264506
6.24678656,1.0003951006210667,143.01062935714987
6.249071616,1.000606507873604,142.85814061440036
6.251356672,1.000779459443629,142.7028779467176
6.253641728,1.0009027602207519,142.54552748816715
6.255926784,1.000969105863596,142.3868152580142
6.25821184,1.0009737351812846,142.2276758025285
6.260496896,1.0009165942232399,142.06888644439877
6.262781952,1.0008013669052194,141.91143827454073
6.265067008,1.0006350715817112,141.75601969174338
6.267352064,1.000428482643013,141.60337895776138
6.26963712,1.00019428516359,141.45395528308117
6.271922176,0.9999476336280767,141.30808570329538
6.274207232,0.9997040780039989,141.16579101811402
6.276492288,0.9994788907236992,141.026969188962
6.278777344,0.999286576420956,140.89122503876857
6.2810624,0.999139326494777,140.75799247242955
6.283347456,0.9990462906796066,140.62655875008664
6.285632512,0.9990137979658571,140.49602739536923
6.287917568,0.9990435290699723,140.3656277090331
6.290202624,0.9991339743581455,140.23436941963678
6.29248768,0.9992791332603361,140.1013998682674
6.294772736,0.9994700106493368,139.96608350176618
6.297057792,0.9996943543298854,139.82773422600502
6.299342848,0.9999380013125219,139.68604062425607
6.301627904,1.000185501294868,139.54080632425837
6.30391296,1.0004212888735176,139.3921150433418
6.306198016,1.0006302065700934,139.24022790477773
6.308483072,1.0007991305290407,139.08563431506
6.310768128,1.000917469427231,138.92895413837797
6.313053184,1.0009775134795047,138.77105419166958
6.31533824,1.0009755530422266,138.61278297400779
6.317623296,1.0009116965799674,138.4549604873843
6.319908352,1.0007898429768416,138.29859944995408
6.322193408,1.0006178549097455,138.14434269716688
6.324478976,1.0004064337488823,137.9929364983326
6.326764032,1.0001690470721842,137.84482937918602
6.329049088,0.9999206344694006,137.7002547637875
6.331334144,0.9996770611126446,137.55932963764468
6.3336192,0.9994535062420118,137.4218335955291
6.335904256,0.9992645172677628,137.28736470876143
6.338189312,0.9991219642028003,137.15538170995035
6.340474368,0.9990350335505406,137.02508347285135
6.342759424,0.9990087825373046,136.89566886339767
6.34504448,0.9990455523213501,136.7662230601309
6.347329536,0.9991426447091543,136.63583376571097
6.349614592,0.9992940981865038,136.5036896979526
6.351899648,0.9994901784173305,136.36900932652927
6.354184704,0.9997185742574174,136.2313076023653
6.35646976,0.9999646087476661,136.0901857234723
6.358754816,1.0002129615463642,135.94550604373845
6.361039872,1.0004477726855519,135.7973520103084
6.363324928,1.0006540202159522,135.646001886853
6.365609984,1.0008187547965828,135.49204872720517
6.36789504,1.000931538341671,135.3361045431508
6.370180096,1.000985371304973,135.1789854767787
6.372465152,1.0009765540250302,135.0215506899026
6.374750208,1.0009058088452087,134.86477560344153
6.377035264,1.0007773119574928,134.7094300009528
6.37932032,1.0005996341717998,134.55636150286998
6.381605376,1.0003836790858904,134.40617465901096
6.383890432,1.0001430134635911,134.25935108814994
6.386175488,0.999893011412868,134.11611023601074
6.388460544,0.9996496649018782,133.97650288251558
6.3907456,0.9994280928880838,133.8403244589877
6.393030656,0.9992427065675352,133.70715004313746
6.395315712,0.9991050461583335,133.5763639945967
6.397600768,0.9990239609945438,133.44720637505927
6.399885824,0.9990045909634256,133.31883238700075
6.40217088,0.99904849492512,133.19033229836467
6.404455936,0.9991523677397404,133.06078032855055
6.406740992,0.999309947193529,132.9293592723627
6.409026048,0.9995113594915289,132.79536469062643
6.411311104,0.9997436667267648,132.65823768789136
6.41359616,0.9999921966542427,132.51766739394088
6.415881216,1.0002410086898352,132.37352515202184
6.418166272,1.0004745550067937,132.22589896839335
6.420451328,1.0006779333998415,132.07513252643307
6.422736384,1.000838288842058,131.9217497275054
6.42502144,1.0009454857646418,131.76649687964246
6.427306496,1.0009927592184118,131.61014900092775
6.429591552,1.000976888181155,131.45357629454597
6.431876608,1.000899112146178,131.29773643073335
6.434161664,1.0007641600870378,131.14348153374755
6.43644672,1.0005804584951807,130.99155241611655
6.438731776,1.0003599307610407,130.84259761423368
6.441016832,1.000116197794203,130.69705428783791
6.443301888,0.9998648379864851,130.55515234448063
6.445586944,0.9996219007634981,130.41686445656754
6.447872,0.999402518660154,130.28199809079362
6.450157056,0.9992207546963399,130.1500914014799
6.452442112,0.9990883247861021,130.02050716508023
6.454727168,0.9990135535282078,129.8924691856556
6.457012224,0.999001237124762,129.7650812181901
6.45929728,0.9990521826417189,129.63749001848882
6.461582336,0.9991630273638996,129.50875849916358
6.463867392,0.9993269713939469,129.3780642915856
6.466152448,0.9995336081025997,129.2446871839515
6.468437504,0.9997697794214593,129.10811143588123
6.47072256,1.000020343404089,128.96806964470372
6.473007616,1.0002696436380352,128.824387348471
6.475292672,1.0005017340907547,128.6772725112972
6.477577728,1.0007020523222279,128.5270682975412
6.479862784,1.0008577001279688,128.37426536535705
6.48214784,1.000958890558177,128.21966598165017
6.484432896,1.0009994979826757,128.06405051273796
6.486717952,1.000976480701555,127.90838805283352
6.489003008,1.000891379648041,127.7534688166202
6.491288064,1.000749870405768,127.60027444364833
6.49357312,1.000560467803353,127.44949512110007
6.495858176,1.0003352396096528,127.30178280950616
6.498143232,1.0000886084947247,127.1575151741184
6.500428288,0.9998360053887803,127.01692193269486
6.502713344,0.999593583204387,126.8799407396195
6.5049984,0.9993767360411018,126.7463724053425
6.507283456,0.9991990104368694,126.61566751306701
6.509568512,0.9990720366757083,126.48727044507943
6.511853568,0.9990036898100874,126.36031352226036
6.514138624,0.9989984583668363,126.23397453668875
6.51642368,0.9990566819924939,126.10721872367164
6.518708736,0.9991745989186018,125.97925684168499
6.520993792,0.9993449622732389,125.84921613307748
6.523278848,0.9995565292739209,125.71642967956468
6.525563904,0.9997964015777805,125.58042438284126
6.52784896,1.000049042737537,125.44084904903679
6.530134016,1.0002985433600466,125.29765110998721
6.532419072,1.0005289885182553,125.15100375315636
6.534704128,1.0007258460964137,125.0012681780851
6.536989184,1.0008767907856588,124.8490715785597
6.53927424,1.000971908509924,124.69511512242458
6.541559808,1.0010054520430443,124.54027565620609
6.543844864,1.0009751219751182,124.38539589489088
6.54612992,1.0008828308821704,124.23147274258098
6.548414976,1.0007344488153647,124.07934423690831
6.550700032,1.000539330655932,123.92967986615369
6.552985088,1.0003096217333356,123.78318410437001
6.555270144,1.0000601969034288,123.64018650805309
6.5575552,0.9998065529528616,123.50087368958427
6.559840256,0.9995650140326454,123.36522943169142
6.562125312,0.9993507433307522,123.23290649137489
6.564410368,0.9991774544192562,123.10345038521803
6.566695424,0.9990561640686741,122.97618618750018
6.56898048,0.9989944498063061,122.85029844287384
6.571265536,0.9989965590738848,122.7248747659032
6.573550592,0.9990621579954208,122.59898719260889
6.575835648,0.9991871346021641,122.47176191863835
6.578120704,0.9993637318377374,122.34239649159389
6.58040576,0.9995805752280932,122.21014827667643
6.582690816,0.9998239872295095,122.07463936540097
6.584975872,1.0000784557948683,121.93546489104942
6.587260928,1.0003279425411793,121.79271958925523
6.589545984,1.0005565507006755,121.64654785332768
6.59183104,1.000749704840688,121.49731349933778
6.594116096,1.0008954523552631,121.34564875863002
6.596401152,1.000984284448439,121.19232020768509
6.598686208,1.0010107647573947,121.03819728651808
6.600971264,1.0009728080418858,120.88417622838378
6.60325632,1.0008732259875832,120.73118594588114
6.605541376,1.000718006531136,120.5800799713045
6.607826432,1.0005171095498764,120.43159348159547
6.610111488,1.000283246192878,120.28627763236595
6.612396544,1.0000311263935608,120.14455162031074
6.6146816,0.9997766521347905,120.0065381866473
6.616966656,0.9995361727481662,119.87211982037506
6.619251712,0.999324701451375,119.74108484622802
6.621536768,0.9991559525019154,119.61283043596657
6.623821824,0.9990406377947101,119.48667402248489
6.62610688,0.9989858463917348,119.3618148346795
6.628391936,0.9989953257774754,119.23730970396261
6.630676992,0.9990686789145915,119.11222504749689
6.632962048,0.9992007245272408,118.98570980001033
6.635247104,0.9993836280670053,118.85691140316682
6.63753216,0.9996054642748539,118.72521450317451
6.639817216,0.9998524021413939,118.5901295711512
6.642102272,1.0001084833057445,118.45140616958972
6.644387328,1.0003576581366045,118.30908661915295
6.646672384,1.0005842536022689,118.16330867389303
6.64895744,1.0007735595631002,118.01453782214162
6.651242496,1.0009138468336853,117.86340737212485
6.653527552,1.0009960009117718,117.71071475409062
6.655812608,1.0010150774207969,117.5572893174876
6.658097664,1.0009696675496518,117.40411247696122
6.66038272,1.0008626340337963,117.25206415973206
6.662667776,1.0007006676228096,117.10199404922922
6.664952832,1.000494055121956,116.9545845675428
6.667237888,1.0002557873998443,116.81049735274323
6.669522944,1.0000011997809326,116.67002083939698
6.671808,0.9997460967790974,116.53326658562833
6.674093056,0.9995068868908616,116.40014134394835
6.676378112,0.9992986696650268,116.27030479178107
6.678663168,0.999134648303616,116.14323339055197
6.680948224,0.9990254339027932,116.01818776908203
6.68323328,0.9989779325518511,115.89429430274565
6.685518336,0.9989949859547532,115.77068649143835
6.687803392,0.9990758669017039,115.6463886999341
6.690088448,0.9992153328353957,115.52050766423898
6.692373504,0.9994044914164648,115.39227237253323
6.69465856,0.999631324809281,115.26107384067959
6.696943616,0.9998814762134104,115.12640138277251
6.699228672,1.0001392068599435,114.98806519107646
6.701513728,1.0003879580280715,114.84609319883045
6.703798784,1.0006120276575416,114.70072367379458
6.70608384,1.0007972726261143,114.55237602897586
6.708368896,1.0009318089658088,114.40179506575174
6.710653952,1.0010072798077678,114.24969209426881
6.712939008,1.001018806620454,114.09697529338573
6.715224064,1.0009655823605998,113.94460023423906
6.71750912,1.000850980314276,113.79346244904139
6.719794176,1.0006823193036969,113.64442796260384
6.722079232,1.0004700315213357,113.49818274519613
6.724364288,1.0002277401524557,113.35523053040245
6.726649344,0.999970681884914,113.2159811263574
6.7289344,0.9997152297274142,113.08048297524162
6.731219456,0.9994775142036011,112.94859372335418
6.733504512,0.999272707500679,112.81997334893904
6.735789568,0.9991137921983224,112.69405955175539
6.738074624,0.999010940674821,112.57003724053601
6.74035968,0.9989709230787817,112.44715138147085
6.742644736,0.9989958226145954,112.32437480811683
6.744929792,0.9990844497956652,112.20079666073923
6.747214848,0.9992310667236618,112.07557076880663
6.749499904,0.999426604265317,111.94785907901955
6.75178496,0.9996581909470705,111.81707433021592
6.754070016,0.9999116472624531,111.68277161367017
6.756355072,1.0001705401356351,111.54482016420368
6.75864064,1.0004185377875203,111.40317425236901
6.760925696,1.000640092780764,111.25818283739855
6.763210752,1.0008208970391583,111.11026255279089
6.765495808,1.0009494691900147,110.96014797164567
6.767780864,1.0010178996052184,110.80862374086641
6.77006592,1.0010216648466566,110.65659865087365
6.772350976,1.0009605770133736,110.50503489321933
6.774636032,1.0008383535236276,110.35481894171305
6.776921088,1.0006628826291044,110.20678352501099
6.779206144,1.000445128574044,110.06163624382522
6.7814912,1.000198693940137,109.91987722252216
6.783776256,0.9999395018698551,109.78184268981508
6.786061312,0.9996837693827896,109.64759771400499
6.788346368,0.9994479936155062,109.51694420908137
6.790631424,0.9992468507150086,109.38950172458537
6.79291648,0.9990932798509293,109.26468289372677
6.795201536,0.9989970990581484,109.14170756566914
6.797486592,0.9989645570901976,109.01970979847069
6.799771648,0.9989973971734566,108.89775644600152
6.802056704,0.9990938835093693,108.77490998143085
6.80434176,0.9992478609995212,108.65022711682626
6.806626816,0.9994494454813388,108.52300281669065
6.808911872,0.9996860874375942,108.39262264026476
6.811196928,0.9999423068615153,108.25870224646516
6.813481984,1.0002023608541046,108.12103217284204
6.81576704,1.000449382475303,107.97969631655091
6.818052096,1.0006680207985634,107.8350275282486
6.820337152,1.000843986812287,107.6875256063601
6.822622208,1.0009665895696165,107.53787181967796
6.824907264,1.0010276790756911,107.38690668458165
6.82719232,1.0010235609214109,107.23556704554403
6.829477376,1.0009543887087557,107.08479316787547
6.831762432,1.000824631543636,106.9354563688346
6.834047488,1.0006421641624526,106.78844656520579
6.836332544,1.000418929465521,106.6443966834375
6.8386176,1.00016878131986,106.50382107794458
6.840902656,0.9999075073684617,106.36698143120266
6.843187712,0.9996519579043983,106.23393662952319
6.845472768,0.9994181048704226,106.10446877330406
6.847757824,0.9992209994024528,105.97819883287309
6.85004288,0.9990730763458561,105.85446251683389
6.852327936,0.9989837653935261,105.73250890523197
6.854612992,0.9989588668438846,105.61139351647455
6.856898048,0.9989999885801838,105.49019877601461
6.859183104,0.9991044362152637,105.36797161183426
6.86146816,0.9992658143049901,105.24385913151124
6.863753216,0.9994735573558808,105.1170889247182
6.866038272,0.9997146566501801,104.9870477253248
6.868323328,0.999973891925483,104.85344166917973
6.870608384,1.0002347104260307,104.71601510990169
6.87289344,1.0004805314892296,104.57500041085818
6.875178496,1.0006958703020803,104.4306096475217
6.877463552,1.0008670008286014,104.28347419415293
6.879748608,1.0009830997416949,104.13427124022945
6.882033664,1.0010367118493004,103.98387908644028
6.88431872,1.0010245163686848,103.83319892051153
6.886603776,1.0009472776175476,103.68320649201144
6.888888832,1.0008096600938556,103.53475549559485
6.891173888,1.000620580014888,103.38873185681479
6.893458944,1.0003917973061836,103.24578952451583
6.895744,1.0001379496549019,103.1063465445977
6.898029056,0.999874955124054,102.97069249721977
6.900314112,0.9996196584005143,102.83884571260249
6.902599168,0.9993881976952607,102.71055815557315
6.904884224,0.9991953085563552,102.58543571716464
6.90716928,0.9990533574184793,102.46274278314226
6.909454336,0.9989711510022894,102.34172841328798
6.911739392,0.99895424888533,102.22148138457416
6.914024448,0.9990036248628251,102.10103630475125
6.916309504,0.9991160801109638,101.97943114831502
6.91859456,0.9992846826230433,101.8558082603878
6.920879616,0.9994985526327113,101.72940776338194
6.923164672,0.9997442617295994,101.59970454508199
