freq,mag,phase
6.0,0.9999877257890177,103.96224121440744
6.008,0.9999879972880955,103.84643334239709
6.016,0.9999882621171191,103.73056924125126
6.024,0.999988520365305,103.61464885505448
6.032,0.9999887721212464,103.49867212803466
6.04,0.9999890174729151,103.38263900456397
6.048,0.9999892565076639,103.26654942915971
6.056,0.9999894893122265,103.15040334648518
6.064,0.9999897159727199,103.0342007013505
6.072,0.9999899365746462,102.91794143871347
6.08,0.9999901512028933,102.8016255036805
6.088,0.9999903599417376,102.68525284150738
6.096,0.9999905628748441,102.56882339760024
6.104,0.9999907600852699,102.45233711751636
6.112,0.9999909516554636,102.33579394696503
6.12,0.9999911376672684,102.21919383180844
6.128,0.9999913182019226,102.10253671806264
6.136,0.9999914933400631,101.98582255189824
6.144,0.999991663161724,101.86905127964145
6.152,0.9999918277463409,101.75222284777487
6.16,0.9999919871727513,101.63533720293839
6.168,0.999992141519195,101.51839429193012
6.176,0.9999922908633188,101.40139406170714
6.184,0.9999924352821752,101.2843364593866
6.192,0.9999925748522251,101.16722143224636
6.2,0.9999927096493397,101.05004892772615
6.208,0.9999928397488019,100.9328188934282
6.216,0.9999929652253072,100.81553127711831
6.224,0.9999930861529663,100.69818602672667
6.232,0.9999932026053064,100.58078309034877
6.24,0.9999933146552723,100.46332241624637
6.248,0.9999934223752293,100.34580395284821
6.256,0.9999935258369634,100.22822764875116
6.264,0.9999936251116834,100.1105934527209
6.272,0.9999937202700235,99.99290131369301
6.28,0.9999938113820431,99.87515118077376
6.288,0.9999938985172303,99.75734300324102
6.296,0.9999939817445023,99.63947673054523
6.304,0.999994061132208,99.5215523123103
6.312,0.9999941367481285,99.40356969833448
6.32,0.9999942086594797,99.28552883859133
6.328,0.999994276932914,99.1674296832306
6.336,0.9999943416345214,99.04927218257912
6.344,0.999994402829831,98.93105628714183
6.352,0.9999944605838141,98.81278194760262
6.36,0.9999945149608842,98.69444911482522
6.368,0.9999945660248992,98.57605773985419
6.376,0.9999946138391643,98.45760777391587
6.384,0.9999946584664311,98.33909916841921
6.392,0.9999946999689028,98.22053187495682
6.4,0.9999947384082322,98.10190584530577
6.408,0.9999947738455265,97.98322103142866
6.416,0.9999948063413464,97.86447738547442
6.424,0.9999948359557108,97.74567485977938
6.432,0.9999948627480955,97.62681340686811
6.44,0.9999948867774364,97.50789297945441
6.448,0.9999949081021318,97.38891353044221
6.456,0.9999949267800426,97.26987501292655
6.464,0.9999949428684956,97.15077738019451
6.472,0.9999949564242835,97.0316205857262
6.48,0.9999949675036688,96.91240458319558
6.4879999999999995,0.9999949761623836,96.79312932647157
6.496,0.9999949824556321,96.67379476961888
6.504,0.9999949864380929,96.55440086689904
6.5120000000000005,0.9999949881639199,96.43494757277126
6.52,0.9999949876867441,96.31543484189356
6.5280000000000005,0.9999949850596762,96.19586262912347
6.536,0.9999949803353078,96.07623088951925
6.5440000000000005,0.9999949735657127,95.95653957834064
6.552,0.9999949648024495,95.83678865105
6.5600000000000005,0.9999949540965634,95.71697806331308
6.568,0.9999949414985866,95.59710777100018
6.5760000000000005,0.9999949270585424,95.47717773018695
6.584,0.9999949108259448,95.35718789715548
6.592,0.9999948928498017,95.23713822839518
6.6,0.9999948731786162,95.1170286806038
6.608,0.9999948518603877,94.99685921068838
6.616,0.9999948289426158,94.87662977576625
6.624,0.9999948044722989,94.75634033316594
6.632,0.9999947784959397,94.63599084042825
6.64,0.9999947510595437,94.51558125530711
6.648,0.9999947222086236,94.39511153577068
6.656,0.9999946919881993,94.27458164000224
6.664,0.9999946604428006,94.15399152640119
6.672,0.999994627616469,94.03334115358405
6.68,0.9999945935527591,93.91263048038545
6.688,0.9999945582947408,93.79185946585908
6.696,0.9999945218850017,93.67102806927868
6.704,0.9999944843656475,93.55013625013909
6.712,0.999994445778305,93.4291839681571
6.72,0.9999944061641239,93.30817118327263
6.728,0.9999943655637783,93.18709785564957
6.736,0.999994324017468,93.06596394567677
6.744,0.9999942815649218,92.94476941396915
6.752,0.9999942382453982,92.82351422136861
6.76,0.9999941940976877,92.70219832894502
6.768,0.9999941491601149,92.58082169799724
6.776,0.99999410347054,92.45938429005413
6.784,0.9999940570663601,92.33788606687553
6.792,0.9999940099845132,92.21632699045325
6.8,0.9999939622614769,92.0947070230121
6.808,0.9999939139332735,91.97302612701085
6.816,0.9999938650354698,91.85128426514329
6.824,0.9999938156031799,91.72948140033917
6.832,0.9999937656710668,91.60761749576525
6.84,0.9999937152733444,91.48569251482633
6.848,0.9999936644437787,91.36370642116614
6.856,0.9999936132156914,91.24165917866851
6.864,0.9999935616219601,91.11955075145828
6.872,0.9999935096950217,90.99738110390228
6.88,0.9999934574668723,90.87515020061046
6.888,0.9999934049690719,90.7528580064368
6.896,0.9999933522327433,90.63050448648033
6.904,0.9999932992885768,90.50808960608626
6.912,0.9999932461668298,90.38561333084678
6.92,0.9999931928973308,90.2630756266023
6.928,0.9999931395094795,90.14047645944235
6.936,0.9999930860322502,90.0178157957066
6.944,0.9999930324941927,89.89509360198589
6.952,0.9999929789234355,89.7723098451233
6.96,0.9999929253476857,89.64946449221507
6.968,0.9999928717942334,89.52655751061174
6.976,0.9999928182899513,89.40358886791904
6.984,0.9999927648612998,89.28055853199905
6.992,0.9999927115343247,89.15746647097113
7.0,0.9999926583346631,89.03431265321296
7.008,0.999992605287543,88.91109704736161
7.016,0.9999925524177866,88.78781962231449
7.024,0.9999924997498109,88.66448034723048
7.032,0.999992447307631,88.54107919153086
7.04,0.9999923951148626,88.41761612490036
7.048,0.999992343194721,88.29409111728826
7.056,0.9999922915700264,88.17050413890934
7.064,0.9999922402632044,88.04685516024489
7.072,0.999992189296288,87.9231441520439
7.08,0.9999921386909197,87.79937108532387
7.088,0.999992088468354,87.675535931372
7.096,0.9999920386494585,87.55163866174617
7.104,0.9999919892547168,87.42767924827598
7.112,0.9999919403042301,87.30365766306379
7.12,0.9999918918177187,87.17957387848573
7.128,0.9999918438145254,87.05542786719275
7.136,0.9999917963136162,86.93121960211168
7.144,0.9999917493335828,86.80694905644621
7.152,0.9999917028926447,86.68261620367801
7.16,0.9999916570086513,86.55822101756765
7.168,0.9999916116990839,86.43376347215575
7.176,0.9999915669810568,86.30924354176399
7.184,0.9999915228713218,86.18466120099608
7.192,0.9999914793862668,86.06001642473888
7.2,0.9999914365419212,85.93530918816339
7.208,0.9999913943539556,85.81053946672583
7.216,0.9999913528376845,85.68570723616865
7.224,0.9999913120080696,85.56081247252158
7.232,0.9999912718797196,85.43585515210263
7.24,0.9999912324668938,85.31083525151924
7.248,0.9999911937835042,85.18575274766917
7.256,0.999991155843117,85.0606076177417
7.264,0.9999911186589545,84.9353998392185
7.272,0.9999910822438975,84.81012938987486
7.28,0.9999910466104883,84.68479624778055
7.288,0.9999910117709303,84.55940039130101
7.296,0.9999909777370932,84.43394179909828
7.304,0.9999909445205123,84.30842045013213
7.312,0.9999909121323923,84.18283632366102
7.32,0.9999908805836093,84.05718939924324
7.328,0.9999908498847111,83.93147965673784
7.336,0.9999908200459221,83.80570707630574
7.344,0.9999907910771436,83.67987163841079
7.352,0.9999907629879554,83.55397332382078
7.36,0.9999907357876193,83.42801211360846
7.368,0.9999907094850807,83.30198798915264
7.376,0.9999906840889708,83.17590093213914
7.384,0.999990659607608,83.04975092456198
7.392,0.9999906360490005,82.92353794872427
7.4,0.9999906134208487,82.79726198723932
7.4079999999999995,0.9999905917305473,82.67092302303175
7.416,0.9999905709851864,82.5445210393383
7.4239999999999995,0.9999905511915552,82.41805601970924
7.432,0.9999905323561422,82.29152794800903
7.4399999999999995,0.9999905144851393,82.16493680841764
7.448,0.9999904975844429,82.03828258543138
7.4559999999999995,0.9999904816596557,81.91156526386416
7.464,0.9999904667160892,81.78478482884833
7.4719999999999995,0.9999904527587664,81.65794126583586
7.48,0.9999904397924225,81.53103456059925
7.4879999999999995,0.9999904278215092,81.40406469923273
7.496,0.9999904168501942,81.27703166815313
7.504,0.9999904068823653,81.14993545410105
7.5120000000000005,0.9999903979216322,81.02277604414182
7.52,0.9999903899713274,80.8955534256666
7.5280000000000005,0.9999903830345102,80.7682675863933
7.536,0.9999903771139673,80.6409185143678
7.5440000000000005,0.9999903722122159,80.51350619796479
7.552,0.9999903683315053,80.38603062588896
7.5600000000000005,0.9999903654738188,80.25849178717593
7.568,0.9999903636408772,80.13088967119337
7.5760000000000005,0.9999903628341389,80.00322426764193
7.584,0.999990363054804,79.87549556655638
7.5920000000000005,0.9999903643038155,79.74770355830655
7.6,0.9999903665818611,79.61984823359847
7.6080000000000005,0.9999903698893755,79.49192958347525
7.616,0.999990374226544,79.36394759931831
7.6240000000000006,0.9999903795933025,79.23590227284811
7.632,0.9999903859893406,79.10779359612556
7.640000000000001,0.9999903934141047,78.9796215615527
7.648,0.9999904018667981,78.85138616187402
7.656000000000001,0.9999904113463852,78.72308739017716
7.664,0.9999904218515924,78.59472523989429
7.672,0.9999904333809102,78.46629970480282
7.68,0.9999904459325965,78.33781077902667
7.688,0.9999904595046774,78.20925845703711
7.696,0.9999904740949503,78.08064273365389
7.704,0.9999904897009859,77.95196360404623
7.712,0.9999905063201299,77.82322106373378
7.72,0.9999905239495053,77.69441510858776
7.728,0.9999905425860153,77.56554573483187
7.736,0.9999905622263444,77.43661293904334
7.744,0.9999905828669616,77.30761671815395
7.752,0.9999906045041208,77.17855706945105
7.76,0.9999906271338659,77.04943399057855
7.768,0.9999906507520301,76.92024747953796
7.776,0.9999906753542395,76.79099753468932
7.784,0.9999907009359149,76.66168415475236
7.792,0.9999907274922739,76.53230733880734
7.8,0.9999907550183338,76.40286708629617
7.808,0.9999907835089129,76.27336339702335
7.816,0.9999908129586327,76.14379627115702
7.824,0.9999908433619205,76.0141657092299
7.832,0.9999908747130114,75.88447171214038
7.84,0.9999909070059507,75.75471428115343
7.848,0.9999909402345951,75.6248934179016
7.856,0.9999909743926166,75.49500912438612
7.864,0.9999910094735027,75.36506140297776
7.872,0.99999104547056,75.2350502564179
7.88,0.9999910823769157,75.1049756878195
7.888,0.9999911201855206,74.97483770066812
7.896,0.9999911588891499,74.84463629882278
7.904,0.9999911984804062,74.71437148651715
7.912,0.9999912389517218,74.58404326836038
7.92,0.9999912802953608,74.45365164933808
7.928,0.9999913225034203,74.32319663481343
7.936,0.9999913655678346,74.192678230528
7.944,0.9999914094803748,74.06209644260282
7.952,0.9999914542326535,73.93145127753937
7.96,0.9999914998161246,73.80074274222045
7.968,0.9999915462220876,73.66997084391124
7.976,0.9999915934416884,73.53913559026027
7.984,0.9999916414659219,73.40823698930029
7.992,0.9999916902856338,73.27727504944939
8.0,0.9999917398915239,73.14624977951179
8.008,0.9999917902741463,73.01516118867893
8.016,0.9999918414239135,72.88400928653031
8.024000000000001,0.9999918933310978,72.75279408303464
8.032,0.9999919459858331,72.62151558855061
8.04,0.9999919993781169,72.49017381382785
8.048,0.9999920534978141,72.35876877000794
8.056000000000001,0.9999921083346568,72.2273004686254
8.064,0.9999921638782484,72.09576892160857
8.072,0.9999922201180649,71.96417414128052
8.08,0.9999922770434567,71.83251614036001
8.088000000000001,0.9999923346436514,71.70079493196249
8.096,0.999992392907756,71.56901052960104
8.104,0.9999924518247584,71.43716294718715
8.112,0.9999925113835301,71.30525219903173
8.120000000000001,0.9999925715728278,71.17327829984619
8.128,0.9999926323812968,71.04124126474318
8.136,0.9999926937974716,70.90914110923751
8.144,0.9999927558097782,70.7769778492471
8.152000000000001,0.9999928184065379,70.64475150109402
8.16,0.9999928815759672,70.51246208150528
8.168,0.9999929453061814,70.3801096076137
8.176,0.9999930095851969,70.24769409695891
8.184000000000001,0.9999930744009317,70.11521556748824
8.192,0.9999931397412088,69.98267403755757
8.2,0.9999932055937591,69.85006952593235
8.208,0.9999932719462213,69.71740205178826
8.216000000000001,0.9999933387861456,69.5846716347124
8.224,0.9999934061009957,69.45187829470399
8.232,0.9999934738781504,69.3190220521753
8.24,0.9999935421049067,69.18610292795249
8.248000000000001,0.9999936107684798,69.05312094327662
8.256,0.9999936798560081,68.92007611980445
8.264,0.9999937493545529,68.78696847960924
8.272,0.9999938192511013,68.65379804518169
8.280000000000001,0.9999938895325692,68.52056483943086
8.288,0.9999939601858022,68.38726888568506
8.296,0.999994031197578,68.2539102076925
8.304,0.999994102554609,68.12048882962233
8.312,0.9999941742435431,67.98700477606553
8.32,0.9999942462509678,67.85345807203558
8.328,0.9999943185634104,67.71984874296953
8.336,0.9999943911673411,67.58617681472859
8.344,0.9999944640491751,67.45244231359925
8.352,0.9999945371952739,67.31864526629387
8.36,0.9999946105919478,67.18478569995173
8.368,0.9999946842254586,67.05086364213966
8.376,0.9999947580820213,66.91687912085304
8.384,0.9999948321478047,66.78283216451645
8.392,0.9999949064089358,66.64872280198472
8.4,0.9999949808515006,66.51455106254348
8.408,0.9999950554615462,66.3803169759102
8.416,0.9999951302250829,66.24602057223487
8.424,0.9999952051280863,66.11166188210085
8.432,0.9999952801564995,65.9772409365256
8.44,0.9999953552962352,65.84275776696167
8.448,0.9999954305331771,65.70821240529719
8.456,0.9999955058531821,65.57360488385699
8.464,0.9999955812420838,65.43893523540312
8.472,0.999995656685692,65.30420349313577
8.48,0.9999957321697966,65.16940969069404
8.488,0.9999958076801688,65.03455386215663
8.496,0.9999958832025639,64.89963604204269
8.504,0.9999959587227221,64.76465626531262
8.512,0.999996034226371,64.62961456736865
8.52,0.9999961096992286,64.49451098405581
8.528,0.9999961851270032,64.35934555166254
8.536,0.9999962604953984,64.22411830692155
8.544,0.9999963357901112,64.08882928701038
8.552,0.9999964109968371,63.95347852955242
8.56,0.9999964861012718,63.81806607261731
8.568,0.999996561089111,63.68259195472199
8.576,0.9999966359460541,63.547056214831144
8.584,0.999996710657807,63.41145889235819
8.592,0.9999967852100812,63.27580002716573
8.6,0.9999968595885982,63.140079659566496
8.608,0.9999969337790909,63.00429783032387
8.616,0.9999970077673049,62.86845458065275
8.624,0.9999970815390012,62.732549952220076
8.632,0.9999971550799573,62.5965839871457
8.64,0.9999972283759702,62.46055672800293
8.648,0.999997301412857,62.32446821781931
8.656,0.9999973741764578,62.18831850007718
8.664,0.9999974466526377,62.052107618714565
8.672,0.9999975188272876,61.915835618125556
8.68,0.9999975906863274,61.779502543161264
8.688,0.9999976622157072,61.643108439130195
8.696,0.9999977334014087,61.50665335179918
8.704,0.9999978042294488,61.370137327393785
8.712,0.9999978746858793,61.233560412599175
8.72,0.9999979447567899,61.09692265456048
8.728,0.9999980144283108,60.96022410088378
8.736,0.9999980836866128,60.823464799636305
8.744,0.9999981525179102,60.686644799347555
8.752,0.9999982209084631,60.54976414900939
8.76,0.9999982888445778,60.41282289807712
8.768,0.9999983563126104,60.27582109646974
8.776,0.9999984232989666,60.13875879457079
8.784,0.9999984897901054,60.00163604322878
8.792,0.9999985557725396,59.8644528937579
8.8,0.999998621232839,59.727209397938516
8.808,0.9999986861576304,59.5899056080178
8.815999999999999,0.9999987505336004,59.45254157671029
8.824,0.9999988143474975,59.31511735719842
8.832,0.9999988775861333,59.17763300313315
8.84,0.9999989402363842,59.04008856863456
8.847999999999999,0.9999990022851938,58.90248410829223
8.856,0.9999990637195737,58.764819677165846
8.864,0.9999991245266063,58.627095330785934
8.872,0.9999991846934462,58.48931112515419
8.879999999999999,0.9999992442073211,58.351467116743976
8.888,0.9999993030555344,58.21356336250094
8.896,0.9999993612254674,58.07559991984363
8.904,0.99999941870458,57.93757684666379
8.911999999999999,0.9999994754804116,57.79949420132698
8.92,0.9999995315405861,57.66135204267302
8.928,0.9999995868728095,57.5231504300166
8.936,0.9999996414648749,57.38488942314765
8.943999999999999,0.9999996953046618,57.246569082331824
8.952,0.9999997483801396,57.10818946831101
8.96,0.9999998006793681,56.9697506423038
8.968,0.999999852190499,56.83125266600599
8.975999999999999,0.9999999029017791,56.6926956015909
8.984,0.9999999528015494,56.55407951170993
8.992,1.0,56.415404459493004
9.0,1.0,56.27667050854898
9.008,1.0,56.13787772296607
9.016,1.0000000000000002,55.99902616731219
9.024000000000001,1.0,55.8601159066356
9.032,1.0,55.72114700646512
9.04,1.0,55.582119532810516
9.048,1.0,55.443033552162994
9.056000000000001,1.0,55.30388913149562
9.064,1.0,55.16468633826362
9.072,1.0,55.025425240404715
9.08,1.0,54.886105906339566
9.088000000000001,1.0,54.74672840497222
9.096,0.9999999999999999,54.607292805690285
9.104,1.0000000000000002,54.46779917836537
9.112,1.0,54.32824759335341
9.120000000000001,1.0,54.18863812149506
9.128,0.9999999999999999,54.04897083411599
9.136,0.9999999999999998,53.90924580302713
9.144,1.0,53.76946310052501
9.152000000000001,1.0,53.62962279939224
9.16,1.0,53.48972497289762
9.168,0.9999999999999999,53.34976969479642
9.176,0.9999999999999999,53.20975703933077
9.184000000000001,1.0,53.06968708122992
9.192,1.0,52.92955989571056
9.2,0.9999999999999999,52.78937555847689
9.208,1.0,52.64913414572104
9.216000000000001,1.0,52.50883573412332
9.224,1.0,52.36848040085248
9.232,1.0,52.22806822356577
9.24,1.0,52.08759928040934
9.248000000000001,1.0,51.947073650018446
9.256,0.9999999999999999,51.80649141151763
9.264,1.0,51.66585264452086
9.272,0.9999999999999999,51.525157429131816
9.280000000000001,1.0,51.38440584594407
9.288,1.0,51.2435979760413
9.296,1.0,51.10273390099734
9.304,1.0,50.96181370287641
9.312000000000001,1.0,50.820837464233385
9.32,1.0,50.679805268113824
9.328,1.0,50.53871719805411
9.336,1.0,50.39757333808159
9.344,1.0,50.256373772714866
9.352,0.9999999999999999,50.11511858696361
9.36,1.0,49.97380786632905
9.368,1.0,49.83244169680368
9.376,1.0,49.691020164871695
9.384,0.9999999999999999,49.54954335750884
9.392,1.0,49.40801136218271
9.4,1.0,49.26642426685256
9.408,1.0,49.12478215996964
9.416,0.9999999999999999,48.98308513047705
9.424,1.0,48.84133326780991
9.432,1.0,48.6995266618953
9.44,1.0,48.55766540315244
9.448,1.0,48.41574958249249
9.456,1.0,48.27377929131888
9.464,1.0,48.13175462152697
9.472,1.0,47.98967566550435
9.48,1.0,47.84754251613056
9.488,1.0,47.70535526677738
9.496,0.9999999999999999,47.563114011308514
9.504,0.9999999999999999,47.42081884407975
9.512,1.0,47.27846985993878
9.52,1.0,47.136067154225344
9.528,0.9999999999999999,46.993610822770925
9.536,1.0,46.85110096189887
9.544,1.0,46.708537668424235
9.552,0.9999999999999999,46.565921039653745
9.56,1.0,46.423251173385594
9.568,0.9999999999999999,46.28052816790957
9.576,0.9999999999999999,46.137752122006624
9.584,1.0,45.99492313494909
9.592,1.0,45.852041306500254
9.6,0.9999999999999999,45.70910673691451
9.608,1.0,45.56611952693692
9.616,1.0,45.42307977780335
9.624,0.9999999999999999,45.279987591240015
9.632,1.0,45.136843069463644
9.64,1.0,44.99364631518093
9.648,1.0,44.85039743158872
9.656,0.9999999999999999,44.70709652237344
9.664,1.0,44.56374369171127
9.672,1.0,44.420339044267585
9.68,1.0,44.27688268519704
9.688,0.9999999999999999,44.133374720142996
9.696,1.0,43.989815255237716
9.704,1.0,43.846204397101616
9.712,0.9999999631219295,43.70254225284349
9.72,0.9999999060342109,43.55882893005984
9.728,0.9999998476685419,43.415064536834926
9.736,0.9999997880283943,43.27124918174019
9.744,0.9999997271174536,43.12738297383424
9.752,0.9999996649396192,42.983466022662284
9.76,0.9999996014990072,42.839498438256065
9.768,0.9999995367999498,42.69548033113334
9.776,0.9999994708469961,42.55141181229769
9.784,0.9999994036449144,42.407292993238045
9.792,0.999999335198691,42.26312398592853
9.8,0.9999992655135332,42.11890490282787
9.808,0.9999991945948689,41.97463585687928
