freq,mag,phase
6.0,0.9999879246790877,85.81349082573354
6.008,0.9999853574680664,85.64087625231566
6.016,0.9999828331086549,85.46806216015412
6.024,0.999980351261114,85.29504837705274
6.032,0.9999779115866736,85.12183473232028
6.04,0.9999755137475367,84.94842105678397
6.048,0.9999731574068794,84.77480718280283
6.056,0.9999708422288577,84.60099294428134
6.064,0.9999685678786069,84.42697817668295
6.072,0.9999663340222469,84.25276271704368
6.08,0.9999641403268837,84.07834640398585
6.088,0.9999619864606134,83.90372907773177
6.096,0.9999598720925241,83.72891058011754
6.104,0.9999577968927,83.5538907546068
6.112,0.9999557605322233,83.37866944630461
6.12,0.9999537626831784,83.20324650197145
6.128,0.9999518030186532,83.02762177003703
6.136,0.9999498812127436,82.85179510061435
6.144,0.9999479969405564,82.6757663455138
6.152,0.999946149878211,82.49953535825713
6.16,0.9999443397028438,82.3231019940917
6.168,0.9999425660926103,82.14646611000455
6.176,0.9999408287266895,81.96962756473673
6.184,0.9999391272852849,81.79258621879741
6.192,0.9999374614496288,81.61534193447837
6.2,0.9999358309019861,81.43789457586819
6.208,0.9999342353256553,81.2602440088667
6.216,0.9999326744049729,81.08239010119946
6.224,0.9999311478253171,80.90433272243212
6.232,0.9999296552731092,80.726071743985
6.24,0.9999281964358172,80.54760703914764
6.248,0.9999267710019601,80.36893848309339
6.256,0.9999253786611096,80.19006595289397
6.264,0.9999240191038932,80.01098932753426
6.272,0.9999226920219987,79.83170848792689
6.28,0.9999213971081754,79.65222331692705
6.288,0.9999201340562387,79.47253369934724
6.296,0.9999189025610724,79.29263952197206
6.304,0.9999177023186318,79.11254067357314
6.312,0.9999165330259475,78.93223704492392
6.32,0.999915394381128,78.75172852881468
6.328,0.9999142860833619,78.57101502006739
6.336,0.9999132078329237,78.39009641555077
6.344,0.9999121593311733,78.20897261419526
6.352,0.9999111402805625,78.02764351700814
6.36,0.9999101503846357,77.84610902708852
6.368,0.999909189348034,77.66436904964252
6.376,0.9999082568764986,77.4824234919984
6.384,0.9999073526768729,77.30027226362174
6.392,0.9999064764571076,77.1179152761306
6.4,0.9999056279262611,76.93535244331085
6.408,0.9999048067945042,76.75258368113128
6.416,0.9999040127731238,76.56960890775903
6.424,0.9999032455745245,76.38642804357484
6.432,0.9999025049122324,76.20304101118835
6.44,0.999901790500899,76.01944773545353
6.448,0.9999011020563023,75.83564814348405
6.456,0.9999004392953522,75.65164216466866
6.464,0.9998998019360924,75.46742973068665
6.472,0.9998991896977031,75.2830107755233
6.48,0.999898602300505,75.09838523548534
6.4879999999999995,0.9998980394659621,74.91355304921649
6.496,0.9998975009166844,74.7285141577129
6.504,0.9998969863764317,74.54326850433877
6.5120000000000005,0.9998964955701155,74.3578160348418
6.52,0.9998960282238037,74.17215669736898
6.5280000000000005,0.9998955840647225,73.98629044248179
6.536,0.9998951628212592,73.80021722317225
6.5440000000000005,0.9998947642229665,73.61393699487813
6.552,0.9998943880005647,73.42744971549897
6.5600000000000005,0.9998940338859444,73.24075534541129
6.568,0.9998937016121707,73.05385384748472
6.5760000000000005,0.999893390913485,72.86674518709721
6.584,0.9998931015253086,72.67942933215109
6.592,0.999892833184246,72.4919062530885
6.6,0.9998925856280866,72.30417592290719
6.608,0.9998923585958099,72.1162383171762
6.616,0.9998921518275864,71.92809341405165
6.624,0.9998919650647813,71.73974119429226
6.632,0.9998917980499578,71.55118164127532
6.64,0.9998916505268799,71.36241474101223
6.648,0.9998915222405145,71.1734404821643
6.656,0.9998914129370358,70.98425885605842
6.664,0.9998913223638269,70.79486985670295
6.672,0.9998912502694833,70.60527348080319
6.68,0.9998911964038157,70.41546972777738
6.688,0.9998911605178533,70.22545859977225
6.696,0.9998911423638452,70.03524010167878
6.704,0.9998911416952654,69.84481424114801
6.712,0.9998911582668136,69.6541810286066
6.72,0.9998911918344192,69.46334047727262
6.728,0.999891242155244,69.27229260317134
6.736,0.9998913089876845,69.08103742515073
6.744,0.9998913920913748,68.8895749648973
6.752,0.9998914912271898,68.6979052469517
6.76,0.9998916061572477,68.50602829872444
6.768,0.9998917366449118,68.3139441505114
6.776,0.9998918824547948,68.12165283550965
6.784,0.9998920433527607,67.92915438983292
6.792,0.9998922191059266,67.73644885252726
6.8,0.9998924094826671,67.54353626558667
6.808,0.9998926142526157,67.35041667396858
6.816,0.9998928331866672,67.15709012560941
6.824,0.9998930660569813,66.96355667144016
6.832,0.9998933126369846,66.76981636540185
6.84,0.9998935727013729,66.57586926446102
6.848,0.9998938460261135,66.38171542862517
6.856,0.9998941323884494,66.1873549209582
6.864,0.9998944315668992,65.99278780759585
6.872,0.9998947433412614,65.79801415776096
6.88,0.9998950674926164,65.60303404377895
6.888,0.9998954038033283,65.40784754109303
6.896,0.9998957520570478,65.21245472827954
6.904,0.999896112038715,65.01685568706314
6.912,0.9998964835345602,64.82105050233206
6.92,0.9998968663321082,64.6250392621533
6.928,0.9998972602201787,64.42882205778766
6.936,0.9998976649888891,64.23239898370498
6.944,0.9998980804296581,64.03577013759909
6.952,0.9998985063352059,63.838935620402914
6.96,0.999898942499557,63.641895536303295
6.968,0.999899388718043,63.444649992756084
6.976,0.9998998447873036,63.247199100501014
6.984,0.99990031050529,63.04954297357636
6.992,0.9999007856712652,62.851681729333926
7.0,0.9999012700858081,62.653615488453724
7.008,0.9999017635508131,62.455344374958585
7.016,0.9999022658694937,62.25686851622887
7.024,0.9999027768463845,62.05818804301705
7.032,0.9999032962873416,61.85930308946216
7.04,0.9999038239995456,61.66021379310437
7.048,0.9999043597915036,61.46092029489932
7.056,0.99990490347305,61.26142273923245
7.064,0.9999054548553488,61.06172127393336
7.072,0.9999060137508952,60.861816050289974
7.08,0.9999065799735173,60.661707223062756
7.088,0.9999071533383775,60.461394950498736
7.096,0.9999077336619744,60.26087939434556
7.104,0.9999083207621445,60.060160719865486
7.112,0.9999089144580624,59.859239095849205
7.12,0.9999095145702441,59.65811469462974
7.128,0.9999101209205477,59.456787692096064
7.136,0.9999107333321737,59.25525826770693
7.144,0.9999113516296683,59.05352660450428
7.152,0.9999119756389228,58.851592889126884
7.16,0.9999126051871765,58.64945731182376
7.168,0.999913240103017,58.44712006646745
7.176,0.999913880216381,58.24458135056735
7.184,0.9999145253585564,58.04184136528287
7.192,0.9999151753621833,57.838900315436575
7.2,0.9999158300612543,57.635758409527085
7.208,0.9999164892911155,57.432415859742136
7.216,0.9999171528884685,57.228872881971235
7.224,0.9999178206913707,57.02512969581863
7.232,0.9999184925392354,56.821186524615705
7.24,0.999919168272834,56.617043595433735
7.248,0.9999198477342963,56.41270113909615
7.256,0.9999205307671102,56.20815939019101
7.264,0.9999212172161236,56.00341858708327
7.272,0.999921906927545,55.798478971926805
7.28,0.9999225997489435,55.59334079067654
7.288,0.9999232955292491,55.388004293100394
7.296,0.9999239941187535,55.18246973279108
7.304,0.9999246953691123,54.976737367177826
7.312,0.9999253991333413,54.77080745753799
7.32,0.9999261052658208,54.56468026900857
7.328,0.9999268136222942,54.35835607059756
7.336,0.999927524059867,54.15183513519526
7.344,0.99992823643701,53.94511773958543
7.352,0.999928950613557,53.73820416445622
7.36,0.9999296664507052,53.53109469441124
7.368,0.9999303838110155,53.323789617980246
7.376,0.9999311025584134,53.1162892276298
7.384,0.9999318225581872,52.90859381977388
7.392,0.9999325436769885,52.700703694784224
7.4,0.9999332657828328,52.492619157000654
7.4079999999999995,0.9999339887450979,52.28434051474126
7.416,0.9999347124345247,52.075868080312254
7.4239999999999995,0.9999354367232158,51.86720217001816
7.432,0.9999361614846359,51.65834310417116
7.4399999999999995,0.9999368865936107,51.4492912071012
7.448,0.9999376119263268,51.240046807164916
7.4559999999999995,0.9999383373603308,51.030610236755514
7.464,0.9999390627745287,50.82098183231142
7.4719999999999995,0.999939788049185,50.611161934325864
7.48,0.9999405130659218,50.40115088735523
7.4879999999999995,0.9999412377077187,50.190949040028386
7.496,0.9999419618589113,49.980556745054734
7.504,0.999942685405189,49.76997435923313
7.5120000000000005,0.9999434082335974,49.55920224345977
7.52,0.9999441302325329,49.34824076273673
7.5280000000000005,0.9999448512917448,49.137090286179536
7.536,0.9999455713023322,48.925751187025455
7.5440000000000005,0.9999462901567435,48.71422384264072
7.552,0.9999470077487753,48.502508634528425
7.5600000000000005,0.9999477239735703,48.290605948335504
7.568,0.9999484387276152,48.0785161738603
7.5760000000000005,0.9999491519087415,47.866239705059165
7.584,0.999949863416121,47.65377694005376
7.5920000000000005,0.9999505731502661,47.44112828113723
7.6,0.9999512810130279,47.22829413478122
7.6080000000000005,0.9999519869075923,47.015274911641804
7.616,0.9999526907384815,46.802071026565926
7.6240000000000006,0.9999533924115487,46.58868289859707
7.632,0.9999540918339787,46.37511095098152
7.640000000000001,0.9999547889142837,46.161355611173484
7.648,0.999955483562303,45.94741731084095
7.656000000000001,0.9999561756891993,45.73329648587062
7.664,0.9999568652074573,45.518993576373326
7.672,0.999957552030881,45.30450902668854
7.68,0.999958236074591,45.08984328538943
7.688,0.9999589172550226,44.874996805287125
7.696,0.9999595954899224,44.6599700434352
7.704,0.9999602706983471,44.4447634611337
7.712,0.9999609428006584,44.229377523933145
7.72,0.9999616117185232,44.013812701638244
7.728,0.9999622773749077,43.798069468311446
7.736,0.9999629396940773,43.58214830227629
7.744,0.9999635986015908,43.36604968612053
7.752,0.9999642540243002,43.14977410669916
7.76,0.9999649058903453,42.93332205513704
7.768,0.9999655541291514,42.716694026831505
7.776,0.9999661986714261,42.49989052145471
7.784,0.9999668394491557,42.28291204295571
7.792,0.999967476395602,42.065759099562385
7.8,0.9999681094452981,41.84843220378322
7.808,0.999968738534046,41.63093187240864
7.816,0.9999693635989119,41.41325862651249
7.824,0.9999699845782231,41.19541299145291
7.832,0.9999706014115638,40.97739549687334
7.84,0.999971214039772,40.75920667670303
7.848,0.9999718224049341,40.540847069157536
7.856,0.9999724264503828,40.3223172167389
7.864,0.9999730261206909,40.1036176662356
7.872,0.9999736213616696,39.884748968722285
7.88,0.9999742121203616,39.665711679559315
7.888,0.9999747983450389,39.446506358392135
7.896,0.9999753799851977,39.22713356915017
7.904,0.9999759569915533,39.00759388004588
7.912,0.999976529316037,38.787887863573225
7.92,0.99997709691179,38.568016096506064
7.928,0.9999776597331597,38.34797915989642
7.936,0.9999782177356948,38.12777763907223
7.944,0.9999787708761403,37.90741212363519
7.952,0.9999793191124329,37.68688320745812
7.96,0.9999798624036954,37.466191488682156
7.968,0.9999804007102325,37.24533756971379
7.976,0.999980933993525,37.02432205722157
7.984,0.9999814622162252,36.803145562132606
7.992,0.9999819853421514,36.581808699628816
8.0,0.9999825033362824,36.36031208914299
8.008,0.9999830161647526,36.13865635435448
8.016,0.9999835237948456,35.91684212318469
8.024000000000001,0.99998402619499,35.69487002779258
8.032,0.999984523334753,35.47274070456957
8.04,0.9999850151848343,35.25045479413414
8.048,0.999985501717061,35.0280129413266
8.056000000000001,0.9999859829043823,34.80541579520343
8.064,0.9999864587208624,34.582664009031205
8.072,0.9999869291416751,34.359758240280286
8.08,0.9999873941430978,34.13669915061847
8.088000000000001,0.9999878537025053,33.913487405904405
8.096,0.9999883077983647,33.69012367618051
8.104,0.9999887564102261,33.4666086356656
8.112,0.9999891995187206,33.24294296274759
8.120000000000001,0.99998963710555,33.01912733997581
8.128,0.9999900691534834,32.79516245405296
8.136,0.9999904956463485,32.57104899582674
8.144,0.9999909165690252,32.34678766028144
8.152000000000001,0.9999913319074417,32.122379146529326
8.16,0.9999917416485636,31.897824157801494
8.168,0.9999921457803904,31.67312340143847
8.176,0.9999925442919472,31.44827758888082
8.184000000000001,0.9999929371732776,31.223287435659408
8.192,0.9999933244154379,30.998153661385313
8.2,0.9999937060104889,30.7728769897393
8.208,0.9999940819514893,30.547458148461416
8.216000000000001,0.9999944522324888,30.32189786934025
8.224,0.9999948168485195,30.09619688820169
8.232,0.9999951757955913,29.870355944897465
8.24,0.9999955290706819,29.6443757832936
8.248000000000001,0.9999958766717298,29.418257151258675
8.256,0.9999962185976281,29.192000800651506
8.264,0.9999965548482161,28.965607487308617
8.272,0.9999968854242727,28.739077971031698
8.280000000000001,0.999997210327506,28.51241301557473
8.288,0.999997529560549,28.28561338863063
8.296,0.9999978431269496,28.05867986181772
8.304,0.9999981510311635,27.83161321066606
8.312,0.9999984532785464,27.60441421460355
8.32,0.9999987498753455,27.377083656941362
8.328,0.9999990408286924,27.149622324859727
8.336,0.9999993261465941,26.92203100939278
8.344,0.9999996058379257,26.694310505413835
8.352,0.999999879912421,26.466461611619703
8.36,1.0,26.2384851305154
8.368,0.9999999999999999,26.010381868397964
8.376,0.9999999999999999,25.782152635340655
8.384,1.0,25.553798245176196
8.392,1.0,25.325319515480455
8.4,1.0,25.096717267555153
8.408,0.9999999999999999,24.86799232641108
8.416,1.0,24.639145520750187
8.424,0.9999999999999999,24.410177682948284
8.432,1.0,24.18108964903668
8.44,1.0,23.95188225868433
8.448,1.0,23.722556355178853
8.456,1.0,23.493112785408286
8.464,0.9999999999999999,23.263552399841508
8.472,0.9999999999999999,23.033876052509466
8.48,0.9999999999999999,22.80408460098514
8.488,1.0,22.574178906364168
8.496,1.0,22.344159833244365
8.504,1.0,22.11402824970579
8.512,1.0,21.88378502728974
8.52,0.9999999999999999,21.653431040978322
8.528,0.9999999999999999,21.422967169172942
8.536,1.0,21.192394293673356
8.544,0.9999999999999999,20.96171329965564
8.552,1.0,20.730925075650728
8.56,0.9999999999999998,20.500030513521914
8.568,1.0,20.269030508442846
8.576,1.0000000000000002,20.03792595887451
8.584,0.9999999999999999,19.80671776654281
8.592,0.9999999999999999,19.57540683641494
8.6,1.0,19.343994076676513
8.608,0.9999999999999999,19.112480398707508
8.616,0.9999999999999999,18.880866717058797
8.624,1.0,18.649153949427642
8.632,1.0,18.417343016633758
8.64,0.9999999999999999,18.185434842594294
8.648,1.0,17.953430354299446
8.656,1.0,17.721330481786932
8.664,1.0,17.489136158117102
8.672,1.0,17.25684831934697
8.68,1.0,17.024467904504892
8.688,0.9999999999999998,16.79199585556405
8.696,1.0,16.55943311741667
8.704,1.0,16.32678063784714
8.712,1.0,16.094039367505637
8.72,1.0,15.861210259880837
8.728,0.9999999999999999,15.628294271273143
8.736,1.0,15.39529236076687
8.744,1.0,15.16220549020303
8.752,0.9999999999999999,14.929034624151113
8.76,1.0,14.695780729881395
8.768,1.0,14.462444777336303
8.776,0.9999999999999999,14.22902773910228
8.784,1.0,13.995530590380676
8.792,1.0,13.761954308959266
8.8,1.0,13.528299875182674
8.808,0.9999999999999999,13.294568271923442
8.815999999999999,1.0,13.060760484552132
8.824,0.9999999999999999,12.826877500907713
8.832,0.9999999999999999,12.59292031126771
8.84,1.0,12.358889908317925
8.847999999999999,1.0000000000000002,12.124787287121993
8.856,1.0,11.890613445090903
8.864,0.9999999999999999,11.65636938195237
8.872,0.9999999999999998,11.422056099719756
8.879999999999999,0.9999999999999999,11.187674602660847
8.888,1.0,10.953225897266616
8.896,1.0,10.718710992219814
8.904,0.9999999999999999,10.484130898363187
8.911999999999999,1.0,10.249486628667443
8.92,1.0,10.014779198199331
8.928,0.9999999999999999,9.780009624089486
8.936,0.9999999999999999,9.545178925499917
8.943999999999999,0.9999999999999999,9.310288123591315
8.952,1.0,9.075338241490387
8.96,1.0,8.840330304257023
8.968,1.0,8.60526533885112
8.975999999999999,0.9999999999999999,8.370144374099214
8.984,1.0,8.134968440661156
8.992,1.0,7.89973857099662
9.0,1.0,7.66445579933131
9.008,1.0,7.429121161622928
9.016,1.0,7.193735695527262
9.024000000000001,0.9999999999999999,6.958300440364086
9.032,1.0,6.722816437082741
9.04,1.0,6.48728472822754
9.048,1.0,6.251706357903267
9.056000000000001,1.0,6.016082371740522
9.064,1.0,5.7804138168607135
9.072,0.9999999999999999,5.544701741840967
9.08,0.9999999999999999,5.3089471966790525
9.088000000000001,1.0,5.073151232758209
9.096,0.9999999999999999,4.837314902811661
9.104,1.0,4.6014392608869645
9.112,1.0,4.365525362310487
9.120000000000001,1.0,4.129574263651751
9.128,1.0,3.89358702268746
9.136,1.0,3.6575646983654067
9.144,1.0,3.421508350768512
9.152000000000001,0.9999999999999998,3.1854190410787133
9.16,1.0,2.949297831540586
9.168,1.0,2.713145785424843
9.176,0.9999999999999998,2.4769639669919483
9.184000000000001,0.9999999999999999,2.2407534414556656
9.192,1.0,2.004515274946255
9.2,0.9999999999999999,1.7682505344736446
9.208,1.0,1.5319602878906817
9.216000000000001,1.0,1.295645603856322
9.224,1.0000000000000002,1.059307551798548
9.232,1.0,0.8229472018771743
9.24,1.0,0.5865656249468172
9.248000000000001,0.9999999999999999,0.35016389251980334
9.256,1.0,0.11374307672879617
9.264,0.9999999999999999,-0.12269574971067428
9.272,1.0,-0.35915151353745556
9.280000000000001,1.0,-0.5956231409821533
9.288,0.9999999999999999,-0.8321095578047238
9.296,1.0,-1.0686096893321295
9.304,0.9999999999999999,-1.3051224604958167
9.312000000000001,0.9999999999999999,-1.541646795869287
9.32,1.0,-1.7781816197058506
9.328,1.0,-2.014725855976469
9.336,1.0,-2.2512784284073835
9.344,1.0,-2.487838260517757
9.352,0.9999998454597688,-2.724404275657839
9.36,0.9999996831785611,-2.9609753970463903
9.368,0.9999995203027485,-3.197550547808945
9.376,0.9999993568762883,-3.434128651015285
9.384,0.9999991929428488,-3.6707086297177147
9.392,0.9999990285458032,-3.907289406988587
9.4,0.9999988637282229,-4.143869905958576
9.408,0.9999986985328707,-4.3804490498542235
9.416,0.9999985330021958,-4.61702576203624
9.424,0.9999983671783259,-4.853598966037015
9.432,0.9999982011030637,-5.090167585598939
9.44,0.9999980348178783,-5.326730544711908
9.448,0.999997868363901,-5.563286767651577
9.456,0.9999977017819187,-5.799835179016914
9.464,0.9999975351123696,-6.0363747037683915
9.472,0.9999973683953355,-6.272904267265454
9.48,0.9999972016705383,-6.509422795304763
9.488,0.9999970349773328,-6.745929214157538
9.496,0.9999968683547039,-6.982422450607763
9.504,0.999996701841258,-7.21890143198949
9.512,0.9999965354752209,-7.455365086224944
9.52,0.9999963692944314,-7.691812341861796
9.528,0.9999962033363365,-7.9282421281111155
9.536,0.9999960376379863,-8.164653374884633
9.544,0.9999958722360298,-8.40104501283257
9.552,0.9999957071667104,-8.637415973380756
9.56,0.9999955424658614,-8.87376518876845
9.568,0.9999953781688995,-9.110091592085237
9.576,0.9999952143108236,-9.34639411730881
9.584,0.9999950509262088,-9.582671699341725
9.592,0.9999948880492023,-9.818923274049025
9.6,0.9999947257135201,-10.05514777829488
9.608,0.9999945639524415,-10.291344149980073
9.616,0.9999944027988077,-10.527511328078472
9.624,0.9999942422850154,-10.763648252674374
9.632,0.9999940824430154,-10.99975386499883
9.64,0.9999939233043073,-11.23582710746679
9.648,0.9999937648999367,-11.471866923713286
9.656,0.9999936072604935,-11.707872258630363
9.664,0.9999934504161053,-11.943842058403117
9.672,0.9999932943964376,-12.179775270546422
9.68,0.9999931392306878,-12.415670843940765
9.688,0.9999929849475849,-12.651527728868754
9.696,0.9999928315753857,-12.887344877050776
9.704,0.9999926791418703,-13.123121241681309
9.712,0.9999925276743433,-13.35885577746429
9.72,0.9999923771996274,-13.59454744064927
9.728,0.9999922277440632,-13.830195189066522
9.736,0.9999920793335071,-14.065797982162934
9.744,0.9999919319933274,-14.301354781036968
9.752,0.9999917857484034,-14.536864548474203
9.76,0.9999916406231234,-14.772326248982077
9.768,0.9999914966413828,-15.007738848825188
9.776,0.9999913538265813,-15.243101316059771
9.784,0.9999912122016235,-15.478412620568712
9.792,0.9999910717889142,-15.713671734095742
9.8,0.9999909326103599,-15.948877630280233
9.808,0.9999907946873654,-16.18402928469103
