freq,mag,phase
6.0,0.9999905314927723,-176.93987154904875
6.008,0.9999900957079438,-177.30941178797346
6.016,0.9999896869383164,-177.67893146812045
6.024,0.99998930449577,-178.04843510159958
6.032,0.9999889477020745,-178.41792720798537
6.04,0.9999886158888042,-178.7874123142814
6.048,0.9999883083972495,-179.15689495488516
6.056,0.9999880245783354,-179.52637967155468
6.064,0.9999877637925342,-179.8958710133755
6.072,0.999987525409782,179.73462646327062
6.08,0.9999873088093948,179.3651081947367
6.088,0.9999871133799824,178.99556961014014
6.096,0.9999869385193704,178.6260061313916
6.104,0.9999867836345109,178.2564131732228
6.112,0.9999866481414019,177.88678614321395
6.12,0.9999865314650082,177.51712044182003
6.128,0.9999864330391749,177.14741146239618
6.136,0.9999863523065482,176.77765459122287
6.144,0.9999862887184944,176.40784520752996
6.152,0.9999862417350184,176.03797868352035
6.16,0.9999862108246842,175.66805038439284
6.168,0.9999861954645325,175.29805566836467
6.176,0.9999861951400066,174.9279898866933
6.184,0.9999862093448679,174.55784838369794
6.192,0.9999862375811184,174.1876264967803
6.2,0.9999862793589279,173.81731955644543
6.208,0.9999863341965468,173.44692288632152
6.216,0.9999864016202382,173.07643180318016
6.224,0.999986481164194,172.70584161695555
6.232,0.9999865723704638,172.33514763076406
6.24,0.9999866747888772,171.96434514092314
6.248,0.9999867879769647,171.59342943697038
6.256,0.9999869114998884,171.22239580168235
6.264,0.9999870449303667,170.8512395110932
6.272,0.9999871878485955,170.47995583451336
6.28,0.9999873398421791,170.10854003454824
6.288,0.9999875005060587,169.736987367117
6.296,0.9999876694424332,169.36529308147118
6.304,0.999987846260692,168.99345242021377
6.312,0.9999880305773451,168.62146061931819
6.32,0.9999882220159456,168.24931290814754
6.328,0.9999884202070258,167.8770045094742
6.336,0.9999886247880211,167.50453063949956
6.344,0.9999888354032066,167.13188650787436
6.352,0.9999890517036215,166.75906731771894
6.36,0.9999892733470054,166.3860682656445
6.368,0.9999894999977271,166.01288454177416
6.376,0.999989731326718,165.63951132976536
6.384,0.9999899670114062,165.26594380683196
6.392,0.999990206735646,164.8921771437676
6.4,0.9999904501896558,164.51820650496933
6.408,0.9999906970699487,164.144027048462
6.416,0.9999909470792716,163.76963392592364
6.424,0.9999911999265347,163.39502228271127
6.432,0.999991455326753,163.0201872578879
6.44,0.9999917130009776,162.64512398425006
6.448,0.9999919726762347,162.2698275883564
6.456,0.9999922340854642,161.89429319055768
6.464,0.9999924969674544,161.5185159050269
6.472,0.9999927610667794,161.1424908397914
6.48,0.9999930261337426,160.76621309676568
6.4879999999999995,0.9999932919243112,160.38967777178524
6.496,0.9999935582000569,160.01287995464205
6.504,0.9999938247280952,159.63581472912105
6.5120000000000005,0.9999940912810287,159.25847717303787
6.52,0.9999943576368843,158.88086235827856
6.5280000000000005,0.9999946235790569,158.5029653508396
6.536,0.9999948888962512,158.12478121087085
6.5440000000000005,0.9999951533824212,157.74630499271854
6.552,0.9999954168367169,157.3675317449714
6.5600000000000005,0.9999956790634259,156.9884565105068
6.568,0.9999959398719148,156.60907432654022
6.5760000000000005,0.9999961990765766,156.22938022467514
6.584,0.9999964564967746,155.84936923095574
6.592,0.9999967119567852,155.46903636592057
6.6,0.9999969652857443,155.08837664465906
6.608,0.999997216317596,154.70738507686937
6.616,0.9999974648910339,154.32605666691848
6.624,0.9999977108494522,153.94438641390448
6.632,0.9999979540408899,153.56236931172091
6.64,0.9999981943179796,153.18000034912333
6.648,0.9999984315378959,152.7972745097982
6.656,0.999998665562302,152.41418677243405
6.664,0.9999988962573012,152.03073211079519
6.672,0.9999991234933833,151.64690549379765
6.68,0.9999993471453756,151.26270188558786
6.688,0.9999995670923935,150.87811624562394
6.696,0.9999997832177893,150.49314352875928
6.704,0.9999999954091043,150.10777868532932
6.712,1.0,149.72201666124084
6.72,1.0,149.335852398064
6.728,1.0,148.94928083312755
6.736,1.0,148.5622968996169
6.744,1.0,148.17489552667516
6.752,0.9999999999999999,147.7870716395074
6.76,1.0,147.39882015948788
6.768,1.0000000000000002,147.010136004271
6.776,0.9999999999999999,146.62101408790483
6.784,0.9999999999999999,146.23144932094877
6.792,1.0,145.84143661059417
6.8,0.9999999999999999,145.4509708607887
6.808,1.0,145.06004697236406
6.816,1.0,144.66865984316783
6.824,1.0,144.27680436819853
6.832,0.9999999999999999,143.88447543974485
6.84,1.0,143.49166794752855
6.848,1.0,143.0983767788514
6.856,1.0,142.70459681874624
6.864,0.9999999999999999,142.31032295013208
6.872,1.0,141.9155500539732
6.88,1.0,141.5202730094428
6.888,1.0,141.12448669409093
6.896,1.0,140.72818598401648
6.904,0.9999999999999999,140.3313657540442
6.912,1.0,139.934020877906
6.92,1.0,139.53614622842673
6.928,1.0000000000000002,139.137736677715
6.936,1.0,138.73878709735874
6.944,1.0,138.33929235862544
6.952,1.0,137.93924733266758
6.96,1.0,137.53864689073288
6.968,1.0,137.1374859043801
6.976,0.9999999999999999,136.7357592456994
6.984,1.0,136.33346178753865
6.992,1.0,135.9305884037346
7.0,0.9999999999999999,135.52713396934976
7.008,1.0,135.12309336091494
7.016,1.0,134.71846145667698
7.024,1.0,134.31323313685255
7.032,1.0,133.90740328388773
7.04,0.9999999999999999,133.5009667827233
7.048,0.9999999999999998,133.0939185210658
7.056,1.0,132.6862533896654
7.064,1.0,132.27796628259892
7.072,1.0,131.86905209755972
7.08,0.9999999999999999,131.45950573615352
7.088,1.0,131.04932210420117
7.096,1.0,130.63849611204685
7.104,1.0,130.227022674874
7.112,1.0,129.8148967130271
7.12,1.0,129.40211315234035
7.128,0.9999999999999999,128.9886669244734
7.136,0.9999999999999999,128.57455296725348
7.144,0.9999999999999999,128.15976622502518
7.152,1.0,127.74430164900674
7.16,0.9999999999999999,127.3281541976535
7.168,1.0,126.91131883702909
7.176,1.0,126.4937905411833
7.184,0.9999999999999999,126.07556429253782
7.192,0.9999999999999999,125.65663508227907
7.2,1.0,125.23699791075906
7.208,1.0,124.8166477879034
7.216,0.9999999999999999,124.39557973362746
7.224,0.9999999999999999,123.97378877825994
7.232,1.0,123.55126996297471
7.24,1.0,123.1280183402304
7.248,1.0,122.70402897421799
7.256,1.0,122.27929694131664
7.264,1.0,121.85381733055793
7.272,0.9999999999999999,121.4275852440977
7.28,1.0,121.00059579769714
7.288,0.9999999999999999,120.5728441212115
7.296,1.0,120.14432535908794
7.304,0.9999999999999999,119.71503467087139
7.312,0.9999999999999999,119.28496723171959
7.32,1.0,118.85411823292645
7.328,1.0,118.42248288245432
7.336,1.0,117.99005640547519
7.344,0.9999999999999999,117.55683404492062
7.352,1.0,117.12281106204088
7.36,1.0,116.68798273697284
7.368,1.0,116.25234436931729
7.376,0.9999998545455554,115.81589127872506
7.384,0.9999996638992563,115.37861880549268
7.392,0.9999994706681983,114.94052231116693
7.4,0.9999992749483738,114.50159717915919
7.4079999999999995,0.999999076836603,114.06183881536874
7.416,0.9999988764305047,113.62124264881547
7.4239999999999995,0.9999986738284539,113.17980413228254
7.432,0.9999984691295585,112.73751874296772
7.4399999999999995,0.9999982624336164,112.2943819831453
7.448,0.9999980538410864,111.85038938083626
7.4559999999999995,0.9999978434530514,111.40553649048961
7.464,0.9999976313711878,110.95981889367162
7.4719999999999995,0.9999974176977284,110.51323219976662
7.48,0.9999972025354286,110.06577204668547
7.4879999999999995,0.9999969859875327,109.61743410158564
7.496,0.9999967681577403,109.16821406159937
7.504,0.9999965491501694,108.71810765457305
7.5120000000000005,0.9999963290693268,108.26711063981483
7.52,0.9999961080200676,107.8152188088536
7.5280000000000005,0.9999958861075637,107.36242798620606
7.536,0.9999956634372708,106.90873403015517
7.5440000000000005,0.9999954401148897,106.45413283353685
7.552,0.9999952162463346,105.9986203245377
7.5600000000000005,0.9999949919376973,105.54219246750134
7.568,0.9999947672952111,105.0848452637456
7.5760000000000005,0.9999945424252178,104.626574752388
7.584,0.9999943174341314,104.16737701118241
7.5920000000000005,0.9999940924284025,103.70724815736398
7.6,0.9999938675144842,103.24618434850473
7.6080000000000005,0.9999936427987958,102.78418178337752
7.616,0.9999934183876886,102.32123670283114
7.6240000000000006,0.999993194387408,101.8573453906727
7.632,0.9999929709040618,101.39250417456171
7.640000000000001,0.9999927480435802,100.92670942691124
7.648,0.9999925259116842,100.45995756580038
7.656000000000001,0.9999923046138451,99.9922450558939
7.664,0.9999920842552553,99.52356840937296
7.672,0.9999918649407854,99.05392418687276
7.68,0.9999916467749531,98.5833089984309
7.688,0.9999914298618845,98.11171950444331
7.696,0.9999912143052809,97.63915241662943
7.704,0.9999910002083783,97.16560449900575
7.712,0.9999907876739162,96.69107256886785
7.72,0.9999905768040979,96.21555349778059
7.728,0.9999903677005555,95.7390442125768
7.736,0.9999901604643138,95.2615416963636
7.744,0.9999899551957537,94.78304298953681
7.752,0.9999897519945763,94.3035451908031
7.76,0.9999895509597656,93.82304545820949
7.768,0.9999893521895532,93.34154101018036
7.776,0.9999891557813819,92.85902912656162
7.784,0.9999889618318684,92.37550714967183
7.792,0.9999887704367677,91.89097248536001
7.8,0.9999885816909364,91.40542260407028
7.808,0.9999883956882978,90.91885504191266
7.816,0.9999882125218036,90.43126740173992
7.824,0.9999880322833985,89.94265735423059
7.832,0.9999878550639846,89.45302263897744
7.84,0.9999876809533842,88.96236106558136
7.848,0.999987510040305,88.47067051475042
7.856,0.9999873424123029,87.9779489394038
7.864,0.9999871781557471,87.48419436578027
7.872,0.9999870173557835,86.98940489455101
7.88,0.9999868600963,86.49357870193636
7.888,0.9999867064598895,85.99671404082633
7.896,0.999986556527816,85.49880924190437
7.904,0.9999864103799784,84.99986271477434
7.912,0.9999862680948753,84.49987294909002
7.92,0.9999861297495709,83.99883851568705
7.928,0.9999859954196593,83.49675806771694
7.936,0.9999858651792299,82.99363034178246
7.944,0.9999857391008341,82.48945415907463
7.952,0.9999856172554498,81.98422842651026
7.96,0.9999854997124482,81.47795213787018
7.968,0.9999853865395603,80.97062437493737
7.976,0.9999852778028426,80.46224430863485
7.984,0.9999851735666454,79.95281120016273
7.992,0.9999850738935782,79.44232440213403
8.0,0.9999849788444786,78.93078335970885
8.008,0.9999848884783799,78.41818761172652
8.016,0.9999848028524784,77.90453679183473
8.024000000000001,0.9999847220221031,77.3898306296164
8.032,0.9999846460406835,76.87406895171225
8.04,0.9999845749597203,76.3572516829394
8.048,0.9999845088287533,75.83937884740578
8.056000000000001,0.9999844476953331,75.3204505696195
8.064,0.9999843916049914,74.80046707559217
8.072,0.9999843406012114,74.2794286939362
8.08,0.9999842947254008,73.75733585695562
8.088000000000001,0.9999842540168616,73.23418910172998
8.096,0.9999842185127655,72.70998907118984
8.104,0.999984188248125,72.18473651518386
8.112,0.999984163255768,71.65843229153761
8.120000000000001,0.9999841435663129,71.13107736710262
8.128,0.9999841292081418,70.60267281879509
8.136,0.9999841202073774,70.07321983462366
8.144,0.9999841165878594,69.54271971470651
8.152000000000001,0.9999841183711208,69.01117387227646
8.16,0.9999841255763655,68.47858383467292
8.168,0.9999841382204481,67.94495124432082
8.176,0.9999841563178503,67.41027785969597
8.184000000000001,0.9999841798806636,66.8745655562762
8.192,0.9999842089185685,66.33781632747672
8.2,0.9999842434388169,65.80003228556957
8.208,0.9999842834462125,65.26121566258749
8.216000000000001,0.9999843289430957,64.72136881121017
8.224,0.9999843799293285,64.18049420563275
8.232,0.9999844364022767,63.638594442415396
8.24,0.9999844983567978,63.09567224131455
8.248000000000001,0.9999845657852264,62.551730446094176
8.256,0.999984638677364,62.00677202531607
8.264,0.9999847170204661,61.46080007310899
8.272,0.9999848007992318,60.91381780991641
8.280000000000001,0.9999848899957952,60.365828583221536
8.288,0.9999849845897173,59.816835868248766
8.296,0.9999850845579789,59.26684326864111
8.304,0.9999851898749736,58.715854517113506
8.312,0.9999853005125043,58.163873476080596
8.32,0.9999854164397778,57.6109041382578
8.328,0.9999855376234031,57.056950627236986
8.336,0.9999856640273905,56.502017198033016
8.344,0.9999857956131495,55.946108237604115
8.352,0.9999859323394912,55.38922826534151
8.36,0.9999860741626291,54.83138193353142
8.368,0.9999862210361836,54.272574027785225
8.376,0.9999863729111861,53.71280946744057
8.384,0.9999865297360842,53.152093305929064
8.392,0.9999866914567496,52.59043073111403
8.4,0.9999868580164861,52.027827065593186
8.408,0.9999870293560391,51.4642877669702
8.416,0.9999872054136075,50.899818428090086
8.424,0.9999873861248553,50.334424777241814
8.432,0.999987571422924,49.768112678324016
8.44,0.9999877612384508,49.20088813097632
8.448,0.9999879554995819,48.63275727067255
8.456,0.999988154131992,48.063726368778866
8.464,0.9999883570589031,47.493801832572096
8.472,0.9999885642011047,46.92299020522203
8.48,0.9999887754769761,46.35129816573298
8.488,0.9999889908025091,45.77873252884816
8.496,0.9999892100913337,45.20530024491216
8.504,0.9999894332547437,44.63100839969534
8.512,0.9999896602017239,44.05586421417532
8.52,0.9999898908389798,43.47987504427967
8.528,0.9999901250709672,42.90304838058441
8.536,0.9999903627999247,42.325391847972945
8.544,0.9999906039259069,41.74691320525037
8.552,0.9999908483468181,41.16762034471695
8.56,0.9999910959584495,40.58752129169632
8.568,0.999991346654515,40.00662420402245
8.576,0.9999916003266923,39.4249373714803
8.584,0.9999918568646604,38.84246921520472
8.592,0.999992116156144,38.25922828703287
8.6,0.9999923780869535,37.675223268813674
8.608,0.9999926425410314,37.09046297167073
8.616,0.9999929094004971,36.504956335222
8.624,0.9999931785456938,35.91871242675209
8.632,0.9999934498552366,35.33174044034146
8.64,0.9999937232060624,34.74404969594768
8.648,0.9999939984734809,34.15564963844341
8.656,0.9999942755312252,33.566549836606406
8.664,0.9999945542515072,32.976759982066106
8.672,0.9999948345050704,32.38628988820221
8.68,0.9999951161612464,31.79514948899954
8.688,0.9999953990880113,31.203348837855568
8.696,0.9999956831520442,30.610898106343914
8.704,0.9999959682187862,30.017807582930608
8.712,0.9999962541524992,29.42408767164706
8.72,0.9999965408163297,28.829748890715678
8.728,0.9999968280723686,28.23480187113266
8.736,0.9999971157817161,27.639257355203977
8.744,0.9999974038045445,27.043126195038973
8.752,0.9999976920001646,26.446419350997612
8.76,0.9999979802270913,25.849147890096155
8.768,0.9999982683431096,25.251322984367064
8.776,0.9999985562053431,24.652955909178008
8.784,0.9999988436703223,24.05405804150601
8.792,0.9999991305940538,23.454640858171615
8.8,0.9999994168320898,22.854715934029052
8.808,0.9999997022395992,22.254294940117372
8.815999999999999,0.9999999866714375,21.653389641768946
8.824,1.0,21.05201189667907
8.832,1.0,20.450173652936115
8.84,0.9999999999999999,19.84788694701221
8.847999999999999,1.0,19.24516390171575
8.856,1.0,18.642016724106934
8.864,1.0,18.038457703376704
8.872,1.0,17.43449920868899
8.879999999999999,1.0,16.830153686987888
8.888,0.9999999999999999,16.225433660770943
8.896,1.0,15.62035172582892
8.904,1.0,15.014920548952402
8.911999999999999,0.9999999999999999,14.409152865606604
8.92,0.9999999999999999,13.803061477575943
8.928,1.0,13.196659250578705
8.936,1.0,12.589959111852238
8.943999999999999,1.0,11.982974047710401
8.952,0.9999999999999999,11.375717101074466
8.96,0.9999999999999999,10.768201368978405
8.968,0.9999999999999999,10.160440000048775
8.975999999999999,1.0,9.552446191960957
8.984,1.0,8.944233188873426
8.992,1.0,8.335814278840592
9.0,0.9999999999999999,7.727202791204806
9.008,1.0,7.118412093969304
9.016,0.9999999999999999,6.509455591153776
9.024000000000001,1.0,5.900346720133208
9.032,1.0,5.291098948960679
9.04,1.0,4.681725773675877
9.048,1.0,4.072240715601164
9.056000000000001,1.0,3.4626573186258267
9.064,1.0,2.852989146479245
9.072,1.0,2.2432497799948727
9.08,1.0,1.6334528143667346
9.088000000000001,0.9999999999999999,1.0236118563992547
9.096,1.0,0.4137405217511891
9.104,1.0,-0.19614756782461065
9.112,1.0,-0.8060387872436189
9.120000000000001,0.9999999999999999,-1.4159195108535647
9.128,1.0,-2.0257761151991156
9.136,1.0,-2.6355949817854216
9.144,0.9999999999999999,-3.245362499838684
9.152000000000001,1.0,-3.855065069063018
9.16,1.0,-4.464689102392878
9.168,1.0,-5.074221028739055
9.176,1.0,-5.6836472957266375
9.184000000000001,1.0,-6.292954372424083
9.192,1.0,-6.902128752062546
9.2,1.0,-7.51115695474402
9.208,0.9999999999999999,-8.120025530135996
9.216000000000001,1.0,-8.7287210601524
9.224,0.9999999999999999,-9.33723016161984
9.232,1.0,-9.9455394889275
9.24,1.0,-10.55363573665891
9.248000000000001,1.0,-11.161505642204974
9.256,0.9999999999999999,-11.76913598835762
9.264,1.0,-12.376513605882312
9.272,1.0,-12.983625376067893
9.280000000000001,1.0,-13.590458233252964
9.288,1.0,-14.196999167328524
9.296,0.9999999999999999,-14.803235226214936
9.304,1.0,-15.409153518311923
9.312000000000001,0.9999999999999999,-16.014741214920882
9.32,1.0,-16.619985552639207
9.328,1.0,-17.224873835724903
9.336,1.0,-17.829393438430266
9.344,0.9999999999999999,-18.433531807303844
9.352,0.9999999999999999,-19.037276463461378
9.36,1.0,-19.640615004821466
9.368,1.0,-20.243535108309217
9.376,0.9999999999999999,-20.846024532022902
9.384,0.9999999999999999,-21.44807111736684
9.392,1.0,-22.04966279114584
9.4,1.0,-22.650787567624285
9.408,1.0,-23.25143355054536
9.416,0.9999999999999999,-23.851588935113575
9.424,1.0000000000000002,-24.451242009935942
9.432,0.9999999999999999,-25.05038115892543
9.44,0.9999999999999999,-25.648994863161658
9.448,1.0,-26.247071702712816
9.456,0.9999999999999998,-26.844600358413715
9.464,0.9999999999999999,-27.441569613604038
9.472,1.0,-28.03796835582188
9.48,1.0,-28.633785578456383
9.488,1.0,-29.229010382354954
9.496,1.0,-29.82363197738892
9.504,1.0,-30.41763968397284
9.512,1.0,-31.011022934541817
9.52,1.0,-31.60377127498166
9.528,0.9999999999999999,-32.195874366016824
9.536,1.0000000000000002,-32.787321984550566
9.544,1.0,-33.37810402496242
9.552,1.0,-33.968210500357806
9.56,1.0,-34.557631543774434
9.568,1.0,-35.1463574093409
9.576,1.0,-35.73437847339159
9.584,1.0,-36.32168523553401
9.592,1.0,-36.908268319672345
9.6,0.9999999999999999,-37.49411847498322
9.608,1.0,-38.0792265768481
9.616,1.0,-38.66358362773782
9.624,1.0,-39.24718075805411
9.632,0.9999999999999999,-39.83000922692338
9.64,1.0,-40.41206042294782
9.648,0.9999999999999999,-40.993325864909195
9.656,0.9999999999999999,-41.5737972024303
9.664,1.0,-42.153466216589656
9.672,0.9999999999999999,-42.73232482049418
9.68,1.0000000000000002,-43.310365059805896
9.688,1.0,-43.88757911322705
9.696,1.0,-44.46395929294001
9.704,0.9999997628183236,-45.03949804500624
9.712,0.9999993858874379,-45.61418794972068
9.72,0.9999990038118163,-46.188021721926205
9.728,0.9999986167110603,-46.760992211284126
9.736,0.9999982247067328,-47.33309240250563
9.744,0.9999978279223046,-47.90431541554025
9.752,0.9999974264830993,-48.474654505726214
9.76,0.9999970205162411,-49.04410306389862
9.768,0.9999966101505986,-49.61265461646057
9.776,0.9999961955167296,-50.18030282541335
9.784,0.9999957767468267,-50.74704148835035
9.792,0.999995353974661,-51.31286453841116
9.8,0.9999949273355272,-51.877766044200726
9.808,0.9999944969661869,-52.4417402096696
9.816,0.9999940630048131,-53.00478137396044
9.824,0.9999936255909344,-53.56688401121707
9.832,0.9999931848653779,-54.1280427303606
9.84,0.9999927409702141,-54.6882522748295
9.847999999999999,0.9999922940487002,-55.24750752228805
9.856,0.9999918442452232,-55.80580348430042
9.864,0.9999913917052465,-56.36313530597297
9.872,0.9999909365752508,-56.91949826556505
9.879999999999999,0.9999904790026796,-57.47488777406921
9.888,0.999990019135884,-58.02929937476044
9.896,0.9999895571240668,-58.58272874271576
9.904,0.9999890931172262,-59.135171684305675
9.911999999999999,0.9999886272661028,-59.68662413665704
9.92,0.9999881597221232,-60.23708216708803
