freq,mag,phase
6.0,0.9999934165300247,-172.26527277489606
6.008,0.999993289196841,-172.61606300547524
6.016,0.999993179178114,-172.9667476259958
6.024,0.9999930859967903,-173.31733144323027
6.032,0.9999930091828282,-173.6678192678398
6.04,0.9999929482731305,-174.01821591438713
6.048,0.9999929028114708,-174.36852620135136
6.056,0.9999928723484296,-174.71875495114423
6.064,0.999992856441322,-175.06890699012797
6.072,0.9999928546541325,-175.41898714863453
6.08,0.9999928665574446,-175.76900026098647
6.088,0.999992891728377,-176.11895116551915
6.096,0.9999929297505129,-176.4688447046043
6.104,0.9999929802138382,-176.81868572467505
6.112,0.9999930427146742,-177.16847907625208
6.12,0.9999931168556095,-177.51822961397139
6.128,0.9999932022454393,-177.86794219661286
6.136,0.9999932984990988,-178.21762168713045
6.144,0.9999934052376015,-178.56727295268323
6.152,0.9999935220879715,-178.91690086466787
6.16,0.9999936486831869,-179.2665102987518
6.168,0.9999937846621099,-179.61610613490805
6.176,0.9999939296694325,-179.96569325745037
6.184,0.9999940833556098,179.6847234449301
6.192,0.9999942453768,179.33513907912746
6.2,0.9999944153948052,178.98554874758244
6.208,0.9999945930770117,178.6359475482436
6.216,0.9999947780963291,178.28633057452686
6.224,0.9999949701311306,177.93669291527485
6.232,0.9999951688651966,177.58702965471514
6.24,0.9999953739876551,177.23733587241782
6.248,0.999995585192925,176.88760664325252
6.256,0.9999958021806594,176.5378370373445
6.264,0.9999960246556859,176.18802212003044
6.272,0.9999962523279555,175.83815695181323
6.28,0.9999964849124834,175.48823658831668
6.288,0.9999967221292924,175.13825608023924
6.296,0.9999969637033645,174.7882104733078
6.304,0.9999972093645803,174.43809480823023
6.312,0.9999974588476678,174.08790412064837
6.32,0.9999977118921503,173.73763344109025
6.328,0.999997968242292,173.38727779492186
6.336,0.9999982276470464,173.03683220229883
6.344,0.9999984898600041,172.68629167811773
6.352,0.9999987546393414,172.33565123196738
6.36,0.9999990217477714,171.9849058680795
6.368,0.9999992909524902,171.63405058527988
6.376,0.999999562025129,171.28308037693876
6.384,0.9999998347417085,170.9319902309216
6.392,0.9999999999999999,170.5807751295397
6.4,0.9999999999999998,170.22943004950068
6.408,1.0,169.8779499618592
6.416,0.9999999999999999,169.52632983196773
6.424,1.0,169.17456461942731
6.432,1.0,168.82264927803863
6.44,1.0000000000000002,168.4705787557531
6.448,0.9999999999999999,168.11834799462468
6.456,0.9999999999999999,167.7659519307611
6.464,1.0,167.41338549427638
6.472,1.0,167.06064360924296
6.48,1.0,166.7077211936448
6.4879999999999995,1.0,166.3546131593303
6.496,1.0,166.00131441196643
6.504,0.9999999999999999,165.64781985099302
6.5120000000000005,1.0,165.29412436957713
6.52,1.0,164.94022285456938
6.5280000000000005,1.0,164.5861101864592
6.536,1.0,164.2317812393325
6.5440000000000005,1.0,163.87723088082868
6.552,1.0,163.5224539720995
6.5600000000000005,1.0,163.16744536776773
6.568,1.0,162.812199915888
6.5760000000000005,1.0,162.45671245790706
6.584,1.0,162.10097782862667
6.592,1.0,161.7449908561658
6.6,1.0,161.38874636192534
6.608,1.0,161.03223916055305
6.616,0.9999999999999999,160.67546405991004
6.624,0.9999999999999999,160.31841586103837
6.632,0.9999999999999999,159.96108935812998
6.64,0.9999999999999999,159.6034793384968
6.648,1.0,159.2455805825423
6.656,1.0,158.88738786373446
6.664,1.0,158.52889594858038
6.672,0.9999999999999999,158.17009959660194
6.68,1.0,157.81099356031356
6.688,1.0,157.45157258520123
6.696,1.0000000000000002,157.0918314097033
6.704,0.9999999999999999,156.73176476519328
6.712,0.9999999999999999,156.3713673759638
6.72,1.0,156.01063395921318
6.728,1.0000000000000002,155.64955922503339
6.736,1.0,155.2881378763999
6.744,0.9999999999999999,154.92636460916412
6.752,0.9999999999999999,154.56423411204727
6.76,0.9999999999999998,154.2017410666368
6.768,1.0,153.83888014738477
6.776,1.0,153.47564602160855
6.784,0.9999999999999999,153.11203334949414
6.792,0.9999999999999999,152.74803678410123
6.8,1.0,152.3836509713713
6.808,0.9999999999999999,152.0188705501379
6.816,1.0,151.65369015213963
6.824,1.0,151.28810440203583
6.832,0.9999999999999999,150.92210791742457
6.84,0.9999999999999999,150.55569530886402
6.848,1.0,150.18886117989618
6.856,1.0,149.8216001270738
6.864,1.0,149.4539067399899
6.872,1.0,149.08577560131087
6.88,1.0,148.7172012868124
6.888,0.9999999999999999,148.34817836541833
6.896,1.0,147.97870139924342
6.904,1.0,147.60876494363873
6.912,0.9999999999999999,147.23836354724108
6.92,0.9999999999999999,146.86749175202536
6.928,0.9999999999999999,146.49614409336115
6.936,1.0,146.12431510007207
6.944,1.0,145.75199929449974
6.952,0.9999999999999999,145.3791911925709
6.96,0.9999999999999999,145.0058853038687
6.968,1.0,144.63207613170806
6.976,0.9999999999999999,144.2577581732147
6.984,0.9999999999999999,143.88292591940862
6.992,1.0,143.50757385529167
7.0,1.0,143.1316964599394
7.008,0.9999999999999999,142.75528820659747
7.016,1.0,142.3783435627822
7.024,0.9999999999999999,142.00085699038587
7.032,1.0,141.62282294578685
7.04,1.0,141.24423587996412
7.048,0.9999999999999999,140.86509023861677
7.056,0.9999999999999999,140.48538046228853
7.064,1.0,140.1051009864971
7.072,1.0,139.72424624186877
7.08,1.0,139.34281065427814
7.088,0.9999999999999999,138.96078864499313
7.096,1.0,138.57817463082552
7.104,1.0,138.19496302428675
7.112,1.0,137.81114823374955
7.12,1.0,137.4267246636151
7.128,1.0,137.04168671448596
7.136,1.0,136.65602878334516
7.144,0.9999999999999999,136.2697452637409
7.152,0.9999999999999998,135.88283054597773
7.16,0.9999999999999999,135.49527901731338
7.168,1.0,135.1070850621627
7.176,1.0,134.7182430623073
7.184,0.9999999999999999,134.32874739711204
7.192,0.9999999999999999,133.93859244374812
7.2,1.0,133.54777257742288
7.208,1.0,133.15628217161628
7.216,1.0,132.7641155983248
7.224,0.9999999999999999,132.3712672283118
7.232,1.0,131.9777314313656
7.24,1.0,131.58350257656448
7.248,1.0,131.1885750325492
7.256,1.0,130.7929431678032
7.264,1.0,130.39660135094016
7.272,0.9999999999999999,129.99954395099948
7.28,1.0,129.6017653377496
7.288,0.9999999999999999,129.20325988199926
7.296,0.9999999999999999,128.80402195591685
7.304,0.9999999999999999,128.40404593335822
7.312,0.9999999999999999,128.00332619020216
7.32,0.9999999999999999,127.60185710469526
7.328,1.0,127.19963305780462
7.336,0.9999999999999999,126.79664843357945
7.344,1.0,126.3928976195217
7.352,1.0,125.98837500696514
7.36,1.0,125.58307499146417
7.368,1.0,125.176991973191
7.376,1.0,124.77012035734286
7.384,0.9999999999999999,124.36245455455814
7.392,1.0,123.95398898134208
7.4,1.0,123.54471806050253
7.4079999999999995,0.9999999999999999,123.13463622159493
7.416,1.0,122.72373790137743
7.4239999999999995,1.0,122.31201754427633
7.432,0.9999999999999999,121.89946960286075
7.4399999999999995,0.9999999999999998,121.48608853832889
7.448,1.0,121.07186882100311
7.4559999999999995,1.0,120.65680493083703
7.464,0.9999999999999999,120.24089135793173
7.4719999999999995,1.0,119.82412260306415
7.48,1.0,119.40649317822493
7.4879999999999995,1.0,118.98799760716852
7.496,1.0,118.568630425973
7.504,0.9999999999999999,118.14838618361244
7.5120000000000005,1.0,117.7272594425393
7.52,0.9999999999999999,117.3052447792794
7.5280000000000005,1.0,116.88233678503715
7.536,0.9999999999999998,116.45853006631374
7.5440000000000005,1.0,116.0338192455358
7.552,1.0,115.60819896169684
7.5600000000000005,1.0,115.18166387101009
7.568,1.0,114.75420864757363
7.5760000000000005,1.0,114.32582798404738
7.584,1.0,113.8965165923429
7.5920000000000005,1.0,113.46626920432442
7.6,0.9999999999999999,113.03508057252392
7.6080000000000005,0.9999999162219099,112.6029454708669
7.616,0.9999995932842511,112.16985869541239
7.6240000000000006,0.9999992685417466,111.73581506510422
7.632,0.9999989420775779,111.30080942253649
7.640000000000001,0.9999986139753672,110.86483663473035
7.648,0.9999982843191593,110.42789159392527
7.656000000000001,0.9999979531934062,109.98996921838166
7.664,0.9999976206829493,109.55106445319848
7.672,0.999997286873005,109.11117227114184
7.68,0.9999969518491465,108.67028767348866
7.688,0.999996615697287,108.22840569088254
7.696,0.9999962785036643,107.78552138420314
7.704,0.9999959403548228,107.34162984544909
7.712,0.9999956013375969,106.89672619863413
7.72,0.9999952615390933,106.45080560069675
7.728,0.9999949210466739,106.00386324242342
7.736,0.9999945799479389,105.55589434938508
7.744,0.9999942383307087,105.10689418288744
7.752,0.9999938962830067,104.6568580409346
7.76,0.9999935538930409,104.2057812592064
7.768,0.9999932112491855,103.7536592120494
7.776,0.9999928684399646,103.30048731348117
7.784,0.9999925255540322,102.8462610182085
7.792,0.9999921826801543,102.3909758226589
7.8,0.9999918399071909,101.9346272660259
7.808,0.999991497324076,101.47721093132772
7.816,0.9999911550198006,101.01872244647946
7.824,0.999990813083392,100.55915748537886
7.832,0.9999904716038953,100.09851176900538
7.84,0.9999901306703541,99.63678106653279
7.848,0.9999897903717916,99.17396119645481
7.856,0.9999894507971888,98.71004802772438
7.864,0.9999891120354671,98.24503748090576
7.872,0.9999887741754673,97.77892552933992
7.88,0.9999884373059295,97.31170820032285
7.888,0.9999881015154722,96.84338157629685
7.896,0.9999877668925732,96.37394179605441
7.904,0.999987433525547,95.90338505595501
7.912,0.9999871015025263,95.43170761115432
7.92,0.9999867709114385,94.95890577684575
7.928,0.9999864418399862,94.48497592951438
7.936,0.999986114375626,94.00991450820288
7.944,0.9999857886055457,93.53371801578939
7.952,0.9999854646166434,93.05638302027715
7.96,0.9999851424955059,92.57790615609562
7.968,0.9999848223283858,92.09828412541306
7.976,0.9999845042011805,91.61751369946005
7.984,0.9999841881994089,91.1355917198641
7.992,0.9999838744081891,90.65251509999487
8.0,0.9999835629122165,90.1682808263198
8.008,0.9999832537957396,89.68288595976988
8.016,0.9999829471425381,89.19632763711505
8.024000000000001,0.9999826430358996,88.70860307235004
8.032,0.9999823415585962,88.21970955808857
8.04,0.9999820427928611,87.72964446696669
8.048,0.9999817468203641,87.23840525305516
8.056000000000001,0.9999814537221906,86.74598945328029
8.064,0.9999811635788141,86.25239468885204
8.072,0.9999808764700764,85.75761866669998
8.08,0.9999805924751588,85.26165918091684
8.088000000000001,0.9999803116725617,84.7645141142087
8.096,0.9999800341400797,84.26618143935141
8.104,0.9999797599547752,83.76665922065295
8.112,0.9999794891929544,83.26594561542154
8.120000000000001,0.9999792219301461,82.76403887543918
8.128,0.999978958241072,82.26093734843921
8.136,0.999978698199625,81.75663947958802
8.144,0.9999784418788441,81.25114381297087
8.152000000000001,0.999978189350888,80.74444899308094
8.16,0.9999779406870113,80.23655376631037
8.168,0.9999776959575402,79.7274569824436
8.176,0.9999774552318451,79.21715759615243
8.184000000000001,0.9999772185783178,78.7056546684922
8.192,0.9999769860643456,78.1929473683978
8.2,0.9999767577562848,77.6790349741794
8.208,0.9999765337194382,77.16391687501785
8.216000000000001,0.999976314018028,76.64759257245855
8.224,0.9999760987151708,76.13006168190252
8.232,0.9999758878728537,75.61132393409503
8.24,0.999975681551908,75.09137917661074
8.248000000000001,0.9999754798119845,74.57022737533504
8.256,0.9999752827115296,74.04786861593975
8.264,0.9999750903077597,73.5243031053534
8.272,0.9999749026566349,72.99953117322528
8.280000000000001,0.9999747198128377,72.47355327338278
8.288,0.9999745418297458,71.94636998528001
8.296,0.9999743687594086,71.41798201543794
8.304,0.9999742006525232,70.88839019887551
8.312,0.9999740375584092,70.3575955005304
8.32,0.9999738795249868,69.82559901666774
8.328,0.9999737265987511,69.29240197627851
8.336,0.99997357882475,68.7580057424633
8.344,0.9999734362465594,68.22241181380411
8.352,0.9999732989062622,67.68562182572008
8.36,0.9999731668444239,67.14763755180927
8.368,0.99997304010007,66.60846090517254
8.376,0.9999729187106658,66.06809393972193
8.384,0.9999728027120914,65.52653885146883
8.392,0.9999726921386234,64.98379797979544
8.4,0.9999725870229109,64.43987380870365
8.408,0.9999724873959562,63.89476896804536
8.416,0.9999723932870939,63.348486234728675
8.424,0.9999723047239705,62.80102853390318
8.432,0.9999722217325258,62.252398940119406
8.44,0.9999721443369713,61.70260067846533
8.448,0.9999720725597749,61.15163712567507
8.456,0.9999720064216394,60.59951181121274
8.464,0.9999719459414863,60.046228418326486
8.472,0.9999718911364381,59.491790785075466
8.48,0.9999718420218018,58.93620290532525
8.488,0.9999717986110522,58.37946892971425
8.496,0.9999717609158164,57.82159316658615
8.504,0.9999717289458596,57.26258008289159
8.512,0.9999717027090684,56.70243430505391
8.52,0.9999716822114408,56.141160619801944
8.528,0.9999716674570692,55.578763974964914
8.536,0.9999716584481295,55.015249480232484
8.544,0.99997165518487,54.45062240787466
8.552,0.9999716576655989,53.88488819342495
8.56,0.9999716658866753,53.31805243632157
8.568,0.9999716798424986,52.75012090050962
8.576,0.9999716995255005,52.181099514999396
8.584,0.9999717249261355,51.61099437438404
8.592,0.9999717560328758,51.03981173931099
8.6,0.9999717928322028,50.46755803691091
8.608,0.9999718353086025,49.89423986117877
8.616,0.9999718834445617,49.319863973310355
8.624,0.9999719372205617,48.744437301989095
8.632,0.9999719966150775,48.16796694362642
8.64,0.9999720616045754,47.59046016255086
8.648,0.9999721321635107,47.01192439114882
8.656,0.9999722082643284,46.432367229952234
8.664,0.9999722898774644,45.85179644767642
8.672,0.9999723769713463,45.270219981203105
8.68,0.9999724695123963,44.68764593551197
8.688,0.999972567465036,44.10408258355592
8.696,0.9999726707916891,43.51953836608331
8.704,0.9999727794527886,42.934021891402345
8.712,0.9999728934067839,42.34754193509131
8.72,0.9999730126101476,41.760107439649246
8.728,0.9999731370173843,41.171727514091316
8.736,0.9999732665810414,40.582411433483614
8.744,0.9999734012517191,39.992168638420935
8.752,0.9999735409780843,39.40100873444333
8.76,0.999973685706881,38.80894149139456
8.768,0.9999738353829469,38.21597684271783
8.776,0.9999739899492277,37.6221248846931
8.784,0.9999741493467937,37.02739587561064
8.792,0.9999743135148575,36.43180023488506
8.8,0.999974482390792,35.83534854210532
8.808,0.999974655910152,35.238051536024344
8.815999999999999,0.9999748340066922,34.63992011348421
8.824,0.9999750166123914,34.04096532827974
8.832,0.9999752036574755,33.44119838995906
8.84,0.9999753950704402,32.840630662560464
8.847999999999999,0.9999755907780775,32.23927366328606
8.856,0.9999757907055017,31.637139061112777
8.864,0.9999759947761769,31.03423867533996
8.872,0.9999762029119453,30.430584474073356
8.879999999999999,0.9999764150330578,29.82618857264592
8.888,0.9999766310582026,29.221063231976085
8.896,0.9999768509045391,28.61522085686338
8.904,0.9999770744877294,28.00867399422072
8.911999999999999,0.9999773017219726,27.401435331244517
8.92,0.9999775325200391,26.793517693523302
8.928,0.9999777667933069,26.18493404308465
8.936,0.9999780044517977,25.575697476380487
8.943999999999999,0.9999782454042156,24.965821222211524
8.952,0.9999784895579853,24.355318639592078
8.96,0.9999787368192911,23.7442032155552
8.968,0.9999789870931182,23.132488562898263
8.975999999999999,0.9999792402832941,22.52018841787009
8.984,0.99997949629253,21.907316637800985
8.992,0.9999797550224653,21.293887198675847
9.0,0.9999800163737096,20.679914192650635
9.008,0.9999802802458896,20.065411825513557
9.016,0.9999805465376922,19.450394414092493
9.024000000000001,0.9999808151469131,18.834876383608933
9.032,0.9999810859705016,18.218872264979055
9.04,0.999981358904609,17.602396692063422
9.048,0.9999816338446375,16.985464398866913
9.056000000000001,0.9999819106852867,16.36809021668954
9.064,0.9999821893206068,15.750289071228774
9.072,0.9999824696440446,15.132075979635127
9.08,0.9999827515484958,14.513466047522805
9.088000000000001,0.999983034926356,13.894474465936156
9.096,0.9999833196695723,13.275116508272834
9.104,0.9999836056696931,12.65540752716547
9.112,0.9999838928179228,12.03536295132388
9.120000000000001,0.9999841810051724,11.41499828233877
9.128,0.9999844701221129,10.794329091447826
9.136,0.9999847600592285,10.173371016266266
9.144,0.9999850507068704,9.552139757484031
9.152000000000001,0.9999853419553072,8.930651075530674
9.16,0.9999856336947823,8.30892078720885
9.168,0.9999859258155654,7.686964762298918
9.176,0.9999862182080059,7.064798920136621
9.184000000000001,0.9999865107625879,6.442439226165165
9.192,0.9999868033699828,5.81990168846281
9.2,0.9999870959211027,5.197202354248367
9.208,0.9999873883071555,4.574357306366848
9.216000000000001,0.9999876804196959,3.951382659756522
9.224,0.9999879721506806,3.3282945578987886
9.232,0.9999882633925202,2.7051091692530758
9.24,0.9999885540381311,2.081842683679315
9.248000000000001,0.9999888439809895,1.4585113088491202
9.256,0.9999891331151824,0.8351312666472984
9.264,0.9999894213354594,0.2117187895657969
9.272,0.9999897085372832,-0.41170988290719684
9.280000000000001,0.9999899946168811,-1.035138507901863
9.288,0.999990279471295,-1.658550842783569
9.296,0.9999905629984316,-2.281930648769496
9.304,0.9999908450971088,-2.905261694542624
9.312000000000001,0.9999911256671081,-3.528527759861732
9.32,0.9999914046092191,-4.151712639166046
9.328,0.9999916818252882,-4.77480014517205
9.336,0.9999919572182638,-5.397774112460109
9.344,0.9999922306922442,-6.020618401049446
9.352,0.9999925021525188,-6.643316899960949
9.36,0.9999927715056156,-7.265853530762821
9.368,0.9999930386593416,-7.888212251101164
9.376,0.999993303522827,-8.510377058209508
9.384,0.9999935660065644,-9.132331992399918
9.392,0.9999938260224512,-9.754061140529156
9.4,0.999994083483828,-10.375548639443016
9.408,0.9999943383055169,-10.996778679392367
9.416,0.9999945904038583,-11.61773550742362
9.424,0.9999948396967485,-12.238403430737835
9.432,0.9999950861036743,-12.858766820020604
9.44,0.9999953295457467,-13.47881011273748
9.448,0.9999955699457337,-14.098517816397095
9.456,0.9999958072280933,-14.717874511776253
9.464,0.9999960413190031,-15.336864856109987
9.472,0.9999962721463902,-15.955473586240554
9.48,0.9999964996399604,-16.573685521728187
9.488,0.9999967237312228,-17.191485567918182
9.496,0.9999969443535183,-17.808858718966786
9.504,0.9999971614420431,-18.425790060820844
9.512,0.9999973749338726,-19.04226477415344
9.52,0.9999975847679831,-19.658268137250825
9.528,0.9999977908852717,-20.27378552885303
9.536,0.9999979932285801,-20.88880243094297
9.544,0.9999981917427069,-21.50330443148743
9.552,0.9999983863744293,-22.117277227123985
9.56,0.9999985770725172,-22.73070662579785
9.568,0.9999987637877481,-23.34357854934264
9.576,0.9999989464729203,-23.955879036008948
9.584,0.9999991250828646,-24.567594242935346
9.592,0.9999992995744553,-25.178710448565145
9.6,0.9999994699066197,-25.789214055003992
9.608,0.9999996360403458,-26.399091590321948
9.616,0.9999997979386904,-27.008329710794616
9.624,0.9999999555667823,-27.616915203087466
9.632,0.9999999999999999,-28.224834986378116
9.64,0.9999999999999999,-28.832076114420584
9.648,1.0,-29.438625777546388
9.656,0.9999999999999999,-30.044471304606578
9.664,0.9999999999999999,-30.64960016484998
9.672,0.9999999999999999,-31.253999969741397
9.68,1.0,-31.857658474715475
9.688,0.9999999999999999,-32.460563580869874
9.696,1.0,-33.06270333659367
9.704,0.9999999999999999,-33.66406593913464
9.712,0.9999999999999999,-34.26463973610151
9.72,1.0,-34.8644132269049
9.728,0.9999999999999999,-35.46337506413313
9.736,1.0,-36.06151405486657
9.744,0.9999999999999999,-36.65881916192709
9.752,1.0,-37.25527950506624
9.76,1.0,-37.85088436208847
9.768,0.9999999999999999,-38.44562316991387
9.776,1.0,-39.039485525575905
9.784,1.0,-39.63246118715941
9.792,1.0,-40.22454007467426
9.8,0.9999999999999999,-40.8157122708696
9.808,1.0,-41.40596802198474
9.816,1.0,-41.99529773844143
9.824,1.0,-42.58369199547343
9.832,1.0,-43.171141533698616
9.84,1.0,-43.7576372596294
9.847999999999999,1.0,-44.34317024612643
9.856,1.0,-44.92773173279271
9.864,0.9999999999999999,-45.51131312631034
9.872,0.9999999999999999,-46.09390600072069
