freq,mag,phase
6.0,0.999996631202109,99.32938642102538
6.008,0.999996498255135,99.20263141551656
6.016,0.9999963713375618,99.07580140393426
6.024,0.999996250359973,98.9488963160901
6.032,0.9999961352335063,98.82191608207643
6.04,0.999996025869852,98.69486063226798
6.048,0.9999959221812541,98.56772989732313
6.056,0.9999958240805072,98.44052380818553
6.064,0.9999957314809567,98.31324229608546
6.072,0.9999956442964981,98.18588529254131
6.08,0.9999955624415757,98.0584527293611
6.088,0.9999954858311829,97.93094453864389
6.096,0.9999954143808594,97.80336065278135
6.104,0.9999953480066918,97.67570100445916
6.112,0.9999952866253126,97.54796552665854
6.12,0.9999952301538988,97.42015415265776
6.128,0.9999951785101718,97.2922668160336
6.136,0.9999951316123953,97.16430345066284
6.144,0.9999950893793759,97.03626399072385
6.152,0.9999950517304615,96.908148370698
6.16,0.9999950185855403,96.77995652537123
6.168,0.9999949898650398,96.65168838983556
6.176,0.9999949654899277,96.52334389949053
6.184,0.9999949453817069,96.39492299004495
6.192,0.9999949294624196,96.26642559751811
6.2,0.9999949176546433,96.13785165824164
6.208,0.9999949098814905,96.00920110886074
6.216,0.9999949060666088,95.88047388633598
6.224,0.9999949061341773,95.75166992794465
6.232,0.9999949100089095,95.62278917128252
6.24,0.9999949176160501,95.4938315542651
6.248,0.999994928881373,95.36479701512948
6.256,0.9999949437311842,95.23568549243572
6.264,0.9999949620923163,95.1064969250685
6.272,0.9999949838921319,94.97723125223867
6.28,0.9999950090585181,94.84788841348465
6.288,0.9999950375198903,94.71846834867442
6.296,0.9999950692051881,94.58897099800663
6.304,0.9999951040438751,94.45939630201242
6.312,0.9999951419659382,94.32974420155708
6.32,0.9999951829018875,94.20001463784139
6.328,0.9999952267827524,94.07020755240356
6.336,0.9999952735400851,93.94032288712043
6.344,0.9999953231059553,93.81036058420935
6.352,0.9999953754129527,93.68032058622967
6.36,0.9999954303941827,93.55020283608447
6.368,0.9999954879832691,93.42000727702195
6.376,0.9999955481143505,93.28973385263727
6.384,0.9999956107220799,93.15938250687401
6.392,0.9999956757416237,93.02895318402598
6.4,0.9999957431086616,92.89844582873853
6.408,0.9999958127593842,92.76786038601048
6.416,0.9999958846304939,92.63719680119567
6.424,0.999995958659201,92.50645502000447
6.432,0.9999960347832255,92.37563498850561
6.44,0.9999961129407962,92.24473665312763
6.448,0.9999961930706456,92.11375996066072
6.456,0.9999962751120138,91.98270485825817
6.464,0.9999963590046457,91.85157129343821
6.472,0.9999964446887891,91.72035921408552
6.48,0.9999965321051936,91.58906856845297
6.4879999999999995,0.9999966211951117,91.45769930516323
6.496,0.9999967119002956,91.32625137321048
6.504,0.9999968041629971,91.19472472196206
6.5120000000000005,0.999996897925966,91.06311930116013
6.52,0.9999969931324504,90.93143506092339
6.5280000000000005,0.9999970897261934,90.79967195174858
6.536,0.9999971876514341,90.66782992451252
6.5440000000000005,0.9999972868529057,90.53590893047335
6.552,0.9999973872758341,90.40390892127262
6.5600000000000005,0.9999974888659375,90.27182984893666
6.568,0.9999975915694247,90.1396716658785
6.5760000000000005,0.9999976953329949,90.00743432489938
6.584,0.9999978001038357,89.87511777919067
6.592,0.9999979058296223,89.7427219823353
6.6,0.9999980124585162,89.61024688830969
6.608,0.9999981199391653,89.47769245148532
6.616,0.9999982282207005,89.34505862663055
6.624,0.9999983372527373,89.21234536891218
6.632,0.9999984469853727,89.07955263389732
6.64,0.9999985573691842,88.94668037755503
6.648,0.9999986683552301,88.813728556258
6.656,0.999998779895047,88.6806971267844
6.664,0.9999988919406487,88.54758604631941
6.672,0.9999990044445265,88.41439527245717
6.68,0.9999991173596461,88.28112476320234
6.688,0.9999992306394476,88.1477744769719
6.696,0.9999993442378446,88.0143443725969
6.704,0.9999994581092219,87.88083440932411
6.712,0.9999995722084354,87.74724454681788
6.72,0.9999996864908103,87.61357474516181
6.728,0.9999998009121402,87.47982496486047
6.736,0.999999915428686,87.34599516684122
6.744,0.9999999999999999,87.21208531245588
6.752,1.0,87.07809536348257
6.76,1.0,86.94402528212736
6.768,1.0,86.80987503102611
6.776,1.0,86.67564457324615
6.784,0.9999999999999998,86.54133387228812
6.792,0.9999999999999999,86.40694289208767
6.8,1.0,86.27247159701724
6.808,1.0,86.13791995188785
6.816,1.0,86.00328792195081
6.824,1.0,85.86857547289954
6.832,1.0,85.73378257087128
6.84,0.9999999999999998,85.598909182449
6.848,1.0,85.46395527466296
6.856,1.0,85.32892081499268
6.864,1.0,85.1938057713686
6.872,1.0,85.05861011217391
6.88,1.0,84.92333380624632
6.888,0.9999999999999999,84.78797682287978
6.896,1.0,84.65253913182643
6.904,0.9999999999999999,84.51702070329816
6.912,1.0,84.38142150796857
6.92,0.9999999999999999,84.2457415169747
6.928,1.0,84.10998070191881
6.936,1.0,83.97413903487012
6.944,0.9999999999999999,83.83821648836675
6.952,1.0,83.70221303541734
6.96,1.0,83.56612864950297
6.968,1.0,83.42996330457888
6.976,0.9999999999999999,83.29371697507631
6.984,0.9999999999999999,83.15738963590422
6.992,1.0,83.02098126245124
7.0,1.0,82.88449183058732
7.008,0.9999999999999998,82.74792131666555
7.016,1.0000000000000002,82.6112696975241
7.024,0.9999999999999999,82.47453695048776
7.032,0.9999999999999999,82.33772305337003
7.04,1.0,82.20082798447473
7.048,0.9999999999999999,82.06385172259786
7.056,0.9999999999999999,81.92679424702945
7.064,1.0,81.78965553755522
7.072,1.0,81.6524355744586
7.08,0.9999999999999999,81.51513433852234
7.088,0.9999999999999998,81.3777518110304
7.096,0.9999999999999999,81.24028797376981
7.104,0.9999999999999999,81.1027428090323
7.112,1.0,80.96511629961641
7.12,1.0,80.8274084288289
7.128,1.0,80.68961918048691
7.136,1.0,80.55174853891955
7.144,0.9999999999999998,80.41379648896984
7.152,1.0,80.27576301599638
7.16,1.0,80.13764810587526
7.168,1.0,79.99945174500192
7.176,0.9999999999999999,79.86117392029276
7.184,1.0,79.72281461918716
7.192,0.9999999999999998,79.5843738296491
7.2,1.0,79.44585154016914
7.208,0.9999999999999998,79.3072477397661
7.216,1.0,79.16856241798888
7.224,0.9999999999999999,79.02979556491835
7.232,1.0,78.89094717116905
7.24,1.0,78.75201722789107
7.248,1.0,78.61300572677177
7.256,1.0,78.47391266003773
7.264,1.0,78.33473802045634
7.272,0.9999999999999999,78.19548180133782
7.28,0.9999999999999998,78.05614399653682
7.288,1.0,77.91672460045437
7.296,1.0,77.77722360803965
7.304,0.9999999999999999,77.63764101479167
7.312,0.9999999999999999,77.49797681676121
7.32,0.9999999999999999,77.35823101055257
7.328,1.0,77.21840359332535
7.336,1.0,77.07849456279618
7.344,1.0,76.93850391724065
7.352,1.0,76.798431655495
7.36,1.0,76.65827777695792
7.368,1.0,76.51804228159232
7.376,1.0,76.37772516992725
7.384,0.9999999999999999,76.23732644305943
7.392,1.0,76.0968461026553
7.4,1.0,75.95628415095257
7.4079999999999995,1.0,75.81564059076219
7.416,1.0,75.67491542546999
7.4239999999999995,1.0,75.53410865903855
7.432,0.9999999999999999,75.39322029600883
7.4399999999999995,0.9999999999999999,75.25225034150216
7.448,1.0,75.11119880122176
7.4559999999999995,1.0,74.97006568145477
7.464,1.0,74.8288509890737
7.4719999999999995,1.0,74.68755473153853
7.48,0.9999999999999999,74.5461769168981
7.4879999999999995,1.0,74.40471755379231
7.496,1.0,74.26317665145339
7.504,0.9999999999999999,74.12155421970812
7.5120000000000005,0.9999999999999999,73.97985026897909
7.52,0.9999999999999999,73.83806481028695
7.5280000000000005,1.0,73.6961978552517
7.536,0.9999999999999999,73.55424941609483
7.5440000000000005,0.9999999999999998,73.41221950564064
7.552,1.0,73.2701081373184
7.5600000000000005,0.9999999999999999,73.12791532516376
7.568,0.9999999999999999,72.9856410838206
7.5760000000000005,1.0,72.84328542854279
7.584,0.9999999999999998,72.70084837519582
7.5920000000000005,1.0,72.55832994025857
7.6,1.0,72.41573014082509
7.6080000000000005,1.0,72.2730489946061
7.616,0.9999999999999999,72.13028651993102
7.6240000000000006,0.9999999999999999,71.98744273574928
7.632,1.0,71.84451766163241
7.640000000000001,0.9999999999999999,71.70151131777544
7.648,1.0,71.55842372499878
7.656000000000001,1.0,71.41525490474973
7.664,0.9999999999999999,71.27200487910444
7.672,1.0,71.12867367076923
7.68,0.9999999999999999,70.98526130308257
7.688,0.9999999999999999,70.84176780001663
7.696,1.0,70.69819318617887
7.704,0.9999999999999999,70.55453748681389
7.712,0.9999999999999999,70.4108007278049
7.72,1.0,70.26698293567553
7.728,0.9999999999999999,70.12308413759136
7.736,1.0,69.97910436136164
7.744,1.0,69.83504363544083
7.752,1.0,69.69090198893042
7.76,1.0,69.54667945158036
7.768,1.0,69.4023760537908
7.776,1.0,69.2579918266137
7.784,0.9999999999999999,69.11352680175438
7.792,0.9999999999999999,68.96898101157323
7.8,0.9999999999999998,68.82435448908724
7.808,0.9999999999999999,68.67964726797159
7.816,0.9999999999999999,68.53485938256132
7.824,1.0,68.38999086785284
7.832,0.9999999999999999,68.24504175950563
7.84,1.0,68.10001209384356
7.848,1.0,67.9549019078568
7.856,1.0,67.80971123920312
7.864,1.0,67.66444012620961
7.872,1.0,67.51908860787414
7.88,0.9999999999999999,67.37365672386694
7.888,1.0,67.22814451453215
7.896,1.0,67.08255202088931
7.904,1.0,66.936879284635
7.912,1.0,66.79112634814422
7.92,1.0,66.64529325447198
7.928,1.0,66.49938004735485
7.936,1.0,66.35338677121234
7.944,1.0,66.20731347114855
7.952,1.0,66.06116019295352
7.96,1.0,65.91492698310482
7.968,1.0,65.76861388876891
7.976,1.0,65.62222095780275
7.984,1.0,65.47574823875516
7.992,1.0,65.32919578086829
8.0,1.0,65.18256363407909
8.008,0.9999999999999999,65.03585184902073
8.016,0.9999999999999999,64.88906047702405
8.024000000000001,1.0,64.74218957011895
8.032,1.0000000000000002,64.59523918103594
8.04,1.0,64.44820936320725
8.048,0.9999999999999999,64.30110017076855
8.056000000000001,0.9999999999999999,64.15391165856023
8.064,0.9999999999999999,64.00664388212871
8.072,0.999999966353449,63.85929689772793
8.08,0.9999998047115831,63.71187076232057
8.088000000000001,0.9999996413245221,63.564365533579625
8.096,0.9999994762062113,63.416781269889626
8.104,0.9999993093707822,63.26911803034795
8.112,0.9999991408325495,63.12137587476618
8.120000000000001,0.9999989706060083,62.973554863671566
8.128,0.9999987987058332,62.82565505830821
8.136,0.9999986251468758,62.67767652063833
8.144,0.9999984499441616,62.52961931334368
8.152000000000001,0.9999982731128901,62.3814834998268
8.16,0.9999980946684303,62.23326914421238
8.168,0.9999979146263202,62.08497631134828
8.176,0.9999977330022648,61.936605066807104
8.184000000000001,0.9999975498121325,61.78815547688723
8.192,0.9999973650719545,61.6396276086143
8.2,0.9999971787979225,61.491021529742156
8.208,0.9999969910063854,61.34233730875421
8.216000000000001,0.9999968017138492,61.19357501486478
8.224,0.9999966109369725,61.04473471802014
8.232,0.999996418692567,60.895816488899776
8.24,0.9999962249975926,60.74682039891749
8.248000000000001,0.9999960298691581,60.59774652022277
8.256,0.9999958333245172,60.44859492570183
8.264,0.9999956353810662,60.29936568897874
8.272,0.9999954360563443,60.15005888441659
8.280000000000001,0.9999952353680278,60.000674587118745
8.288,0.9999950333339315,59.8512128729299
8.296,0.9999948299720037,59.70167381843709
8.304,0.9999946253003269,59.55205750097094
8.312,0.9999944193371135,59.402363998606795
8.32,0.9999942121007036,59.252593390165565
8.328,0.9999940036095645,59.10274575521518
8.336,0.9999937938822878,58.95282117407123
8.344,0.9999935829375863,58.80281972779841
8.352,0.9999933707942938,58.652741498211185
8.36,0.9999931574713614,58.50258656787521
8.368,0.9999929429878553,58.35235502010807
8.376,0.9999927273629563,58.2020469389804
8.384,0.9999925106159555,58.051662409316826
8.392,0.9999922927662547,57.90120151669705
8.4,0.9999920738333608,57.750664347456684
8.408,0.9999918538368869,57.60005098868837
8.416,0.9999916327965493,57.44936152824261
8.424,0.9999914107321644,57.29859605472879
8.432,0.9999911876636465,57.14775465751599
8.44,0.9999909636110078,56.996837426734075
8.448,0.9999907385943532,56.8458444532744
8.456,0.9999905126338812,56.694775828790995
8.464,0.9999902857498791,56.543631645700955
8.472,0.9999900579627227,56.39241199718591
8.48,0.9999898292928724,56.241116977192334
8.488,0.999989599760874,56.08974668043283
8.496,0.999989369387353,55.9383012023866
8.504,0.9999891381930145,55.78678063930055
8.512,0.9999889061986418,55.63518508818979
8.52,0.9999886734250921,55.48351464683889
8.528,0.9999884398932952,55.33176941380205
8.536,0.9999882056242522,55.17994948840446
8.544,0.9999879706390332,55.02805497074254
8.552,0.9999877349587731,54.87608596168518
8.56,0.9999874986046725,54.724042562873926
8.568,0.9999872615979937,54.571924876724225
8.576,0.999987023960059,54.41973300642571
8.584,0.9999867857122482,54.267467055943065
8.592,0.999986546875997,54.115127130016766
8.6,0.999986307472795,53.962713334163666
8.608,0.9999860675241824,53.8102257746775
8.616,0.99998582705175,53.65766455862969
8.624,0.9999855860771345,53.50502979387001
8.632,0.9999853446220185,53.35232158902704
8.64,0.9999851027081265,53.19954005350877
8.648,0.9999848603572253,53.04668529750331
8.656,0.9999846175911189,52.89375743197926
8.664,0.9999843744316488,52.74075656868645
8.672,0.9999841309006907,52.587682820156324
8.68,0.9999838870201521,52.43453629970255
8.688,0.9999836428119714,52.281317121421395
8.696,0.9999833982981144,52.12802540019247
8.704,0.9999831535005734,51.97466125167885
8.712,0.9999829084413641,51.821224792327904
8.72,0.9999826631425247,51.66771613937145
8.728,0.9999824176261118,51.514135410826285
8.736,0.999982171914201,51.36048272549462
8.744,0.9999819260288823,51.206758202964565
8.752,0.9999816799922594,51.052961963610194
8.76,0.9999814338264464,50.89909412859241
8.768,0.9999811875535689,50.74515481985879
8.776,0.999980941195757,50.5911441601443
8.784,0.9999806947751471,50.43706227297133
8.792,0.999980448313878,50.28290928265034
8.8,0.9999802018340899,50.1286853142798
8.808,0.999979955357921,49.97439049374665
8.815999999999999,0.9999797089075072,49.8200249477265
8.824,0.9999794625049786,49.66558880368399
8.832,0.9999792161724564,49.51108218987288
8.84,0.9999789699320554,49.356505235336364
8.847999999999999,0.9999787238058767,49.201858069907146
8.856,0.9999784778160069,49.04714082420761
8.864,0.9999782319845201,48.8923536296503
8.872,0.9999779863334696,48.737496618437625
8.879999999999999,0.9999777408848916,48.582569923562296
8.888,0.999977495660798,48.42757367880721
8.896,0.9999772506831786,48.272508018745796
8.904,0.9999770059739974,48.117373078742006
8.911999999999999,0.9999767615551901,47.962168994950204
8.92,0.9999765174486626,47.806895904315425
8.928,0.999976273676289,47.65155394457335
8.936,0.9999760302599104,47.49614325425036
8.943999999999999,0.9999757872213304,47.34066397266336
8.952,0.9999755445823161,47.1851162399199
8.96,0.9999753023645945,47.029500196918185
8.968,0.999975060589851,46.87381598534693
8.975999999999999,0.9999748192797271,46.718063747685314
8.984,0.9999745784558182,46.562243627202754
8.992,0.9999743381396727,46.406355767959184
9.0,0.9999740983527883,46.250400314804445
9.008,0.9999738591166133,46.094377413378474
9.016,0.999973620452539,45.93828721011103
9.024000000000001,0.9999733823819056,45.78212985222154
9.032,0.9999731449259914,45.625905487718924
9.04,0.9999729081060194,45.46961426540131
9.048,0.9999726719431489,45.31325633485582
9.056000000000001,0.999972436458476,45.15683184645847
9.064,0.9999722016730339,45.000340951373744
9.072,0.9999719676077863,44.8437838015543
9.08,0.9999717342836296,44.687160549740646
9.088000000000001,0.9999715017213889,44.53047134946111
9.096,0.9999712699418177,44.37371635503117
9.104,0.9999710389655933,44.21689572155323
9.112,0.9999708088133181,44.06000960491612
9.120000000000001,0.9999705795055162,43.90305816179501
9.128,0.9999703510626307,43.74604154965073
9.136,0.9999701235050242,43.58895992672928
9.144,0.9999698968529747,43.431813452061654
9.152000000000001,0.9999696711266747,43.27460228546322
9.16,0.9999694463462302,43.11732658753318
9.168,0.9999692225316579,42.95998651965424
9.176,0.9999689997028826,42.80258224399176
9.184000000000001,0.9999687778797373,42.64511392349366
9.192,0.9999685570819608,42.48758172188961
9.2,0.9999683373291941,42.32998580369034
9.208,0.9999681186409821,42.17232633418713
9.216000000000001,0.9999679010367694,42.01460347945147
9.224,0.9999676845358986,41.856817406333995
9.232,0.9999674691576096,41.69896828246407
9.24,0.9999672549210367,41.54105627624898
9.248000000000001,0.9999670418452081,41.38308155687351
9.256,0.9999668299490435,41.2250442942989
9.264,0.9999666192513526,41.06694465926229
9.272,0.9999664097708332,40.90878282327585
9.280000000000001,0.99996620152607,40.75055895862624
9.288,0.999965994535532,40.59227323837356
9.296,0.9999657888175727,40.43392583635068
9.304,0.9999655843904256,40.27551692716234
9.312000000000001,0.9999653812722049,40.11704668618437
9.32,0.9999651794809035,39.958515289562875
9.328,0.9999649790343901,39.799922914213106
9.336,0.9999647799504106,39.6412697378187
9.344,0.999964582246581,39.48255593883099
9.352,0.999964385940393,39.323781696467535
9.36,0.9999641910492062,39.16494719071155
9.368,0.99996399759025,39.006052602310945
9.376,0.9999638055806205,38.84709811277699
9.384,0.9999636150372805,38.68808390438352
9.392,0.9999634259770553,38.52901016016596
9.4,0.9999632384166353,38.369877063920036
9.408,0.9999630523725702,38.21068480020083
9.416,0.9999628678612699,38.051433554321626
9.424,0.9999626848990028,37.89212351235285
9.432,0.9999625035018939,37.73275486112077
9.44,0.9999623236859232,37.57332778820659
9.448,0.9999621454669255,37.41384248194488
9.456,0.9999619688605869,37.25429913142284
9.464,0.9999617938824447,37.094697926478595
9.472,0.9999616205478862,36.93503905770036
9.48,0.999961448872147,36.77532271642479
9.488,0.9999612788703092,36.61554909473612
9.496,0.9999611105573004,36.45571838546439
9.504,0.9999609439478921,36.29583078218459
9.512,0.9999607790566988,36.13588647921479
9.52,0.9999606158981765,35.97588567161536
9.528,0.9999604544866214,35.81582855518699
9.536,0.999960294836168,35.65571532646973
9.544,0.9999601369607882,35.49554618274136
9.552,0.9999599808742909,35.33532132201595
9.56,0.9999598265903197,35.175040943042355
9.568,0.9999596741223519,35.0147052453029
9.576,0.999959523483696,34.8543144290116
9.584,0.9999593746874939,34.69386869511293
9.592,0.9999592277467162,34.53336824527993
9.6,0.9999590826741627,34.37281328191299
9.608,0.9999589394824611,34.212204008137896
9.616,0.999958798184065,34.05154062780457
9.624,0.9999586587912537,33.89082334548511
9.632,0.9999585213161308,33.73005236647242
9.64,0.9999583857706229,33.5692278967783
9.648,0.9999582521664784,33.40835014313192
9.656,0.9999581205152668,33.24741931297792
9.664,0.9999579908283771,33.08643561447494
9.672,0.9999578631170175,32.925399256493584
9.68,0.999957737392214,32.76431044861478
9.688,0.999957613664808,32.603169401128
9.696,0.9999574919454582,32.44197632502942
9.704,0.999957372244637,32.28073143201994
9.712,0.9999572545726303,32.11943493450359
9.72,0.9999571389395375,31.95808704558538
9.728,0.9999570253552685,31.79668797906965
9.736,0.9999569138295452,31.635237949457867
9.744,0.9999568043718984,31.473737171947
9.752,0.9999566969916687,31.312185862427167
9.76,0.9999565916980038,31.150584237480146
9.768,0.9999564884998592,30.98893251437684
9.776,0.9999563874059961,30.827230911075695
9.784,0.9999562884249824,30.66547964622033
9.792,0.9999561915651891,30.50367893913775
9.8,0.9999560968347916,30.341829009835955
9.808,0.9999560042417686,30.179930079002162
9.816,0.9999559137939008,30.017982368000382
9.824,0.9999558254987704,29.8559860988695
9.832,0.9999557393637599,29.69394149432092
9.84,0.9999556553960521,29.531848777736585
9.847999999999999,0.99995557360263,29.369708173166515
9.856,0.9999554939902731,29.207519905326777
9.864,0.9999554165655603,29.0452841995972
9.872,0.9999553413348677,28.88300128201911
9.879999999999999,0.9999552683043673,28.72067137929289
9.888,0.9999551974800271,28.55829471877584
9.896,0.9999551288676115,28.39587152847984
9.904,0.9999550624726781,28.233402037068966
