freq,mag,phase
6.0,0.9999969417337318,130.17436710603693
6.008,0.9999964805199514,130.10176444622869
6.016,0.9999960260298085,130.02913652530162
6.024,0.9999955782133874,129.95648330863406
6.032,0.9999951370209512,129.8838047615996
6.04,0.9999947024029437,129.81110084956745
6.048,0.9999942743099886,129.73837153790217
6.056,0.9999938526928894,129.665616791964
6.064,0.999993437502629,129.59283657710876
6.072,0.9999930286903703,129.520030858688
6.08,0.9999926262074555,129.44719960204895
6.088,0.999992230005406,129.37434277253465
6.096,0.9999918400359227,129.30146033548417
6.104,0.9999914562508848,129.2285522562323
6.112,0.9999910786023519,129.1556185001099
6.12,0.999990707042561,129.082659032444
6.128,0.9999903415239284,129.00967381855762
6.136,0.9999899819990494,128.93666282377004
6.144,0.9999896284206972,128.8636260133967
6.152,0.9999892807418237,128.79056335274947
6.16,0.9999889389155586,128.71747480713657
6.168,0.9999886028952102,128.6443603418626
6.176,0.9999882726342644,128.57121992222872
6.184,0.9999879480863851,128.49805351353268
6.192,0.9999876292054142,128.42486108106883
6.2,0.9999873159453705,128.35164259012825
6.208,0.9999870082604511,128.27839800599875
6.216,0.9999867061050294,128.20512729396512
6.224,0.9999864094336572,128.1318304193089
6.232,0.999986118201063,128.05850734730865
6.24,0.9999858323621514,127.98515804324003
6.248,0.9999855518720054,127.91178247237576
6.256,0.9999852766858834,127.83838059998573
6.264,0.9999850067592209,127.76495239133716
6.272,0.9999847420476297,127.69149781169449
6.28,0.999984482506898,127.61801682631963
6.288,0.9999842280929903,127.54450940047191
6.296,0.9999839787620468,127.47097549940817
6.304,0.9999837344703841,127.39741508838293
6.312,0.9999834951744945,127.3238281326483
6.32,0.9999832608310456,127.25021459745423
6.328,0.9999830313968807,127.17657444804837
6.336,0.9999828068290185,127.10290764967634
6.344,0.9999825870846533,127.0292141675817
6.352,0.999982372121154,126.95549396700605
6.36,0.999982161896065,126.88174701318913
6.368,0.9999819563671049,126.80797327136882
6.376,0.9999817554921677,126.73417270678127
6.384,0.9999815592293216,126.66034528466093
6.392,0.9999813675368096,126.58649097024075
6.4,0.9999811803730484,126.5126097287521
6.408,0.9999809976966295,126.43870152542492
6.416,0.9999808194663181,126.36476632548775
6.424,0.9999806456410535,126.29080409416791
6.432,0.9999804761799488,126.21681479669151
6.44,0.9999803110422906,126.14279839828345
6.448,0.9999801501875386,126.06875486416763
6.456,0.9999799935753266,125.99468415956697
6.464,0.9999798411654613,125.92058624970352
6.472,0.9999796929179221,125.84646109979843
6.48,0.999979548792862,125.77230867507222
6.4879999999999995,0.9999794087506064,125.69812894074468
6.496,0.9999792727516532,125.62392186203498
6.504,0.9999791407566732,125.5496874041619
6.5120000000000005,0.999979012726509,125.47542553234375
6.52,0.999978888622176,125.40113621179847
6.5280000000000005,0.9999787684048616,125.32681940774378
6.536,0.9999786520359244,125.2524750853973
6.5440000000000005,0.9999785394768961,125.17810320997638
6.552,0.9999784306894784,125.10370374669856
6.5600000000000005,0.9999783256355462,125.02927666078132
6.568,0.9999782242771443,124.95482191744236
6.5760000000000005,0.9999781265764897,124.88033948189964
6.584,0.9999780324959694,124.8058293193714
6.592,0.9999779419981422,124.73129139507635
6.6,0.9999778550457378,124.65672567423363
6.608,0.9999777716016555,124.58213212206304
6.616,0.9999776916289659,124.50751070378502
6.624,0.9999776150909095,124.43286138462075
6.632,0.9999775419508969,124.35818412979232
6.64,0.9999774721725091,124.28347890452267
6.648,0.9999774057194967,124.2087456740358
6.656,0.9999773425557797,124.13398440355688
6.664,0.9999772826454478,124.05919505831216
6.672,0.9999772259527608,123.98437760352928
6.68,0.9999771724421465,123.90953200443724
6.688,0.9999771220782024,123.83465822626644
6.696,0.9999770748256953,123.75975623424894
6.704,0.99997703064956,123.68482599361835
6.712,0.9999769895148999,123.6098674696101
6.72,0.9999769513869878,123.53488062746142
6.728,0.9999769162312635,123.45986543241143
6.736,0.9999768840133362,123.38482184970135
6.744,0.9999768546989819,123.30974984457448
6.752,0.9999768282541451,123.23464938227626
6.76,0.999976804644938,123.1595204280545
6.768,0.9999767838376394,123.08436294715939
6.776,0.9999767657986967,123.00917690484359
6.784,0.9999767504947233,122.93396226636234
6.792,0.9999767378925003,122.85871899697361
6.8,0.9999767279589752,122.78344706193803
6.808,0.9999767206612629,122.70814642651925
6.816,0.9999767159666438,122.63281705598376
6.824,0.9999767138425647,122.5574589156012
6.832,0.9999767142566398,122.48207197064434
6.84,0.9999767171766479,122.40665618638916
6.848,0.9999767225705339,122.3312115281151
6.856,0.9999767304064092,122.25573796110501
6.864,0.9999767406525495,122.18023545064528
6.872,0.9999767532773968,122.10470396202602
6.88,0.9999767682495574,122.02914346054102
6.888,0.9999767855378032,121.95355391148797
6.896,0.9999768051110709,121.87793528016853
6.904,0.999976826938461,121.80228753188842
6.912,0.9999768509892395,121.72661063195756
6.92,0.9999768772328361,121.65090454569004
6.928,0.9999769056388447,121.57516923840438
6.936,0.999976936177023,121.49940467542368
6.944,0.9999769688172926,121.4236108220754
6.952,0.9999770035297387,121.34778764369189
6.96,0.9999770402846099,121.27193510561014
6.968,0.9999770790523175,121.19605317317216
6.976,0.9999771198034363,121.12014181172488
6.984,0.9999771625087043,121.04420098662037
6.992,0.9999772071390214,120.9682306632159
7.0,0.9999772536654503,120.89223080687408
7.008,0.9999773020592161,120.81620138296296
7.016,0.9999773522917058,120.74014235685607
7.024,0.9999774043344686,120.66405369393263
7.032,0.9999774581592151,120.58793535957767
7.04,0.9999775137378176,120.51178731918198
7.048,0.9999775710423098,120.43560953814237
7.056,0.9999776300448867,120.35940198186181
7.064,0.999977690717904,120.28316461574937
7.072,0.9999777530338783,120.20689740522047
7.08,0.9999778169654869,120.13060031569697
7.088,0.9999778824855678,120.05427331260722
7.096,0.9999779495671183,119.97791636138628
7.104,0.9999780181832969,119.90152942747588
7.112,0.9999780883074206,119.82511247632475
7.12,0.9999781599129676,119.74866547338854
7.128,0.999978232973574,119.67218838412998
7.136,0.9999783074630363,119.59568117401908
7.144,0.9999783833553094,119.51914380853314
7.152,0.9999784606245076,119.442576253157
7.16,0.9999785392449034,119.36597847338292
7.168,0.9999786191909276,119.289350434711
7.176,0.9999787004371699,119.21269210264907
7.184,0.999978782958377,119.13600344271289
7.192,0.999978866729455,119.05928442042632
7.2,0.9999789517254664,118.98253500132128
7.208,0.9999790379216311,118.90575515093808
7.216,0.9999791252933271,118.82894483482534
7.224,0.9999792138160886,118.75210401854028
7.232,0.9999793034656073,118.67523266764879
7.24,0.9999793942177307,118.5983307477254
7.248,0.9999794860484635,118.52139822435365
7.256,0.9999795789339662,118.44443506312604
7.264,0.9999796728505556,118.36744122964424
7.272,0.9999797677747031,118.29041668951918
7.28,0.9999798636830375,118.21336140837111
7.288,0.9999799605523413,118.13627535182991
7.296,0.9999800583595532,118.059158485535
7.304,0.999980157081766,117.98201077513558
7.312,0.9999802566962277,117.90483218629078
7.32,0.999980357180341,117.82762268466969
7.328,0.9999804585116621,117.7503822359516
7.336,0.999980560667902,117.67311080582604
7.344,0.9999806636269245,117.59580835999294
7.352,0.9999807673667481,117.5184748641628
7.36,0.9999808718655439,117.44111028405672
7.368,0.9999809771016366,117.36371458540661
7.376,0.9999810830535039,117.28628773395533
7.384,0.9999811896997752,117.20882969545679
7.392,0.9999812970192338,117.13134043567602
7.4,0.9999814049908137,117.05381992038943
7.4079999999999995,0.9999815135936024,116.97626811538488
7.416,0.9999816228068384,116.89868498646175
7.4239999999999995,0.9999817326099115,116.82107049943122
7.432,0.9999818429823633,116.74342462011627
7.4399999999999995,0.9999819539038862,116.66574731435185
7.448,0.9999820653543238,116.58803854798505
7.4559999999999995,0.9999821773136696,116.51029828687525
7.464,0.999982289762068,116.43252649689418
7.4719999999999995,0.9999824026798138,116.35472314392612
7.48,0.9999825160473508,116.27688819386799
7.4879999999999995,0.9999826298452731,116.19902161262958
7.496,0.9999827440543244,116.12112336613353
7.504,0.9999828586553969,116.04319342031566
7.5120000000000005,0.9999829736295321,115.96523174112492
7.52,0.99998308895792,115.88723829452373
7.5280000000000005,0.9999832046218996,115.8092130464879
7.536,0.9999833206029569,115.73115596300698
7.5440000000000005,0.9999834368827271,115.65306701008426
7.552,0.9999835534429923,115.574946153737
7.5600000000000005,0.9999836702656826,115.4967933599964
7.568,0.9999837873328745,115.41860859490811
7.5760000000000005,0.999983904626792,115.34039182453195
7.584,0.9999840221298061,115.2621430149423
7.5920000000000005,0.9999841398244332,115.18386213222817
7.6,0.999984257693337,115.10554914249347
7.6080000000000005,0.999984375719326,115.02720401185691
7.616,0.9999844938853549,114.94882670645241
7.6240000000000006,0.9999846121745245,114.87041719242897
7.632,0.9999847305700791,114.7919754359512
7.640000000000001,0.9999848490554093,114.71350140319903
7.648,0.9999849676140493,114.63499506036825
7.656000000000001,0.9999850862296787,114.5564563736703
7.664,0.9999852048861204,114.47788530933273
7.672,0.9999853235673407,114.39928183359922
7.68,0.9999854422574506,114.32064591272965
7.688,0.9999855609407035,114.24197751300044
7.696,0.9999856796014959,114.1632766007045
7.704,0.9999857982243672,114.08454314215157
7.712,0.9999859167939994,114.00577710366822
7.72,0.9999860352952163,113.92697845159812
7.728,0.9999861537129838,113.84814715230206
7.736,0.9999862720324091,113.76928317215832
7.744,0.9999863902387411,113.69038647756258
7.752,0.9999865083173699,113.61145703492825
7.76,0.9999866262538257,113.53249481068654
7.768,0.9999867440337799,113.45349977128667
7.776,0.9999868616430434,113.37447188319598
7.784,0.9999869790675676,113.29541111290014
7.792,0.9999870962934435,113.21631742690326
7.8,0.9999872133069011,113.13719079172807
7.808,0.9999873300943094,113.05803117391615
7.816,0.9999874466421766,112.9788385400279
7.824,0.9999875629371494,112.8996128566429
7.832,0.9999876789660115,112.82035409036004
7.84,0.9999877947156864,112.74106220779753
7.848,0.9999879101732335,112.66173717559329
7.856,0.9999880253258504,112.5823789604049
7.864,0.9999881401608713,112.50298752890993
7.872,0.9999882546657671,112.42356284780598
7.88,0.9999883688281453,112.344104883811
7.888,0.9999884826357495,112.26461360366322
7.896,0.9999885960764582,112.18508897412158
7.904,0.9999887091382865,112.10553096196573
7.912,0.9999888218093844,112.02593953399621
7.92,0.9999889340780362,111.94631465703469
7.928,0.9999890459326611,111.86665629792408
7.936,0.9999891573618125,111.78696442352874
7.944,0.9999892683541775,111.70723900073462
7.952,0.9999893788985771,111.62747999644944
7.96,0.9999894889839658,111.54768737760284
7.968,0.9999895985994297,111.46786111114663
7.976,0.999989707734189,111.38800116405488
7.984,0.9999898163775959,111.3081075033241
7.992,0.9999899245191339,111.22818009597344
8.0,0.9999900321484189,111.14821890904491
8.008,0.9999901392551974,111.06822390960347
8.016,0.999990245829348,110.98819506473721
8.024000000000001,0.9999903518608787,110.90813234155762
8.032,0.9999904573399284,110.82803570719969
8.04,0.9999905622567663,110.74790512882207
8.048,0.9999906666017909,110.66774057360726
8.056000000000001,0.99999077036553,110.58754200876191
8.064,0.9999908735386405,110.50730940151684
8.072,0.999990976111908,110.42704271912727
8.08,0.9999910780762463,110.346741928873
8.088000000000001,0.9999911794226972,110.26640699805864
8.096,0.99999128014243,110.18603789401378
8.104,0.9999913802267414,110.10563458409305
8.112,0.9999914796670555,110.02519703567647
8.120000000000001,0.9999915784549217,109.94472521616954
8.128,0.999991676582017,109.8642190930035
8.136,0.9999917740401434,109.7836786336354
8.144,0.9999918708212289,109.70310380554835
8.152000000000001,0.999991966917326,109.62249457625174
8.16,0.9999920623206128,109.54185091328141
8.168,0.9999921570233914,109.46117278419973
8.176,0.9999922510180881,109.380460156596
8.184000000000001,0.9999923442972527,109.2997129980864
8.192,0.9999924368535584,109.2189312763144
8.2,0.9999925286798018,109.13811495895078
8.208,0.9999926197689015,109.05726401369385
8.216000000000001,0.9999927101138987,108.97637840826981
8.224,0.9999927997079563,108.89545811043273
8.232,0.9999928885443589,108.81450308796478
8.24,0.9999929766165115,108.73351330867655
8.248000000000001,0.9999930639179413,108.6524887404071
8.256,0.9999931504422943,108.57142935102428
8.264,0.9999932361833372,108.49033510842479
8.272,0.9999933211349562,108.40920598053445
8.280000000000001,0.9999934052911568,108.32804193530846
8.288,0.9999934886460629,108.2468429407315
8.296,0.9999935711939173,108.16560896481789
8.304,0.9999936529290805,108.08433997561193
8.312,0.9999937338460309,108.003035941188
8.32,0.9999938139393636,107.9216968296508
8.328,0.9999938932037912,107.84032260913551
8.336,0.9999939716341427,107.75891324780801
8.344,0.9999940492253627,107.67746871386514
8.352,0.999994125972511,107.59598897553475
8.36,0.9999942018707643,107.51447400107612
8.368,0.9999942769154123,107.43292375877994
8.376,0.9999943511018597,107.35133821696868
8.384,0.9999944244256261,107.2697173439967
8.392,0.9999944968823433,107.18806110825054
8.4,0.999994568467757,107.10636947814899
8.408,0.999994639177726,107.02464242214349
8.416,0.9999947090082201,106.9428799087181
8.424,0.9999947779553224,106.86108190638997
8.432,0.9999948460152266,106.77924838370929
8.44,0.9999949131842382,106.69737930925972
8.448,0.9999949794587725,106.61547465165846
8.456,0.9999950448353555,106.53353437955653
8.464,0.9999951093106224,106.45155846163892
8.472,0.9999951728813188,106.36954686662487
8.48,0.9999952355442983,106.287499563268
8.488,0.9999952972965226,106.20541652035668
8.496,0.9999953581350624,106.123297706714
8.504,0.9999954180570955,106.04114309119824
8.512,0.9999954770599065,105.95895264270287
8.52,0.9999955351408872,105.87672633015697
8.528,0.9999955922975352,105.79446412252521
8.536,0.9999956485274542,105.71216598880834
8.544,0.9999957038283523,105.62983189804311
8.552,0.9999957581980436,105.5474618193028
8.56,0.9999958116344462,105.46505572169713
8.568,0.9999958641355814,105.38261357437275
8.576,0.999995915699575,105.30013534651327
8.584,0.9999959663246549,105.21762100733964
8.592,0.9999960160091522,105.13507052611013
8.6,0.9999960647514993,105.05248387212087
8.608,0.9999961125502306,104.9698610147058
8.616,0.9999961594039819,104.88720192323707
8.624,0.9999962053114886,104.80450656712516
8.632,0.9999962502715871,104.72177491581915
8.64,0.9999962942832132,104.63900693880696
8.648,0.9999963373454016,104.5562026056155
8.656,0.9999963794572855,104.47336188581103
8.664,0.999996420618097,104.39048474899926
8.672,0.999996460827165,104.30757116482559
8.68,0.9999965000839162,104.22462110297552
8.688,0.9999965383878731,104.14163453317454
8.696,0.9999965757386556,104.05861142518874
8.704,0.9999966121359779,103.97555174882474
8.712,0.9999966475796503,103.89245547393008
8.72,0.9999966820695773,103.8093225703934
8.728,0.9999967156057575,103.72615300814473
8.736,0.9999967481882828,103.64294675715561
8.744,0.999996779817339,103.55970378743947
8.752,0.9999968104932037,103.47642406905169
8.76,0.9999968402162466,103.39310757209005
8.768,0.9999968689869287,103.30975426669474
8.776,0.9999968968058028,103.22636412304882
8.784,0.9999969236735112,103.14293711137822
8.792,0.9999969495907862,103.05947320195224
8.8,0.99999697455845,102.97597236508354
8.808,0.9999969985774128,102.89243457112856
8.815999999999999,0.9999970216486734,102.80885979048766
8.824,0.9999970437733183,102.72524799360541
8.832,0.9999970649525215,102.6415991509708
8.84,0.9999970851875424,102.55791323311756
8.847999999999999,0.9999971044797279,102.47419021062426
8.856,0.999997122830509,102.39043005411466
8.864,0.9999971402414025,102.30663273425797
8.872,0.999997156714009,102.22279822176904
8.879999999999999,0.9999971722500132,102.1389264874086
8.888,0.9999971868511826,102.05501750198351
8.896,0.9999972005193672,101.97107123634709
8.904,0.9999972132564996,101.88708766139928
8.911999999999999,0.9999972250645935,101.80306674808688
8.92,0.9999972359457429,101.71900846740387
8.928,0.9999972459021228,101.63491279039158
8.936,0.9999972549359873,101.55077968813906
8.943999999999999,0.9999972630496696,101.46660913178317
8.952,0.9999972702455817,101.38240109250896
8.96,0.9999972765262127,101.29815554154986
8.968,0.9999972818941296,101.21387245018799
8.975999999999999,0.9999972863519755,101.12955178975433
8.984,0.9999972899024699,101.04519353162904
8.992,0.9999972925484072,100.96079764724168
9.0,0.9999972942926567,100.87636410807154
9.008,0.9999972951381617,100.79189288564778
9.016,0.9999972950879393,100.70738395154976
9.024000000000001,0.9999972941450789,100.62283727740727
9.032,0.9999972923127426,100.5382528349009
9.04,0.9999972895941633,100.45363059576209
9.048,0.9999972859926456,100.36897053177351
9.056000000000001,0.9999972815115635,100.2842726147694
9.064,0.9999972761543615,100.19953681663571
9.072,0.9999972699245521,100.11476310931037
9.08,0.9999972628257164,100.02995146478357
9.088000000000001,0.9999972548615036,99.94510185509807
9.096,0.9999972460356285,99.86021425234951
9.104,0.9999972363518734,99.77528862868645
9.112,0.9999972258140855,99.69032495631083
9.120000000000001,0.999997214426177,99.60532320747822
9.128,0.9999972021921236,99.52028335449808
9.136,0.9999971891159658,99.43520536973394
9.144,0.9999971752018055,99.35008922560372
9.152000000000001,0.9999971604538075,99.2649348945801
9.16,0.9999971448761973,99.17974234919062
9.168,0.9999971284732619,99.09451156201807
9.176,0.9999971112493474,99.00924250570071
9.184000000000001,0.999997093208859,98.92393515293254
9.192,0.9999970743562607,98.83858947646367
9.2,0.9999970546960743,98.7532054491004
9.208,0.9999970342328781,98.66778304370565
9.216000000000001,0.9999970129713073,98.5823222331992
9.224,0.999996990916052,98.49682299055799
9.232,0.9999969680718572,98.4112852888163
9.24,0.9999969444435213,98.3257091010661
9.248000000000001,0.9999969200358974,98.24009440045734
9.256,0.999996894853889,98.15444116019823
9.264,0.9999968689024527,98.06874935355545
9.272,0.9999968421865952,97.98301895385443
9.280000000000001,0.999996814711374,97.89724993447977
9.288,0.9999967864818948,97.81144226887542
9.296,0.9999967575033126,97.72559593054493
9.304,0.9999967277808302,97.63971089305171
9.312000000000001,0.9999966973196961,97.55378713001949
9.32,0.9999966661252061,97.46782461513244
9.328,0.9999966342027007,97.3818233221355
9.336,0.9999966015575641,97.29578322483462
9.344,0.9999965681952251,97.20970429709722
9.352,0.9999965341211552,97.12358651285219
9.36,0.9999964993408664,97.03742984609048
9.368,0.9999964638599131,96.95123427086513
9.376,0.9999964276838893,96.8649997612918
9.384,0.9999963908184281,96.7787262915488
9.392,0.999996353269201,96.69241383587762
9.4,0.9999963150419177,96.60606236858304
9.408,0.9999962761423232,96.5196718640336
9.416,0.9999962365761993,96.43324229666165
9.424,0.999996196349362,96.34677364096392
9.432,0.9999961554676613,96.26026587150157
9.44,0.9999961139369804,96.17371896290068
9.448,0.9999960717632346,96.08713288985238
9.456,0.9999960289523694,96.0005076271133
9.464,0.9999959855103616,95.91384314950568
9.472,0.9999959414432162,95.82713943191794
9.48,0.9999958967569678,95.74039644930465
9.488,0.9999958514576767,95.65361417668713
9.496,0.9999958055514306,95.5667925891535
9.504,0.9999957590443417,95.47993166185918
9.512,0.9999957119425473,95.39303137002705
9.52,0.9999956642522076,95.30609168894789
9.528,0.9999956159795049,95.21911259398047
9.536,0.9999955671306435,95.13209406055212
9.544,0.9999955177118469,95.04503606415881
9.552,0.9999954677293584,94.95793858036558
9.56,0.99999541718944,94.87080158480678
9.568,0.9999953660983697,94.78362505318646
