freq,mag,phase
6.0,0.9999992273550078,136.935207725971
6.008,0.9999985749526189,136.87430736174787
6.016,0.9999979494339319,136.81339410376083
6.024,0.9999973502422185,136.75246792326317
6.032,0.9999967768269709,136.69152879136888
6.04,0.9999962286438985,136.63057667905696
6.048,0.999995705154921,136.5696115571752
6.056,0.999995205828162,136.5086333964441
6.064,0.9999947301379427,136.44764216746094
6.072,0.9999942775647721,136.38663784070343
6.08,0.9999938475953393,136.32562038653387
6.088,0.9999934397225028,136.26458977520284
6.096,0.9999930534452794,136.20354597685315
6.104,0.9999926882688345,136.1424889615237
6.112,0.9999923437044679,136.08141869915332
6.12,0.999992019269601,136.02033515958448
6.128,0.9999917144877633,135.95923831256724
6.136,0.9999914288885773,135.89812812776304
6.144,0.9999911620077429,135.8370045747482
6.152,0.9999909133870204,135.7758676230181
6.16,0.9999906825742151,135.71471724199057
6.168,0.9999904691231569,135.65355340100967
6.176,0.9999902725936826,135.59237606934946
6.184,0.9999900925516165,135.53118521621764
6.192,0.9999899285687508,135.46998081075907
6.2,0.9999897802228225,135.40876282205957
6.208,0.9999896470974927,135.34753121914935
6.216,0.9999895287823248,135.2862859710067
6.224,0.9999894248727595,135.22502704656137
6.232,0.9999893349700919,135.1637544146984
6.24,0.9999892586814456,135.10246804426123
6.248,0.9999891956197484,135.04116790405538
6.256,0.9999891454037055,134.97985396285185
6.264,0.9999891076577723,134.91852618939046
6.272,0.9999890820121267,134.8571845523833
6.28,0.9999890681026417,134.7958290205181
6.288,0.9999890655708557,134.73445956246144
6.296,0.9999890740639419,134.673076146862
6.304,0.9999890932346801,134.61167874235406
6.312,0.9999891227414247,134.55026731756038
6.32,0.999989162248072,134.48884184109568
6.328,0.9999892114240295,134.42740228156953
6.336,0.9999892699441831,134.3659486075898
6.344,0.9999893374888622,134.30448078776524
6.352,0.9999894137438069,134.24299879070918
6.36,0.9999894984001334,134.18150258504187
6.368,0.9999895911542983,134.11999213939401
6.376,0.9999896917080626,134.05846742240928
6.384,0.9999897997684563,133.99692840274753
6.392,0.9999899150477413,133.93537504908753
6.4,0.9999900372633731,133.87380733012967
6.408,0.999990166137964,133.812225214599
6.416,0.9999903013992452,133.75062867124782
6.424,0.9999904427800254,133.6890176688584
6.432,0.999990590018155,133.62739217624573
6.44,0.9999907428564835,133.56575216226
6.448,0.9999909010428203,133.5040975957894
6.456,0.999991064329894,133.44242844576246
6.464,0.9999912324753116,133.38074468115076
6.472,0.999991405241516,133.3190462709712
6.48,0.999991582395745,133.25733318428863
6.4879999999999995,0.9999917637099883,133.19560539021805
6.496,0.9999919489609458,133.13386285792706
6.504,0.9999921379299831,133.0721055566382
6.5120000000000005,0.9999923304030892,133.01033345563107
6.52,0.999992526170832,132.9485465242447
6.5280000000000005,0.9999927250283149,132.88674473187962
6.536,0.9999929267751323,132.824928048
6.5440000000000005,0.9999931312153241,132.76309644213583
6.552,0.9999933381573317,132.7012498838849
6.5600000000000005,0.9999935474139524,132.63938834291483
6.568,0.9999937588022935,132.5775117889649
6.5760000000000005,0.9999939721437272,132.5156201918482
6.584,0.9999941872638447,132.45371352145332
6.592,0.9999944039924085,132.39179174774623
6.6,0.9999946221633087,132.32985484077216
6.608,0.999994841614513,132.26790277065717
6.616,0.9999950621880234,132.20593550760998
6.624,0.9999952837298266,132.14395302192355
6.632,0.9999955060898473,132.08195528397673
6.64,0.9999957291219034,132.0199422642359
6.648,0.9999959526836549,131.95791393325635
6.656,0.9999961766365593,131.8958702616838
6.664,0.9999964008458224,131.8338112202559
6.672,0.9999966251803517,131.7717367798036
6.68,0.9999968495127073,131.7096469112525
6.688,0.999997073719056,131.64754158562405
6.696,0.999997297679121,131.58542077403706
6.704,0.999997521276137,131.52328444770865
6.712,0.9999977443967981,131.46113257795554
6.72,0.9999979669312149,131.39896513619536
6.728,0.9999981887728624,131.33678209394736
6.736,0.9999984098185337,131.27458342283384
6.744,0.9999986299682925,131.21236909458088
6.752,0.999998849125424,131.15013908101952
6.76,0.9999990671963882,131.08789335408653
6.768,0.9999992840907715,131.02563188582536
6.776,0.9999994997212385,130.96335464838702
6.784,0.9999997140034853,130.9010616140307
6.792,0.9999999268561922,130.8387527551249
6.8,1.0,130.77642804414762
6.808,1.0,130.71408745368765
6.816,1.0,130.6517309564446
6.824,1.0,130.58935852523007
6.832,0.9999999999999999,130.52697013296768
6.84,1.0,130.46456575269406
6.848,0.9999999999999999,130.40214535755902
6.856,1.0,130.3397089208261
6.864,0.9999999999999999,130.27725641587304
6.872,1.0,130.21478781619206
6.88,1.0,130.15230309539018
6.888,1.0000000000000002,130.08980222718964
6.896,1.0,130.02728518542804
6.904,1.0,129.9647519440586
6.912,1.0,129.90220247715038
6.92,1.0,129.83963675888842
6.928,1.0,129.7770547635738
6.936,1.0,129.7144564656238
6.944,1.0,129.65184183957203
6.952,1.0,129.58921086006814
6.96,1.0,129.52656350187814
6.968,1.0,129.4638997398843
6.976,1.0,129.40121954908483
6.984,1.0,129.33852290459402
6.992,1.0,129.27580978164204
7.0,1.0,129.2130801555747
7.008,1.0,129.15033400185328
7.016,1.0,129.08757129605434
7.024,1.0,129.0247920138694
7.032,1.0,128.9619961311047
7.04,1.0,128.89918362368087
7.048,1.0,128.83635446763253
7.056,0.9999999999999999,128.77350863910803
7.064,0.9999999999999999,128.7106461143689
7.072,1.0,128.64776686978956
7.08,0.9999999999999999,128.5848708818568
7.088,0.9999999999999999,128.52195812716934
7.096,1.0,128.45902858243727
7.104,0.9999999999999999,128.3960822244816
7.112,1.0,128.3331190302337
7.12,0.9999999999999999,128.2701389767346
7.128,1.0,128.2071420411346
7.136,1.0,128.14412820069253
7.144,1.0,128.08109743277512
7.152,0.9999999999999999,128.01804971485637
7.16,0.9999999999999999,127.95498502451686
7.168,1.0,127.89190333944299
7.176,1.0,127.82880463742643
7.184,1.0,127.7656888963632
7.192,1.0,127.70255609425297
7.2,1.0,127.63940620919836
7.208,0.9999999999999999,127.57623921940402
7.216,1.0,127.51305510317592
7.224,0.9999999999999999,127.44985383892055
7.232,1.0,127.3866354051439
7.24,1.0,127.32339978045087
7.248,0.9999999999999999,127.26014694354413
7.256,1.0,127.19687687322342
7.264,1.0,127.13358954838459
7.272,1.0,127.07028494801868
7.28,0.9999999999999998,127.00696305121099
7.288,1.0,126.94362383714012
7.296,0.9999999999999999,126.88026728507712
7.304,0.9999999999999999,126.81689337438442
7.312,1.0,126.75350208451482
7.32,1.0,126.6900933950107
7.328,0.9999999999999999,126.62666728550283
7.336,1.0,126.56322373570946
7.344,0.9999999999999999,126.49976272543523
7.352,1.0,126.43628423457032
7.36,0.9999999999999999,126.37278824308916
7.368,1.0,126.30927473104967
7.376,1.0,126.24574367859195
7.384,1.0,126.18219506593745
7.392,1.0,126.11862887338776
7.4,1.0000000000000002,126.0550450813236
7.4079999999999995,1.0,125.9914436702038
7.416,1.0,125.92782462056411
7.4239999999999995,1.0,125.86418791301618
7.432,1.0,125.80053352824653
7.4399999999999995,1.0,125.73686144701536
7.448,0.9999999999999999,125.6731716501555
7.4559999999999995,1.0,125.60946411857127
7.464,0.9999999999999999,125.54573883323748
7.4719999999999995,0.9999999999999998,125.48199577519829
7.48,1.0,125.41823492556597
7.4879999999999995,1.0,125.35445626552001
7.496,0.9999999999999999,125.29065977630587
7.504,0.9999999999999999,125.22684543923388
7.5120000000000005,0.9999999999999999,125.16301323567819
7.52,0.9999999999999999,125.09916314707564
7.5280000000000005,0.9999999999999999,125.03529515492454
7.536,1.0000000000000002,124.97140924078377
7.5440000000000005,1.0,124.90750538627147
7.552,1.0,124.84358357306407
7.5600000000000005,0.9999999999999999,124.77964378289508
7.568,0.9999999999999999,124.71568599755405
7.5760000000000005,1.0,124.65171019888543
7.584,1.0,124.58771636878751
7.5920000000000005,1.0,124.52370448921124
7.6,1.0,124.45967454215923
7.6080000000000005,1.0,124.3956265096846
7.616,1.0,124.33156037388986
7.6240000000000006,1.0,124.26747611692589
7.632,1.0,124.20337372099083
7.640000000000001,1.0,124.13925316832893
7.648,1.0,124.07511444122966
7.656000000000001,1.0,124.01095752202642
7.664,1.0,123.94678239309555
7.672,0.9999999999999999,123.88258903685531
7.68,0.9999999999999999,123.8183774357649
7.688,1.0000000000000002,123.75414757232315
7.696,1.0,123.68989942906774
7.704,1.0,123.625632988574
7.712,1.0,123.56134823345394
7.72,1.0,123.49704514635523
7.728,1.0,123.43272370996014
7.736,0.9999999999999999,123.36838390698453
7.744,1.0,123.30402572017691
7.752,1.0,123.23964913231731
7.76,1.0,123.1752541262164
7.768,0.9999999999999999,123.1108406847145
7.776,1.0,123.0464087906805
7.784,1.0,122.98195842701098
7.792,1.0,122.91748957662921
7.8,1.0,122.8530022224842
7.808,1.0,122.7884963475498
7.816,1.0,122.72397193482365
7.824,1.0,122.65942896732638
7.832,0.9999999999999998,122.59486742810051
7.84,1.0,122.53028730020974
7.848,0.9999999999999998,122.46568856673794
7.856,1.0,122.40107121078822
7.864,1.0,122.33643521548213
7.872,1.0,122.27178056395861
7.88,0.9999999999999999,122.20710723937343
7.888,0.9999999999999999,122.14241522489797
7.896,1.0,122.0777045037186
7.904,1.0,122.01297505903582
7.912,1.0,121.9482268740633
7.92,1.0,121.88345993202714
7.928,1.0,121.81867421616508
7.936,0.9999999999999999,121.75386970972563
7.944,0.9999999999999999,121.68904639596737
7.952,1.0000000000000002,121.62420425815796
7.96,1.0,121.55934327957368
7.968,1.0,121.49446344349832
7.976,0.9999999999999999,121.42956473322268
7.984,1.0,121.36464713204371
7.992,1.0,121.29971062326379
8.0,1.0,121.23475519018999
8.008,1.0,121.16978081613337
8.016,0.9999999999999999,121.10478748440825
8.024000000000001,1.0,121.03977517833154
8.032,0.9999999999999999,120.97474388122207
8.04,1.0,120.90969357639986
8.048,1.0,120.84462424718538
8.056000000000001,0.9999999999999998,120.77953587689915
8.064,1.0,120.71442844886082
8.072,0.9999999999999999,120.64930194638863
8.08,1.0,120.58415635279886
8.088000000000001,1.0,120.51899165140502
8.096,1.0,120.4538078255175
8.104,0.9999999999999999,120.38860485844275
8.112,1.0,120.32338273348276
8.120000000000001,0.9999999999999999,120.25814143393453
8.128,0.9999999999999999,120.19288094308949
8.136,1.0,120.12760124423285
8.144,1.0,120.06230232064317
8.152000000000001,0.9999999999999999,119.99698415559175
8.16,0.9999999999999998,119.93164673234207
8.168,1.0,119.86629003414943
8.176,0.9999999999999999,119.80091404426022
8.184000000000001,1.0,119.73551874591156
8.192,1.0,119.67010412233087
8.2,0.9999999999999999,119.60467015673512
8.208,1.0,119.53921683233068
8.216000000000001,0.9999999999999999,119.47374413231262
8.224,1.0,119.40825203986448
8.232,1.0,119.34274053815751
8.24,1.0,119.27720961035062
8.248000000000001,1.0,119.2116592395896
8.256,1.0,119.14608940900696
8.264,1.0,119.08050010172141
8.272,1.0,119.01489130083745
8.280000000000001,0.9999999999999999,118.94926298944506
8.288,1.0,118.88361515061929
8.296,0.9999999999999999,118.81794776741982
8.304,0.9999999999999999,118.75226082289066
8.312,0.9999999999999999,118.68655430005987
8.32,1.0,118.62082818193912
8.328,0.9999999999999999,118.55508245152332
8.336,0.9999999999999999,118.48931709179041
8.344,1.0,118.423532085701
8.352,1.0,118.35772741619803
8.36,1.0,118.29190306620649
8.368,1.0,118.22605901863312
8.376,0.9999999999999999,118.16019525636621
8.384,0.9999999999999998,118.09431176227517
8.392,1.0,118.02840851921044
8.4,0.9999999999999999,117.962485510003
8.408,1.0,117.89654271746447
8.416,1.0,117.83058012438643
8.424,1.0,117.76459771354064
8.432,1.0,117.69859546767843
8.44,1.0,117.63257336953072
8.448,1.0000000000000002,117.56653140180771
8.456,0.9999999999999999,117.50046954719872
8.464,1.0,117.43438778837199
8.472,1.0,117.3682861079744
8.48,1.0,117.30216448863148
8.488,0.9999999999999999,117.23602291294706
8.496,1.0,117.16986136350317
8.504,1.0,117.10367982285995
8.512,1.0,117.03747827355528
8.52,1.0,116.97125669810497
8.528,1.0,116.90501507900234
8.536,1.0,116.8387533987182
8.544,1.0,116.7724716397007
8.552,1.0,116.70616978437532
8.56,1.0,116.63984781514453
8.568,0.9999999999999999,116.57350571438796
8.576,0.9999999999999999,116.50714346446206
8.584,0.9999999999999999,116.44076104770016
8.592,1.0,116.37435844641242
8.6,1.0,116.30793564288551
8.608,0.9999999999999999,116.24149261938287
8.616,1.0,116.17502935814434
8.624,1.0,116.10854584138633
8.632,1.0,116.04204205130165
8.64,1.0,115.97551797005943
8.648,0.9999999374952654,115.90897357980525
8.656,0.9999998286718282,115.84240886266083
8.664,0.9999997191205233,115.77582380072428
8.672,0.9999996088335065,115.70921837606987
8.68,0.9999994978029275,115.64259257074819
8.688,0.9999993860209344,115.57594636678587
8.696,0.9999992734796782,115.5092797461859
8.704,0.9999991601713163,115.44259269092736
8.712,0.9999990460880177,115.37588518296552
8.72,0.9999989312219671,115.3091572042319
8.728,0.9999988155653691,115.24240873663419
8.736,0.9999986991104518,115.17563976205629
8.744,0.9999985818494725,115.10885026235843
8.752,0.9999984637747201,115.04204021937694
8.76,0.9999983448785198,114.97520961492464
8.768,0.9999982251532378,114.90835843079056
8.776,0.9999981045912849,114.84148664874012
8.784,0.9999979831851196,114.77459425051518
8.792,0.9999978609272533,114.70768121783411
8.8,0.9999977378102529,114.64074753239167
8.808,0.9999976138267463,114.57379317585934
8.815999999999999,0.9999974889694245,114.50681812988513
8.824,0.9999973632310464,114.43982237609379
8.832,0.9999972366044413,114.37280589608685
8.84,0.9999971090825148,114.30576867144269
8.847999999999999,0.9999969806582497,114.23871068371658
8.856,0.9999968513247112,114.1716319144408
8.864,0.9999967210750501,114.10453234512472
8.872,0.9999965899025062,114.03741195725492
8.879999999999999,0.9999964578004112,113.9702707322952
8.888,0.9999963247621934,113.90310865168674
8.896,0.9999961907813794,113.83592569684818
8.904,0.9999960558515979,113.76872184917576
8.911999999999999,0.999995919966584,113.70149709004335
8.92,0.9999957831201807,113.6342514008026
8.928,0.9999956453063437,113.56698476278308
8.936,0.9999955065191424,113.4996971572924
8.943999999999999,0.9999953667527648,113.43238856561624
8.952,0.99999522600152,113.36505896901853
8.96,0.9999950842598405,113.29770834874165
8.968,0.9999949415222855,113.23033668600645
8.975999999999999,0.9999947977835438,113.16294396201239
8.984,0.9999946530384368,113.09553015793772
8.992,0.9999945072819202,113.02809525493961
9.0,0.9999943605090879,112.96063923415433
9.008,0.9999942127151745,112.89316207669721
9.016,0.9999940638955566,112.82566376366302
9.024000000000001,0.9999939140457565,112.758144276126
9.032,0.9999937631614455,112.69060359514006
9.04,0.9999936112384439,112.6230417017388
9.048,0.999993458272725,112.55545857693582
9.056000000000001,0.9999933042604183,112.48785420172483
9.064,0.9999931491978094,112.42022855707981
9.072,0.9999929930813437,112.35258162395512
9.08,0.9999928359076292,112.28491338328573
9.088000000000001,0.9999926776734372,112.21722381598738
9.096,0.9999925183757051,112.1495129029567
9.104,0.9999923580115389,112.08178062507145
9.112,0.9999921965782135,112.0140269631906
9.120000000000001,0.9999920340731772,111.94625189815463
9.128,0.9999918704940515,111.8784554107856
9.136,0.9999917058386337,111.81063748188734
9.144,0.9999915401048991,111.74279809224572
9.152000000000001,0.9999913732910021,111.6749372226287
9.16,0.9999912053952779,111.60705485378664
9.168,0.9999910364162446,111.53915096645237
9.176,0.9999908663526048,111.47122554134148
9.184000000000001,0.999990695203247,111.40327855915247
9.192,0.9999905229672466,111.33531000056689
9.2,0.9999903496438683,111.26731984624962
9.208,0.9999901752325674,111.19930807684895
9.216000000000001,0.9999899997329905,111.13127467299694
9.224,0.9999898231449768,111.06321961530945
9.232,0.9999896454685611,110.99514288438644
9.24,0.9999894667039723,110.92704446081213
9.248000000000001,0.9999892868516367,110.85892432515517
9.256,0.9999891059121787,110.79078245796899
9.264,0.9999889238864214,110.72261883979174
9.272,0.9999887407753882,110.65443345114674
9.280000000000001,0.9999885565803033,110.58622627254259
9.288,0.9999883713025935,110.51799728447335
9.296,0.9999881849438875,110.4497464674188
9.304,0.9999879975060193,110.38147380184458
9.312000000000001,0.9999878089910265,110.31317926820248
9.32,0.9999876194011524,110.2448628469306
9.328,0.999987428738847,110.17652451845356
9.336,0.9999872370067673,110.10816426318276
9.344,0.9999870442077773,110.03978206151653
9.352,0.9999868503449498,109.9713778938404
9.36,0.9999866554215664,109.90295174052724
9.368,0.9999864594411176,109.83450358193757
9.376,0.999986262407305,109.76603339841972
9.384,0.9999860643240391,109.69754117031002
9.392,0.9999858651954423,109.62902687793311
9.4,0.9999856650258477,109.56049050160208
9.408,0.9999854638197997,109.49193202161871
9.416,0.9999852615820553,109.42335141827364
9.424,0.9999850583175823,109.35474867184676
9.432,0.9999848540315625,109.2861237626072
9.44,0.9999846487293884,109.21747667081374
9.448,0.9999844424166665,109.14880737671488
9.456,0.9999842350992154,109.08011586054926
9.464,0.9999840267830666,109.01140210254559
9.472,0.999983817474464,108.94266608292321
9.48,0.999983607179865,108.87390778189206
9.488,0.9999833959059395,108.805127179653
9.496,0.9999831836595704,108.73632425639806
9.504,0.9999829704478523,108.6674989923106
9.512,0.999982756278093,108.59865136756555
9.52,0.9999825411578123,108.52978136232974
9.528,0.9999823250947419,108.46088895676195
9.536,0.9999821080968258,108.39197413101326
9.544,0.9999818901722181,108.32303686522721
9.552,0.9999816713292854,108.25407713954014
9.56,0.9999814515766046,108.18509493408123
9.568,0.9999812309229628,108.11609022897294
9.576,0.9999810093773566,108.047063004331
9.584,0.9999807869489932,107.9780132402649
9.592,0.9999805636472878,107.90894091687788
9.6,0.9999803394818644,107.83984601426735
9.608,0.9999801144625546,107.77072851252495
9.616,0.9999798885993972,107.70158839173692
9.624,0.9999796619026382,107.6324256319842
9.632,0.999979434382729,107.56324021334281
9.64,0.9999792060503261,107.49403211588388
9.648,0.9999789769162912,107.42480131967413
9.656,0.9999787469916895,107.35554780477581
9.664,0.9999785162877891,107.2862715512472
9.672,0.9999782848160602,107.21697253914259
9.68,0.9999780525881744,107.14765074851279
9.688,0.9999778196160044,107.07830615940505
9.696,0.9999775859116213,107.00893875186352
9.704,0.999977351487296,106.93954850592937
9.712,0.9999771163554962,106.87013540164106
9.72,0.9999768805288869,106.80069941903452
9.728,0.9999766440203286,106.73124053814345
9.736,0.9999764068428761,106.66175873899948
9.744,0.9999761690097783,106.59225400163243
9.752,0.9999759305344759,106.52272630607052
9.76,0.9999756914306017,106.45317563234065
9.768,0.9999754517119785,106.3836019604685
9.776,0.9999752113926175,106.31400527047896
9.784,0.9999749704867182,106.24438554239615
9.792,0.999974729008667,106.17474275624376
9.8,0.9999744869730347,106.10507689204525
9.808,0.9999742443945774,106.03538792982408
9.816,0.9999740012882328,105.96567584960395
9.824,0.9999737576691204,105.89594063140899
9.832,0.9999735135525402,105.82618225526399
9.84,0.9999732689539703,105.75640070119468
9.847999999999999,0.9999730238890663,105.6865959492279
9.856,0.9999727783736598,105.61676797939178
9.864,0.9999725324237569,105.54691677171614
9.872,0.9999722860555361,105.47704230623253
9.879999999999999,0.9999720392853482,105.4071445629745
9.888,0.9999717921297132,105.33722352197785
9.896,0.9999715446053198,105.2672791632809
9.904,0.9999712967290236,105.19731146692466
9.911999999999999,0.9999710485178456,105.12732041295301
9.92,0.9999707999889705,105.05730598141294
9.928,0.9999705511597445,104.98726815235489
9.936,0.9999703020476751,104.91720690583284
9.943999999999999,0.9999700526704279,104.84712222190457
9.952,0.999969803045826,104.77701408063184
9.96,0.9999695531918472,104.70688246208074
9.968,0.9999693031266241,104.63672734632176
9.975999999999999,0.9999690528684405,104.56654871343012
