freq,mag,phase
6.0,0.9999881863858763,-120.65088224738307
6.008,0.9999879246206542,-121.07596447137514
6.016,0.9999876722389565,-121.50093396636666
6.024,0.9999874292064197,-121.92579033245424
6.032,0.99998719548717,-122.3505331800289
6.04,0.9999869710438418,-122.77516212974045
6.048,0.9999867558375967,-123.19967681246105
6.056,0.9999865498281436,-123.62407686924846
6.064,0.9999863529737573,-124.04836195130879
6.072,0.9999861652312979,-124.47253171995872
6.08,0.9999859865562322,-124.89658584658734
6.088,0.9999858169026505,-125.32052401261737
6.096,0.9999856562232879,-125.74434590946612
6.104,0.9999855044695422,-126.16805123850594
6.112,0.9999853615914974,-126.59163971102414
6.12,0.9999852275379381,-127.01511104818262
6.128,0.9999851022563734,-127.43846498097687
6.136,0.9999849856930543,-127.86170125019503
6.144,0.9999848777929936,-128.28481960637583
6.152,0.999984778499987,-128.70781980976693
6.16,0.9999846877566325,-129.13070163028206
6.168,0.9999846055043474,-129.55346484745863
6.176,0.9999845316833934,-129.97610925041417
6.184,0.9999844662328896,-130.39863463780307
6.192,0.9999844090908394,-130.82104081777237
6.2,0.9999843601941445,-131.24332760791785
6.208,0.9999843194786276,-131.6654948352391
6.216,0.9999842868790497,-132.08754233609486
6.224,0.9999842623291342,-132.5094699561576
6.232,0.999984245761582,-132.93127755036804
6.24,0.9999842371080938,-133.35296498288923
6.248,0.9999842362993885,-133.77453212706052
6.256,0.999984243265223,-134.19597886535078
6.264,0.9999842579344119,-134.61730508931194
6.272,0.9999842802348481,-135.03851069953188
6.28,0.9999843100935212,-135.4595956055871
6.288,0.9999843474365355,-135.88055972599514
6.296,0.9999843921891343,-136.30140298816661
6.304,0.9999844442757112,-136.72212532835763
6.312,0.9999845036198403,-137.14272669162085
6.32,0.9999845701442848,-137.56320703175737
6.328,0.999984643771022,-137.98356631126777
6.336,0.9999847244212623,-138.40380450130317
6.344,0.999984812015469,-138.82392158161588
6.352,0.9999849064733712,-139.24391754051013
6.36,0.9999850077139919,-139.6637923747926
6.368,0.9999851156556614,-140.08354608972195
6.376,0.9999852302160352,-140.50317869895986
6.384,0.9999853513121181,-140.92269022451967
6.392,0.9999854788602774,-141.34208069671695
6.4,0.9999856127762656,-141.76135015411853
6.408,0.9999857529752361,-142.18049864349183
6.416,0.9999858993717632,-142.59952621975424
6.424,0.9999860518798619,-143.01843294592175
6.432,0.9999862104130028,-143.43721889305812
6.44,0.9999863748841333,-143.85588414022357
6.448,0.9999865452056954,-144.27442877442326
6.456,0.9999867212896422,-144.69285289055583
6.464,0.9999869030474566,-145.11115659136166
6.472,0.9999870903901721,-145.52933998737132
6.48,0.999987283228386,-145.94740319685343
6.4879999999999995,0.9999874814722801,-146.36534634576284
6.496,0.9999876850316377,-146.78316956768873
6.504,0.9999878938158615,-147.20087300380197
6.5120000000000005,0.9999881077339906,-147.61845680280354
6.52,0.999988326694717,-148.03592112087148
6.5280000000000005,0.9999885506064062,-148.4532661216092
6.536,0.999988779377109,-148.8704919759925
6.5440000000000005,0.999989012914585,-149.28759886231742
6.552,0.9999892511263139,-149.70458696614722
6.5600000000000005,0.9999894939195151,-150.1214564802603
6.568,0.9999897412011649,-150.538207604597
6.5760000000000005,0.9999899928780119,-150.95484054620738
6.584,0.9999902488565938,-151.3713555191978
6.592,0.9999905090432544,-151.78775274467895
6.6,0.9999907733441589,-152.20403245071242
6.608,0.9999910416653107,-152.62019487225794
6.616,0.9999913139125688,-153.03624025112077
6.624,0.9999915899916608,-153.45216883589865
6.632,0.9999918698082012,-153.86798088192893
6.64,0.9999921532677074,-154.2836766512357
6.648,0.9999924402756124,-154.6992564124769
6.656,0.9999927307372831,-155.11472044089152
6.664,0.999993024558035,-155.5300690182466
6.672,0.9999933216431474,-155.94530243278433
6.68,0.9999936218978773,-156.36042097916945
6.688,0.9999939252274761,-156.7754249584362
6.696,0.9999942315372048,-157.1903146779356
6.704,0.9999945407323466,-157.60509045128268
6.712,0.9999948527182226,-158.01975259830374
6.72,0.9999951674002081,-158.43430144498367
6.728,0.9999954846837432,-158.84873732341327
6.736,0.9999958044743508,-159.26306057173662
6.744,0.999996126677649,-159.67727153409857
6.752,0.9999964511993643,-160.09137056059214
6.76,0.999996777945347,-160.50535800720615
6.768,0.9999971068215849,-160.9192342357728
6.776,0.9999974377342153,-161.3329996139153
6.784,0.9999977705895401,-161.74665451499544
6.792,0.9999981052940387,-162.16019931806184
6.8,0.9999984417543805,-162.57363440779733
6.808,0.9999987798774386,-162.98696017446707
6.816,0.9999991195703036,-163.40017701386665
6.824,0.9999994607402944,-163.81328532727017
6.832,0.9999998032949724,-164.2262855213782
6.84,1.0,-164.63917800826638
6.848,1.0,-165.05196320533352
6.856,1.0,-165.4646415352502
6.864,0.9999999999999999,-165.87721342590717
6.872,0.9999999999999999,-166.28967931036422
6.88,0.9999999999999999,-166.70203962679864
6.888,0.9999999999999999,-167.11429481845434
6.896,0.9999999999999999,-167.52644533359057
6.904,0.9999999999999998,-167.93849162543108
6.912,0.9999999999999999,-168.3504341521134
6.92,1.0,-168.76227337663784
6.928,0.9999999999999999,-169.17400976681714
6.936,0.9999999999999999,-169.5856437952259
6.944,0.9999999999999998,-169.99717593915014
6.952,0.9999999999999999,-170.40860668053716
6.96,1.0,-170.8199365059453
6.968,0.9999999999999999,-171.23116590649408
6.976,1.0,-171.64229537781418
6.984,0.9999999999999999,-172.05332541999778
6.992,0.9999999999999998,-172.4642565375489
7.0,0.9999999999999998,-172.875089239334
7.008,1.0,-173.28582403853247
7.016,1.0,-173.69646145258767
7.024,1.0,-174.1070020031575
7.032,0.9999999999999999,-174.51744621606585
7.04,0.9999999999999999,-174.9277946212535
7.048,1.0,-175.33804775272955
7.056,1.0,-175.74820614852308
7.064,1.0,-176.15827035063452
7.072,1.0,-176.5682409049876
7.08,1.0,-176.9781183613812
7.088,0.9999999999999998,-177.38790327344154
7.096,0.9999999999999999,-177.7975961985741
7.104,0.9999999999999999,-178.20719769791648
7.112,1.0,-178.6167083362905
7.12,1.0,-179.02612868215505
7.128,0.9999999999999999,-179.43545930755894
7.136,0.9999999999999999,-179.84470078809392
7.144,0.9999999999999999,179.74614629715234
7.152,0.9999999999999999,179.33708136564277
7.16,0.9999999999999999,178.92810383143748
7.168,1.0,178.5192131052402
7.176,0.9999999999999999,178.11040859444446
7.184,0.9999999999999999,177.70168970317968
7.192,0.9999999999999999,177.29305583235697
7.2,1.0,176.88450637971502
7.208,1.0,176.4760407398655
7.216,1.0,176.06765830433878
7.224,1.0,175.65935846162864
7.232,1.0,175.25114059723802
7.24,1.0,174.84300409372338
7.248,0.9999999999999999,174.43494833073981
7.256,0.9999999999999999,174.0269726850854
7.264,0.9999999999999999,173.6190765307459
7.272,1.0,173.21125923893868
7.28,1.0,172.80352017815707
7.288,1.0,172.3958587142142
7.296,0.9999999999999999,171.9882742102868
7.304,1.0,171.58076602695866
7.312,1.0,171.1733335222642
7.32,0.9999999999999999,170.7659760517317
7.328,1.0,170.3586929684264
7.336,0.9999999999999999,169.9514836229933
7.344,0.9999999999999999,169.5443473637001
7.352,1.0,169.13728353647966
7.36,0.9999999999999998,168.73029148497247
7.368,1.0,168.3233705505689
7.376,1.0,167.91652007245128
7.384,0.9999999999999999,167.5097393876358
7.392,1.0,167.10302783101432
7.4,1.0,166.6963847353958
7.4079999999999995,0.9999999999999999,166.28980943154804
7.416,1.0,165.88330124823835
7.4239999999999995,0.9999999999999999,165.47685951227555
7.432,0.9999999999999999,165.07048354854965
7.4399999999999995,0.9999999999999999,164.6641726800739
7.448,1.0,164.25792622802433
7.4559999999999995,1.0,163.8517435117808
7.464,0.9999999999999999,163.44562384896687
7.4719999999999995,1.0,163.0395665554903
7.48,1.0,162.6335709455824
7.4879999999999995,1.0,162.22763633183845
7.496,0.9999999999999999,161.8217620252565
7.504,0.9999999999999999,161.4159473352778
7.5120000000000005,0.9999999999999999,161.01019156982497
7.52,1.0,160.60449403534207
7.5280000000000005,0.9999999999999998,160.19885403683267
7.536,1.0,159.7932708778995
7.5440000000000005,0.9999999999999999,159.38774386078222
7.552,1.0,158.98227228639666
7.5600000000000005,1.0,158.57685545437235
7.568,0.9999999999999999,158.17149266309133
7.5760000000000005,0.9999999999999998,157.7661832097255
7.584,0.9999999999999998,157.36092639027518
7.5920000000000005,0.9999999999999999,156.9557214996058
7.6,0.9999999999999999,156.5505678314865
7.6080000000000005,0.9999999999999999,156.14546467862633
7.616,1.0,155.7404113327125
7.6240000000000006,1.0,155.3354070844465
7.632,0.9999999999999999,154.93045122358168
7.640000000000001,0.9999999999999999,154.52554303895943
7.648,1.0,154.1206818185462
7.656000000000001,1.0,153.71586684946934
7.664,1.0,153.31109741805412
7.672,0.9999999999999999,152.90637280985902
7.68,1.0,152.5016923097123
7.688,1.0,152.09705520174742
7.696,0.9999999999999999,151.69246076943898
7.704,0.9999999999999999,151.28790829563792
7.712,0.9999999999999999,150.88339706260714
7.72,1.0,150.47892635205653
7.728,1.0,150.074495445178
7.736,1.0,149.6701036226807
7.744,1.0,149.26575016482536
7.752,1.0,148.86143435145917
7.76,0.9999999999999999,148.45715546205014
7.768,1.0,148.05291277572158
7.776,0.9999999999999999,147.64870557128611
7.784,1.0,147.24453312727977
7.792,1.0,146.84039472199598
7.8,1.0,146.43628963351924
7.808,1.0,146.0322171397588
7.816,1.0,145.62817651848215
7.824,1.0,145.22416704734823
7.832,1.0,144.82018800394084
7.84,1.0,144.4162386658016
7.848,1.0,144.01231831046292
7.856,1.0,143.60842621548076
7.864,1.0000000000000002,143.2045616584674
7.872,0.9999999999999999,142.8007239171239
7.88,1.0,142.39691226927243
7.888,0.9999999999999999,141.9931259928887
7.896,0.9999999999999999,141.589364366134
7.904,1.0,141.18562666738728
7.912,1.0,140.78191217527697
7.92,1.0,140.37822016871263
7.928,1.0,139.9745499269169
7.936,0.9999999999999999,139.57090072945664
7.944,0.9999999999999999,139.16727185627448
7.952,0.9999999999999999,138.76366258772015
7.96,0.9999999999999999,138.3600722045813
7.968,1.0,137.9564999881148
7.976,1.0000000000000002,137.55294522007756
7.984,1.0,137.14940718275707
7.992,1.0,136.7458851590023
8.0,1.0,136.3423784322541
8.008,0.9999999999999999,135.93888628657552
8.016,0.9999999999999999,135.5354080066821
8.024000000000001,1.0,135.13194287797216
8.032,1.0,134.72849018655685
8.04,0.9999999999999999,134.32504921928972
8.048,1.0,133.92161926379677
8.056000000000001,1.0,133.51819960850628
8.064,1.0,133.11478954267827
8.072,0.9999999999999999,132.71138835643367
8.08,0.9999999999999999,132.30799534078398
8.088000000000001,1.0,131.90460978766043
8.096,1.0,131.50123098994337
8.104,1.0,131.09785824149054
8.112,1.0,130.69449083716654
8.120000000000001,1.0,130.29112807287174
8.128,1.0,129.88776924557055
8.136,1.0,129.48441365332005
8.144,1.0,129.08106059529862
8.152000000000001,0.9999999999999999,128.6777093718343
8.16,1.0,128.274359284433
8.168,1.0,127.87100963580632
8.176,1.0000000000000002,127.4676597299
8.184000000000001,0.9999999999999999,127.06430887192184
8.192,1.0000000000000002,126.66095636836934
8.2,1.0,126.25760152705732
8.208,1.0,125.85424365714564
8.216000000000001,0.9999999999999999,125.45088206916705
8.224,1.0,125.04751607505423
8.232,0.9999999999999999,124.644144988167
8.24,0.9999999999999999,124.24076812331974
8.248000000000001,0.9999999999999999,123.83738479680866
8.256,1.0,123.43399432643857
8.264,1.0,123.03059603154972
8.272,1.0,122.62718923304472
8.280000000000001,1.0000000000000002,122.22377325341536
8.288,1.0000000000000002,121.82034741676925
8.296,1.0,121.416911048856
8.304,0.9999999999999999,121.01346347709375
8.312,1.0,120.61000403059599
8.32,1.0,120.20653204019695
8.328,0.9999999999999999,119.80304683847862
8.336,1.0,119.39954775979584
8.344,1.0,118.9960341403032
8.352,0.9999999999999999,118.59250531798001
8.36,1.0,118.18896063265682
8.368,0.9999999999999999,117.78539942604037
8.376,0.9999999999999999,117.38182104173984
8.384,1.0,116.97822482529158
8.392,0.9999999999999999,116.57461012418533
8.4,1.0,116.17097628788856
8.408,1.0,115.76732266787263
8.416,1.0,115.36364861763695
8.424,1.0,114.95995349273485
8.432,1.0,114.55623665079771
8.44,1.0,114.1524974515605
8.448,0.9999999999999999,113.74873525688584
8.456,0.9999999999999999,113.34494943078927
8.464,1.0,112.94113933946315
8.472,0.9999999999999999,112.53730435130184
8.48,1.0,112.13344383692525
8.488,0.9999999999999999,111.72955716920399
8.496,0.9999999999999999,111.32564372328267
8.504,1.0,110.9217028766048
8.512,1.0,110.5177340089361
8.52,1.0,110.11373650238906
8.528,1.0,109.7097097414461
8.536,0.9999999999999999,109.30565311298398
8.544,1.0,108.90156600629669
8.552,0.9999999999999999,108.49744781311983
8.56,1.0,108.09329792765327
8.568,1.0,107.68911574658526
8.576,0.9999999999999999,107.28490066911496
8.584,0.9999999999999999,106.8806520969764
8.592,1.0,106.47636943446082
8.6,1.0,106.07205208844039
8.608,1.0,105.66769946839045
8.616,1.0,105.26331098641306
8.624,0.9999998838227347,104.85888605725891
8.632,0.9999994006570269,104.45442409835084
8.64,0.9999989150059581,104.04992452980555
8.648,0.9999984269252225,103.64538677445682
8.656,0.9999979364708091,103.24081025787719
8.664,0.9999974436989966,102.83619440840086
8.672,0.9999969486663433,102.43153865714534
8.68,0.9999964514296823,102.02684243803401
8.688,0.9999959520461132,101.62210518781767
8.696,0.9999954505729947,101.21732634609691
8.704,0.9999949470679377,100.8125053553434
8.712,0.9999944415887977,100.40764166092224
8.72,0.9999939341936681,100.00273471111282
8.728,0.9999934249408715,99.59778395713124
8.736,0.9999929138889544,99.19278885315082
8.744,0.9999924010966776,98.78774885632426
8.752,0.9999918866230104,98.38266342680423
8.76,0.9999913705271231,97.9775320277651
8.768,0.9999908528683784,97.57235412542337
8.776,0.9999903337063254,97.16712918905934
8.784,0.9999898131006913,96.76185669103721
8.792,0.9999892911113745,96.35653610682654
8.8,0.9999887677984372,95.9511669150223
8.808,0.9999882432220967,95.54574859736607
8.815999999999999,0.99998771744272,95.14028063876584
8.824,0.999987190520815,94.73476252731676
8.832,0.9999866625170232,94.3291937543215
8.84,0.999986133492112,93.92357381431022
8.847999999999999,0.9999856035069686,93.51790220506051
8.856,0.9999850726225905,93.11217842761751
8.864,0.9999845409000796,92.70640198631394
8.872,0.9999840084006342,92.30057238878965
8.879999999999999,0.9999834751855411,91.89468914601112
8.888,0.9999829413161687,91.4887517722912
8.896,0.9999824068539593,91.08275978530867
8.904,0.9999818718604216,90.67671270612742
8.911999999999999,0.9999813363971237,90.27061005921554
8.92,0.9999808005256842,89.86445137246452
8.928,0.9999802643077662,89.45823617720853
8.936,0.9999797278050695,89.05196400824312
8.943999999999999,0.9999791910793229,88.64563440384376
8.952,0.999978654192276,88.23924690578475
8.96,0.9999781172056935,87.83280105935805
8.968,0.9999775801813463,87.42629641339136
8.975999999999999,0.9999770431810039,87.01973252026643
8.984,0.9999765062664283,86.61310893593748
8.992,0.999975969499366,86.20642521994935
9.0,0.9999754329415389,85.79968093545546
9.008,0.99997489665464,85.3928756492354
9.016,0.999974360700323,84.98600893171299
9.024000000000001,0.9999738251401973,84.57908035697392
9.032,0.9999732900358187,84.17208950278331
9.04,0.9999727554486829,83.76503595060274
9.048,0.9999722214402186,83.35791928560782
9.056000000000001,0.9999716880717786,82.95073909670552
9.064,0.9999711554046345,82.54349497655093
9.072,0.999970623499968,82.13618652156414
9.08,0.9999700924188634,81.72881333194702
9.088000000000001,0.9999695622223015,81.3213750117002
9.096,0.9999690329711507,80.91387116863937
9.104,0.9999685047261616,80.50630141441148
9.112,0.9999679775479585,80.09866536451122
9.120000000000001,0.9999674514970327,79.69096263829724
9.128,0.9999669266337339,79.28319285900814
9.136,0.9999664030182657,78.87535565377803
9.144,0.9999658807106759,78.46745065365249
9.152000000000001,0.9999653597708509,78.05947749360433
9.16,0.9999648402585076,77.65143581254893
9.168,0.9999643222331871,77.24332525335927
9.176,0.999963805754247,76.83514546288141
9.184000000000001,0.9999632908808546,76.4268960919497
9.192,0.9999627776719797,76.0185767954014
9.2,0.9999622661863883,75.61018723209142
9.208,0.9999617564826345,75.20172706490695
9.216000000000001,0.9999612486190548,74.79319596078224
9.224,0.999960742653759,74.38459359071268
9.232,0.9999602386446265,73.97591962976881
9.24,0.9999597366492969,73.56717375711051
9.248000000000001,0.9999592367251636,73.15835565600106
9.256,0.9999587389293686,72.74946501382078
9.264,0.9999582433187935,72.34050152208022
9.272,0.9999577499500536,71.9314648764339
9.280000000000001,0.9999572588794919,71.52235477669379
9.288,0.9999567701631723,71.1131709268421
9.296,0.9999562838568711,70.7039130350441
9.304,0.9999558000160729,70.29458081366111
9.312000000000001,0.9999553186959627,69.8851739792633
9.32,0.9999548399514199,69.47569225264193
9.328,0.9999543638370105,69.06613535882153
9.336,0.999953890406983,68.6565030270721
9.344,0.9999534197152591,68.24679499092149
9.352,0.9999529518154305,67.83701098816648
9.36,0.9999524867607494,67.42715076088511
9.368,0.9999520246041245,67.01721405544744
9.376,0.9999515653981138,66.60720062252763
9.384,0.9999511091949186,66.19711021711417
9.392,0.9999506560463766,65.78694259852165
9.4,0.999950206003957,65.3766975304008
9.408,0.9999497591187537,64.96637478074976
9.416,0.9999493154414791,64.55597412192368
9.424,0.9999488750224588,64.14549533064582
9.432,0.9999484379116246,63.73493818801672
9.44,0.9999480041585095,63.324302479524896
9.448,0.9999475738122415,62.91358799505566
9.456,0.9999471469215386,62.50279452890142
9.464,0.9999467235347007,62.09192187977018
9.472,0.9999463036996062,61.68096985079545
9.48,0.9999458874637065,61.269938249544296
9.488,0.9999454748740177,60.858826888026954
9.496,0.9999450659771185,60.44763558270446
9.504,0.9999446608191419,60.036364154497804
9.512,0.9999442594457713,59.62501242879531
9.52,0.9999438619022345,59.213580235461286
9.528,0.9999434682332994,58.80206740884304
9.536,0.9999430784832664,58.39047378777908
9.544,0.9999426926959651,57.97879921560583
9.552,0.99994231091475,57.567043540165336
9.56,0.9999419331824918,57.15520661381157
9.568,0.9999415595415765,56.74328829341779
9.576,0.9999411900338973,56.33128844038232
9.584,0.9999408247008509,55.919206920635624
9.592,0.9999404635833332,55.50704360464555
9.6,0.9999401067217335,55.094798367424026
9.608,0.99993975415593,54.682471088531884
9.616,0.999939405925285,54.27006165208512
9.624,0.9999390620686412,53.85756994675922
9.632,0.9999387226243155,53.444995865795065
9.64,0.9999383876300956,53.032339307002836
9.648,0.9999380571232358,52.61960017276735
9.656,0.999937731140452,52.206778370051616
9.664,0.9999374097179168,51.79387381040173
9.672,0.999937092891257,51.38088640994994
9.68,0.999936780695548,50.96781608941909
9.688,0.9999364731653103,50.55466277412522
9.696,0.9999361703345049,50.14142639398155
9.704,0.9999358722365302,49.7281068835007
9.712,0.9999355789042172,49.31470418179808
9.72,0.9999352903698269,48.90121823259365
9.728,0.9999350066650444,48.48764898421498
9.736,0.9999347278209776,48.07399638959842
9.744,0.9999344538681524,47.66026040629162
9.752,0.9999341848365088,47.24644099645439
9.76,0.9999339207553983,46.83253812686067
9.768,0.9999336616535801,46.41855176889878
9.776,0.9999334075592178,46.00448189857304
9.784,0.999933158499876,45.59032849650355
9.792,0.9999329145025175,45.176091547927214
9.8,0.9999326755934994,44.76177104269706
9.808,0.9999324417985717,44.347366975282846
9.816,0.9999322131428721,43.932879344769674
9.824,0.9999319896509251,43.51830815485832
9.832,0.9999317713466389,43.10365341386327
9.84,0.9999315582533008,42.68891513471245
9.847999999999999,0.9999313503935781,42.274093334944915
9.856,0.9999311477895106,41.859188036709654
9.864,0.9999309504625139,41.44419926676349
9.872,0.9999307584333725,41.029127056468944
9.879999999999999,0.9999305717222395,40.613971441791286
9.888,0.9999303903486332,40.19873246329619
