freq,mag,phase
6.0,0.9999961842980265,102.84723396632837
6.008,0.9999961376108739,102.71298537810105
6.016,0.9999960886440172,102.57860157945812
6.024,0.9999960374545376,102.44408236528336
6.032,0.9999959840989847,102.30942753075901
6.04,0.9999959286333804,102.17463687137025
6.048,0.9999958711132201,102.03971018290991
6.056,0.9999958115934728,101.90464726148303
6.064,0.9999957501285853,101.76944790351155
6.072,0.9999956867724806,101.63411190573903
6.08,0.9999956215785628,101.49863906523531
6.088,0.9999955545997162,101.3630291794013
6.096,0.9999954858883077,101.2272820459737
6.104,0.9999954154961895,101.09139746302985
6.112,0.9999953434746985,100.95537522899254
6.12,0.9999952698746604,100.81921514263479
6.128,0.9999951947463892,100.68291700308485
6.136,0.9999951181396901,100.54648060983102
6.144,0.9999950401038605,100.4099057627266
6.152,0.9999949606876926,100.27319226199486
6.16,0.9999948799394734,100.13633990823405
6.168,0.9999947979069883,99.99934850242232
6.176,0.9999947146375205,99.86221784592287
6.184,0.9999946301778554,99.72494774048901
6.192,0.9999945445742794,99.58753798826918
6.2,0.9999944578725838,99.44998839181211
6.208,0.9999943701180649,99.31229875407205
6.216,0.9999942813555271,99.17446887841382
6.224,0.9999941916292835,99.03649856861811
6.232,0.9999941009831573,98.89838762888672
6.24,0.9999940094604854,98.76013586384774
6.248,0.999993917104118,98.62174307856091
6.256,0.9999938239564206,98.48320907852298
6.264,0.9999937300592773,98.34453366967288
6.272,0.9999936354540906,98.20571665839736
6.28,0.999993540181784,98.06675785153618
6.288,0.999993444282804,97.92765705638763
6.296,0.9999933477971207,97.78841408071395
6.304,0.9999932507642311,97.6490287327469
6.312,0.9999931532231594,97.50950082119317
6.32,0.9999930552124591,97.36983015524001
6.328,0.9999929567702155,97.23001654456075
6.336,0.9999928579340467,97.09005979932041
6.344,0.9999927587411053,96.94995973018138
6.352,0.9999926592280803,96.809716148309
6.36,0.9999925594311991,96.66932886537727
6.368,0.9999924593862292,96.52879769357466
6.376,0.9999923591284796,96.3881224456097
6.384,0.9999922586928027,96.24730293471683
6.392,0.9999921581135963,96.10633897466222
6.4,0.9999920574248056,95.96523037974954
6.408,0.9999919566599237,95.8239769648259
6.416,0.9999918558519951,95.68257854528764
6.424,0.9999917550336167,95.54103493708631
6.432,0.9999916542369388,95.39934595673458
6.44,0.999991553493669,95.25751142131219
6.448,0.9999914528350711,95.11553114847206
6.456,0.9999913522919698,94.97340495644617
6.464,0.9999912518947508,94.83113266405172
6.472,0.9999911516733629,94.68871409069715
6.48,0.9999910516573197,94.54614905638832
6.4879999999999995,0.9999909518757026,94.40343738173459
6.496,0.9999908523571609,94.260578887955
6.504,0.9999907531299147,94.11757339688455
6.5120000000000005,0.9999906542217568,93.97442073098024
6.52,0.9999905556600539,93.83112071332762
6.5280000000000005,0.9999904574717488,93.68767316764672
6.536,0.9999903596833625,93.54407791829867
6.5440000000000005,0.9999902623209955,93.40033479029185
6.552,0.9999901654103306,93.2564436092884
6.5600000000000005,0.9999900689766337,93.1124042016104
6.568,0.9999899730447565,92.96821639424662
6.5760000000000005,0.9999898776391374,92.82388001485864
6.584,0.9999897827838049,92.67939489178761
6.592,0.9999896885023778,92.53476085406054
6.6,0.9999895948180688,92.38997773139695
6.608,0.9999895017536847,92.2450453542155
6.616,0.9999894093316298,92.09996355364048
6.624,0.9999893175739069,91.95473216150842
6.632,0.9999892265021191,91.80935101037483
6.64,0.9999891361374728,91.66381993352081
6.648,0.9999890465007785,91.51813876495984
6.656,0.9999889576124534,91.37230733944443
6.664,0.9999888694925229,91.22632549247294
6.672,0.999988782160623,91.08019306029631
6.68,0.9999886956360019,90.93390987992497
6.688,0.9999886099375219,90.78747578913561
6.696,0.9999885250836619,90.64089062647814
6.704,0.9999884410925186,90.49415423128245
6.712,0.9999883579818092,90.34726644366553
6.72,0.999988275768873,90.20022710453827
6.728,0.9999881944706732,90.05303605561254
6.736,0.9999881141037992,89.90569313940814
6.744,0.999988034684469,89.75819819925995
6.752,0.9999879562285301,89.61055107932484
6.76,0.9999878787514623,89.46275162458888
6.768,0.9999878022683794,89.31479968087444
6.776,0.999987726794032,89.16669509484736
6.784,0.999987652342808,89.01843771402407
6.792,0.9999875789287358,88.87002738677882
6.8,0.9999875065654863,88.72146396235095
6.808,0.9999874352663743,88.57274729085209
6.816,0.999987365044361,88.42387722327351
6.824,0.9999872959120563,88.27485361149336
6.832,0.9999872278817196,88.12567630828404
6.84,0.9999871609652637,87.9763451673196
6.848,0.9999870951742557,87.82686004318305
6.856,0.9999870305199182,87.67722079137388
6.864,0.9999869670131342,87.52742726831542
6.872,0.9999869046644461,87.37747933136232
6.88,0.99998684348406,87.22737683880813
6.888,0.9999867834818458,87.07711964989267
6.896,0.9999867246673416,86.9267076248097
6.904,0.999986667049754,86.77614062471446
6.912,0.9999866106379599,86.62541851173125
6.92,0.9999865554405116,86.4745411489611
6.928,0.9999865014656347,86.3235084004893
6.936,0.9999864487212337,86.17232013139323
6.944,0.9999863972148925,86.02097620774997
6.952,0.9999863469538759,85.869476496644
6.96,0.9999862979451334,85.71782086617503
6.968,0.9999862501953009,85.56600918546569
6.976,0.9999862037107012,85.41404132466937
6.984,0.9999861584973491,85.26191715497806
6.992,0.9999861145609503,85.10963654863012
7.0,0.9999860719069062,84.95719937891823
7.008,0.9999860305403151,84.80460552019726
7.016,0.9999859904659733,84.65185484789212
7.024,0.9999859516883788,84.4989472385058
7.032,0.9999859142117334,84.3458825696273
7.04,0.9999858780399438,84.19266071993952
7.048,0.9999858431766245,84.03928156922744
7.056,0.9999858096251002,83.88574499838602
7.064,0.9999857773884072,83.73205088942827
7.072,0.9999857464692966,83.5781991254934
7.08,0.999985716870236,83.42418959085485
7.088,0.9999856885934112,83.27002217092841
7.096,0.9999856616407294,83.11569675228043
7.104,0.9999856360138211,82.96121322263586
7.112,0.9999856117140414,82.8065714708866
7.12,0.9999855887424738,82.65177138709954
7.128,0.9999855670999315,82.49681286252489
7.136,0.9999855467869596,82.34169578960443
7.144,0.9999855278038375,82.18642006197972
7.152,0.9999855101505813,82.03098557450042
7.16,0.999985493826946,81.87539222323261
7.168,0.9999854788324274,81.71963990546709
7.176,0.9999854651662654,81.56372851972779
7.184,0.9999854528274446,81.40765796578005
7.192,0.9999854418146981,81.25142814463905
7.2,0.9999854321265084,81.09503895857826
7.208,0.999985423761112,80.93849031113781
7.216,0.9999854167164984,80.78178210713293
7.224,0.9999854109904154,80.62491425266242
7.232,0.9999854065803695,80.4678866551172
7.24,0.9999854034836282,80.31069922318868
7.248,0.9999854016972244,80.15335186687736
7.256,0.9999854012179564,79.99584449750138
7.264,0.9999854020423908,79.838177027705
7.272,0.9999854041668657,79.6803493714672
7.28,0.9999854075874912,79.5223614441103
7.288,0.9999854123001544,79.36421316230847
7.296,0.9999854183005188,79.20590444409645
7.304,0.999985425584029,79.04743520887804
7.312,0.9999854341459116,78.88880537743496
7.32,0.9999854439811781,78.73001487193527
7.328,0.9999854550846266,78.5710636159422
7.336,0.9999854674508459,78.41195153442278
7.344,0.9999854810742156,78.25267855375661
7.352,0.9999854959489096,78.09324460174447
7.36,0.9999855120688984,77.93364960761714
7.368,0.9999855294279516,77.77389350204406
7.376,0.9999855480196398,77.61397621714222
7.384,0.9999855678373368,77.45389768648478
7.392,0.9999855888742232,77.29365784510993
7.4,0.9999856111232872,77.13325662952971
7.4079999999999995,0.9999856345773281,76.97269397773876
7.416,0.999985659228958,76.81196982922307
7.4239999999999995,0.9999856850706046,76.65108412496905
7.432,0.9999857120945131,76.49003680747202
7.4399999999999995,0.9999857402927493,76.32882782074543
7.448,0.9999857696572014,76.16745711032937
7.4559999999999995,0.9999858001795828,76.00592462329972
7.464,0.9999858318514334,75.84423030827676
7.4719999999999995,0.999985864664124,75.68237411543438
7.48,0.9999858986088566,75.52035599650861
7.4879999999999995,0.9999859336766682,75.35817590480683
7.496,0.9999859698584328,75.19583379521646
7.504,0.9999860071448634,75.03332962421402
7.5120000000000005,0.999986045526515,74.87066334987392
7.52,0.9999860849937865,74.70783493187758
7.5280000000000005,0.9999861255369236,74.54484433152211
7.536,0.9999861671460203,74.38169151172949
7.5440000000000005,0.9999862098110232,74.21837643705533
7.552,0.9999862535217314,74.054899073698
7.5600000000000005,0.9999862982678006,73.89125938950733
7.568,0.9999863440387453,73.7274573539939
7.5760000000000005,0.999986390823941,73.56349293833765
7.584,0.9999864386126265,73.39936611539719
7.5920000000000005,0.999986487393906,73.2350768597184
7.6,0.9999865371567528,73.07062514754382
7.6080000000000005,0.9999865878900102,72.90601095682115
7.616,0.9999866395823948,72.74123426721269
7.6240000000000006,0.9999866922224989,72.5762950601039
7.632,0.9999867457987925,72.41119331861273
7.640000000000001,0.9999868002996256,72.2459290275983
7.648,0.9999868557132322,72.08050217367007
7.656000000000001,0.9999869120277299,71.9149127451967
7.664,0.9999869692311252,71.74916073231512
7.672,0.9999870273113138,71.58324612693939
7.68,0.9999870862560846,71.41716892276972
7.688,0.9999871460531206,71.25092911530149
7.696,0.9999872066900026,71.08452670183406
7.704,0.9999872681542112,70.91796168147992
7.712,0.9999873304331289,70.75123405517348
7.72,0.9999873935140428,70.58434382568008
7.728,0.9999874573841472,70.41729099760498
7.736,0.9999875220305453,70.25007557740217
7.744,0.9999875874402533,70.08269757338344
7.752,0.9999876536001999,69.91515699572724
7.76,0.9999877204972324,69.74745385648755
7.768,0.9999877881181155,69.5795881696029
7.776,0.9999878564495365,69.41155995090513
7.784,0.9999879254781059,69.24336921812841
7.792,0.9999879951903612,69.07501599091803
7.8,0.9999880655727682,68.90650029083935
7.808,0.999988136611724,68.73782214138659
7.816,0.9999882082935593,68.56898156799167
7.824,0.9999882806045405,68.39997859803319
7.832,0.9999883535308725,68.23081326084501
7.84,0.9999884270587011,68.06148558772531
7.848,0.999988501174115,67.89199561194526
7.856,0.9999885758631487,67.7223433687578
7.864,0.9999886511117847,67.55252889540644
7.872,0.9999887269059553,67.38255223113403
7.88,0.9999888032315462,67.2124134171915
7.888,0.9999888800743979,67.04211249684654
7.896,0.999988957420308,66.87164951539233
7.904,0.9999890352550348,66.7010245201563
7.912,0.9999891135642981,66.53023756050864
7.92,0.9999891923337827,66.35928868787111
7.928,0.99998927154914,66.18817795572566
7.936,0.9999893511959914,66.01690541962289
7.944,0.9999894312599292,65.84547113719086
7.952,0.9999895117265204,65.67387516814347
7.96,0.9999895925813078,65.50211757428914
7.968,0.9999896738098135,65.33019841953936
7.976,0.9999897553975403,65.15811776991701
7.984,0.9999898373299744,64.98587569356508
7.992,0.999989919592588,64.8134722607549
8.0,0.9999900021708416,64.64090754389484
8.008,0.999990085050185,64.46818161753843
8.016,0.9999901682160621,64.29529455839294
8.024000000000001,0.9999902516539109,64.12224644532766
8.032,0.9999903353491668,63.949037359382324
8.04,0.9999904192872653,63.77566738377522
8.048,0.999990503453643,63.602136603911575
8.056000000000001,0.999990587833742,63.428445107391894
8.064,0.9999906724130093,63.25459298402004
8.072,0.9999907571769018,63.08058032581139
8.08,0.999990842110887,62.90640722700105
8.088000000000001,0.9999909272004456,62.73207378405204
8.096,0.9999910124310736,62.55758009566331
8.104,0.9999910977882858,62.382926262777715
8.112,0.9999911832576157,62.20811238859011
8.120000000000001,0.9999912688246199,62.03313857855539
8.128,0.9999913544748787,61.85800494039643
8.136,0.9999914401940007,61.68271158411183
8.144,0.9999915259676208,61.50725862198391
8.152000000000001,0.9999916117814072,61.331646168586644
8.16,0.9999916976210605,61.15587434079336
8.168,0.9999917834723168,60.97994325778443
8.176,0.9999918693209501,60.803853041055035
8.184000000000001,0.9999919551527732,60.627603814422976
8.192,0.9999920409536427,60.451195704036245
8.2,0.9999921267094573,60.27462883838046
8.208,0.9999922124061631,60.09790334828658
8.216000000000001,0.9999922980297545,59.92101936693848
8.224,0.9999923835662762,59.74397702988028
8.232,0.9999924690018248,59.56677647502383
8.24,0.9999925543225531,59.38941784265601
8.248000000000001,0.9999926395146692,59.211901275446195
8.256,0.9999927245644409,59.034226918453555
8.264,0.9999928094581967,58.85639491913409
8.272,0.999992894182328,58.678405427347904
8.280000000000001,0.9999929787232914,58.50025859536657
8.288,0.9999930630676099,58.32195457787993
8.296,0.9999931472018769,58.14349353200324
8.304,0.9999932311127554,57.96487561728415
8.312,0.9999933147869826,57.786100995709745
8.32,0.99999339821137,57.607169831713236
8.328,0.9999934813728067,57.42808229218098
8.336,0.9999935642582606,57.2488385464591
8.344,0.9999936468547809,57.06943876636039
8.352,0.9999937291494988,56.889883126170716
8.36,0.9999938111296316,56.71017180265594
8.368,0.999993892782482,56.53030497506821
8.376,0.9999939740954422,56.35028282515264
8.384,0.9999940550559949,56.170105537153546
8.392,0.9999941356517154,55.98977329782112
8.4,0.9999942158702725,55.80928629641739
8.408,0.9999942956994314,55.628644724722804
8.416,0.9999943751270559,55.44784877704213
8.424,0.9999944541411088,55.26689865021089
8.432,0.9999945327296547,55.085794543601125
8.44,0.9999946108808622,54.90453665912766
8.448,0.9999946885830032,54.7231252012538
8.456,0.9999947658244587,54.541560376997474
8.464,0.9999948425937172,54.35984239593674
8.472,0.9999949188793775,54.17797147021583
8.48,0.9999949946701507,53.995947814550526
8.488,0.9999950699548621,53.813771646234066
8.496,0.9999951447224517,53.631443185142324
8.504,0.9999952189619769,53.448962653739684
8.512,0.9999952926626141,53.26633027708401
8.52,0.9999953658136599,53.08354628283235
8.528,0.9999954384045331,52.90061090124584
8.536,0.9999955104247757,52.71752436519522
8.544,0.9999955818640556,52.534286910165555
8.552,0.9999956527121666,52.3508987742617
8.56,0.9999957229590319,52.16736019821276
8.568,0.9999957925947031,51.98367142537745
8.576,0.999995861609365,51.79983270174844
8.584,0.9999959299933335,51.6158442759575
8.592,0.99999599773706,51.43170639927973
8.6,0.9999960648311312,51.24741932563851
8.608,0.9999961312662712,51.06298331160961
8.616,0.9999961970333424,50.87839861642593
8.624,0.999996262123348,50.693665501981506
8.632,0.9999963265274321,50.50878423283603
8.64,0.9999963902368817,50.323755076218724
8.648,0.9999964532431278,50.13857830203273
8.656,0.999996515537747,49.95325418285869
8.664,0.9999965771124629,49.76778299395909
8.672,0.999996637959147,49.58216501328163
8.68,0.9999966980698202,49.39640052146336
8.688,0.9999967574366544,49.21048980183394
8.696,0.999996816051972,49.02443314041953
8.704,0.9999968739082499,48.8382308259459
8.712,0.9999969309981179,48.651883149842185
8.72,0.9999969873143628,48.46539040624378
8.728,0.9999970428499263,48.27875289199584
8.736,0.9999970975979087,48.0919709066561
8.744,0.9999971515515684,47.90504475249819
8.752,0.9999972047043246,47.717974734514165
8.76,0.9999972570497561,47.53076116041771
8.768,0.9999973085816043,47.34340434064649
8.776,0.9999973592937736,47.15590458836513
8.784,0.9999974091803321,46.968262219467334
8.792,0.999997458235513,46.780477552578766
8.8,0.9999975064537147,46.59255090905898
8.808,0.999997553829503,46.40448261300394
8.815999999999999,0.999997600357611,46.21627299124793
8.824,0.9999976460329408,46.027922373365705
8.832,0.9999976908505633,45.83943109167446
8.84,0.99999773480572,45.65079948123563
8.847999999999999,0.9999977778938226,45.46202787985648
8.856,0.9999978201104561,45.27311662809186
8.864,0.9999978614513768,45.08406606924577
8.872,0.9999979019125147,44.894876549372746
8.879999999999999,0.999997941489974,44.705548417279026
8.888,0.9999979801800332,44.51608202452385
8.896,0.9999980179791462,44.32647772542069
8.904,0.9999980548839437,44.13673587703813
8.911999999999999,0.9999980908912317,43.94685683920066
8.92,0.9999981259979944,43.75684097448956
8.928,0.9999981602013935,43.566688648243606
8.936,0.9999981934987686,43.376400228559596
8.943999999999999,0.999998225887639,43.1859760862927
8.952,0.9999982573657025,42.99541659505687
8.96,0.9999982879308371,42.80472213122515
8.968,0.9999983175811006,42.61389307392974
8.975999999999999,0.9999983463147322,42.42292980506187
8.984,0.9999983741301512,42.231832709271806
8.992,0.9999984010259593,42.040602173968686
9.0,0.9999984270009387,41.84923858932014
9.008,0.9999984520540547,41.657742348251666
9.016,0.9999984761844543,41.46611384644624
9.024000000000001,0.9999984993914676,41.27435348234368
9.032,0.9999985216746066,41.08246165713974
9.04,0.9999985430335675,40.89043877478514
9.048,0.9999985634682286,40.69828524198454
9.056000000000001,0.9999985829786523,40.50600146819561
9.064,0.9999986015650841,40.31358786562755
9.072,0.999998619227953,40.12104484923961
9.08,0.9999986359678718,39.928372836739776
9.088000000000001,0.9999986517856368,39.73557224858312
9.096,0.9999986666822285,39.54264350796994
9.104,0.9999986806588105,39.349587040843936
9.112,0.9999986937167301,39.15640327589013
9.120000000000001,0.9999987058575185,38.96309264453297
9.128,0.9999987170828902,38.76965558093392
9.136,0.9999987273947435,38.57609252198905
9.144,0.9999987367951588,38.38240390732657
9.152000000000001,0.9999987452864006,38.18859017930439
9.16,0.999998752870916,37.994651783007264
9.168,0.9999987595513347,37.80058916624379
9.176,0.9999987653304686,37.60640277954358
9.184000000000001,0.9999987702113119,37.41209307615417
9.192,0.9999987741970401,37.21766051203773
9.2,0.9999987772910106,37.02310554586763
9.208,0.9999987794967623,36.82842863902494
9.216000000000001,0.9999987808180134,36.63363025559503
9.224,0.9999987812586634,36.438710862363614
9.232,0.9999987808227914,36.24367092881283
9.24,0.9999987795146557,36.04851092711733
9.248000000000001,0.9999987773386929,35.853231332140226
9.256,0.9999987742995189,35.65783262142871
9.264,0.9999987704019264,35.462315275209605
9.272,0.9999987656508857,35.26667977638491
9.280000000000001,0.9999987600515434,35.07092661052727
9.288,0.9999987536092216,34.87505626587499
9.296,0.9999987463294183,34.6790692333272
9.304,0.9999987382178052,34.482966006438765
9.312000000000001,0.999998729280228,34.28674708141521
9.32,0.9999987195227055,34.09041295710739
9.328,0.9999987089514283,33.89396413500589
9.336,0.9999986975727586,33.69740111923555
9.344,0.9999986853932292,33.500724416549964
9.352,0.9999986724195424,33.30393453632517
9.36,0.9999986586585686,33.107031990554226
9.368,0.9999986441173472,32.910017293840625
9.376,0.9999986288030832,32.71289096339238
9.384,0.9999986127231485,32.51565351901548
9.392,0.999998595885079,32.318305483107544
9.4,0.9999985782965751,32.1208473806509
9.408,0.9999985599654989,31.923279739206194
9.416,0.9999985408998752,31.7256030889051
9.424,0.999998521107889,31.52781796244365
9.432,0.9999985005978839,31.329924895074697
9.44,0.9999984793783625,31.131924424600918
9.448,0.9999984574579842,30.933817091367107
9.456,0.9999984348455636,30.735603438252895
9.464,0.9999984115500706,30.537284010664692
9.472,0.9999983875806278,30.33885935652817
9.48,0.9999983629465093,30.140330026280015
9.488,0.9999983376571402,29.94169657286005
9.496,0.9999983117220945,29.742959551702725
9.504,0.9999982851510942,29.544119520729033
9.512,0.9999982579540072,29.345177040337695
9.52,0.9999982301408469,29.14613267339675
9.528,0.9999982017217689,28.946986985234567
9.536,0.9999981727070721,28.747740543631163
9.544,0.9999981431071946,28.54839391880884
9.552,0.9999981129327141,28.348947683423354
9.56,0.999998082194345,28.149402412554174
9.568,0.9999980509029375,27.9497586836955
9.576,0.9999980190694755,27.750017076746197
9.584,0.9999979867050756,27.550178174000504
9.592,0.999997953820985,27.350242560137758
9.6,0.9999979204285794,27.150210822212827
9.608,0.9999978865393616,26.950083549645584
9.616,0.9999978521649604,26.749861334210998
