freq,mag,phase
6.0,0.999992866849508,67.73453809012275
6.008,0.9999930651358866,67.54699342254014
6.016,0.9999932538658259,67.3593086291011
6.024,0.9999934332326493,67.17148367300308
6.032,0.9999936034276172,66.98351851880378
6.04,0.9999937646399365,66.79541313242753
6.048,0.9999939170567691,66.60716748117183
6.056,0.9999940608632404,66.41878153371381
6.064,0.999994196242447,66.23025526011665
6.072,0.9999943233754682,66.0415886318361
6.08,0.9999944424413715,65.85278162172686
6.088,0.9999945536172234,65.66383420404904
6.096,0.9999946570780985,65.47474635447463
6.104,0.9999947529970861,65.28551805009384
6.112,0.999994841545302,65.0961492694216
6.12,0.9999949228918956,64.90663999240392
6.128,0.9999949972040592,64.71699020042428
6.136,0.9999950646470375,64.52719987631004
6.144,0.9999951253841363,64.33726900433878
6.152,0.9999951795767316,64.14719757024476
6.16,0.9999952273842788,63.95698556122514
6.168,0.9999952689643217,63.76663296594642
6.176,0.999995304472502,63.576139774550775
6.184,0.999995334062568,63.38550597866235
6.192,0.9999953578863849,63.194731571393525
6.2,0.9999953760939426,63.00381654735131
6.208,0.9999953888333658,62.81276090264359
6.216,0.9999953962509238,62.62156463488539
6.224,0.9999953984910394,62.4302277432051
6.232,0.9999953956962983,62.2387502282508
6.24,0.9999953880074579,62.04713209219647
6.248,0.9999953755634582,61.855373338748166
6.256,0.9999953585014304,61.66347397315022
6.264,0.9999953369567063,61.47143400219152
6.272,0.9999953110628287,61.27925343421158
6.28,0.9999952809515602,61.08693227910675
6.288,0.999995246752893,60.894470548336365
6.296,0.9999952085950583,60.70186825492881
6.304,0.9999951666045375,60.509125413487695
6.312,0.9999951209060696,60.3162420401979
6.32,0.9999950716226623,60.123218152831676
6.328,0.9999950188756019,59.930053770754675
6.336,0.9999949627844632,59.736748914932
6.344,0.9999949034671178,59.54330360793424
6.352,0.9999948410397459,59.349717873943376
6.36,0.999994775616845,59.15599173875891
6.368,0.99999470731124,58.96212522980367
6.376,0.9999946362340937,58.768118376129834
6.384,0.9999945624949161,58.573971208424865
6.392,0.999994486201575,58.379683759017304
6.4,0.9999944074603051,58.18525606188272
6.408,0.9999943263757191,57.99068815264957
6.416,0.9999942430508166,57.795980068605
6.424,0.9999941575869961,57.60113184870057
6.432,0.9999940700840622,57.40614353355821
6.44,0.999993980640239,57.211015165475864
6.448,0.9999938893521777,57.01574678843316
6.456,0.999993796314968,56.8203384480973
6.464,0.999993701622148,56.62479019182857
6.472,0.9999936053657148,56.4291020686861
6.48,0.9999935076361341,56.23327412943346
6.4879999999999995,0.999993408522351,56.03730642654427
6.496,0.9999933081118,55.8411990142077
6.504,0.9999932064904158,55.64495194833425
6.5120000000000005,0.9999931037426428,55.44856528656097
6.52,0.9999929999514462,55.252039088257234
6.5280000000000005,0.9999928951983218,55.05537341452994
6.536,0.9999927895633073,54.85856832822926
6.5440000000000005,0.9999926831249915,54.66162389395366
6.552,0.9999925759605259,54.464540178055714
6.5600000000000005,0.9999924681456343,54.26731724864704
6.568,0.9999923597546231,54.069955175603994
6.5760000000000005,0.9999922508603936,53.87245403057256
6.584,0.9999921415344497,53.67481388697404
6.592,0.9999920318469112,53.47703482000986
6.6,0.999991921866522,53.27911690666707
6.608,0.9999918116606624,53.08106022572334
6.616,0.9999917012953584,52.882864857752146
6.624,0.9999915908352937,52.68453088512783
6.632,0.9999914803438178,52.486058392030664
6.64,0.9999913698829604,52.28744746445188
6.648,0.9999912595134384,52.08869819019867
6.656,0.9999911492946684,51.88981065889911
6.664,0.9999910392847773,51.69078496200703
6.672,0.9999909295406121,51.49162119280701
6.68,0.9999908201177515,51.29231944641912
6.688,0.9999907110705162,51.09287981980374
6.696,0.9999906024519795,50.893302411766406
6.704,0.999990494313978,50.69358732296239
6.712,0.9999903867071226,50.49373465590152
6.72,0.999990279680809,50.29374451495275
6.728,0.9999901732832288,50.093617006348836
6.736,0.9999900675613794,49.893352238190815
6.744,0.9999899625610758,49.69295032045261
6.752,0.99998985832696,49.49241136498548
6.76,0.9999897549025137,49.291735485522494
6.768,0.9999896523300674,49.09092279768291
6.776,0.9999895506508124,48.88997341897649
6.784,0.9999894499048095,48.688887468807955
6.792,0.999989350131003,48.487665068481085
6.8,0.9999892513672287,48.28630634120309
6.808,0.9999891536502257,48.08481141208872
6.816,0.9999890570156479,47.88318040816441
6.824,0.9999889614980734,47.68141345837246
6.832,0.9999888671310165,47.479510693574916
6.84,0.9999887739469382,47.27747224655777
6.848,0.9999886819772563,47.075298252034735
6.856,0.9999885912523571,46.87298884665129
6.864,0.9999885018016059,46.67054416898849
6.872,0.9999884136533574,46.46796435956676
6.88,0.9999883268349677,46.2652495608497
6.888,0.9999882413728035,46.062399917247745
6.896,0.999988157292254,45.85941557512192
6.904,0.9999880746177413,45.65629668278738
6.912,0.9999879933727314,45.45304339051698
6.92,0.9999879135797446,45.24965585054484
6.928,0.9999878352603672,45.04613421706975
6.936,0.9999877584352607,44.84247864625863
6.944,0.9999876831241742,44.63868929624987
6.952,0.9999876093459545,44.43476632715664
6.96,0.9999875371185568,44.23070990107009
6.968,0.9999874664590549,44.02652018206265
6.976,0.9999873973836532,43.82219733619112
6.984,0.9999873299076966,43.61774153149975
6.992,0.9999872640456814,43.4131529380233
7.0,0.9999871998112659,43.20843172778999
7.008,0.9999871372172818,43.00357807482445
7.016,0.9999870762757436,42.79859215515063
7.024,0.9999870169978601,42.59347414679446
7.032,0.9999869593940455,42.38822422978681
7.04,0.9999869034739292,42.182842586166046
7.048,0.9999868492463667,41.97732939998066
7.056,0.9999867967194505,41.77168485729195
7.064,0.9999867459005205,41.565909146176445
7.072,0.999986696796175,41.36000245672842
7.08,0.9999866494122801,41.15396498106224
7.088,0.9999866037539814,40.94779691331479
7.096,0.9999865598257147,40.741498449647665
7.104,0.9999865176312158,40.53506978824938
7.112,0.9999864771735308,40.328511129337635
7.12,0.9999864384550279,40.121822675161276
7.128,0.9999864014774059,39.91500463000244
7.136,0.9999863662417071,39.7080572001784
7.144,0.9999863327483257,39.50098059404358
7.152,0.9999863009970187,39.293775021991344
7.16,0.9999862709869171,39.08644069645573
7.168,0.9999862427165356,38.87897783191327
7.176,0.9999862161837823,38.671386644884485
7.184,0.9999861913859704,38.46366735393561
7.192,0.9999861683198276,38.25582017968
7.2,0.9999861469815067,38.04784534477965
7.208,0.9999861273665955,37.83974307394651
7.216,0.9999861094701274,37.631513593943815
7.224,0.9999860932865914,37.42315713358733
7.232,0.9999860788099417,37.2146739237466
7.24,0.9999860660336091,37.00606419734592
7.248,0.9999860549505097,36.79732818936544
7.256,0.9999860455530564,36.58846613684216
7.264,0.9999860378331673,36.37947827887076
7.272,0.9999860317822769,36.17036485660452
7.28,0.9999860273913459,35.961126113255965
7.288,0.9999860246508705,35.75176229409763
7.296,0.9999860235508928,35.54227364646265
7.304,0.9999860240810111,35.332660419745295
7.312,0.9999860262303883,35.12292286540146
7.32,0.9999860299877635,34.91306123694898
7.328,0.9999860353414605,34.703075789968125
7.336,0.9999860422793976,34.49296678210169
7.344,0.9999860507890974,34.282734473055214
7.352,0.9999860608576974,34.07237912459711
7.36,0.9999860724719584,33.86190100055869
7.368,0.9999860856182736,33.65130036683408
7.376,0.9999861002826802,33.44057749138014
7.384,0.999986116450867,33.22973264421625
7.392,0.9999861341081846,33.01876609742401
7.4,0.9999861532396541,32.80767812514696
7.4079999999999995,0.9999861738299782,32.59646900359006
7.416,0.9999861958635482,32.38513901101922
7.4239999999999995,0.9999862193244548,32.173688427760844
7.432,0.9999862441964965,31.962117536200868
7.4399999999999995,0.9999862704631901,31.750426620784417
7.448,0.9999862981077775,31.5386159680146
7.4559999999999995,0.9999863271132371,31.326685866451975
7.464,0.9999863574622915,31.1146366067132
7.4719999999999995,0.9999863891374168,30.90246848147042
7.48,0.9999864221208519,30.690181785449653
7.4879999999999995,0.9999864563946061,30.477776815430026
7.496,0.9999864919404702,30.265253870242116
7.504,0.9999865287400224,30.052613250766875
7.5120000000000005,0.9999865667746402,29.83985525993391
7.52,0.9999866060255059,29.626980202720222
7.5280000000000005,0.9999866464736172,29.413988386148258
7.536,0.999986688099796,29.200880119284612
7.5440000000000005,0.9999867308846948,28.987655713237835
7.552,0.9999867748088078,28.774315481156965
7.5600000000000005,0.9999868198524775,28.560859738229155
7.568,0.9999868659959034,28.347288801678147
7.5760000000000005,0.9999869132191506,28.133602990761638
7.584,0.9999869615021578,27.919802626769545
7.5920000000000005,0.9999870108247456,27.70588803302138
7.6,0.9999870611666248,27.491859534864123
7.6080000000000005,0.9999871125074031,27.277717459669617
7.616,0.9999871648265954,27.0634621368322
7.6240000000000006,0.99998721810363,26.849093897765854
7.632,0.9999872723178563,26.634613075901846
7.640000000000001,0.9999873274485546,26.420020006685544
7.648,0.9999873834749411,26.20531502757395
7.656000000000001,0.9999874403761776,25.990498478032343
7.664,0.999987498131378,25.775570699531677
7.672,0.9999875567196171,25.56053203554503
7.68,0.9999876161199363,25.3453828315447
7.688,0.9999876763113525,25.130123434998765
7.696,0.9999877372728652,24.914754195367717
7.704,0.9999877989834628,24.69927546410102
7.712,0.9999878614221304,24.48368759463357
7.72,0.9999879245678578,24.267990942381978
7.728,0.9999879883996455,24.05218586474091
7.736,0.9999880528965122,23.836272721079215
7.744,0.9999881180375005,23.6202518727361
7.752,0.9999881838016865,23.404123683017033
7.76,0.9999882501681835,23.187888517189766
7.768,0.9999883171161509,22.971546742480076
7.776,0.9999883846247999,22.7550987280676
7.784,0.9999884526734,22.538544845081407
7.792,0.9999885212412862,22.321885466595635
7.8,0.9999885903078646,22.105120967624934
7.808,0.9999886598526195,21.888251725119876
7.816,0.9999887298551189,21.671278117962252
7.824,0.9999888002950217,21.454200526960296
7.832,0.9999888711520829,21.237019334843797
7.84,0.9999889424061599,21.019734926259154
7.848,0.9999890140372192,20.802347687764353
7.856,0.9999890860253412,20.584858007823758
7.864,0.9999891583507267,20.36726627680295
7.872,0.9999892309937023,20.149572886963398
7.88,0.9999893039347268,19.931778232457024
7.888,0.9999893771543957,19.713882709320753
7.896,0.9999894506334476,19.49588671547092
7.904,0.9999895243527689,19.27779065069757
7.912,0.9999895982934002,19.059594916658746
7.92,0.9999896724365402,18.841299916874604
7.928,0.9999897467635525,18.622906056721508
7.936,0.9999898212559687,18.404413743425977
7.944,0.9999898958954957,18.185823386058583
7.952,0.9999899706640187,17.967135395527773
7.96,0.999990045543607,17.748350184573518
7.968,0.9999901205165195,17.529468167760996
7.976,0.9999901955652073,17.31048976147408
7.984,0.9999902706723203,17.09141538390881
7.992,0.9999903458207109,16.87224545506672
8.0,0.9999904209934388,16.652980396748134
8.008,0.9999904961737747,16.43362063254535
8.016,0.9999905713452052,16.2141665878356
8.024000000000001,0.9999906464914367,15.99461868977429
8.032,0.9999907215964,15.77497736728777
8.04,0.9999907966442537,15.555243051066066
8.048,0.9999908716193879,15.335416173555764
8.056000000000001,0.9999909465064295,15.115497168952652
8.064,0.9999910212902445,14.895486473194287
8.072,0.9999910959559427,14.675384523952292
8.08,0.9999911704888792,14.455191760624922
8.088000000000001,0.9999912448746616,14.234908624329373
8.096,0.9999913190991501,14.014535557893964
8.104,0.9999913931484619,13.794073005850123
8.112,0.9999914670089759,13.573521414424544
8.120000000000001,0.9999915406673333,13.35288123153122
8.128,0.9999916141104422,13.132152906763245
8.136,0.9999916873254807,12.911336891384442
8.144,0.9999917602998991,12.690433638321196
8.152000000000001,0.9999918330214236,12.469443602154136
8.16,0.9999919054780574,12.248367239109568
8.168,0.9999919776580855,12.02720500705082
8.176,0.9999920495500754,11.805957365469675
8.184000000000001,0.9999921211428806,11.58462477547773
8.192,0.9999921924256424,11.363207699797513
8.2,0.9999922633877931,11.141706602753427
8.208,0.9999923340190564,10.920121950262914
8.216000000000001,0.9999924043094516,10.69845420982746
8.224,0.9999924742492939,10.476703850523316
8.232,0.9999925438291982,10.254871342992203
8.24,0.9999926130400782,10.032957159432062
8.248000000000001,0.9999926818731509,9.810961773587756
8.256,0.9999927503199366,9.588885660741477
8.264,0.9999928183722612,9.366729297703085
8.272,0.9999928860222566,9.144493162800563
8.280000000000001,0.9999929532623645,8.922177735870347
8.288,0.9999930200853345,8.699783498247452
8.296,0.9999930864842281,8.477310932755467
8.304,0.9999931524524177,8.254760523696671
8.312,0.9999932179835892,8.032132756842106
8.32,0.999993283071742,7.809428119421151
8.328,0.99999334771119,7.586647100111633
8.336,0.9999934118965633,7.363790189029183
8.344,0.9999934756228073,7.14085787771725
8.352,0.9999935388851843,6.917850659136232
8.36,0.999993601679274,6.6947690276533685
8.368,0.9999936640009739,6.471613479031715
8.376,0.9999937258464985,6.248384510419875
8.384,0.9999937872123815,6.025082620340815
8.392,0.9999938480954749,5.801708308681448
8.4,0.9999939084929478,5.578262076681316
8.408,0.9999939684022896,5.354744426921982
8.416,0.9999940278213064,5.131155863315594
8.424,0.999994086748123,4.907496891094112
8.432,0.9999941451811817,4.683768016797733
8.44,0.9999942031192429,4.459969748263972
8.448,0.9999942605613833,4.236102594615914
8.456,0.999994317506996,4.0121670662511875
8.464,0.9999943739557905,3.788163674830038
8.472,0.9999944299077907,3.564092933264189
8.48,0.999994485363335,3.339955355704752
8.488,0.999994540323076,3.115751457530927
8.496,0.9999945947879771,2.8914817553378205
8.504,0.9999946487593148,2.6671467669249758
8.512,0.999994702238675,2.4427470112840433
8.52,0.9999947552279528,2.2182830085871843
8.528,0.9999948077293511,1.9937552801746292
8.536,0.9999948597453794,1.769164348542903
8.544,0.9999949112788521,1.5445107373322642
8.552,0.9999949623328869,1.3197949713148116
8.56,0.9999950129109031,1.095017576381774
8.568,0.9999950630166207,0.8701790795314994
8.576,0.9999951126540578,0.6452800088566002
8.584,0.9999951618275285,0.4203208935318178
8.592,0.9999952105416422,0.19530226380104376
8.6,0.9999952588013004,-0.02977534903493474
8.608,0.9999953066116952,-0.254911412631557
8.616,0.999995353978307,-0.48010539361285803
8.624,0.9999954009069019,-0.7053567575847092
8.632,0.9999954474035305,-0.9306649691473159
8.64,0.999995493474524,-1.156029491908576
8.648,0.9999955391264924,-1.3814497884967014
8.656,0.999995584366323,-1.6069253205736835
8.664,0.9999956292011758,-1.8324555488480425
8.672,0.9999956736384823,-2.0580399330884056
8.68,0.9999957176859421,-2.2836779321363605
8.688,0.9999957613515202,-2.5093690039201646
8.696,0.9999958046434444,-2.7351126054676937
8.704,0.9999958475702021,-2.9609081929202663
8.712,0.9999958901405365,-3.186755221545711
8.72,0.9999959323634451,-3.412653145752279
8.728,0.999995974248175,-3.638601419101829
8.736,0.9999960158042204,-3.8645994943238535
8.744,0.9999960570413196,-4.090646823328744
8.752,0.9999960979694507,-4.316742857221937
8.76,0.9999961385988285,-4.5428870463172775
8.768,0.9999961789399019,-4.769078840151257
8.776,0.9999962190033486,-4.995317687496481
8.784,0.9999962588000731,-5.2216030363759955
8.792,0.9999962983412019,-5.447934334076865
8.8,0.9999963376380805,-5.674311027164573
8.808,0.9999963767022688,-5.9007325614967
8.815999999999999,0.999996415545538,-6.127198382237376
8.824,0.9999964541798663,-6.353707933871275
8.832,0.9999964926174345,-6.58026066021772
8.84,0.9999965308706227,-6.80685600444501
8.847999999999999,0.9999965689520058,-7.033493409084811
8.856,0.9999966068743493,-7.260172316046367
8.864,0.9999966446506052,-7.486892166630758
8.872,0.9999966822939077,-7.71365240154541
8.879999999999999,0.9999967198175682,-7.940452460918626
8.888,0.9999967572350729,-8.167291784313973
8.896,0.9999967945600753,-8.394169810744671
8.904,0.9999968318063948,-8.621085978688276
8.911999999999999,0.9999968689880102,-8.848039726101344
8.92,0.9999969061190553,-9.075030490433964
8.928,0.9999969432138162,-9.302057708644293
8.936,0.9999969802867227,-9.529120817213386
8.943999999999999,0.9999970173523485,-9.75621925215995
8.952,0.9999970544254015,-9.983352449055076
8.96,0.9999970915207237,-10.210519843036858
8.968,0.9999971286532825,-10.437720868825336
8.975999999999999,0.9999971658381672,-10.66495496073744
8.984,0.9999972030905855,-10.892221552701745
8.992,0.9999972404258559,-11.119520078273293
9.0,0.9999972778594051,-11.346849970648584
9.008,0.9999973154067603,-11.574210662680684
9.016,0.9999973530835483,-11.801601586894021
9.024000000000001,0.9999973909054846,-12.029022175499387
9.032,0.9999974288883733,-12.256471860408961
9.04,0.9999974670481001,-12.483950073251531
9.048,0.9999975054006258,-12.71145624538743
9.056000000000001,0.9999975439619829,-12.938989807923543
9.064,0.9999975827482699,-13.166550191728494
9.072,0.999997621775645,-13.394136827447902
9.08,0.9999976610603218,-13.62174914551942
9.088000000000001,0.9999977006185636,-13.849386576187802
9.096,0.9999977404666778,-14.077048549520189
9.104,0.9999977806210112,-14.304734495421389
9.112,0.9999978210979427,-14.532443843649038
9.120000000000001,0.999997861913881,-14.760176023828684
9.128,0.9999979030852558,-14.987930465469148
9.136,0.999997944628514,-15.21570659797789
9.144,0.9999979865601146,-15.443503850676159
9.152000000000001,0.999998028896522,-15.671321652814179
9.16,0.9999980716542005,-15.899159433586542
9.168,0.9999981148496099,-16.127016622147593
9.176,0.9999981584991983,-16.354892647626677
9.184000000000001,0.9999982026193981,-16.582786939143293
9.192,0.999998247226619,-16.810698925822564
9.2,0.9999982923372432,-17.038628036810632
9.208,0.9999983379676198,-17.266573701289918
9.216000000000001,0.9999983841340585,-17.494535348494352
9.224,0.9999984308528246,-17.72251240772481
9.232,0.9999984781401321,-17.95050430836453
9.24,0.9999985260121408,-18.17851047989442
9.248000000000001,0.9999985744849469,-18.40653035190825
9.256,0.9999986235745806,-18.634563354128105
9.264,0.9999986732969987,-18.86260891641987
9.272,0.9999987236680784,-19.090666468808408
9.280000000000001,0.9999987747036138,-19.318735441492883
9.288,0.9999988264193082,-19.546815264862115
9.296,0.9999988788307694,-19.774905369510073
9.304,0.9999989319535038,-20.003005186251084
9.312000000000001,0.9999989858029104,-20.23111414613504
9.32,0.9999990403942756,-20.459231680462874
9.328,0.9999990957427682,-20.68735722080187
9.336,0.9999991518634318,-20.915490199000974
9.344,0.9999992087711812,-21.143630047205853
9.352,0.9999992664807955,-21.371776197874578
9.36,0.999999325006913,-21.599928083792474
9.368,0.9999993843640259,-21.828085138087776
9.376,0.9999994445664743,-22.056246794246476
9.384,0.9999995056284403,-22.284412486128005
9.392,0.9999995675639436,-22.51258164797997
9.4,0.9999996303868345,-22.740753714453856
9.408,0.9999996941107897,-22.968928120619704
9.416,0.9999997587493069,-23.19710430198181
9.424,0.9999998243156971,-23.425281694493385
9.432,0.9999998908230823,-23.65345973457215
9.44,0.9999999582843881,-23.88163785911501
9.448,1.0,-24.109815505513616
9.456,0.9999999999999999,-24.33799211166898
9.464,0.9999999999999999,-24.566167116006987
9.472,1.0,-24.794339957492994
9.48,0.9999999999999999,-25.022510075647276
9.488,0.9999999999999999,-25.250676910559598
9.496,0.9999999999999999,-25.478839902904596
9.504,0.9999999999999999,-25.706998493956267
9.512,1.0,-25.93515212560341
9.52,1.0,-26.163300240363956
9.528,1.0,-26.39144228140035
9.536,1.0,-26.61957769253394
9.544,0.9999999999999999,-26.84770591826018
9.552,0.9999999999999999,-27.07582640376301
9.56,1.0,-27.303938594930024
9.568,0.9999999999999999,-27.53204193836675
9.576,0.9999999999999999,-27.760135881411763
9.584,1.0,-27.98821987215089
9.592,1.0,-28.216293359432303
9.6,1.0,-28.444355792880632
