freq,mag,phase
6.0,1.0,15.117399269144475
6.008,0.9999999999999999,14.879170591176925
6.016,1.0,14.640898876856102
6.024,0.9999999999999999,14.402584316239087
6.032,1.0,14.164227099476806
6.04,0.9999999999999999,13.925827416813313
6.048,1.0,13.687385458585188
6.056,0.9999999999999999,13.448901415220814
6.064,1.0,13.210375477239724
6.072,1.0,12.9718078352519
6.08,1.0,12.733198679957093
6.088,1.0,12.494548202144122
6.096,1.0,12.255856592690153
6.104,0.9999999999999999,12.017124042560036
6.112,0.9999999999999999,11.77835074280554
6.12,1.0,11.53953688456465
6.128,1.0,11.300682659060863
6.136,0.9999999999999999,11.061788257602425
6.144,1.0000000000000002,10.822853871581584
6.152,1.0,10.583879692473891
6.16,1.0,10.344865911837408
6.168,0.9999999999999999,10.105812721311956
6.176,0.9999999999999999,9.86672031261837
6.184,1.0,9.62758887755772
6.192,0.9999997078652242,9.388418608010522
6.2,0.999999321903619,9.149209695935975
6.208,0.9999989404867187,8.909962333371155
6.216,0.9999985636240777,8.670676712430254
6.224,0.9999981913248096,8.431353025303718
6.232,0.9999978235975893,8.191991464257496
6.24,0.999997460450653,7.952592221632225
6.248,0.9999971018918026,7.7131554898423484
6.256,0.9999967479284054,7.4736814613753735
6.264,0.9999963985673956,7.234170328790973
6.272,0.9999960538152778,6.994622284720185
6.28,0.9999957136781261,6.755037521864549
6.288,0.9999953781615888,6.515416232995237
6.296,0.9999950472708878,6.275758610952256
6.304,0.9999947210108219,6.036064848643503
6.312,0.999994399385768,5.796335139043964
6.32,0.9999940823996827,5.55656967519478
6.328,0.9999937700561056,5.316768650202395
6.336,0.9999934623581592,5.076932257237665
6.344,0.9999931593085525,4.8370606895349635
6.352,0.9999928609095827,4.597154140391227
6.36,0.9999925671631362,4.357212803165128
6.368,0.9999922780706924,4.1172368712760825
6.376,0.9999919936333236,3.8772265382033755
6.384,0.9999917138516994,3.6371819974852135
6.392,0.9999914387260872,3.3971034427177838
6.4,0.999991168256355,3.1569910675543067
6.408,0.9999909024419739,2.916845065704116
6.416,0.9999906412820191,2.6766656309316654
6.424,0.9999903847751742,2.4364529570555877
6.432,0.9999901329197313,2.19620723794772
6.44,0.999989885713595,1.9559286675321355
6.448,0.9999896431542836,1.7156174397841444
6.456,0.9999894052389328,1.475273748729322
6.464,0.9999891719642966,1.2348977884425203
6.472,0.9999889433267509,0.9944897530468345
6.48,0.9999887193222946,0.7540498367126249
6.4879999999999995,0.999988499946555,0.51357823365653
6.496,0.9999882851947867,0.27307513814029744
6.504,0.9999880750618766,0.03254074447005541
6.5120000000000005,0.9999878695423459,-0.20802475300509543
6.52,0.9999876686303523,-0.44862115989375084
6.5280000000000005,0.9999874723196938,-0.6892482817636043
6.536,0.99998728060381,-0.9299059241421208
6.5440000000000005,0.9999870934757862,-1.170593892517996
6.552,0.9999869109283551,-1.411311992341812
6.5600000000000005,0.9999867329539001,-1.65206002902751
6.568,0.9999865595444585,-1.8928378079530506
6.5760000000000005,0.9999863906917242,-2.1336451344619163
6.584,0.9999862263870503,-2.3744818138637873
6.592,0.9999860666214521,-2.6153476514360015
6.6,0.9999859113856105,-2.8562424524243832
6.608,0.9999857606698752,-3.097166022044478
6.616,0.9999856144642673,-3.338118165482614
6.624,0.999985472758483,-3.5790986878970434
6.632,0.9999853355418958,-3.8201073944190327
6.64,0.9999852028035607,-4.061144090154015
6.648,0.999985074532218,-4.302208580182687
6.656,0.9999849507162942,-4.543300669562178
6.664,0.9999848313439086,-4.784420163327153
6.672,0.9999847164028739,-5.025566866490978
6.68,0.9999846058807013,-5.26674058404687
6.688,0.9999844997646038,-5.507941120969025
6.696,0.9999843980414989,-5.749168282213798
6.704,0.9999843006980138,-5.990421872720852
6.712,0.9999842077204868,-6.23170169741432
6.72,0.9999841190949735,-6.473007561203984
6.728,0.9999840348072486,-6.7143392689864285
6.736,0.9999839548428109,-6.955696625646227
6.744,0.9999838791868861,-7.197079436057122
6.752,0.9999838078244326,-7.438487505083187
6.76,0.9999837407401435,-7.679920637580021
6.768,0.9999836779184511,-7.9213786383959555
6.776,0.9999836193435323,-8.162861312373193
6.784,0.999983564999311,-8.404368464349034
6.792,0.9999835148694638,-8.645899899157047
6.8,0.9999834689374232,-8.887455421628287
6.808,0.9999834271863828,-9.129034836592448
6.816,0.9999833895993016,-9.370637948879088
6.824,0.9999833561589074,-9.612264563318812
6.832,0.9999833268477039,-9.853914484744447
6.84,0.9999833016479721,-10.095587517992278
6.848,0.9999832805417779,-10.337283467903191
6.856,0.9999832635109756,-10.579002139323888
6.864,0.9999832505372123,-10.820743337108071
6.872,0.9999832416019347,-11.062506866117623
6.88,0.9999832366863918,-11.304292531223794
6.888,0.9999832357716422,-11.546100137308374
6.896,0.9999832388385581,-11.78792948926487
6.904,0.9999832458678313,-12.029780391999674
6.912,0.9999832568399781,-12.271652650433225
6.92,0.9999832717353452,-12.513546069501169
6.928,0.9999832905341155,-12.755460454155504
6.936,0.9999833132163133,-12.997395609365732
6.944,0.9999833397618106,-13.239351340119972
6.952,0.9999833701503332,-13.481327451426106
6.96,0.9999834043614665,-13.723323748312872
6.968,0.9999834423746611,-13.965340035830994
6.976,0.9999834841692409,-14.207376119054222
6.984,0.9999835297244078,-14.449431803080452
6.992,0.9999835790192492,-14.691506893032775
7.0,0.9999836320327441,-14.93360119406049
7.008,0.999983688743771,-15.175714511340164
7.016,0.9999837491311137,-15.417846650076626
7.024,0.9999838131734687,-15.659997415503952
7.032,0.9999838808494529,-15.902166612886408
7.04,0.9999839521376117,-16.14435404751942
7.048,0.9999840270164241,-16.386559524730462
7.056,0.9999841054643135,-16.628782849879936
7.064,0.9999841874596531,-16.871023828362052
7.072,0.9999842729807757,-17.1132822656056
7.08,0.9999843620059808,-17.35555796707479
7.088,0.9999844545135436,-17.59785073826995
7.096,0.9999845504817236,-17.84016038472826
7.104,0.9999846498887726,-18.082486712024384
7.112,0.9999847527129444,-18.324829525771126
7.12,0.9999848589325034,-18.56718863161996
7.128,0.9999849685257349,-18.80956383526154
7.136,0.9999850814709533,-19.05195494242617
7.144,0.9999851977465115,-19.294361758884186
7.152,0.9999853173308125,-19.536784090446265
7.16,0.9999854402023177,-19.779221742963667
7.168,0.9999855663395582,-20.021674522328468
7.176,0.9999856957211444,-20.264142234473553
7.184,0.9999858283257762,-20.506624685372703
7.192,0.9999859641322555,-20.74912168104047
7.2,0.9999861031194948,-20.991633027531932
7.208,0.9999862452665291,-21.234158530942484
7.216,0.9999863905525274,-21.476697997407307
7.224,0.9999865389568038,-21.719251233100927
7.232,0.9999866904588275,-21.961818044236413
7.24,0.9999868450382365,-22.20439823706463
7.248,0.9999870026748466,-22.446991617873195
7.256,0.9999871633486643,-22.689597992985338
7.264,0.9999873270398975,-22.932217168758598
7.272,0.9999874937289671,-23.174848951583197
7.28,0.9999876633965186,-23.417493147880357
7.288,0.9999878360234318,-23.6601495641003
7.296,0.9999880115908325,-23.902818006720054
7.304,0.9999881900801029,-24.14549828224092
7.312,0.9999883714728908,-24.388190197185732
7.32,0.9999885557511199,-24.630893558095845
7.328,0.9999887428969978,-24.87360817152759
7.336,0.999988932893024,-25.116333844048647
7.344,0.9999891257219977,-25.359070382233828
7.352,0.9999893213670219,-25.601817592660538
7.36,0.9999895198115093,-25.844575281903793
7.368,0.999989721039185,-26.087343256530616
7.376,0.9999899250340858,-26.33012132309415
7.384,0.9999901317805606,-26.57290928812696
7.392,0.9999903412632658,-26.81570695813388
7.4,0.9999905534671576,-27.058514139584094
7.4079999999999995,0.9999907683774822,-27.30133063890255
7.416,0.9999909859797619,-27.544156262460646
7.4239999999999995,0.9999912062597728,-27.786990816565726
7.432,0.9999914292035239,-28.0298341074503
7.4399999999999995,0.9999916547972226,-28.2726859412594
7.448,0.9999918830272383,-28.515546124037847
7.4559999999999995,0.9999921138800547,-28.758414461715176
7.464,0.9999923473422129,-29.001290760090505
7.4719999999999995,0.999992583400244,-29.24417482481482
7.48,0.9999928220405896,-29.487066461372724
7.4879999999999995,0.9999930632495048,-29.729965475061665
7.496,0.9999933070129459,-29.9728716709702
7.504,0.9999935533164398,-30.21578485395339
7.5120000000000005,0.9999938021449276,-30.458704828606937
7.52,0.9999940534825852,-30.70163139923806
7.5280000000000005,0.9999943073126116,-30.94456436983477
7.536,0.9999945636169841,-31.187503544031365
7.5440000000000005,0.9999948223761734,-31.43044872507193
7.552,0.9999950835688107,-31.673399715769506
7.5600000000000005,0.999995347171306,-31.916356318462604
7.568,0.9999956131574,-32.159318334967004
7.5760000000000005,0.9999958814976486,-32.402285566524036
7.584,0.9999961521588235,-32.64525781374355
7.5920000000000005,0.9999964251032196,-32.88823487654264
7.6,0.9999967002878501,-33.13121655407826
7.6080000000000005,0.999996977663517,-33.37420264467462
7.616,0.9999972571737308,-33.61719294574396
7.6240000000000006,0.9999975387534622,-33.860187253700886
7.632,0.9999978223276921,-34.103185363869244
7.640000000000001,0.9999981078097312,-34.346187070381916
7.648,0.9999983950992712,-34.5891921660721
7.656000000000001,0.999998684080122,-34.83220044235696
7.664,0.999998974617585,-35.07521168911202
7.672,0.9999992665554032,-35.31822569453778
7.68,0.9999995597122152,-35.56124224501711
7.688,0.9999998538774345,-35.80426112496506
7.696,1.0,-36.04728211667123
7.704,1.0,-36.290305000136186
7.712,1.0,-36.533329552904064
7.72,1.0,-36.776355549894404
7.728,1.0,-37.019382763237346
7.736,1.0,-37.262410962118324
7.744,0.9999999999999999,-37.505439912640476
7.752,0.9999999999999999,-37.74846937771568
7.76,1.0,-37.99149911699892
7.768,0.9999999999999999,-38.23452888688562
7.776,1.0,-38.47755844059725
7.784,1.0,-38.72058752838884
7.792,1.0,-38.96361589792093
7.8,0.9999999999999999,-39.20664329485177
7.808,0.9999999999999998,-39.44966946371982
7.816,0.9999999999999999,-39.692694149205316
7.824,0.9999999999999999,-39.935717097882055
7.832,0.9999999999999999,-40.17873806059568
7.84,1.0,-40.42175679563441
7.848,1.0,-40.66477307288843
7.856,1.0,-40.90778667922503
7.864,0.9999999999999999,-41.15079742532988
7.872,0.9999999999999999,-41.393805154275796
7.88,1.0,-41.63680975206315
7.888,1.0,-41.87981116031273
7.896,0.9999999999999999,-42.12280939115752
7.904,1.0,-42.36580454413929
7.912,1.0,-42.60879682453351
7.92,1.0,-42.851786561966854
7.928,1.0,-43.09477422744063
7.936,1.0,-43.33776044595884
7.944,0.9999999999999999,-43.5807460009883
7.952,1.0,-43.823731826173535
7.96,0.9999999999999999,-44.06671897945007
7.968,0.9999994025830489,-44.309708595416716
7.976,0.9999982690264919,-44.552701814001246
7.984,0.9999970609126765,-44.795699687318184
7.992,0.9999958023024202,-45.03870307187811
8.0,0.9999945223276254,-45.28171251891859
8.008,0.9999932536434754,-45.52472817983518
8.016,0.9999920302730726,-45.76774974453418
8.024000000000001,0.9999908851083763,-46.010776426721584
8.032,0.9999898474335893,-46.25380700194719
8.04,0.9999889408525261,-46.496839893717556
8.048,0.9999881819192324,-46.73987329340043
8.056000000000001,0.9999875796172886,-46.982905293945606
8.064,0.9999871356589928,-47.225934017072824
8.072,0.9999868454337009,-47.468957717930145
8.08,0.9999866993578034,-47.71197485823357
8.088000000000001,0.9999866843718339,-47.95498414611086
8.096,0.9999867853753445,-48.19798454645497
8.104,0.9999869864605342,-48.44097526875432
8.112,0.9999872718770176,-48.683955740251754
8.120000000000001,0.9999876267173672,-48.9269255715526
8.128,0.9999880373505612,-49.1698845202331
8.136,0.9999884916494561,-49.4128324562246
8.144,0.9999889790634308,-49.65576933116109
8.152000000000001,0.99998949058371,-49.89869515265343
8.16,0.9999900186409351,-50.14160996361911
8.168,0.999990556965378,-50.384513826294466
8.176,0.9999911004316279,-50.627406810307455
8.184000000000001,0.9999916449023558,-50.870288984107
8.192,0.9999921870802289,-51.11316040906688
8.2,0.9999927243729803,-51.35602113565414
8.208,0.9999932547738626,-51.59887120114783
8.216000000000001,0.9999937767579107,-51.841710628490524
8.224,0.9999942891933308,-52.084539425944975
8.232,0.9999947912667503,-52.32735758730354
8.24,0.9999952824207701,-52.57016509246086
8.248000000000001,0.9999957623022204,-52.8129619082114
8.256,0.9999962307195709,-53.05574798917142
8.264,0.9999966876080697,-53.29852327875517
8.272,0.9999971330013588,-53.54128771015617
8.280000000000001,0.9999975670084678,-53.784041207302145
8.288,0.9999979897952423,-54.02678368576376
8.296,0.9999984015694264,-54.26951505360489
8.304,0.9999988025687255,-54.512235212168555
8.312,0.9999991930513089,-54.754944056797314
8.32,0.9999995732882875,-54.99764147748901
8.328,0.9999999435578006,-55.24032735948993
8.336,1.0,-55.48300158383021
8.344,1.0,-55.72566402780443
8.352,1.0,-55.968314565403354
8.36,0.9999999999999999,-56.21095306769962
8.368,1.0,-56.453579403193565
8.376,1.0000000000000002,-56.69619343812133
8.384,0.9999999999999998,-56.93879503673079
8.392,0.9999999999999998,-57.18138406152738
8.4,1.0,-57.423960373494175
8.408,0.9999999999999999,-57.66652383228777
8.416,1.0,-57.90907429641419
8.424,1.0,-58.151611623385236
8.432,1.0,-58.3941356698594
8.44,0.9999999999999999,-58.63664629176691
8.448,1.0,-58.879143344423
8.456,1.0,-59.121626682628296
8.464,0.9999999999999999,-59.36409616076014
8.472,1.0,-59.60655163285359
8.48,0.9999999999999999,-59.848992952675374
8.488,1.0,-60.09141997378946
8.496,1.0,-60.33383254961715
8.504,0.9999999999999999,-60.576230533490694
8.512,1.0,-60.81861377870219
8.52,1.0,-61.06098213854754
8.528,1.0,-61.30333546636664
8.536,0.9999999999999999,-61.54567361557957
8.544,1.0,-61.78799643971981
8.552,0.9999999999999999,-62.0303037924641
8.56,1.0,-62.27259552766021
8.568,0.9999999999999999,-62.51487149935163
8.576,1.0,-62.75713156180092
8.584,0.9999999999999999,-62.99937556951037
8.592,1.0,-63.241603377241596
8.6,1.0,-63.48381484003295
8.608,0.9999999999999999,-63.72600981321626
8.616,1.0000000000000002,-63.9681881524314
8.624,1.0,-64.2103497136408
8.632,1.0,-64.45249435314166
8.64,1.0,-64.69462192757851
8.648,0.9999999999999999,-64.93673229395382
8.656,1.0,-65.17882530963873
8.664,0.9999999999999999,-65.42090083238227
8.672,0.9999999999999999,-65.66295872032077
8.68,0.9999999999999999,-65.90499883198578
8.688,1.0,-66.14702102631252
8.696,0.9999999999999999,-66.38902516264667
8.704,0.9999999999999999,-66.63101110075192
8.712,0.9999999999999999,-66.87297870081603
8.72,1.0,-67.11492782345746
8.728,1.0,-67.35685832973083
8.736,0.9999999999999998,-67.59877008113287
8.744,1.0,-67.84066293960733
8.752,0.9999999999999999,-68.08253676755034
8.76,0.9999999999999999,-68.32439142781492
8.768,1.0,-68.5662267837158
8.776,1.0,-68.80804269903348
8.784,0.9999999999999999,-69.04983903801882
8.792,1.0,-69.29161566539659
8.8,0.9999999999999999,-69.53337244636985
8.808,1.0,-69.77510924662316
8.815999999999999,0.9999999999999999,-70.01682593232653
8.824,1.0,-70.2585223701388
8.832,1.0,-70.50019842721086
8.84,0.9999999999999999,-70.74185397118892
8.847999999999999,0.9999999999999999,-70.98348887021785
8.856,1.0,-71.22510299294414
8.864,0.9999999999999999,-71.46669620851864
8.872,0.9999999999999999,-71.7082683865997
8.879999999999999,1.0,-71.94981939735598
8.888,0.9999999999999999,-72.19134911146921
8.896,1.0,-72.43285740013663
8.904,1.0,-72.6743441350738
8.911999999999999,0.9999999999999999,-72.91580918851729
8.92,0.9999999999999999,-73.157252433227
8.928,0.9999999999999999,-73.39867374248865
8.936,0.9999999999999999,-73.64007299011614
8.943999999999999,1.0,-73.88145005045419
8.952,0.9999999999999999,-74.12280479838043
8.96,1.0,-74.3641371093077
8.968,1.0,-74.60544685918632
8.975999999999999,0.9999999999999999,-74.84673392450644
8.984,0.9999999999999999,-75.08799818230018
8.992,0.9999999999999999,-75.32923951014361
9.0,0.9999999999999999,-75.57045778615898
9.008,1.0,-75.81165288901695
9.016,1.0,-76.05282469793859
9.024000000000001,1.0,-76.2939730926972
9.032,1.0,-76.53509795362055
9.04,1.0,-76.7761991615929
9.048,0.9999999999999999,-77.01727659805692
9.056000000000001,1.0,-77.25833014501548
9.064,1.0,-77.4993596850337
9.072,0.9999999999999999,-77.74036510124097
9.08,1.0,-77.98134627733273
9.088000000000001,0.9999999999999999,-78.22230309757221
9.096,1.0,-78.46323544679237
9.104,1.0,-78.70414321039789
9.112,1.0,-78.94502627436678
9.120000000000001,0.9999999999999998,-79.18588452525218
9.128,1.0,-79.42671785018412
9.136,1.0,-79.66752613687147
9.144,0.9999999999999999,-79.90830927360358
9.152000000000001,1.0,-80.14906714925179
9.16,1.0,-80.3897996532714
9.168,0.9999999999999999,-80.63050667570333
9.176,0.9999999999999999,-80.87118810717581
9.184000000000001,0.9999999999999999,-81.11184383890586
9.192,0.9999999999999999,-81.35247376270102
9.2,1.0,-81.59307777096124
9.208,0.9999999999999999,-81.83365575668023
9.216000000000001,1.0,-82.07420761344704
9.224,1.0,-82.31473323544776
9.232,0.9999999999999999,-82.55523251746715
9.24,1.0000000000000002,-82.79570535489017
9.248000000000001,1.0,-83.03615164370342
9.256,1.0,-83.27657128049673
9.264,1.0,-83.51696416246483
9.272,0.9999999999999999,-83.75733018740873
9.280000000000001,0.9999999999999999,-83.99766925373716
9.288,0.9999999999999999,-84.23798126046812
9.296,0.9999999999999999,-84.47826610723045
9.304,0.9999999999999999,-84.71852369426526
9.312000000000001,0.9999999999999999,-84.95875392242718
9.32,1.0,-85.19895669318592
9.328,1.0,-85.43913190862786
9.336,0.9999999999999999,-85.67927947145725
9.344,1.0,-85.91939928499754
9.352,0.9999999999999999,-86.15949125319308
9.36,1.0,-86.39955528061007
9.368,1.0,-86.63959127243841
9.376,1.0,-86.87959913449248
9.384,1.0,-87.11957877321304
9.392,0.9999999999999999,-87.35953009566803
9.4,0.9999999999999999,-87.59945300955437
9.408,1.0,-87.83934742319873
9.416,1.0,-88.07921324555936
9.424,1.0,-88.31905038622688
9.432,0.9999999999999999,-88.55885875542586
9.44,1.0,-88.79863826401584
9.448,1.0,-89.0383888234928
9.456,1.0,-89.27811034599006
9.464,1.0,-89.51780274427989
9.472,1.0,-89.7574659317742
9.48,1.0,-89.99709982252631
9.488,0.9999999999999999,-90.23670433123148
9.496,1.0,-90.47627937322865
9.504,1.0,-90.71582486450112
9.512,0.9999999999999999,-90.95534072167803
9.52,1.0,-91.19482686203511
9.528,1.0,-91.43428320349626
9.536,0.9999999103931196,-91.67370966463407
9.544,0.999999649022037,-91.91310616467149
9.552,0.9999993849940579,-92.15247262348227
9.56,0.9999991183295491,-92.39180896159263
9.568,0.9999988490491092,-92.63111510018176
9.576,0.9999985771735674,-92.87039096108326
9.584,0.9999983027239829,-93.1096364667858
9.592,0.9999980257216444,-93.3488515404345
9.6,0.9999977461880705,-93.58803610583145
9.608,0.9999974641450068,-93.82719008743717
9.616,0.9999971796144287,-94.0663134103711
9.624,0.9999968926185385,-94.30540600041297
9.632,0.9999966031797645,-94.54446778400336
9.64,0.9999963113207612,-94.78349868824496
9.648,0.9999960170644083,-95.0224986409031
9.656,0.9999957204338098,-95.26146757040706
9.664,0.9999954214522931,-95.50040540585051
9.672,0.9999951201434082,-95.73931207699279
9.68,0.9999948165309264,-95.97818751425935
9.688,0.99999451063884,-96.21703164874302
9.696,0.9999942024913605,-96.45584441220437
9.704,0.9999938921129192,-96.69462573707303
9.712,0.9999935795281631,-96.93337555644788
9.72,0.999993264761957,-97.17209380409852
9.728,0.9999929478393808,-97.41078041446536
9.736,0.9999926287857279,-97.64943532266093
9.744,0.9999923076265052,-97.8880584644702
9.752,0.999991984387431,-98.12664977635168
9.76,0.9999916590944347,-98.36520919543774
9.768,0.9999913317736542,-98.60373665953571
9.776,0.999991002451435,-98.84223210712817
9.784,0.9999906711543296,-99.08069547737401
9.792,0.9999903379090958,-99.3191267101087
9.8,0.9999900027426941,-99.55752574584533
9.808,0.9999896656822886,-99.79589252577483
9.816,0.9999893267552427,-100.03422699176699
9.824,0.9999889859891207,-100.27252908637065
9.832,0.9999886434116837,-100.51079875281474
9.84,0.9999882990508888,-100.74903593500835
9.847999999999999,0.9999879529348888,-100.98724057754175
