freq,mag,phase
6.0,0.9989421868403972,-1.2982069463158292
6.009708544,0.9988861880439872,-1.5967442313940516
6.0194176,0.9988884793753965,-1.8950630011830643
6.029126144,0.9989483336564892,-2.1938251567155094
6.0388352,0.9990627561294201,-2.493835236729336
6.048543744,0.9992258409561852,-2.795769631291301
6.058252288,0.9994293187858031,-3.1001876926992677
6.067961344,0.9996625551731406,-3.4075832832201773
6.077669888,0.9999134885939178,-3.7182925149224504
6.087378432,1.0001692303385787,-4.032363796752938
6.097087488,1.0004163727007882,-4.349851646140668
6.106796032,1.0006422452693333,-4.670525109303347
6.116505088,1.0008353454014398,-4.994087347319756
6.126213632,1.0009853771917157,-5.319964622935763
6.135922176,1.00108488711298,-5.647572618458118
6.145631232,1.0011283961516444,-5.976237331535453
6.155339776,1.0011136224052923,-6.305229710351736
6.16504832,1.001041535311642,-6.63374292371291
6.174757376,1.0009154534799514,-6.961016949563071
6.18446592,1.0007420854216482,-7.286492640003294
6.194174976,1.000530210281403,-7.609556750654031
6.20388352,1.0002907663509986,-7.92975629602334
6.213592064,1.000036051625016,-8.24682623323074
6.22330112,0.9997792916444421,-8.560623579292123
6.233009664,0.9995337040975675,-8.871290976059294
6.242718208,0.9993120005170936,-9.178924069861901
6.252427264,0.9991256080768098,-9.484017461246793
6.262135808,0.9989844372154078,-9.787046475880874
6.271844864,0.9988958124957283,-10.088615903852181
6.281553408,0.9988642008330016,-10.38955001836367
6.291261952,0.9988914868704774,-10.690526049186513
6.300971008,0.9989763218886327,-10.992317750279527
6.310679552,0.9991140593814383,-11.295681020857652
6.320388096,0.9992979561777544,-11.601287869685319
6.330097152,0.9995184024412433,-11.909629435975862
6.339805696,0.9997641031536009,-12.221096852756844
6.349514752,1.0000223783573376,-12.536026273413047
6.359223296,1.0002796558408358,-12.8543866433164
6.36893184,1.0005227853614989,-13.17616265566669
6.378640896,1.0007391735199924,-13.501078963492688
6.38834944,1.0009177702244856,-13.828646550609939
6.398058496,1.0010491061556472,-14.15836242811202
6.40776704,1.001126574636125,-14.489571479832106
6.417475584,1.0011459197518513,-14.821515610979022
6.42718464,1.0011061768194056,-15.153435783880957
6.436893184,1.0010093346519044,-15.48458622328749
6.446601728,1.000860277088187,-15.814228133550085
6.456310784,1.0006668317747647,-16.141779947832934
6.466019328,1.0004385499855062,-16.466643832361303
6.475728384,1.0001875640966842,-16.78848383856173
6.485436928,0.9999265891222596,-17.107091726526413
6.495145472,0.9996691822138378,-17.422409859223524
6.504854528,0.9994285851576329,-17.73453333958975
6.514563072,0.9992173796339315,-18.043846577606015
6.524271616,0.9990463703996081,-18.350710293438485
6.533980672,0.9989246801644039,-18.655771007380427
6.543689216,0.9988585873104987,-18.959705586371893
6.553398272,0.9988514788059596,-19.2632466767253
6.563106816,0.9989039684820624,-19.567181418077634
6.57281536,0.9990131568068794,-19.8722840609903
6.582524416,0.9991736022956063,-20.17927508897379
6.59223296,0.9993771270516829,-20.48873025843681
6.601941504,0.9996129701259636,-20.801204557832083
6.61165056,0.9998693923195638,-21.11699213053835
6.621359104,1.0001325480059697,-21.436299748566395
6.63106816,1.0003895541683197,-21.759107987722025
6.640776704,1.0006265284153624,-22.085309217971716
6.650485248,1.0008316615733788,-22.414471850457033
6.660194304,1.0009939229966016,-22.746160544465177
6.669902848,1.0011051892325709,-23.07976968842727
6.679611904,1.0011595658598904,-23.414570133433394
6.689320448,1.001154156923116,-23.749831137506654
6.699028992,1.0010894853989605,-24.084710399867102
6.708738048,1.000968391643573,-24.41853699370418
6.718446592,1.000797239863469,-24.750546285764614
6.728155136,1.0005848454020265,-25.080174273014563
6.737864192,1.0003420256037987,-25.4069305259917
6.747572736,1.0000811167086407,-25.730528848624292
6.757281792,0.9998160487902876,-26.05075682915721
6.766990336,0.9995600262785244,-26.367746734595684
6.77669888,0.999326750720123,-26.681557054363523
6.786407936,0.9991276900192699,-26.992636448591465
6.79611648,0.9989738266153063,-27.30153931134031
6.805825024,0.998872810723503,-27.60887478837751
6.81553408,0.9988301587666876,-27.915344054841636
6.825242624,0.9988479561302104,-28.221809972290313
6.83495168,0.9989254699974986,-28.528950706118895
6.844660224,0.9990587485281422,-28.837578285689347
6.854368768,0.999240891167065,-29.148411720915874
6.864077824,0.9994626370606744,-29.461992588733597
6.873786368,0.9997123510901867,-29.778771497987474
6.883494912,0.9999772580964144,-30.099081762752167
6.893203968,1.0002438669099387,-30.42292576441066
6.902912512,1.0004981489313314,-30.75035069870431
6.912621568,1.0007272072244704,-31.08101837873895
6.922330112,1.0009187777011994,-31.41456255100447
6.932038656,1.0010635045972183,-31.750450496206188
6.941747712,1.001153431147551,-32.0879646432967
6.951456256,1.0011838920069664,-32.42638608633237
6.9611648,1.0011536347171437,-32.76494315057767
6.970873856,1.0010639054824222,-33.10284605311446
6.9805824,1.0009190966366477,-33.43933888217392
6.990291456,1.0007268336772186,-33.77372392169402
7.0,1.0004968415602538,-34.1055247741141
7.009708544,1.0002409460617743,-34.43425562599628
7.0194176,0.9999723275865104,-34.75965542402574
7.029126144,0.9997051069082947,-35.08163663659067
7.0388352,0.9994525762861108,-35.400364312089735
7.048543744,0.9992280230699668,-35.71607365947076
7.058252288,0.999043350159981,-36.02919723739033
7.067961344,0.9989078588070683,-36.340299905784626
7.077669888,0.9988288081781167,-36.6501386213455
7.087378432,0.998810353335236,-36.95939014929646
7.097087488,0.9988533778280504,-37.268962137630616
7.106796032,0.9989558203824308,-37.57962161245698
7.116505088,0.9991124802592822,-37.89203988531898
7.126213632,0.999315261544584,-38.20694539507732
7.135922176,0.9995539049323835,-38.52483856746894
7.145631232,0.9998157320545172,-38.84616490475676
7.155339776,1.000087546255653,-39.171070902259665
7.16504832,1.0003552455586122,-39.49967375136902
7.174757376,1.0006049096236824,-39.831766244348024
7.18446592,1.0008238056081962,-40.16702412372509
7.194174976,1.0010006500713184,-40.5050108814093
7.20388352,1.0011259790785711,-40.84513140329616
7.213592064,1.0011936723416983,-41.18662051710408
7.22330112,1.0011998916776352,-41.528690641156814
7.233009664,1.001144152103348,-41.87058133978209
7.242718208,1.0010296549183715,-42.21152234760962
7.252427264,1.0008618330689973,-42.55069161504027
7.262135808,1.0006495028759004,-42.88754897742507
7.271844864,1.0004034131306483,-43.22151828055232
7.281553408,1.0001362386215107,-43.55226172804193
7.291261952,0.9998618095219467,-43.879593891667334
7.300971008,0.9995941498109777,-44.203443238520656
7.310679552,0.9993471680987722,-44.52408902935705
7.320388096,0.9991337120414752,-44.84179720945236
7.330097152,0.9989647763325537,-45.157105477509276
7.339805696,0.9988490675026324,-45.47069880140607
7.349514752,0.9987929431730452,-45.78321982797537
7.359223296,0.9987991462270014,-46.09558339107535
7.36893184,0.9988674839427695,-46.40849261948311
7.378640896,0.9989946709487,-46.722815925602475
7.38834944,0.9991739317465292,-47.03929503691203
7.398058496,0.9993962530954864,-47.358494266527586
7.40776704,0.9996498985319454,-47.68093124962678
7.417475584,0.9999222936037493,-48.00695020805788
7.42718464,1.0001990603134712,-48.33668829810387
7.436893184,1.0004659117189139,-48.670130181004524
7.446601728,1.0007093149525728,-49.00699200472108
7.456310784,1.000916298010928,-49.346938939883
7.466019328,1.0010764835410932,-49.68943445256353
7.475728384,1.0011814593399753,-50.03381374675082
7.485436928,1.001225731718015,-50.37926252453369
7.495145472,1.001207030480294,-50.72501038940048
7.504854528,1.0011262867037676,-51.07025685355662
7.514563072,1.0009873279124382,-51.41419116515465
7.524271616,1.0007972932475113,-51.756127091435175
7.533980672,1.000566008894087,-52.09543117475616
7.543689216,1.0003054559754838,-52.4316608836389
7.553398272,1.0000286696720828,-52.764482815432466
7.563106816,0.9997501113627727,-53.09381268452088
7.57281536,0.9994841113989272,-53.41972051269785
7.582524416,0.999244502181496,-53.74239146023987
7.59223296,0.9990436878438214,-54.06229294986359
7.601941504,0.9988920664651468,-54.380017743076614
7.61165056,0.9987974559218428,-54.696232324379714
7.621359104,0.9987651533046674,-55.011702894393125
7.63106816,0.9987964033206552,-55.327328017279186
7.640776704,0.9988901903411685,-55.643860439971064
7.650485248,0.9990413272526613,-55.96214026040941
7.660194304,0.9992424871958167,-56.282844481576625
7.669902848,0.9994829762293475,-56.60655350253734
7.679611904,0.9997506188087697,-56.93373104695857
7.689320448,1.0000315480670323,-57.264595625859684
7.699028992,1.0003113706838245,-57.59928834838314
7.708738048,1.0005755203632933,-57.93767122773013
7.718446592,1.0008104955767683,-58.27943369941836
7.728155136,1.0010040310834667,-58.62414479412667
7.737864192,1.001146161657985,-58.97118294708908
7.747572736,1.0012296695203338,-59.319798599256224
7.757281792,1.001249884044032,-59.66926298211752
7.766990336,1.001206058713791,-60.01869960806756
7.77669888,1.0010998991533906,-60.36729237390237
7.786407936,1.000937081096746,-60.71427533057246
7.79611648,1.0007258456247532,-61.05895377665207
7.805825024,1.0004770483042769,-61.400777289992355
7.81553408,1.0002031965419418,-61.73929518755171
7.825242624,0.999918628232567,-62.07428694926747
7.83495168,0.9996377952230434,-62.405725716417564
7.844660224,0.9993754167610802,-62.73373603689425
7.854368768,0.9991450773547528,-63.05861801875282
7.864077824,0.9989584488597566,-63.3809185800822
7.873786368,0.9988254595975247,-63.70119803352191
7.883494912,0.998752982428065,-64.0202662780148
7.893203968,0.9987450648212914,-64.33890617699466
7.902912512,0.9988019109438039,-64.65800758236362
7.912621568,0.9989208032665547,-64.97837756344981
7.922330112,0.9990956663649921,-65.30079459462978
7.932038656,0.999317594852972,-65.62592092386575
7.941747712,0.9995750779124779,-65.9543219734556
7.951456256,0.9998549157954962,-66.28637958458255
7.9611648,1.0001428415700069,-66.62228719533184
7.970873856,1.0004238732593487,-66.96203565718318
7.9805824,1.0006834766317931,-67.30546248474289
7.990291456,1.000908374343177,-67.65218993803414
8.0,1.001086839530818,-68.0017011595444
8.009708544,1.001209804862352,-68.35328587508567
8.0194176,1.0012705393782533,-68.70625424612797
8.029126144,1.001266288304404,-69.05971606622963
8.0388352,1.0011968033886878,-69.4128572515492
8.048543744,1.0010657572006774,-69.7647999439085
8.058252288,1.0008795924866702,-70.1148419178701
8.067961344,1.0006479599614833,-70.46228422191018
8.077669888,1.0003827182042748,-70.80663278139787
8.087378432,1.000097372072886,-71.14751824731822
8.097087488,0.9998066925680095,-71.48476041526284
8.106796032,0.9995255306547952,-71.81836215599051
8.116505088,0.9992685569805285,-72.14860749439207
8.126213632,0.9990489947526953,-72.4758310562079
8.135922176,0.9988781762269612,-72.80062375838283
8.145631232,0.9987651259692973,-73.1237036001847
8.155339776,0.9987157632153556,-73.44578536283183
8.16504832,0.9987327099252059,-73.76779425308784
8.174757376,0.9988152520158925,-74.09056282365503
8.18446592,0.99895910658188,-74.41497684281079
8.194174976,0.9991570191086359,-74.74171865681787
8.20388352,0.9993988162437841,-75.07146548603903
8.213592064,0.99967198036817,-75.40475467339456
8.22330112,0.999962566364578,-75.74186332086714
8.233009664,1.0002557990905623,-76.08291261899184
8.242718208,1.0005361811038396,-76.42783943904585
8.252427264,1.0007895480648452,-76.77641000150992
8.262135808,1.0010027179899856,-77.12815901851714
8.271844864,1.001164579892995,-77.48248266386024
8.281553408,1.0012670373744494,-77.83870174938538
8.291261952,1.0013044586477966,-78.19597603674394
8.300971008,1.0012748601253112,-78.55347067144687
8.310679552,1.0011798392187967,-78.91024380416847
8.320388096,1.0010239738498778,-79.26554936220454
8.330097152,1.0008151966979557,-79.61867248780095
8.339805696,1.0005641873461164,-79.96887247623484
8.349514752,1.000283782038718,-80.31577706272031
8.359223296,0.999988523778621,-80.65903889115332
8.36893184,0.9996933140204404,-80.9985884978196
8.378640896,0.9994135363673693,-81.33450894986555
8.38834944,0.9991635316307365,-81.66707581432945
8.398058496,0.9989565629376455,-81.99679047823236
8.40776704,0.9988030217571425,-82.32422201541988
8.417475584,0.9987111654594955,-82.65020700965182
8.42718464,0.9986856709924418,-82.97552539859643
8.436893184,0.998727949559601,-83.30109049613665
8.446601728,0.99883620603985,-83.62774234888116
8.456310784,0.9990046602298381,-83.95633158472023
8.466019328,0.999224909913725,-84.28763650039345
8.475728384,0.9994854648369684,-84.62219441367442
8.485436928,0.9997731690624326,-84.96047253230118
8.495145472,1.0000730082875968,-85.30273182835008
8.504854528,1.0003697018521607,-85.64901206925322
8.514563072,1.0006478908820085,-85.99922352592897
8.524271616,1.0008933777769575,-86.35298649591053
8.533980672,1.0010932722280206,-86.70979579303376
8.543689216,1.0012373603863414,-87.06900117415233
8.553398272,1.0013181768722688,-87.42982382623968
8.563106816,1.0013314114363097,-87.79142522810352
8.57281536,1.0012762928110879,-88.15288975267606
8.582524416,1.0011556001881567,-88.51335413503989
8.592233472,1.0009752648807682,-88.87203112569833
8.601942016,1.0007446680297423,-89.2281474625746
8.61165056,1.0004753158809732,-89.58116241544755
8.621359104,1.0001813350929956,-89.93063250740859
8.631067648,0.9998773383964396,-90.27631907817793
8.640776192,0.9995793243184794,-90.61822697273082
8.65048576,0.9993025757964811,-90.95650190331939
8.660194304,0.9990613534682526,-91.29151652995091
8.669902848,0.9988682715369034,-91.62381848337664
8.679611392,0.9987332745405647,-91.95406850917928
8.689319936,0.9986634891968442,-92.28309396130477
8.699029504,0.998662681422851,-92.61178164763837
8.708738048,0.9987308449562967,-92.94105669981195
8.718446592,0.9988646887561219,-93.2717573268837
8.728155136,0.9990575484175589,-93.60475946836966
8.73786368,0.9992992518108607,-93.94070152779307
8.747573248,0.9995776652154266,-94.2802113983526
8.757281792,0.9998783617545025,-94.62363411109155
8.766990336,1.000185964369727,-94.97118983810519
8.77669888,1.0004846266814051,-95.32279826084131
8.786407424,1.0007589798785506,-95.67834176722602
8.796116992,1.0009948628777783,-96.03736177364847
8.805825536,1.001180082652811,-96.39927010238227
8.81553408,1.0013050773833978,-96.76335812196807
8.825242624,1.001363308990496,-97.12878709259964
8.834951168,1.0013517460559367,-97.49467070058839
8.844659712,1.0012707183941945,-97.86009577777135
8.85436928,1.0011243277177866,-98.22421288193458
8.864077824,1.000919969239671,-98.58619287370871
8.873786368,1.0006680672919954,-98.94533719496901
8.883494912,1.0003815478112994,-99.30113398500477
8.893203456,1.0000748123408416,-99.6531963902587
8.902913024,0.9997638697534514,-100.0013369433135
8.912621568,0.9994645303250206,-100.34564721933434
8.922330112,0.9991924830873485,-100.68632864964515
8.932038656,0.9989615025781726,-101.0238448064552
8.9417472,0.9987836542166011,-101.3588234614849
8.951456768,0.9986683824816572,-101.69202018297194
8.961165312,0.9986217157985737,-102.02425553820207
8.970873856,0.9986460032307595,-102.35645499941845
8.9805824,0.9987403813463013,-102.68957317570111
8.990290944,0.9988997817821774,-103.02448500201412
8.999999488,0.9991165363105948,-103.3619895806585
9.009709056,0.9993790594759951,-103.70274372487452
9.0194176,0.9996742698549393,-104.0473046369828
9.029126144,0.9999868016746639,-104.39598177811206
9.038834688,1.0003007692568933,-104.74887867959488
9.048543232,1.000599874997063,-105.10594192878187
9.0582528,1.0008688621883564,-105.4668472773786
9.067961344,1.001093655681444,-105.8311215511567
9.077669888,1.0012628277997384,-106.19814255531887
9.087378432,1.0013675654115588,-106.56707453797111
9.097086976,1.0014023167044726,-106.93707944769332
9.106796544,1.0013652905336112,-107.30725459796948
9.116505088,1.0012581090032717,-107.67660350340202
9.126213632,1.0010861915637983,-108.04431454377337
9.135922176,1.0008583456258249,-108.40956699798492
9.14563072,1.0005859797797325,-108.77173058663179
9.155340288,1.0002830761637416,-109.13026404570098
9.165048832,0.9999650261000504,-109.48489119111666
9.174757376,0.9996484209369371,-109.83552122824177
9.18446592,0.999349259544169,-110.18223833754851
9.194174464,0.9990832171658637,-110.52540759957066
9.203883008,0.9988638905422959,-110.86552420518737
9.213592576,0.9987028058033022,-111.20324644696876
9.22330112,0.9986083793096521,-111.53945992338598
9.233009664,0.9985855949981564,-111.87499072217423
9.242718208,0.9986357367845938,-112.21084002230664
9.252426752,0.9987564261013735,-112.5479060909468
9.26213632,0.9989413725161153,-112.88715647262345
9.271844864,0.9991814598411113,-113.22928873361732
9.281553408,0.9994641527504389,-113.57497456414346
9.291261952,0.9997750934444463,-113.92469439582236
9.300970496,1.0000982888152932,-114.27869475110074
9.310680064,1.0004171189845492,-114.63703572694986
9.320388608,1.0007153088275147,-114.99951554486768
9.330097152,1.0009773140517033,-115.36583959828613
9.339805696,1.0011897494644524,-115.7354196117555
9.34951424,1.001341634687317,-116.10748938750807
9.359223808,1.0014250356729986,-116.48127874248515
9.368932352,1.0014355139174183,-116.85581034625943
9.378640896,1.0013724166416729,-117.23016967902541
9.38834944,1.001238901145256,-117.60342974565124
9.398057984,1.0010415594906397,-117.97468311769076
9.407766528,1.0007903965747766,-118.34315990959105
9.417476096,1.0004982513280387,-118.70824378446197
9.42718464,1.000180042548839,-119.0695055094329
9.436893184,0.9998519544023337,-119.42667468725492
9.446601728,0.9995308547568669,-119.77976274992353
9.456310272,0.9992334030587465,-120.12891796548956
9.46601984,0.9989748688502815,-120.47458025816339
9.475728384,0.9987686826928843,-120.81730618002777
9.485436928,0.9986254962281086,-121.157869265527
9.495145472,0.9985529737980849,-121.49714996055909
9.504854016,0.9985549840298029,-121.83608682407024
9.514563584,0.9986314267833027,-122.17565769962594
9.524272128,0.9987786023437693,-122.51684095064954
9.533980672,0.9989890912284611,-122.86045902706947
9.543689216,0.9992521873703077,-123.20731691844188
9.55339776,0.9995543330658149,-123.55798630400767
9.563106304,0.9998801321714981,-123.91294467123002
9.572815872,1.0002128532622812,-124.27233475140284
9.582524416,1.000535403218669,-124.63614242915051
9.59223296,1.0008312403001445,-125.00410820060397
9.601941504,1.0010849916118971,-125.37583010020349
9.611650048,1.0012837539952613,-125.75066274625564
9.621359616,1.0014170891394119,-126.12779980707926
9.63106816,1.0014781698848692,-126.5063773182375
9.640776704,1.0014635929657745,-126.88540406903864
9.650485248,1.0013740215606073,-127.2639154894214
9.660193792,1.001213820945402,-127.6409814665267
9.66990336,1.0009911383929013,-128.01569141524794
9.679611904,1.0007171712176532,-128.38732838981582
9.689320448,1.0004059311381084,-128.7552831321344
9.699028992,1.0000731933779476,-129.11920246432572
9.708737536,0.9997361255779392,-129.478896391973
9.718447104,0.9994118235145362,-129.8343889197791
9.728155648,0.9991173502750068,-130.18597697495392
9.737864192,0.9988676330294981,-130.53411715532812
9.747572736,0.9986757292798485,-130.87948914554383
9.75728128,0.9985517766872285,-131.22291265242444
9.766989824,0.998502080847032,-131.5653249522612
9.776699392,0.9985295946378241,-131.90770140027277
9.786407936,0.9986329644993953,-132.2510654000445
9.79611648,0.9988069136806971,-132.59635587899936
9.805825024,0.9990428145923721,-132.94446656749875
9.815533568,0.9993286080915587,-133.2961284109959
9.825243136,0.9996495827716242,-133.6518737470025
9.83495168,0.9999893524441498,-134.01209127491828
9.844660224,1.000330481296039,-134.37688086399493
9.854368768,1.0006554492790276,-134.74618027251012
9.864077312,1.0009476031061644,-135.11963846123555
9.87378688,1.001191929075585,-135.49674972549093
