freq,mag,phase
6.0,0.999958922311253,-86.1960287105143
6.00865792,0.9999316662896329,-86.59121298474996
6.01731584,0.9999084182156345,-86.98606509144611
6.025974272,0.9998903998187259,-87.38071137172687
6.034632192,0.9998781532842119,-87.77513457331838
6.043290112,0.9998725147466657,-88.16952170165939
6.051948032,0.9998737913006797,-88.5638360430185
6.060605952,0.9998818240171028,-88.95832495610934
6.069263872,0.9998963373967107,-89.35291711865382
6.077922304,0.9999163472195941,-89.74778244972045
6.086580224,0.9999411237443242,-90.14295864820916
6.095238144,0.9999690066524322,-90.53851817385434
6.103896064,0.9999988891669633,-90.93447541769048
6.112553984,1.0000289033510377,-91.33086651641058
6.121211904,1.0000577359975948,-91.72762104629248
6.129870336,1.0000837115321235,-92.1248115564197
6.138528256,1.0001056319253707,-92.52231580453775
6.147186176,1.0001222091151896,-92.92011626836411
6.155844096,1.0001324658163748,-93.31810330500419
6.164502016,1.0001362200516393,-93.71623570254653
6.173159936,1.0001328136191254,-94.11439808461756
6.181818368,1.0001228529454405,-94.51243957771904
6.190476288,1.000106622594563,-94.91036464812096
6.199134208,1.0000849745589242,-95.30808550179653
6.207792128,1.0000590937494878,-95.7054558689078
6.216450048,1.0000302768712093,-96.10252386763501
6.22510848,1.0000001471275812,-96.49924837773492
6.2337664,0.9999700373886026,-96.89560122362604
6.24242432,0.9999418577977162,-97.29157563954337
6.25108224,0.9999167838630942,-97.68718416910723
6.25974016,0.9998964458636188,-98.08254627405991
6.26839808,0.9998815407816083,-98.47769956225322
6.277056512,0.999873042177022,-98.87270926573737
6.285714432,0.9998714763402374,-99.2676832866557
6.294372352,0.9998768571206876,-99.66268131318206
6.303030272,0.999888803599492,-100.05786095306541
6.311688192,0.9999067818063365,-100.45321523934179
6.320346112,0.9999299334408979,-100.84887811009334
6.329004544,0.9999569580953518,-101.2448739978263
6.337662464,0.9999864821827633,-101.64129061737357
6.346320384,1.000016854265927,-102.03814850814275
6.354978304,1.0000467551344023,-102.43534883734057
6.363636224,1.0000742339301012,-102.83300224886504
6.372294144,1.0000981222775056,-103.23102768783865
6.380952576,1.000117095665039,-103.62933364825737
6.389610496,1.0001301541895116,-104.02787393832615
6.398268416,1.0001367563721806,-104.42657488514365
6.406926336,1.0001362235647833,-104.82528930183588
6.415584256,1.000128887639797,-105.22399577013003
6.424242176,1.0001150195573065,-105.62259951576976
6.432900608,1.0000953352304291,-106.02100517922834
6.441558528,1.0000707942847082,-106.41911303970578
6.450216448,1.000042811345172,-106.81688256378358
6.458874368,1.0000128497446354,-107.21433037166578
6.467532288,0.9999822891465882,-107.61140955798096
6.47619072,0.9999528740001664,-108.00804031541203
6.48484864,0.9999261733469512,-108.40439808453891
6.49350656,0.9999034259044672,-108.80041660914675
6.50216448,0.9998860774997443,-109.19617107754136
6.5108224,0.9998747742968258,-109.5917730739507
6.51948032,0.9998703325325752,-109.9872815800181
6.528138752,0.9998728060859426,-110.38278928381995
6.536796672,0.9998821414121931,-110.7784139715968
6.545454592,0.9998979609554123,-111.17417938533353
6.554112512,0.9999192453914821,-111.57026607545083
6.562770432,0.9999450957614451,-111.96664184123544
6.571428352,0.9999739966711755,-112.36338986109095
6.580086784,1.0000044526504666,-112.76056662256438
6.588744704,1.0000349016780237,-113.1581404999874
6.597402624,1.000063842025823,-113.55614388839419
6.606060544,1.0000896224535143,-113.95454858375845
6.614718464,1.0001109405747945,-114.35324285136615
6.623376384,1.000126723381361,-114.75220173358207
6.632034816,1.0001361563168245,-115.15132304145237
6.640692736,1.0001386037256368,-115.55057342542007
6.649350656,1.0001340960107685,-115.94981413227214
6.658008576,1.000122691975504,-116.34900264275737
6.666666496,1.000105136462363,-116.74794197474164
6.675324928,1.0000822003775574,-117.14669502602673
6.683982848,1.0000552995332814,-117.54511810665082
6.692640768,1.000025729536258,-117.94317679315279
6.701298688,0.9999948489194431,-118.34086490941752
6.709956608,0.9999645074681449,-118.7381194322424
6.718614528,0.9999363348549839,-119.13504447968046
6.72727296,0.9999115502074317,-119.53163270250009
6.73593088,0.9998916678468077,-119.9279594003617
6.7445888,0.9998776778915912,-120.32402907104216
6.75324672,0.9998702275507161,-120.72000528484018
6.76190464,0.9998698990760336,-121.11593777006604
6.77056256,0.9998765704996325,-121.51192490852628
6.779220992,0.9998897699409561,-121.90803516225164
6.787878912,0.9999091464440589,-122.30440324588213
6.796536832,0.9999335375086674,-122.70105462055137
6.805194752,0.9999615189146766,-123.09806764440077
6.813852672,0.9999918068205569,-123.49545766106712
6.822510592,1.0000228284951425,-123.89327820502257
6.831169024,1.0000527470297618,-124.29154296160127
6.839826944,1.00008037898338,-124.6901723487149
6.848484864,1.0001038473465291,-125.08914847443354
6.857142784,1.0001221782200147,-125.48846534101833
6.865800704,1.0001344044528104,-125.88791577597148
6.874458624,1.0001398157802757,-126.28754173408785
6.883117056,1.0001381926664432,-126.68721707016196
6.891774976,1.000129438887744,-127.08679075039092
6.900432896,1.0001142021395977,-127.48623503252121
6.909090816,1.000093211355317,-127.88549505148904
6.917748736,1.000067558621087,-128.28440555378324
6.926407168,1.0000385601675934,-128.6829909389848
6.935065088,1.000007783448319,-129.08120929470064
6.943723008,0.9999767641142279,-129.47902091908134
6.952380928,0.999947199832954,-129.87642814687732
6.961038848,0.999920626578835,-130.27348304999464
6.969696768,0.9998983641620436,-130.67022442239912
6.9783552,0.999881658468596,-131.06672966300295
6.98701312,0.9998713813859997,-131.46306297716944
6.99567104,0.9998680539894098,-131.85928834367337
7.00432896,0.9998718344586286,-132.25553548711247
7.01298688,0.999882623664266,-132.6519089146099
7.0216448,0.9998997537988239,-133.04849032237317
7.030303232,0.9999223094400748,-133.44534512553338
7.038961152,0.9999492153776972,-133.842484456733
7.047619072,0.9999789979214916,-134.24002477037826
7.056276992,1.0000101653865907,-134.6379882960302
7.064934912,1.000041024696016,-135.03637319303783
7.073592832,1.000070086250852,-135.4351441340698
7.082251264,1.0000956861246357,-135.8343215609735
7.090909184,1.0001165329156447,-136.23377850398256
7.099567104,1.000131525415282,-136.63347916721992
7.108225024,1.0001398724041037,-137.03337927781385
7.116882944,1.0001411076112827,-137.4332828138974
7.125541376,1.0001352184093057,-137.833244431723
7.134199296,1.000122518230961,-138.23302761954133
7.142857216,1.000103612729333,-138.6326527739503
7.151515136,1.0000794729386153,-139.03198531349014
7.160173056,1.0000514666003326,-139.43098386057957
7.168830976,1.0000209900505015,-139.82961177699826
7.177489408,0.9999895785343786,-140.22782440437425
7.186147328,0.9999589125840891,-140.62564879220574
7.194805248,0.9999306499484939,-141.02306811410992
7.203463168,0.9999062638078433,-141.42016842628368
7.212121088,0.9998869230000109,-141.81697002038862
7.220779008,0.9998737398239301,-142.2135964000477
7.22943744,0.9998673918011232,-142.61004873056098
7.23809536,0.9998682402492732,-143.00649301549623
7.24675328,0.9998762558248735,-143.40302780511774
7.2554112,0.9998910003473933,-143.79967752264938
7.26406912,0.9999116082264554,-144.19658391735314
7.27272704,0.999937098383749,-144.5937988235814
7.281385472,0.9999661627765662,-144.9913865971542
7.290043392,0.9999973076355879,-145.38935954859588
7.298701312,1.0000288095971874,-145.78775223721777
7.307359232,1.0000591102027163,-146.1865831498384
7.316017152,1.0000865016087994,-146.5857815569233
7.324675072,1.0001097316529264,-146.98534273321926
7.333333504,1.0001274524133155,-147.38513913905376
7.341991424,1.0001387002374325,-147.78512633944797
7.350649344,1.0001429784160234,-148.18525491894823
7.359307264,1.000140049774309,-148.58539037245524
7.367965184,1.000129995157876,-148.98542793321354
7.376623616,1.0001134250526855,-149.38528652004192
7.385281536,1.000091091048651,-149.784933690016
7.393939456,1.0000642519958922,-150.1842212048457
7.402597376,1.0000342746843944,-150.58313994930768
7.411255296,1.000002703064674,-150.98168049852617
7.419913216,0.9999712969107474,-151.3797931064826
7.428571648,0.9999415429460826,-151.7775163844904
7.437229568,0.9999150504903361,-152.17485298023396
7.445887488,0.9998933121047451,-152.57188985006746
7.454545408,0.9998772395844256,-152.96867605210937
7.463203328,0.9998679937903067,-153.36527135265155
7.471861248,0.9998658127788367,-153.76182098679135
7.48051968,0.9998708803021839,-154.15839040299835
7.4891776,0.9998829836952391,-154.55508035532114
7.49783552,0.9999014945219693,-154.95196818074024
7.50649344,0.9999253553465215,-155.34913312294563
7.51515136,0.9999533730154819,-155.7466366711898
7.52380928,0.9999842310432613,-156.14450293244417
7.532467712,1.0000160708565407,-156.54282262712897
7.541125632,1.0000473723177392,-156.9415538374668
7.549783552,1.0000764808229066,-157.34066377742346
7.558441472,1.0001018640055417,-157.74014786611414
7.567099392,1.0001221518638546,-158.13993435380038
7.575757824,1.0001363245664407,-158.53996256147076
7.584415744,1.0001437038572676,-158.94011778861687
7.593073664,1.000143651603396,-159.340319697374
7.601731584,1.0001364547965397,-159.74047674625976
7.610389504,1.0001223714586442,-160.14049374559792
7.619047424,1.0001020648809231,-160.54029336954628
7.627705856,1.000076787751902,-160.9397970415645
7.636363776,1.000047588893352,-161.33894081455304
7.645021696,1.000016160302883,-161.73765021509203
7.653679616,0.9999840961709198,-162.13594735285892
7.662337536,0.9999531721827888,-162.5338655425845
7.670995456,0.9999247870284403,-162.93138005111282
7.679653888,0.999900768471943,-163.32853381071982
7.688311808,0.999882009559525,-163.72540771290645
7.696969728,0.9998697846102316,-164.12204944229964
7.705627648,0.9998644311782923,-164.5186134122014
7.714285568,0.9998666704396524,-164.91512201503792
7.722943488,0.9998759073541754,-165.31172484854326
7.73160192,0.9998920631080978,-165.70848637930152
7.74025984,0.9999140859148427,-166.10549040565982
7.74891776,0.9999408438093553,-166.50283656761107
7.75757568,0.9999709957066196,-166.90052386402735
7.7662336,1.0000029691896293,-167.29862756530142
7.77489152,1.0000349731045404,-167.69714807488145
7.783549952,1.0000655803726872,-168.09608882368914
7.792207872,1.0000929895023232,-168.49540685331823
7.800865792,1.0001157043681483,-168.89503721107738
7.809523712,1.0001327379221645,-169.29491814631712
7.818181632,1.0001430881394928,-169.695021898815
7.826840064,1.000146263133459,-170.0951890285964
7.835497984,1.0001419258156505,-170.49532469871866
7.844155904,1.0001305451862301,-170.89537363125774
7.852813824,1.0001125626211285,-171.29523319048724
7.861471744,1.0000888614032124,-171.69481796337863
7.870129664,1.0000608491750738,-172.0940292239082
7.878788096,1.000029781624907,-172.49286160075823
7.887446016,0.9999974496212327,-172.89127963725096
7.896103936,0.9999655399793718,-173.2892563791545
7.904761856,0.999935584209143,-173.68680327339868
7.913419776,0.9999092984236574,-174.08399466480319
7.922077696,0.9998879290628369,-174.48088124942643
7.930736128,0.9998727030612256,-174.8775007131488
7.939394048,0.9998643782134279,-175.27393567664353
7.948051968,0.9998634642225643,-175.67034930206697
7.956709888,0.9998698259193004,-176.06675980495677
7.965367808,0.9998834474311902,-176.46330448661064
7.974025728,0.9999033379558571,-176.86008573640194
7.98268416,0.999928557556243,-177.2571344478325
7.99134208,0.9999577932489117,-177.6545246655272
8.0,0.9999896463369571,-178.052335544531
8.00865792,1.0000222040908913,-178.45055384710324
8.01731584,1.0000538987938197,-178.84918400232422
8.025974272,1.000083108890361,-179.24820948798686
8.034632192,1.0001083255251566,-179.64758141034793
8.043290112,1.0001280130846244,179.95276019273376
8.051948032,1.000141319412349,179.5528680216675
8.060605952,1.0001475816654142,179.15286937706068
8.069263872,1.000146441175433,178.75285712650106
8.077922304,1.0001378729755548,178.3528725457149
8.086580224,1.0001222116302901,177.95310585415518
8.095238144,1.000100603956458,177.5535682498347
8.103896064,1.000073818036465,177.15435394746652
8.112553984,1.0000435625382622,176.7555227736919
8.121211904,1.0000111841641204,176.357110947425
8.129870336,0.9999784419517571,175.9591447973667
8.138528256,0.9999471899596306,175.56161596103308
8.147186176,0.9999188372936243,175.16449749243122
8.155844096,0.9998949573494519,174.7677064451182
8.164502016,0.9998768818471234,174.37122095941922
8.173159936,0.9998654892302656,173.9749146801784
8.181818368,0.9998614773967336,173.5787548397051
8.190476288,0.9998648629967951,173.18258336595534
8.199134208,0.9998756776315101,172.78635156522415
8.207792128,0.9998932243592146,172.3899206199725
8.216450048,0.999916767109658,171.99324288593874
8.22510848,0.9999447582367019,171.5962425954292
8.2337664,0.9999760535211492,171.19883954689155
8.24242432,1.000008891265532,170.80105540799008
8.25108224,1.0000414967038949,170.40282751809164
8.25974016,1.0000722849926909,170.00421501205514
8.26839808,1.0000995915234987,169.60521394678184
8.277056512,1.000122065985441,169.20586883765094
8.285714432,1.0001383717389725,168.80631632615152
8.294372352,1.000147678499057,168.406614771395
8.303030272,1.0001496214353927,168.00680187715633
8.311688192,1.0001439896548279,167.60704366325768
8.320346112,1.0001311371611896,167.20741880482888
8.329004544,1.0001116178065144,166.808036998322
8.337662464,1.0000865046916274,166.40897382502385
8.346320384,1.0000571574396178,166.0102171942596
8.354978304,1.0000251518525636,165.61191556048985
8.363636224,0.9999919898333013,165.21408579660508
8.372294144,0.9999593768634724,164.81664978842213
8.380952576,0.9999292916794736,164.4196486453424
8.389610496,0.9999031308235506,164.02305270468258
8.398268416,0.9998823117111372,163.62677247560765
8.406926336,0.9998679161888903,163.2307571101375
8.415584256,0.999860714085069,162.8348693940691
8.424242176,0.9998608938588598,162.4390566136196
8.432900608,0.9998687807339702,162.04319126890456
8.441558528,0.9998838667978972,161.64718158868257
8.450216448,0.9999052604466776,161.25097536841997
8.458874368,0.9999318569936043,160.85444372749856
8.467532288,0.999962451354245,160.45757411072705
8.47619072,0.9999951861727812,160.06028561535396
8.48484864,1.0000285961392377,159.66256737857984
8.49350656,1.0000607149815388,159.26445355914296
8.50216448,1.0000900435249331,158.86591257630354
8.5108224,1.00011484282155,158.4670679835023
8.51948032,1.0001341243667146,158.06790639697854
8.528138752,1.0001466313193619,157.66858540332268
8.536796672,1.0001517455642184,157.26914443807993
8.545454592,1.000149105496808,156.86972342222666
8.554112512,1.0001390952586913,156.47037964220726
8.562770432,1.000122006361262,156.0712124335917
8.571428352,1.0000988236975714,155.6723596859305
8.580086784,1.0000706711496228,155.27383676752544
8.588744704,1.0000390908692531,154.87572906605075
8.597402624,1.0000057554103874,154.4780479722726
8.606060544,0.9999723780776046,154.0808565093264
8.614718464,0.9999406686611956,153.68408613315754
8.623376384,0.9999124041996444,153.28775058147824
8.632034304,0.9998888539710947,152.89174252449783
8.640692224,0.9998714585468804,152.49604700651892
8.649350144,0.9998610837916359,152.1005391242672
8.658009088,0.9998581688149571,151.7051327951886
8.666667008,0.9998630084228597,151.30974076386343
8.675324928,0.9998752476534057,150.9142561859924
8.683982848,0.9998943607971733,150.51856644007856
8.692640768,0.9999192753874161,150.12261115645316
8.701298688,0.999948823569574,149.726320112161
8.709956608,0.999981284104787,149.32963101493743
8.718614528,1.0000150654571045,148.93254202709798
8.727272448,1.0000483235681334,148.53499378249813
8.735930368,1.0000794688496442,148.13706465182656
8.744588288,1.000106725410619,147.73876042124286
8.753247232,1.0001286465087125,147.34014893714468
8.761905152,1.0001442115632635,146.94129247093673
8.770563072,1.0001525186956703,146.54230644566616
8.779220992,1.0001531020727843,146.14329914829318
8.787878912,1.0001460405939762,145.74433957734433
8.796536832,1.0001315487581377,145.34552447999835
8.805194752,1.0001105068034855,144.9469756192295
8.813852672,1.0000839651298217,144.54875029236663
8.822510592,1.0000532372555624,144.15093662834033
8.831168512,1.0000199999834405,143.75352360551693
8.839826432,0.9999859033942327,143.35660818733362
8.848484352,0.9999529838239004,142.96015491002578
8.857143296,0.9999226015210962,142.56412719102343
8.865801216,0.9998966447999937,142.1684919060027
8.874459136,0.9998762969982684,141.77319960754826
8.883117056,0.9998627351536828,141.37810093991735
8.891774976,0.9998564937843368,140.98319120922343
8.900432896,0.9998582232558053,140.58833493260406
8.909090816,0.9998675704499459,140.19341783321468
8.917748736,0.9998841359613168,139.79834255992972
8.926406656,0.9999072246062838,139.40303928914926
8.935064576,0.999935331732951,139.0074041429158
8.943722496,0.9999670716314384,138.61139348901906
8.95238144,1.0000010327507094,138.2150002682477
8.96103936,1.00003515450676,137.8181443872475
8.96969728,1.0000677768378337,137.42089135289547
8.9783552,1.0000972020808725,137.0232289886187
8.98701312,1.0001217862907643,136.6252436648444
8.99567104,1.000140380365437,136.22699658897844
9.00432896,1.0001519754295767,135.82856619427616
9.01298688,1.0001557760209088,135.4300484130016
9.0216448,1.000151778853808,135.03154746758028
9.03030272,1.0001401761518605,134.6331869452723
9.03896064,1.000121528216338,134.23504277554207
9.04761856,1.0000966910461526,133.83719221696117
9.056277504,1.000067066330796,133.43971970974513
9.064935424,1.0000342663314457,133.04270768729722
9.073593344,0.9999999393704114,132.64613027565665
9.082251264,0.9999657184377505,132.25004406934303
9.090909184,0.9999336449478123,131.85440333951036
9.099567104,0.9999053386127008,131.45918351657303
9.108225024,0.9998822509087156,131.06433537907495
9.116882944,0.9998654991752749,130.66976211981648
9.125540864,0.9998561385306467,130.2754143276494
9.134198784,0.999854519338801,129.88111449799143
9.142856704,0.9998608179076561,129.48683961017144
9.151515648,0.999874822603572,129.09243588511086
9.160173568,0.9998955496370656,128.69783621989677
9.168831488,0.9999220499336856,128.30295007133276
9.177489408,0.9999530678015763,127.9077096407085
9.186147328,0.9999867871677164,127.51206254174738
9.194805248,1.0000214191480727,127.1159875793266
9.203463168,1.0000554455664077,126.71947499494777
9.212121088,1.000086772179339,126.32255384297058
9.220779008,1.0001138880659473,125.92527964824258
9.229436928,1.00013545358423,125.52770976146138
9.238094848,1.0001502063312022,125.12991996211673
9.246752768,1.000157409032224,124.73199468727786
9.255411712,1.0001565866805742,124.33406711290155
9.264069632,1.0001479342404376,123.93620407336151
9.272727552,1.0001317881706169,123.53854376334331
9.281385472,1.0001090551436627,123.14114383151352
9.290043392,1.000080874552956,122.74411862396398
9.298701312,1.0000487542624532,122.34750821952781
9.307359232,1.0000142860278658,121.95137150384039
9.316017152,0.9999793041607199,121.55570425024692
9.324675072,0.999945734600827,121.16051404214741
9.333332992,0.9999152947716767,120.76577879944534
9.341990912,0.9998894344017344,120.37142522804018
9.350649856,0.9998696390307065,119.97740997784678
9.359307776,0.9998569733106203,119.58363381557473
9.367965696,0.9998521870228612,119.18999716797882
9.376623616,0.9998553018874901,118.7963988561766
9.385281536,0.9998662733815549,118.40274716306308
9.393939456,0.9998845971470083,118.00889604747408
9.402597376,0.9999092710577793,117.61479858351954
9.411255296,0.9999389489922725,117.22037286137291
9.419913216,0.9999722579580848,116.82554245613005
9.428571136,1.0000073113699173,116.43031110321584
9.437229056,1.0000423606712212,116.03463369792294
9.445886976,1.0000753810051177,115.63852155400772
9.45454592,1.0001049086240728,115.24202768945497
9.46320384,1.0001292312792036,114.8452160241899
