freq,mag,phase
6.0,1.0007948735952559,131.86298036012286
6.002285568,1.0010242198175696,131.69266044502697
6.004571648,1.0011894379067399,131.51948406426274
6.006857216,1.0012794114154753,131.34451864818874
6.009142784,1.001288499668605,131.16885874496404
6.011428352,1.0012161687567678,130.99368098950586
6.013714432,1.0010667489663345,130.82015677598076
6.016,1.0008497802122205,130.6492968352578
6.018285568,1.0005788761891254,130.48201867250668
6.020571648,1.0002711163928304,130.3189485169635
6.022857216,0.9999460103146278,130.1605223231874
6.025142784,0.9996240691915795,130.00682172286213
6.027428352,0.9993256060692458,129.85766617611534
6.029714432,0.9990695915192114,129.71257112206814
6.032,0.9988721316781052,129.5708343599398
6.034285568,0.9987461339997454,129.43148029729196
6.036571648,0.9986992956183008,129.2934207616668
6.038857216,0.9987346830637766,129.1554697669114
6.041142784,0.9988501957560212,129.0164593424543
6.043428352,0.9990383918148777,128.87530624132967
6.045714432,0.9992873404607949,128.73097777019964
6.048,0.9995813959050679,128.582719951364
6.050285568,0.9999019811270013,128.4300597955765
6.052571648,1.0002285570261953,128.27269474900578
6.054857216,1.000540778557307,128.110738556836
6.057142784,1.000818712141443,127.94453242027555
6.059428352,1.0010448462474046,127.7747248824625
6.061714432,1.0012049582053386,127.60211473191923
6.064,1.0012887713332996,127.42780745411109
6.066285568,1.0012911143974201,127.25289040027408
6.068571648,1.0012117977091328,127.07855888254136
6.070857216,1.0010557847571293,126.90597213751126
6.073142784,1.0008328649158424,126.73614131558719
6.075428352,1.0005570527843162,126.56997011033589
6.077714432,1.0002457685178716,126.4080824993067
6.08,0.9999187351500965,126.25083642315377
6.082285568,0.9995966008305902,126.09835551099258
6.084571648,0.9992996818767294,125.95041859850312
6.086857216,0.9990468486674114,125.80653266990734
6.089142784,0.9988541256039221,125.66590230950511
6.091428352,0.9987338623522498,125.52758526765159
6.093714432,0.998693574127114,125.39047109245205
6.096,0.998735947454154,125.25340074216633
6.098285568,0.9988584134853039,125.1151523851059
6.100571648,0.9990529526287139,124.9746181915551
6.102857216,0.9993074996750018,124.83085256245653
6.105142784,0.9996058148097586,124.68311492813591
6.107428352,0.9999290672730123,124.53086864365262
6.109714432,1.0002566885794848,124.37393753914529
6.112,1.0005680747111598,124.2123923265495
6.114285568,1.0008434590839332,124.04662837010652
6.116571648,1.001065490594969,123.87728057967452
6.118857216,1.001220139175939,123.70524078166103
6.121142784,1.0012976326778347,123.53155648754564
6.123428352,1.0012931227836022,123.3573917543305
6.125714432,1.0012067372561113,123.18389048291247
6.128,1.0010439096357924,123.01221037008445
6.130285568,1.0008150257428055,122.84342780673637
6.132571648,1.000534339312359,122.67834838749553
6.134857216,1.0002196907692478,122.51759194872028
6.137142784,0.999890758425332,122.36155932441197
6.139428352,0.9995684853760565,122.21029815159709
6.141714432,0.9992733345209166,122.0635600470816
6.144,0.9990238818256234,121.92083136570417
6.146285568,0.9988360639698161,121.78129511081467
6.148571648,0.9987217702411706,121.6440048624732
6.150857216,0.998688341621282,121.50782019586518
6.153142784,0.9987378577390698,121.37155045604476
6.155428352,0.9988673362024073,121.23402937922651
6.157714432,0.9990684651481432,121.09413360660288
6.16,0.9993284383107337,120.95088627057837
6.162285568,0.9996307936778231,120.80360343130012
6.164571648,0.9999567487746781,120.65176408749521
6.166857216,1.0002853021478737,120.49522893209806
6.169142784,1.0005956519846482,120.33407006436042
6.171428352,1.0008684048622951,120.16872123402298
6.173714432,1.0010862372986487,119.99983448214029
6.176,1.001235289138797,119.82833757254464
6.178285568,1.001306298868334,119.65528334841736
6.180571648,1.0012946178093638,119.48181128713041
6.182857216,1.0012010726587872,119.309131625066
6.185142784,1.0010314158576454,119.1383645385599
6.187428352,1.0007963618396172,118.97057424719101
6.189714432,1.000510866236665,118.80658295018848
6.192,1.0001927518000464,118.64702912335622
6.194285568,0.9998621818339981,118.49215024819935
6.196571648,0.9995400769690072,118.34209352677472
6.198857216,0.9992467053712065,118.19652319050995
6.201142784,0.9990009888582172,118.05493922249313
6.203428352,0.9988182011439904,117.91648135324881
6.205714432,0.9987101335623393,117.7801858528588
6.208,0.9986836327106647,117.64490995574809
6.210285568,0.9987404476853328,117.5094271535213
6.212571648,0.9988769388284308,117.37258392194492
6.214857216,0.9990845530330917,117.2332690144585
6.217142784,0.9993502543999742,117.09053421780614
6.219428352,0.9996567210057178,116.94367667938381
6.221714432,0.9999851361815908,116.79220854366802
6.224,1.0003143638988143,116.6360472445186
6.226285568,1.0006236086731715,116.47523149896412
6.228571648,1.0008935040665328,116.3102655387412
6.230857216,1.0011068284388123,116.14182171096532
6.233142784,1.0012501820246256,115.97083579414199
6.235428352,1.0013143409363736,115.79837320582425
6.237714432,1.0012955223738755,115.62558402650146
6.24,1.0011945687745873,115.45371689731387
6.242285568,1.0010181183628477,115.28386163641702
6.244571648,1.0007769608316284,115.11707008647791
6.246857216,1.0004865569799095,114.9541547873351
6.249142784,1.0001651153596385,114.79573031849863
6.251428352,0.9998328629407546,114.64203446750935
6.253714432,0.9995109974625517,114.49315539880392
6.256,0.9992198588430121,114.34875321705263
6.258285568,0.9989779061912403,114.2082571422481
6.260571648,0.998800322707882,114.0708795503501
6.262857216,0.9986988373215792,113.93555147338792
6.265142784,0.9986795086423843,113.80112537866208
6.267428352,0.9987437714413271,113.6664393285747
6.269714432,0.9988876204089395,113.53023262882726
6.272,0.9991018447645784,113.3914637355174
6.274285568,0.9993728677572133,113.24919056655351
6.276571648,0.9996835979659795,113.10273576708403
6.278857216,1.0000143311341931,112.9516195719712
6.281142784,1.0003440715220016,112.79573331055049
6.283428352,1.0006520788797486,112.63526827670127
6.285714432,1.000918763740227,112.4706435048672
6.288,1.0011274257178504,112.30263110962893
6.290285568,1.0012647816283924,112.13210220019369
6.292571648,1.0013220917311676,111.96024025962114
6.294857216,1.0012957029838476,111.78812155967684
6.297142784,1.0011873655898695,111.61703123198835
6.299428352,1.0010038219045736,111.44809038608216
6.301714432,1.000756631023528,111.2822753000961
6.304,1.0004614273779637,111.1204282486833
6.306285568,1.000136633418497,110.9630997827868
6.308571648,0.999803000853913,110.8106129738797
6.310857216,0.9994816318070899,110.66287987789516
6.313142784,0.999192743063889,110.5196349307423
6.315428352,0.998954828600612,110.3802293120113
6.317714432,0.9987828904813272,110.2438553961424
6.32,0.9986878415722517,110.10948611967362
6.322285568,0.9986759329024443,109.9759160738385
6.324571648,0.998747729151436,109.84193363002096
6.326857216,0.9988990140086635,109.70634122703251
6.329142784,0.9991197151526151,109.56808557546218
6.331428352,0.999396327923355,109.42624081598233
6.333714432,0.9997111807963135,109.280116352282
6.336,1.0000441195366347,109.12930917796837
6.338285568,1.0003743168072892,108.97371812989691
6.340571648,1.000680910262119,108.81354431421205
6.342857216,1.00094430921381,108.64924671793187
6.345142784,1.0011480286125245,108.48161001873918
6.347428352,1.0012791130543441,108.31155352382171
6.349714432,1.0013293187028907,108.14022792268705
6.352,1.0012953688839534,107.96880057788933
6.354285568,1.001179434556629,107.79846972331916
6.356571648,1.0009888866084617,107.63041550685996
6.358857216,1.0007356021297098,107.46557470609116
6.361142784,1.0004354821764407,107.30477255444877
6.363428352,1.0001075938934767,107.14855944949429
6.365714432,0.9997726741633683,106.99718651343605
6.368,0.9994518698620584,106.85060017249667
6.370285568,0.9991655729833343,106.70847831179327
6.372571648,0.998931744650255,106.57015813580401
6.374857216,0.9987655467038163,106.43479058123246
6.377142784,0.9986774226526081,106.30132095911422
6.379428352,0.998673030295006,106.1685393727289
6.381714432,0.9987526108057252,106.03525634475781
6.384,0.998911165331703,105.90024917233507
6.386285568,0.9991386176309305,105.76247881096847
6.388571648,0.9994207251058944,105.62100069222002
6.390857216,0.999739386843306,105.47519421176378
6.393142784,1.0000746068991018,105.32465288042461
6.395428352,1.0004050753871914,105.16931355639757
6.397714432,1.0007099620647437,105.00940567784427
6.4,1.0009697531022004,104.84542051361144
6.402285568,1.0011683180461983,104.67810731143102
6.404571648,1.0012929565885005,104.50851604145426
6.406857216,1.001335877960742,104.33770375978892
6.409142784,1.001294206395915,104.16692397509594
6.411428352,1.001170627616911,103.99736965240032
6.413714432,1.0009729229006425,103.83016648950849
6.416,1.0007134263938309,103.66627351051228
6.418285568,1.0004086514231114,103.50654648330173
6.420571648,1.00007765358143,103.35139623556935
6.422857216,0.9997416193568875,103.2011543878646
6.425142784,0.9994216351173562,103.05571282651235
6.427428352,0.9991379129813509,102.91467019632734
6.429714432,0.9989087431753767,102.7774206432834
6.432,0.9987485546025325,102.64300539737401
6.434285568,0.9986674515825305,102.51039937568477
6.436571648,0.9986707057497436,102.37838998938575
6.438857216,0.9987581295000585,102.24573863671908
6.441142784,0.9989242404293612,102.11130196461859
6.443428352,0.9991585330711209,101.97395833484754
6.445714432,0.9994461022099244,101.83280781309186
6.448,0.9997686609386964,101.68727581430562
6.450285568,1.0001059270618893,101.5369873244067
6.452571648,1.0004364704444293,101.38184369254051
6.454857216,1.0007393973520493,101.2221387059534
6.457142784,1.0009955112168605,101.05841038103246
6.459428352,1.001188658243112,100.89144661829353
6.461714432,1.0013066813496467,100.72224922270162
6.464,1.0013420846116934,100.55198196402635
6.466285568,1.0012925276326248,100.38184214580792
6.468571648,1.0011610821151478,100.21301649070125
6.470857216,1.0009561734064474,100.04664670978725
6.473142784,1.0006905285934535,99.88372162737849
6.475428352,1.000380984242786,99.72498029728322
6.477714432,1.0000471748712882,99.57093773453188
6.48,0.9997100241960766,99.42178163664138
6.482285568,0.9993910688296624,99.27742402018652
6.484571648,0.9991103357034191,99.13745285483128
6.486857216,0.9988857957639597,99.00125725423288
6.489142784,0.9987316842825867,98.8677715651558
6.491428352,0.9986579295235312,98.73599293144521
6.493714432,0.9986690388570766,98.60472383518156
6.496,0.998764481016156,98.47267956414532
6.498285568,0.9989382313094458,98.33870150947266
6.500571648,0.9991791576155854,98.20174828759201
6.502857216,0.9994720758553206,98.06093653893099
6.505142784,0.9997985173738498,97.91561608218112
6.507428352,1.0001375886218768,97.76551819057583
6.509714432,1.0004681161563516,97.61057251666281
6.512,1.00076884729225,97.4510396092827
6.514285568,1.0010209401985315,97.28755845243205
6.516571648,1.001208555404613,97.12088709750694
6.518857216,1.0013197185724099,96.95210299806567
6.521142784,1.0013474329148404,96.78231916754692
6.523428352,1.0012897370349085,96.6127848463697
6.525714432,1.0011505149287847,96.44468198766887
6.528,1.0009383539142789,96.27915055308455
6.530285568,1.0006665219867565,96.11714330469228
6.532571648,1.0003524447854983,95.95940751683258
6.534857216,1.0000157654142543,95.80640681906264
6.537142784,0.9996778341711607,95.65836378862068
6.539428352,0.9993600564066303,95.5150959974894
6.541714432,0.9990824586360396,95.37618012046121
6.544,0.9988628395493131,95.24091286412529
6.546285568,0.9987151704780179,95.10836260170743
6.548571648,0.9986488069989372,94.97741282684257
6.550857216,0.9986679949791754,94.8468092787611
6.553142784,0.9987714956260905,94.71533733192935
6.555428352,0.9989529014116232,94.58183628766211
6.557714432,0.9992006028011151,94.44522039295296
6.56,0.9994989039755537,94.30464774070441
6.562285568,0.9998290934970931,94.15954622531339
6.564571648,1.000169968101524,94.009591848373
6.566857216,1.000500114598812,93.85475897845251
6.569142784,1.0007985432275606,93.6954117807653
6.571428352,1.0010465278946636,93.53210731176858
6.573714432,1.001228369774231,93.36575474795467
6.576,1.001332386867534,93.19732595709839
6.578285568,1.0013522125454384,93.02799994304287
6.580571648,1.001286383825452,92.85903828924964
6.582857216,1.0011392185162848,92.69165141291684
6.585142784,1.0009196984392787,92.52692750399234
6.587428352,1.0006418045837753,92.3658346582542
6.589714432,1.0003232113889686,92.20908631620284
6.592,0.9999838520261364,92.05711788398425
6.594285568,0.9996452408151139,91.91012810070627
6.596571648,0.9993287763558095,91.76791827462046
6.598857216,0.9990546366737851,91.63001100755949
6.601142784,0.9988401945784934,91.49571353198283
6.603428352,0.9986991807802685,91.36401839851932
6.605714432,0.9986404002605155,91.23384423055317
6.608,0.9986677503913091,91.10388389011676
6.610285568,0.9987795301634156,90.9729461699722
6.612571648,0.9989685746815876,90.83986369897653
6.614857216,0.9992231032621123,90.70354919872496
6.617142784,0.9995267475506214,90.5631999956259
6.619428352,0.9998604019994162,90.41824499438397
6.621714432,1.0002028998172374,90.26838232612764
6.624,1.0005325694560139,90.11366711118787
6.626285568,1.0008284631924296,89.95445103394722
6.628571648,1.0010720136252078,89.79131273984585
6.630857216,1.001247728899673,89.62519346999493
6.633142784,1.001344572918637,89.45708980217572
6.635428352,1.0013563819322473,89.28822780194822
6.637714432,1.0012822167505315,89.11984628574487
6.64,1.001126857406507,88.95313235011191
6.642285568,1.0009001080220101,88.78921821276955
6.644571648,1.0006162952677369,88.62901268569608
6.646857216,1.0002931312272731,88.47322711785783
6.649142784,0.9999512146399628,88.32230093880162
6.651428352,0.9996121759821457,88.17632933149204
6.653714432,0.9992973903468909,88.03515804271792
6.656,0.9990268114084108,87.898238738311
6.658285568,0.9988177618886874,87.76485411908784
6.660571648,0.9986835477841799,87.63400739129426
6.662857216,0.9986326873802787,87.50455589060513
6.665142784,0.9986683334056086,87.37521356063013
6.667428352,0.9987884641440632,87.24477822808878
6.669714432,0.9989854208712257,87.11202774304965
6.672,0.9992465215167313,86.97596937618486
6.674285568,0.9995554860001398,86.83580458465154
6.676571648,0.9998925766689887,86.69093307514983
6.678857216,1.0002364955882808,86.54115553040951
6.681142784,1.0005654533525774,86.38648965569051
6.683428352,1.0008586890354993,86.22736023184295
6.685714432,1.0010975287352828,86.06437728796544
6.688,1.0012669614664225,85.89846659089201
6.690285568,1.0013563393436182,85.73067929007418
6.692571648,1.0013598598694533,85.56225092335572
6.694857216,1.0012772154103173,85.39440476189671
6.697142784,1.0011138206437484,85.22836719070204
6.699428352,1.0008797385751305,85.06521537935843
6.701714432,1.0005898240734736,84.90589588847311
6.704,1.0002623402590831,84.75103594632425
6.706285568,0.9999179969518155,84.60110903414541
6.708571648,0.9995785959959207,84.4561657828086
6.710857216,0.9992656285818141,84.31597345527163
6.713142784,0.9989989844299243,84.18003298101915
6.715428352,0.9987955264050328,84.04756485704198
6.717714432,0.9986683486931682,83.91751322931658
6.72,0.9986254620082392,83.78872410826223
6.722285568,0.998669713327597,83.65996015836075
6.724571648,0.9987982857519978,83.529946143955
6.726857216,0.9990030420776721,83.39752807042503
6.729142784,0.9992708769264835,83.26169477246368
6.731428352,0.9995849426563177,83.12163882292943
6.733714432,0.999925436925928,82.97684656486408
6.736,1.0002705600741326,82.82709827533529
6.738285568,1.0005985863199414,82.67245163726982
6.740571648,1.0008887974787082,82.51338111422568
6.742857216,1.0011228159769934,82.35049702354058
6.745142784,1.001285785522313,82.18476421144037
6.747428352,1.0013674186838606,82.01728226725899
6.749714432,1.001362524838891,81.8492540475835
6.752,1.0012713889543952,81.6819245389692
6.754285568,1.0010997524819518,81.51654341513665
6.756571648,1.000858404634021,81.35414011791879
6.758857216,1.0005625140449017,81.19566528379009
6.761142784,1.0002306544952673,81.04176750400552
6.763428352,0.9998841741808381,80.8928128262247
6.765714432,0.9995446105738021,80.74884343349343
6.768,0.9992337480668801,80.60964531550364
6.770285568,0.9989710677810322,80.4746456765232
6.772571648,0.9987735109317788,80.34299297765024
6.774857216,0.998653603560386,80.21371174263362
6.777142784,0.9986190107946379,80.08557364846926
6.779428352,0.9986718922469038,79.95731810259456
6.781714432,0.9988088984628528,79.82771039396933
6.784,0.9990214513478438,79.69556461821483
6.786285568,0.9992960094981352,79.5599027527416
6.788571648,0.999615201939974,79.41992820628825
6.790857216,0.9999588755929558,79.27515598676257
6.793142784,1.0003051564384595,79.12538269919449
6.795428352,1.000632032036763,78.97075424110882
6.797714432,1.000919056220272,78.81166862089998
6.8,1.0011478278092547,78.64886309131202
6.802285568,1.0013041960205349,78.4832990170379
6.804571648,1.001377866407203,78.3160874058867
6.806857216,1.0013644838123346,78.14842676765588
6.809142784,1.0012646312783913,77.98162510313395
6.811428352,1.0010847773567109,77.81684681832103
6.813714432,1.00083602598445,77.65520101214675
6.816,1.0005342966484476,77.49754769168541
6.818285568,1.0001983739161695,77.3445497496521
6.820571648,0.9998496842623928,77.19651406883564
6.822857216,0.9995103198940031,77.0535410167388
6.825142784,0.9992016506818739,76.91528941917419
6.827428352,0.9989433839976557,76.7811816832644
6.829714432,0.9987518886992423,76.65037295245172
6.832,0.99863942299874,76.5217828371095
6.834285568,0.9986131842760811,76.39426916016136
6.836571648,0.9986747535196324,76.26648374985484
6.838857216,0.9988204822645729,76.13723140249547
6.841142784,0.9990408279620284,76.00531735306956
6.843428352,0.9993221372177402,75.8697556407319
6.845714432,0.999646347543665,75.72984000948375
6.848,0.9999929670565237,75.58503071649022
6.850285568,1.0003401199102546,75.4352172854321
6.852571648,1.000665687054411,75.28051371521204
6.854857216,1.000949247527679,75.12143808885837
6.857142784,1.0011727500260246,74.9586815632031
6.859428352,1.0013221431941963,74.79323655963789
6.861714432,1.0013877414147239,74.62626733417244
6.864,1.001365610683649,74.45895834614268
6.866285568,1.0012570998788684,74.2926260810966
6.868571648,1.0010688516731168,74.1284789004164
6.870857216,1.000812862468342,73.96754291966435
6.873142784,1.0005052555712808,73.81072363570706
6.875428352,1.0001652929301885,73.65858544433395
6.877714432,0.999814738162452,73.51149389045098
6.88,0.9994756110737795,73.3694485641234
6.882285568,0.9991694660150483,73.23209266416285
6.884571648,0.9989158262870498,73.09885585199483
6.886857216,0.9987306332712977,72.96882919753386
6.889142784,0.9986258908833099,72.84095537100353
6.891428352,0.9986082010258808,72.71395504022007
6.893714432,0.9986787195767383,72.58663629777024
6.896,0.998833040989072,72.4576716440589
6.898285568,0.9990613452582684,72.3259348568742
6.900571648,0.9993491773212059,72.1904536452038
6.902857216,0.999678204662965,72.05051255482424
6.905142784,1.000027795062629,71.90566193039095
6.907428352,1.0003756349397956,71.75571865614431
6.909714432,1.0006996440584464,71.60095376152591
6.912,1.0009795456821096,71.44179372962091
6.914285568,1.001197423375465,71.27905941958991
6.916571648,1.0013396455768018,71.11372215729381
6.918857216,1.001396989936851,70.94694142128175
6.921142784,1.0013659980373004,70.78000338034458
6.923428352,1.0012486121882107,70.61415389115335
6.925714432,1.0010519968675196,70.45055322547267
6.928,1.000788738072418,70.29032466047332
6.930285568,1.0004753510189537,70.13428676103844
6.932571648,1.0001315598096898,69.98302285571859
6.934857216,0.99977926082812,69.8368266516444
6.937142784,0.9994406909096402,69.69570209874632
6.939428352,0.9991373071053595,69.55925096114252
6.941714432,0.9988883749932693,69.42682109724528
6.944,0.9987098119700024,69.29755106455636
