freq,mag,phase
6.0,0.9999930266508649,-159.17576034714193
6.008,0.9999935140742952,-159.5588072665763
6.016,0.9999939869915613,-159.94157145025386
6.024,0.9999944456471018,-160.3240567488042
6.032,0.999994890282621,-160.70626702157637
6.04,0.9999953211371048,-161.08820613647606
6.048,0.9999957384468378,-161.46987796980622
6.056,0.9999961424454199,-161.85128640611
6.064,0.9999965333637838,-162.232435338017
6.072,0.9999969114302119,-162.6133286660921
6.08,0.9999972768703534,-162.99397029868695
6.088,0.9999976299072427,-163.37436415179454
6.096,0.9999979707613151,-163.75451414890628
6.104,0.9999982996504269,-164.13442422087164
6.112,0.9999986167898703,-164.5140983057608
6.12,0.9999989223923954,-164.8935403487295
6.128,0.9999992166682224,-165.27275430188686
6.136,0.9999994998250652,-165.65174412416533
6.144,0.999999772068147,-166.03051378119355
6.152,1.0,-166.40906724517154
6.16,0.9999999999999998,-166.7874084947482
6.168,0.9999999999999998,-167.16554151490135
6.176,1.0,-167.54347029682023
6.184,1.0,-167.92119883779023
6.192,1.0,-168.29873114107988
6.2,0.9999999999999998,-168.67607121583018
6.208,1.0,-169.05322307694638
6.216,1.0,-169.43019074499156
6.224,0.9999999999999999,-169.80697824608262
6.232,0.9999999999999999,-170.18358961178853
6.24,1.0,-170.56002887903045
6.248,1.0,-170.9363000899839
6.256,1.0,-171.3124072919834
6.264,1.0,-171.68835453742847
6.272,1.0,-172.0641458836921
6.28,1.0,-172.43978539303103
6.288,1.0,-172.8152771324977
6.296,1.0,-173.19062517385453
6.304,1.0,-173.56583359348951
6.312,0.9999999999999998,-173.94090647233395
6.32,1.0,-174.31584789578196
6.328,1.0,-174.69066195361137
6.336,1.0,-175.0653527399069
6.344,1.0,-175.43992435298432
6.352,1.0,-175.81438089531687
6.36,1.0,-176.1887264734628
6.368,1.0,-176.56296519799469
6.376,1.0,-176.93710118343031
6.384,0.9999999999999999,-177.31113854816508
6.392,0.9999999999999999,-177.68508141440552
6.4,0.9999999999999999,-178.05893390810476
6.408,1.0,-178.4327001588989
6.416,1.0,-178.80638430004524
6.424,1.0,-179.17999046836124
6.432,1.0,-179.5535228041653
6.44,1.0,-179.92698545121874
6.448,1.0,179.69961744333156
6.456,0.9999999999999999,179.3262817290086
6.464,1.0,178.9530032520598
6.472,1.0,178.5797778555107
6.48,1.0,178.20660137921723
6.4879999999999995,1.0,177.83346965991697
6.496,1.0,177.4603785312793
6.504,1.0,177.0873238239553
6.5120000000000005,1.0,176.71430136562526
6.52,0.9999999999999999,176.34130698104684
6.5280000000000005,1.0,175.968336492101
6.536,1.0,175.59538571783824
6.5440000000000005,1.0,175.22245047452282
6.552,1.0,174.84952657567752
6.5600000000000005,0.9999999999999999,174.47660983212626
6.568,1.0,174.10369605203726
6.5760000000000005,1.0,173.73078104096447
6.584,1.0,173.35786060188912
6.592,1.0,172.98493053526013
6.6,1.0,172.6119866390342
6.608,1.0,172.23902470871533
6.616,1.0,171.86604053739367
6.624,1.0,171.49302991578398
6.632,1.0,171.11998863226358
6.64,1.0,170.7469124729101
6.648,1.0,170.3737972215384
6.656,1.0,170.00063865973766
6.664,1.0,169.62743256690754
6.672,1.0,169.25417472029477
6.68,0.9999999999999999,168.88086089502877
6.688,0.9999999999999999,168.50748686415764
6.696,0.9999999999999999,168.1340483986835
6.704,1.0,167.76054126759803
6.712,0.9999999999999999,167.3869612379176
6.72,1.0,167.01330407471855
6.728,1.0,166.63956554117232
6.736,1.0,166.26574139858045
6.744,0.9999999999999999,165.8918274064098
6.752,0.9999999999999999,165.5178193223276
6.76,1.0,165.14371290223696
6.768,0.9999999999999999,164.76950390031183
6.776,1.0,164.39518806903288
6.784,1.0,164.020761159223
6.792,0.9999999999999999,163.64621892008336
6.8,1.0,163.2715570992293
6.808,0.9999999810425749,162.89677144272724
6.816,0.9999998548904705,162.52185769513093
6.824,0.9999997280800371,162.14681159951914
6.832,0.9999996006684194,161.7716288975327
6.84,0.9999994727117225,161.3963053294128
6.848,0.9999993442650228,161.02083663403917
6.856,0.9999992153823823,160.64521854896927
6.864,0.9999990861168594,160.26944681047738
6.872,0.9999989565205237,159.8935171535949
6.88,0.9999988266444665,159.5174253121509
6.888,0.999998696538814,159.14116701881326
6.896,0.9999985662527398,158.76473800513077
6.904,0.999998435834476,158.3881340015756
6.912,0.9999983053313264,158.01135073758672
6.92,0.9999981747896783,157.6343839416143
6.928,0.9999980442550126,157.25722934116413
6.936,0.9999979137719176,156.87988266284415
6.944,0.9999977833841004,156.50233963241064
6.952,0.9999976531343968,156.12459597481603
6.96,0.9999975230647837,155.74664741425764
6.968,0.999997393216392,155.36848967422705
6.976,0.9999972636295148,154.9901184775609
6.984,0.9999971343436205,154.61152954649265
6.992,0.9999970053973634,154.2327186027052
7.0,0.9999968768285943,153.853681367385
7.008,0.9999967486743722,153.47441356127734
7.016,0.9999966209709737,153.09491090474242
7.024,0.9999964937539048,152.71516911781316
7.032,0.9999963670579101,152.33518392025428
7.04,0.9999962409169848,151.95495103162224
7.048,0.9999961153643848,151.5744661713272
7.056,0.9999959904326355,151.19372505869592
7.064,0.999995866153544,150.8127234130363
7.072,0.9999957425582061,150.43145695370342
7.08,0.9999956196770201,150.04992140016702
7.088,0.9999954975396942,149.66811247208068
7.096,0.9999953761752565,149.28602588935235
7.104,0.9999952556120657,148.90365737221697
7.112,0.9999951358778194,148.52100264131022
7.12,0.9999950169995644,148.13805741774462
7.128,0.9999948990037062,147.75481742318667
7.136,0.999994781916018,147.37127837993657
7.144,0.9999946657616494,146.98743601100904
7.152,0.9999945505651363,146.6032860402167
7.16,0.9999944363504102,146.21882419225489
7.168,0.9999943231408062,145.83404619278858
7.176,0.9999942109590729,145.4489477685417
7.184,0.9999940998273797,145.0635246473875
7.192,0.9999939897673272,144.67777255844237
7.2,0.9999938807999548,144.29168723216065
7.208,0.9999937729457501,143.90526440043203
7.216,0.9999936662246542,143.51849979668145
7.224,0.999993560656077,143.13138915597077
7.232,0.9999934562588959,142.74392821510298
7.24,0.9999933530514736,142.35611271272882
7.248,0.9999932510516581,141.96793838945538
7.256,0.9999931502767966,141.579400987958
7.264,0.9999930507437401,141.19049625309341
7.272,0.9999929524688521,140.80121993201644
7.28,0.9999928554680179,140.41156777429882
7.288,0.9999927597566489,140.02153553205048
7.296,0.9999926653496939,139.63111896004366
7.304,0.9999925722616435,139.24031381583998
7.312,0.9999924805065401,138.84911585991952
7.32,0.999992390097984,138.4575208558132
7.328,0.9999923010491398,138.065524570238
7.336,0.999992213372746,137.67312277323472
7.344,0.9999921270811205,137.28031123830883
7.352,0.9999920421861664,136.88708574257424
7.36,0.9999919586993818,136.4934420669001
7.368,0.9999918766318658,136.0993759960604
7.376,0.9999917959943238,135.70488331888703
7.384,0.9999917167970757,135.3099598284255
7.392,0.9999916390500617,134.9146013220942
7.4,0.9999915627628504,134.5188036018467
7.4079999999999995,0.9999914879446438,134.1225624743374
7.416,0.9999914146042832,133.72587375108995
7.4239999999999995,0.9999913427502584,133.32873324867015
7.432,0.999991272390711,132.93113678886075
7.4399999999999995,0.9999912035334422,132.53308019884116
7.448,0.9999911361859182,132.13455931136917
7.4559999999999995,0.9999910703552767,131.73556996496754
7.464,0.9999910060483334,131.336108004113
7.4719999999999995,0.9999909432715863,130.9361692794299
7.48,0.9999908820312231,130.53574964788618
7.4879999999999995,0.999990822333127,130.13484497299478
7.496,0.9999907641828814,129.73345112501678
7.504,0.9999907075857757,129.33156398117018
7.5120000000000005,0.9999906525468112,128.9291794258408
7.52,0.9999905990707074,128.5262933507988
7.5280000000000005,0.999990547161906,128.12290165541708
7.536,0.999990496824578,127.71900024689583
7.5440000000000005,0.9999904480626262,127.31458504048888
7.552,0.9999904008796924,126.9096519597359
7.5600000000000005,0.9999903552791632,126.50419693669727
7.568,0.9999903112641745,126.09821591219429
7.5760000000000005,0.9999902688376148,125.6917048360522
7.584,0.9999902280021319,125.2846596673488
7.5920000000000005,0.9999901887601385,124.87707637466589
7.6,0.9999901511138144,124.46895093634637
7.6080000000000005,0.9999901150651139,124.06027934075428
7.616,0.9999900806157693,123.65105758654049
7.6240000000000006,0.9999900477672947,123.24128168291145
7.632,0.999990016520993,122.8309476499038
7.640000000000001,0.999989986877957,122.4200515186619
7.648,0.9999899588390766,122.00858933172145
7.656000000000001,0.9999899324050429,121.59655714329601
7.664,0.9999899075763504,121.18395101956972
7.672,0.9999898843533034,120.77076703899304
7.68,0.9999898627360194,120.35700129258446
7.688,0.9999898427244328,119.94264988423612
7.696,0.9999898243182989,119.52770893102435
7.704,0.9999898075171997,119.11217456352497
7.712,0.9999897923205451,118.69604292613325
7.72,0.9999897787275778,118.27931017738884
7.728,0.9999897667373783,117.86197249030546
7.736,0.9999897563488667,117.44402605270537
7.744,0.9999897475608072,117.02546706755878
7.752,0.9999897403718123,116.60629175332834
7.76,0.9999897347803449,116.18649634431823
7.768,0.9999897307847228,115.76607709102865
7.776,0.9999897283831221,115.34503026051485
7.784,0.9999897275735794,114.92335213675162
7.792,0.9999897283539965,114.50103902100248
7.8,0.999989730722143,114.07808723219416
7.808,0.999989734675659,113.65449310729599
7.816,0.9999897402120593,113.23025300170457
7.824,0.9999897473287341,112.8053632896334
7.832,0.9999897560229548,112.37982036450775
7.84,0.9999897662918754,111.9536206393647
7.848,0.9999897781325351,111.52676054725823
7.856,0.9999897915418614,111.09923654166965
7.864,0.9999898065166728,110.67104509692308
7.872,0.9999898230536818,110.24218270860622
7.88,0.9999898411494971,109.81264589399633
7.888,0.999989860800625,109.38243119249135
7.896,0.9999898820034744,108.95153516604633
7.904,0.9999899047543566,108.51995439961506
7.912,0.9999899290494887,108.0876855015969
7.92,0.9999899548849965,107.65472510428884
7.928,0.9999899822569155,107.22106986434284
7.936,0.9999900111611939,106.78671646322829
7.944,0.9999900415936938,106.35166160769985
7.952,0.9999900735501935,105.91590203027027
7.96,0.9999901070263904,105.47943448968863
7.968,0.9999901420179007,105.04225577142361
7.976,0.9999901785202642,104.60436268815192
7.984,0.9999902165289436,104.16575208025216
7.992,0.9999902560393265,103.72642081630342
8.0,0.9999902970467277,103.28636579358918
8.008,0.9999903395463914,102.84558393860651
8.016,0.9999903835334906,102.40407220757974
8.024000000000001,0.9999904290031306,101.96182758698008
8.032,0.999990475950349,101.51884709404943
8.04,0.9999905243701174,101.07512777732936
8.048,0.9999905742573432,100.63066671719524
8.056000000000001,0.9999906256068701,100.18546102639543
8.064,0.9999906784134791,99.73950785059482
8.072,0.9999907326718906,99.2928043689233
8.08,0.9999907883767639,98.8453477945293
8.088000000000001,0.9999908455226986,98.39713537513813
8.096,0.9999909041042371,97.94816439361449
8.104,0.9999909641158623,97.49843216852967
8.112,0.9999910255520018,97.04793605473382
8.120000000000001,0.999991088407025,96.59667344393236
8.128,0.9999911526752472,96.14464176526684
8.136,0.9999912183509267,95.69183848589988
8.144,0.9999912854282698,95.2382611116049
8.152000000000001,0.9999913539014251,94.78390718736007
8.16,0.9999914237644889,94.328774297946
8.168,0.9999914950115054,93.87286006854747
8.176,0.9999915676364625,93.41616216535948
8.184000000000001,0.9999916416332965,92.95867829619738
8.192,0.9999917169958902,92.50040621111013
8.2,0.9999917937180733,92.04134370299747
8.208,0.9999918717936229,91.58148860823098
8.216000000000001,0.999991951216262,91.12083880727867
8.224,0.9999920319796611,90.65939222533262
8.232,0.9999921140774373,90.19714683293978
8.24,0.9999921975031528,89.73410064663642
8.248000000000001,0.999992282250317,89.27025172958564
8.256,0.999992368312385,88.80559819221739
8.264,0.9999924556827556,88.34013819287124
8.272,0.9999925443547742,87.87386993844237
8.280000000000001,0.9999926343217291,87.40679168502989
8.288,0.9999927255768519,86.93890173858738
8.296,0.9999928181133185,86.47019845557557
8.304,0.9999929119242454,86.00068024361748
8.312,0.9999930070026916,85.53034556215584
8.32,0.9999931033416556,85.0591929231111
8.328,0.9999932009340766,84.58722089154267
8.336,0.9999932997728318,84.11442808631011
8.344,0.9999933998507365,83.64081318073721
8.352,0.9999935011605423,83.16637490327554
8.36,0.9999936036949365,82.69111203817069
8.368,0.9999937074465414,82.21502342612767
8.376,0.9999938124079111,81.73810796497858
8.384,0.9999939185715327,81.2603646103489
8.392,0.9999940259298238,80.78179237632588
8.4,0.9999941344751305,80.30239033612523
8.408,0.9999942441997275,79.8221576227592
8.416,0.9999943550958156,79.34109342970285
8.424,0.9999944671555198,78.85919701156115
8.432,0.9999945803708893,78.3764676847338
8.44,0.9999946947338937,77.89290482808066
8.448,0.9999948102364238,77.40850788358419
8.456,0.999994926870288,76.92327635701227
8.464,0.9999950446272118,76.43720981857743
8.472,0.9999951634988339,75.95030790359601
8.48,0.999995283476708,75.46257031314344
8.488,0.999995404552297,74.9739968147086
8.496,0.9999955267169734,74.48458724284413
8.504,0.9999956499620181,73.99434149981529
8.512,0.9999957742786146,73.50325955624402
8.52,0.9999958996578517,73.01134145175128
8.528,0.9999960260907184,72.51858729559399
8.536,0.9999961535681025,72.02499726729968
8.544,0.9999962820807884,71.53057161729518
8.552,0.9999964116194558,71.03531066753263
8.56,0.9999965421746765,70.53921481210881
8.568,0.9999966737369119,70.04228451788121
8.576,0.9999968062965122,69.544520325077
8.584,0.9999969398437132,69.04592284789811
8.592,0.999997074368633,68.54649277511847
8.6,0.9999972098612718,68.04623087067702
8.608,0.9999973463115079,67.54513797426218
8.616,0.9999974837090964,67.04321500189134
8.624,0.9999976220436648,66.54046294648141
8.632,0.9999977613047146,66.03688287841373
8.64,0.9999979014816137,65.5324759460893
8.648,0.9999980425635981,65.0272433764779
8.656,0.9999981845397677,64.52118647565679
8.664,0.9999983273990837,64.01430662934268
8.672,0.9999984711303673,63.50660530341282
8.68,0.9999986157222953,62.99808404441835
8.688,0.9999987611633993,62.488744480086375
8.696,0.9999989074420629,61.9785883198137
8.704,0.9999990545465185,61.46761735514857
8.712,0.9999992024648454,60.95583346026321
8.72,0.9999993511849676,60.44323859241394
8.728,0.9999995006946502,59.92983479239149
8.736,0.9999996509814981,59.415624184957984
8.744,0.9999998020329529,58.9006089792736
8.752,0.9999999538362907,58.3847914693092
8.76,0.9999999999999999,57.86817403424801
8.768,1.0,57.350759138872554
8.776,0.9999999999999999,56.83254933393998
8.784,0.9999999999999999,56.3135472565419
8.792,1.0,55.79375563045224
8.8,1.0,55.27317726645847
8.808,0.9999999999999999,54.75181506268057
8.815999999999999,0.9999999999999999,54.22967200487269
8.824,0.9999999999999999,53.7067511667112
8.832,0.9999999999999999,53.18305571006638
8.84,0.9999999999999999,52.65858888525814
8.847999999999999,1.0,52.133354031295205
8.856,1.0,51.60735457609811
8.864,1.0,51.080594036705314
8.872,1.0,50.55307601946159
8.879999999999999,0.9999999999999999,50.02480422018884
8.888,1.0,49.4957824243394
8.896,0.9999999999999999,48.96601450713123
8.904,0.9999999999999999,48.43550443366416
8.911999999999999,0.9999999999999999,47.90425625901731
8.92,1.0,47.37227412832786
8.928,1.0,46.83956227685051
8.936,1.0,46.306125029996814
8.943999999999999,0.9999999999999999,45.77196680335455
8.952,0.9999999999999999,45.23709210268735
8.96,1.0,44.701505523913895
8.968,1.0,44.1652117530659
8.975999999999999,1.0,43.628215566225116
8.984,0.9999999999999999,43.090521829439545
8.992,0.9999999999999999,42.5521354986182
9.0,1.0,42.013061619403814
9.008,0.9999999999999999,41.4733053270233
9.016,1.0,40.93287184611693
9.024000000000001,0.9999999999999999,40.39176649054483
9.032,1.0,39.84999466317076
9.04,1.0,39.3075618556228
9.048,1.0,38.76447364803182
9.056000000000001,1.0,38.220735708746794
9.064,1.0,37.67635379402632
9.072,1.0,37.13133374770674
9.08,0.9999999999999999,36.58568150084714
9.088000000000001,1.0,36.039403071350726
9.096,1.0,35.49250456356169
9.104,0.9999999999999999,34.944992167838365
9.112,0.9999999999999999,34.39687216010262
9.120000000000001,1.0,33.84815090136518
9.128,1.0,33.29883483722632
9.136,0.9999999999999999,32.74893049735203
9.144,1.0,32.19844449492648
9.152000000000001,0.9999999999999999,31.64738352608002
9.16,1.0,31.09575436929239
9.168,0.9999999999999999,30.543563884771093
9.176,0.9999999999999999,29.990819013806213
9.184000000000001,1.0,29.437526778100523
9.192,1.0,28.883694279074653
9.2,0.9999999999999999,28.329328697147787
9.208,1.0,27.774437290994662
9.216000000000001,1.0,27.219027396778024
9.224,1.0,26.66310642735633
9.232,0.9999999999999998,26.1066818714674
9.24,1.0,25.549761292888274
9.248000000000001,1.0,24.992352329571226
9.256,0.9999999999999999,24.43446269275532
9.264,1.0,23.876100166054286
9.272,1.0,23.317272604521268
9.280000000000001,1.0,22.7579879336901
9.288,1.0,22.198254148592923
9.296,1.0,21.638079312754634
9.304,1.0,21.0774715571651
9.312000000000001,1.0,20.516439079228498
9.32,1.0,19.954990141690075
9.328,1.0,19.393133071540376
9.336,1.0,18.830876258898275
9.344,0.9999999999999999,18.26822815587248
9.352,1.0,17.705197275400298
9.36,1.0,17.141792190067324
9.368,1.0,16.578021530904365
9.376,0.9999999999999999,16.013893986165897
9.384,1.0,15.449418300086439
9.392,1.0,14.884603271619234
9.4,1.0,14.319457753153522
9.408,0.9999999999999999,13.753990649214758
9.416,1.0,13.188210915144364
9.424,0.9999999999999999,12.622127555763113
9.432,1.0,12.055749624014851
9.44,1.0,11.489086219594714
9.448,1.0,10.922146487558553
9.456,1.0,10.35493961691774
9.464,0.9999999999999999,9.787474839216062
9.472,0.9999999999999999,9.219761427092946
9.48,0.9999999999999999,8.651808692829704
9.488,0.9999999999999999,8.08362598688313
9.496,1.0,7.515222696403047
9.504,0.9999999999999999,6.946608243738217
9.512,1.0,6.377792084927335
9.52,1.0,5.808783708179298
9.528,1.0,5.239592632339662
9.536,0.9999999999999999,4.670228405347567
9.544,1.0,4.100700602679789
9.552,0.9999999999999999,3.531018825786495
9.56,0.9999999999999999,2.9611927005151824
9.568,1.0000000000000002,2.391231875527532
9.576,1.0000000000000002,1.8211460207055234
9.584,1.0,1.2509448255517088
9.592,1.0,0.6806379975799423
9.6,0.9999999999999998,0.11023526070133216
9.608,1.0,-0.46025364639795935
9.616,0.9999999999999999,-1.0308189718826417
9.624,1.0,-1.6014509524010982
9.632,1.0,-2.172139814720594
9.64,1.0,-2.7428757773682553
9.648,1.0,-3.3136490522731923
9.656,1.0,-3.8844498464130517
9.664,0.9999999999999998,-4.455268363460545
9.672,0.9999999999999999,-5.026094805433182
9.68,0.9999999999999999,-5.596919374341613
9.688,1.0,-6.167732273839991
9.696,1.0,-6.73852371087369
9.704,0.9999999999999999,-7.309283897327786
9.712,1.0,-7.880003051671571
9.72,0.9999999999999999,-8.450671400602706
9.728,0.9999999999999999,-9.021279180686003
9.736,1.0,-9.591816639990675
9.744,1.0000000000000002,-10.162274039721044
9.752,1.0,-10.732641655844361
9.76,1.0,-11.30290978071089
9.768,0.9999999999999998,-11.873068724669919
9.776,0.9999999999999999,-12.44310881767682
9.784,1.0,-13.01302041089477
9.792,0.9999999999999999,-13.582793878286402
9.8,1.0,-14.152419618198891
9.808,0.9999999999999999,-14.721888054937843
9.816,0.9999999999999999,-15.291189640333371
9.824,1.0,-15.860314855293932
9.832,1.0,-16.42925421135118
9.84,0.9999999999999999,-16.997998252191458
9.847999999999999,1.0,-17.56653755517708
9.856,0.9999999999999999,-18.13486273285394
9.864,0.9999999999999999,-18.70296443444609
9.872,0.9999999999999999,-19.270833347337256
9.879999999999999,1.0,-19.83846019853842
9.888,1.0,-20.405835756140036
9.896,0.9999999999999999,-20.972950830749408
9.904,0.9999999999999999,-21.539796276912934
9.911999999999999,0.9999999999999999,-22.106362994522275
9.92,0.9999999999999999,-22.672641930203614
9.928,0.9999999999999998,-23.23862407868994
9.936,0.9999999999999999,-23.80430048417647
9.943999999999999,1.0000000000000002,-24.369662241658318
9.952,0.9999999999999999,-24.93470049824939
9.96,1.0,-25.499406454482763
