freq,mag,phase
6.0,0.9999944100471579,-144.3994442265955
6.008,0.9999941083170194,-144.77800978260922
6.016,0.999993821874722,-145.1561727226785
6.024,0.9999935504106913,-145.53393594716482
6.032,0.9999932936186181,-145.91130237455275
6.04,0.9999930511954511,-146.2882749411723
6.048,0.9999928228413895,-146.6648566009245
6.056,0.9999926082598735,-147.04105032501047
6.064,0.999992407157576,-147.41685910166302
6.072,0.999992219244395,-147.792285935882
6.08,0.9999920442334412,-148.16733384917248
6.088,0.99999188184103,-148.5420058792863
6.096,0.9999917317866712,-148.91630507996643
6.104,0.9999915937930561,-149.29023452069484
6.112,0.9999914675860487,-149.66379728644324
6.12,0.9999913528946723,-150.03699647742712
6.128,0.9999912494510999,-150.40983520886263
6.136,0.9999911569906386,-150.7823166107269
6.144,0.99999107525172,-151.15444382752108
6.152,0.9999910039758859,-151.52622001803687
6.16,0.9999909429077753,-151.89764835512568
6.168,0.9999908917951105,-152.2687320254711
6.176,0.9999908503886838,-152.63947422936428
6.184,0.9999908184423444,-153.0098781804825
6.192,0.9999907957129806,-153.37994710567057
6.2,0.9999907819605086,-153.7496842447251
6.208,0.9999907769478571,-154.11909285018226
6.216,0.9999907804409499,-154.4881761871078
6.224,0.9999907922086932,-154.85693753289053
6.232,0.9999908120229585,-155.2253801770386
6.24,0.9999908396585674,-155.5935074209784
6.248,0.9999908748932751,-155.9613225778568
6.256,0.9999909175077539,-156.32882897234595
6.264,0.9999909672855788,-156.6960299404509
6.272,0.9999910240132075,-157.06292882932038
6.28,0.9999910874799675,-157.42952899705995
6.288,0.9999911574780358,-157.7958338125482
6.296,0.9999912338024232,-158.1618466552557
6.304,0.999991316250958,-158.52757091506666
6.312,0.9999914046242675,-158.8930099921033
6.32,0.99999149872576,-159.25816729655295
6.328,0.9999915983616086,-159.62304624849776
6.336,0.9999917033407324,-159.98765027774724
6.344,0.9999918134747782,-160.35198282367324
6.352,0.9999919285781048,-160.71604733504762
6.36,0.9999920484677618,-161.07984726988266
6.368,0.9999921729634733,-161.44338609527375
6.376,0.9999923018876202,-161.80666728724484
6.384,0.9999924350652195,-162.16969433059631
6.392,0.9999925723239083,-162.53247071875552
6.4,0.9999927134939235,-162.8949999536295
6.408,0.999992858408085,-163.25728554546046
6.416,0.9999930069017754,-163.6193310126834
6.424,0.999993158812922,-163.98113988178636
6.432,0.9999933139819785,-164.34271568717296
6.44,0.9999934722519057,-164.70406197102727
6.448,0.9999936334681525,-165.065182283181
6.456,0.9999937974786381,-165.42608018098312
6.464,0.999993964133732,-165.78675922917145
6.472,0.9999941332862357,-166.14722299974702
6.48,0.9999943047913635,-166.50747507185005
6.4879999999999995,0.999994478506724,-166.8675190316385
6.496,0.9999946542923009,-167.22735847216902
6.504,0.9999948320104345,-167.58699699327906
6.5120000000000005,0.9999950115258017,-167.94643820147272
6.52,0.999995192705398,-168.30568570980677
6.5280000000000005,0.9999953754185193,-168.6647431377807
6.536,0.99999555953674,-169.02361411122698
6.5440000000000005,0.999995744933899,-169.38230226220495
6.552,0.9999959314860752,-169.7408112288953
6.5600000000000005,0.9999961190715736,-170.09914465549784
6.568,0.9999963075709029,-170.45730619212995
6.5760000000000005,0.9999964968667595,-170.81529949472804
6.584,0.999996686844006,-171.17312822494983
6.592,0.999996877389655,-171.53079605007974
6.6,0.9999970683928491,-171.8883066429349
6.608,0.9999972597448417,-172.2456636817737
6.616,0.9999974513389797,-172.60287085020582
6.624,0.9999976430706847,-172.95993183710428
6.632,0.9999978348374335,-173.31685033651885
6.64,0.9999980265387408,-173.67363004759153
6.648,0.9999982180761402,-174.0302746744733
6.656,0.9999984093531659,-174.38678792624304
6.664,0.9999986002753346,-174.74317351682754
6.672,0.9999987907501269,-175.0994351649233
6.68,0.9999989806869701,-175.45557659392023
6.688,0.999999169997219,-175.81160153182626
6.696,0.9999993585941376,-176.1675137111939
6.704,0.9999995463928826,-176.52331686904827
6.712,0.9999997333104852,-176.87901474681635
6.72,0.9999999192658312,-177.23461109025797
6.728,0.9999999999999999,-177.59010964939776
6.736,1.0,-177.9455141784591
6.744,1.0000000000000002,-178.30082843579876
6.752,0.9999999999999999,-178.65605618384345
6.76,0.9999999999999999,-179.0112011890271
6.768,1.0,-179.36626722173006
6.776,0.9999999999999999,-179.72125805621886
6.784,0.9999999999999999,179.92382252941235
6.792,1.0,179.56897075329928
6.8,0.9999999999999999,179.21418282986383
6.808,0.9999999999999999,178.85945496986943
6.816,1.0,178.50478338047503
6.824,1.0,178.15016426528808
6.832,1.0,177.79559382441667
6.84,1.0,177.44106825452022
6.848,1.0,177.08658374885977
6.856,0.9999999999999999,176.7321364973465
6.864,1.0,176.37772268659006
6.872,1.0,176.02333849994557
6.88,0.9999999999999999,175.66898011755978
6.888,1.0,175.31464371641653
6.896,1.0,174.960325470381
6.904,1.0,174.60602155024364
6.912,0.9999999999999999,174.25172812376292
6.92,0.9999999999999998,173.89744135570743
6.928,0.9999999999999999,173.5431574078974
6.936,1.0,173.1888724392454
6.944,0.9999999999999999,172.83458260579607
6.952,1.0,172.48028406076585
6.96,0.9999999999999999,172.12597295458147
6.968,0.9999999999999999,171.7716454349182
6.976,0.9999999999999999,171.4172976467373
6.984,1.0,171.06292573232315
6.992,0.9999999999999999,170.70852583131972
7.0,1.0,170.3540940807664
7.008,0.9999999999999999,169.9996266151339
7.016,0.9999999999999999,169.645119566359
7.024,1.0,169.2905690638794
7.032,0.9999999999999999,168.935971234668
7.04,1.0,168.58132220326698
7.048,1.0,168.2266180918211
7.056,1.0,167.8718550201114
7.064,1.0,167.51702910558797
7.072,1.0,167.1621364634029
7.08,1.0,166.80717320644274
7.088,0.9999999999999999,166.45213544536094
7.096,1.0,166.09701928861008
7.104,1.0,165.74182084247397
7.112,1.0,165.38653621109947
7.12,1.0,165.03116149652857
7.128,1.0,164.67569279873004
7.136,0.9999999999999999,164.32012621563135
7.144,1.0,163.9644578431503
7.152,1.0,163.6086837752271
7.16,1.0,163.2528001038559
7.168,1.0,162.8968029191171
7.176,1.0,162.54068830920917
7.184,0.9999999999999999,162.1844523604808
7.192,1.0,161.82809115746358
7.2,1.0,161.47160078290418
7.208,1.0,161.1149773177974
7.216,1.0,160.75821684141908
7.224,0.9999999999999998,160.40131543135942
7.232,0.9999999999999999,160.04426916355655
7.24,1.0,159.68707411233058
7.248,0.9999999999999999,159.32972635041781
7.256,1.0,158.97222194900553
7.264,1.0,158.61455697776694
7.272,1.0,158.2567275048971
7.28,1.0,157.89872959714845
7.288,1.0,157.54055931986784
7.296,1.0,157.18221273703347
7.304,1.0,156.82368591129233
7.312,1.0,156.46497490399878
7.32,1.0,156.10607577525323
7.328,1.0,155.74698458394175
7.336,0.9999999999999999,155.38769738777626
7.344,1.0,155.02821024333534
7.352,0.9999999999999999,154.66851920610614
7.36,0.9999999999999999,154.3086203305267
7.368,0.9999999999999999,153.9485096700291
7.376,1.0,153.58818327708371
7.384,1.0,153.227637203244
7.392,1.0,152.86686749919247
7.4,0.9999999999999999,152.5058702147873
7.4079999999999995,1.0,152.14464139911038
7.416,1.0,151.7831771005154
7.4239999999999995,1.0,151.42147336667833
7.432,0.9999999999999999,151.05952624464754
7.4399999999999995,0.9999999999999999,150.69733178089618
7.448,0.9999999999999998,150.33488602137461
7.4559999999999995,1.0,149.9721850115651
7.464,0.9999999999999999,149.6092247965365
7.4719999999999995,1.0,149.24600142100135
7.48,1.0,148.88251092937293
7.4879999999999995,1.0,148.51874936582496
7.496,1.0,148.15471277435128
7.504,1.0,147.79039719882806
7.5120000000000005,1.0,147.42579868307612
7.52,0.9999999999999999,147.0609132709261
7.5280000000000005,1.0,146.69573700628368
7.536,1.0,146.3302659331973
7.5440000000000005,0.9999999999999999,145.96449609592656
7.552,0.9999999999999999,145.59842353901308
7.5600000000000005,1.0,145.23204430735183
7.568,1.0,144.86535444626514
7.5760000000000005,0.9999999999999999,144.49835000157742
7.584,1.0,144.1310270196924
7.5920000000000005,1.0000000000000002,143.76338154767103
7.6,1.0,143.39540963331254
7.6080000000000005,0.9999999999999999,143.0271073252355
7.616,0.9999999999999999,142.65847067296255
7.6240000000000006,1.0,142.28949572700532
7.632,0.9999999999999999,141.92017853895254
7.640000000000001,0.9999999999999998,141.5505151615589
7.648,1.0,141.18050164883698
7.656000000000001,0.9999999999999999,140.81013405615013
7.664,0.9999999999999999,140.43940844030837
7.672,1.0,140.0683208596651
7.68,1.0,139.69686737421728
7.688,1.0,139.32504404570665
7.696,1.0,138.95284693772368
7.704,1.0,138.58027211581336
7.712,1.0,138.20731564758367
7.72,1.0,137.83397360281572
7.728,1.0,137.46024205357674
7.736,1.0,137.08611707433505
7.744,1.0,136.71159474207758
7.752,1.0,136.3366711364296
7.76,1.0,135.96134233977727
7.768,1.0,135.58560443739225
7.776,0.9999999999999999,135.20945351755904
7.784,0.9999999999999999,134.83288567170484
7.792,1.0,134.45589699453205
7.8,1.0,134.0784835841533
7.808,1.0,133.7006415422292
7.816,1.0,133.32236697410875
7.824,0.9999999999999999,132.94365598897267
7.832,0.9999999999999999,132.56450469997912
7.84,0.9999999999999999,132.18490922441265
7.848,1.0,131.80486568383571
7.856,1.0000000000000002,131.42437020424325
7.864,0.9999999999999999,131.04341891621996
7.872,1.0,130.66200795510088
7.88,1.0,130.2801334611346
7.888,1.0,129.89779157964972
7.896,1.0000000000000002,129.51497846122433
7.904,0.9999999999999999,129.13169026185864
7.912,0.9999999999999999,128.7479231431505
7.92,1.0,128.36367327247459
7.928,1.0,127.97893682316436
7.936,1.0,127.59370997469738
7.944,1.0,127.2079889128841
7.952,0.9999999941539158,126.82176983005978
7.96,0.9999998477679465,126.43504892527974
7.968,0.9999997011764163,126.04782240451833
7.976,0.9999995544222345,125.66008648087073
7.984,0.9999994075482824,125.27183737475896
7.992,0.9999992605974042,124.88307131414076
8.0,0.9999991136123972,124.49378453472241
8.008,0.9999989666360043,124.10397328017481
8.016,0.9999988197109025,123.71363380235341
8.024000000000001,0.9999986728796968,123.32276236152181
8.032,0.9999985261849086,122.9313552265788
8.04,0.9999983796689677,122.53940867528907
8.048,0.9999982333742032,122.14691899451806
8.056000000000001,0.999998087342834,121.75388248047031
8.064,0.9999979416169601,121.36029543893166
8.072,0.999997796238553,120.96615418551505
8.08,0.9999976512494474,120.57145504591053
8.088000000000001,0.9999975066913306,120.17619435613925
8.096,0.9999973626057342,119.78036846281113
8.104,0.999997219034026,119.38397372338616
8.112,0.9999970760173983,118.98700650644048
8.120000000000001,0.9999969335968608,118.5894631919361
8.128,0.9999967918132312,118.19134017149455
8.136,0.999996650707124,117.79263384867458
8.144,0.9999965103189444,117.39334063925413
8.152000000000001,0.9999963706888761,116.99345697151682
8.16,0.9999962318568748,116.59297928654176
8.168,0.9999960938626555,116.191904038498
8.176,0.9999959567456876,115.79022769494317
8.184000000000001,0.9999958205451814,115.38794673712674
8.192,0.9999956853000818,114.98505766029683
8.2,0.9999955510490575,114.58155697401145
8.208,0.9999954178304926,114.17744120245447
8.216000000000001,0.9999952856824762,113.77270688475582
8.224,0.9999951546427945,113.36735057531571
8.232,0.9999950247489208,112.96136884413323
8.24,0.9999948960380051,112.55475827713967
8.248000000000001,0.9999947685468674,112.14751547653627
8.256,0.999994642311986,111.73963706113597
8.264,0.9999945173694889,111.33111966670977
8.272,0.9999943937551454,110.92195994633758
8.280000000000001,0.9999942715043556,110.51215457076391
8.288,0.9999941506521418,110.10170022875741
8.296,0.9999940312331389,109.69059362747501
8.304,0.9999939132815847,109.27883149283086
8.312,0.9999937968313118,108.86641056986993
8.32,0.9999936819157376,108.45332762314526
8.328,0.9999935685678547,108.03957943710085
8.336,0.9999934568202219,107.62516281645802
8.344,0.9999933467049553,107.21007458660738
8.352,0.9999932382537183,106.7943115940041
8.36,0.9999931314977134,106.37787070656908
8.368,0.999993026467673,105.96074881409325
8.376,0.9999929231938479,105.54294282864781
8.384,0.9999928217060018,105.12444968499759
8.392,0.9999927220333993,104.7052663410203
8.4,0.999992624204797,104.285389778129
8.408,0.9999925282484368,103.86481700170037
8.416,0.9999924341920333,103.44354504150611
8.424,0.9999923420627689,103.02157095215023
8.432,0.9999922518872798,102.59889181350947
8.44,0.9999921636916514,102.17550473117946
8.448,0.9999920775014075,101.75140683692398
8.456,0.9999919933415004,101.32659528913011
8.464,0.9999919112363045,100.90106727326621
8.472,0.9999918312096058,100.47482000234588
8.48,0.9999917532845922,100.04785071739462
8.488,0.9999916774838479,99.62015668792253
8.496,0.9999916038293413,99.1917352123996
8.504,0.9999915323424182,98.7625836187368
8.512,0.9999914630437937,98.33269926477001
8.52,0.9999913959535424,97.9020795387495
8.528,0.9999913310910893,97.4707218598322
8.536,0.9999912684752046,97.03862367857937
8.544,0.9999912081239914,96.60578247745711
8.552,0.9999911500548803,96.17219577134217
8.56,0.9999910942846197,95.73786110803034
8.568,0.9999910408292694,95.30277606875018
8.576,0.99999098970419,94.86693826867922
8.584,0.9999909409240371,94.43034535746538
8.592,0.9999908945027522,93.99299501975078
8.6,0.9999908504535565,93.5548849757005
8.608,0.9999908087889408,93.11601298153367
8.616,0.9999907695206603,92.67637683005965
8.624,0.9999907326597259,92.23597435121594
8.632,0.9999906982163969,91.79480341261133
8.64,0.999990666200174,91.35286192007062
8.648,0.9999906366197923,90.91014781818433
8.656,0.9999906094832135,90.46665909085985
8.664,0.9999905847976196,90.02239376187747
8.672,0.9999905625694072,89.57734989544763
8.68,0.9999905428041788,89.13152559677282
8.688,0.9999905255067363,88.68491901261066
8.696,0.9999905106810772,88.23752833184128
8.704,0.9999904983303864,87.78935178603575
8.712,0.9999904884570294,87.3403876500287
8.72,0.9999904810625478,86.89063424249157
8.728,0.9999904761476542,86.44008992651003
8.736,0.9999904737122234,85.98875311016172
8.744,0.9999904737552913,85.53662224709792
8.752,0.9999904762750454,85.08369583712532
8.76,0.9999904812688233,84.62997242679144
8.768,0.9999904887331045,84.17545060997006
8.776,0.9999904986635088,83.72012902844978
8.784,0.9999905110547888,83.26400637252253
8.792,0.9999905259008278,82.8070813815749
8.8,0.9999905431946349,82.34935284467907
8.808,0.9999905629283408,81.8908196011863
8.815999999999999,0.9999905850931933,81.43148054131981
8.824,0.999990609679556,80.97133460676955
8.832,0.9999906366769029,80.5103807912871
8.84,0.9999906660738158,80.04861814128083
8.847999999999999,0.9999906978579821,79.5860457564112
8.856,0.9999907320161918,79.12266279018662
8.864,0.9999907685343353,78.65846845055908
8.872,0.9999908073973994,78.19346200051918
8.879999999999999,0.9999908485894693,77.72764275869073
8.888,0.9999908920937233,77.26101009992519
8.896,0.9999909378924327,76.79356345589504
8.904,0.9999909859669615,76.32530231568614
8.911999999999999,0.9999910362977643,75.85622622638856
8.92,0.9999910888643864,75.38633479368654
8.928,0.9999911436454634,74.91562768244705
8.936,0.9999912006187209,74.4441046173058
8.943999999999999,0.9999912597609755,73.97176538325162
8.952,0.9999913210481342,73.49860982620882
8.96,0.9999913844551966,73.02463785361722
8.968,0.9999914499562559,72.54984943500921
8.975999999999999,0.9999915175244983,72.07424460258376
8.984,0.9999915871322084,71.59782345177807
8.992,0.9999916587507682,71.12058614183566
9.0,0.9999917323506611,70.64253289637071
9.008,0.9999918079014741,70.16366400392857
9.016,0.999991885371902,69.68397981854268
9.024000000000001,0.9999919647297489,69.20348076028733
9.032,0.999992045941934,68.72216731582554
9.04,0.9999921289744942,68.24004003895212
9.048,0.9999922137925897,67.75709955113231
9.056000000000001,0.9999923003605082,67.27334654203531
9.064,0.9999923886416706,66.78878177006159
9.072,0.9999924785986357,66.30340606286485
9.08,0.9999925701931072,65.81722031786832
9.088000000000001,0.9999926633859398,65.33022550277468
9.096,0.9999927581371448,64.84242265606936
9.104,0.9999928544058989,64.35381288751681
9.112,0.9999929521505502,63.86439737865032
9.120000000000001,0.9999930513286268,63.37417738325459
9.128,0.9999931518968449,62.883154227840166
9.136,0.9999932538111171,62.391329312110194
9.144,0.9999933570265616,61.89870410941946
9.152000000000001,0.9999934614975124,61.405280167224966
9.16,0.9999935671775272,60.91105910752755
9.168,0.9999936740193994,60.416042627304506
9.176,0.9999937819751682,59.92023249893344
9.184000000000001,0.9999938909961293,59.42363057060658
9.192,0.9999940010328465,58.92623876673499
9.2,0.9999941120351639,58.42805908834268
9.208,0.9999942239522164,57.929093613450654
9.216000000000001,0.9999943367324456,57.42934449745076
9.224,0.99999445032361,56.92881397346755
9.232,0.9999945646727992,56.42750435270971
9.24,0.9999946797264492,55.92541802480984
9.248000000000001,0.9999947954303543,55.42255745815275
9.256,0.9999949117296832,54.91892520019128
9.264,0.9999950285689951,54.414523877749765
9.272,0.9999951458922532,53.909356197315276
9.280000000000001,0.9999952636428412,53.403424945316125
9.288,0.9999953817635813,52.896732988386646
9.296,0.9999955001967488,52.38928327361852
9.304,0.9999956188840902,51.881078828799
9.312000000000001,0.999995737766841,51.3721227626349
9.32,0.9999958567857434,50.862418264962066
9.328,0.999995975881065,50.351968606940225
9.336,0.999996094992617,49.840777141233474
9.344,0.9999962140597732,49.32884730217587
9.352,0.999996333021491,48.81618260592045
9.36,0.9999964518163296,48.30278665057448
9.368,0.9999965703824718,47.78866311631688
9.376,0.9999966886577436,47.273815765501546
9.384,0.9999968065796362,46.758248442742335
9.392,0.9999969240853263,46.24196507498322
9.4,0.9999970411116993,45.724969671550106
9.408,0.9999971575953708,45.20726632418685
9.416,0.9999972734727085,44.688859207072674
9.424,0.9999973886798563,44.16975257682342
9.432,0.9999975031527578,43.64995077247342
9.44,0.9999976168271772,43.12945821544116
9.448,0.9999977296387262,42.60827940947486
9.456,0.9999978415228873,42.08641894058151
9.464,0.9999979524150373,41.56388147693533
9.472,0.9999980622504732,41.040671768769386
9.48,0.9999981709644371,40.51679464824626
9.488,0.9999982784921417,39.99225502931139
9.496,0.9999983847687951,39.467057907525124
9.504,0.9999984897296283,38.94120835987719
9.512,0.9999985933099198,38.41471154457939
9.52,0.9999986954450236,37.88757270084057
9.528,0.9999987960703945,37.35979714861934
9.536,0.999998895121616,36.83139028835887
9.544,0.9999989925344261,36.30235760069914
9.552,0.9999990882447474,35.772704646170936
9.56,0.9999991821887112,35.242437064867296
9.568,0.9999992743026876,34.711560576096126
9.576,0.9999993645233126,34.180080978010196
9.584,0.999999452787516,33.648004147218366
9.592,0.9999995390325502,33.11533603837363
9.6,0.9999996231960172,32.58208268374235
9.608,0.9999997052158989,32.04825019275039
9.616,0.9999997850305842,31.513844751510042
9.624,0.9999998625788978,30.978872622323824
9.632,0.9999999378001301,30.443340143169117
9.64,0.9999999999999999,29.907253727159436
9.648,0.9999999999999999,29.37061986198665
9.656,0.9999999999999998,28.833445109339717
9.664,1.0,28.295736104304364
9.672,1.0,27.7574995547394
9.68,1.0,27.21874224063388
9.688,0.9999999999999999,26.67947101344116
9.696,0.9999999999999999,26.139692795393625
9.704,1.0,25.599414578794633
9.712,0.9999999999999999,25.05864342529122
9.72,1.0,24.51738646512404
9.728,0.9999999999999999,23.975650896358427
9.736,1.0,23.433443984092783
9.744,1.0,22.89077305964825
9.752,1.0,22.347645519736112
9.76,1.0,21.804068825606638
9.768,1.0,21.260050502175893
9.776,0.9999999999999998,20.715598137134435
9.784,1.0,20.170719380034203
9.792,1.0,19.625421941357697
9.8,1.0,19.079713591565703
9.808,0.9999999999999999,18.53360216012774
9.816,1.0,17.987095534531466
9.824,0.9999999999999999,17.44020165927513
9.832,1.0,16.892928534839683
9.84,1.0,16.34528421664433
9.847999999999999,1.0,15.797276813982206
9.856,1.0,15.248914488939521
9.864,1.0,14.700205455297024
9.872,0.9999999999999999,14.15115797741375
9.879999999999999,1.0,13.601780369093891
