freq,mag,phase
6.0,1.0,140.9775149400752
6.008,1.0,140.9251529769138
6.016,1.0,140.87279075016065
6.024,1.0,140.82042824638947
6.032,0.9999999999999999,140.7680654522581
6.04,0.9999999999999999,140.71570235450812
6.048,0.9999999999999999,140.66333893996475
6.056,0.9999999999999999,140.6109751955363
6.064,1.0,140.55861110821394
6.072,0.9999999983953753,140.5062466650716
6.08,0.999999878282254,140.45388185326544
6.088,0.9999997620943588,140.40151666003356
6.096,0.9999996498039714,140.3491510726959
6.104,0.9999995413828454,140.2967850786536
6.112,0.9999994368022175,140.24441866538908
6.12,0.9999993360328143,140.1920518204653
6.128,0.9999992390448613,140.13968453152583
6.136,0.9999991458080935,140.08731678629428
6.144,0.999999056291761,140.03494857257402
6.152,0.99999897046464,139.98257987824803
6.16,0.9999988882950397,139.93021069127835
6.168,0.9999988097508113,139.87784099970582
6.176,0.9999987347993555,139.82547079164982
6.184,0.9999986634076315,139.77310005530788
6.192,0.9999985955421637,139.7207287789554
6.2,0.9999985311690514,139.66835695094517
6.208,0.9999984702539748,139.6159845597072
6.216,0.9999984127622045,139.5636115937483
6.224,0.9999983586586069,139.5112380416518
6.232,0.9999983079076544,139.45886389207706
6.24,0.999998260473431,139.40648913375932
6.248,0.9999982163196398,139.3541137555092
6.256,0.9999981754096111,139.30173774621235
6.264,0.9999981377063095,139.24936109482928
6.272,0.99999810317234,139.1969837903948
6.28,0.9999980717699555,139.14460582201775
6.288,0.9999980434610651,139.09222717888065
6.296,0.9999980182072384,139.03984785023934
6.304,0.9999979959697142,138.98746782542256
6.312,0.9999979767094064,138.9350870938317
6.32,0.9999979603869101,138.88270564494036
6.328,0.9999979469625094,138.8303234682939
6.336,0.9999979363961825,138.77794055350932
6.344,0.9999979286476083,138.72555689027467
6.352,0.9999979236761734,138.67317246834872
6.36,0.9999979214409764,138.62078727756065
6.368,0.9999979219008356,138.56840130780964
6.376,0.9999979250142945,138.51601454906452
6.384,0.999997930739627,138.4636269913633
6.392,0.9999979390348436,138.41123862481294
6.4,0.9999979498576972,138.35884943958882
6.408,0.9999979631656879,138.30645942593452
6.416,0.9999979789160695,138.25406857416124
6.424,0.9999979970658542,138.20167687464757
6.432,0.9999980175718172,138.14928431783903
6.44,0.999998040390503,138.09689089424774
6.448,0.9999980654782307,138.04449659445194
6.456,0.9999980927910974,137.99210140909568
6.464,0.9999981222849843,137.93970532888835
6.472,0.9999981539155616,137.88730834460443
6.48,0.9999981876382918,137.83491044708288
6.4879999999999995,0.999998223408436,137.78251162722685
6.496,0.9999982611810575,137.73011187600338
6.504,0.9999983009110265,137.6777111844428
6.5120000000000005,0.9999983425530232,137.62530954363848
6.52,0.9999983860615443,137.57290694474636
6.5280000000000005,0.9999984313909055,137.52050337898453
6.536,0.9999984784952449,137.46809883763285
6.5440000000000005,0.9999985273285293,137.41569331203252
6.552,0.999998577844555,137.36328679358567
6.5600000000000005,0.9999986299969547,137.31087927375498
6.568,0.9999986837391975,137.2584707440632
6.5760000000000005,0.9999987390245959,137.20606119609283
6.584,0.9999987958063068,137.15365062148555
6.592,0.999998854037336,137.1012390119419
6.6,0.9999989136705405,137.04882635922093
6.608,0.9999989746586331,136.9964126551395
6.616,0.9999990369541831,136.9439978915722
6.624,0.9999991005096216,136.89158206045076
6.632,0.999999165277242,136.8391651537634
6.64,0.9999992312092046,136.78674716355485
6.648,0.9999992982575383,136.73432808192553
6.656,0.9999993663741424,136.68190790103128
6.664,0.9999994355107903,136.6294866130829
6.672,0.9999995056191308,136.57706421034564
6.68,0.9999995766506897,136.5246406851389
6.688,0.999999648556874,136.47221602983566
6.696,0.9999997212889709,136.41979023686196
6.704,0.9999997947981518,136.36736329869666
6.712,0.9999998690354724,136.31493520787083
6.72,0.9999999439518756,136.26250595696732
6.728,1.0,136.2100755386203
6.736,1.0000000000000002,136.1576439455148
6.744,1.0,136.1052111703863
6.752,1.0,136.0527772060201
6.76,0.9999999999999999,136.0003420452511
6.768,1.0,135.94790568096303
6.776,1.0,135.89546810608817
6.784,1.0,135.84302931360685
6.792,1.0,135.79058929654693
6.8,1.0,135.73814804798315
6.808,0.9999999999999999,135.68570556103705
6.816,1.0,135.63326182887602
6.824,1.0,135.58081684471304
6.832,0.9999999999999999,135.5283706018062
6.84,0.9999999999999999,135.47592309345802
6.848,1.0,135.4234743130151
6.856,1.0,135.37102425386757
6.864,1.0,135.31857290944845
6.872,1.0,135.26612027323335
6.88,0.9999999999999999,135.2136663387396
6.888,1.0,135.16121109952616
6.896,1.0,135.10875454919264
6.904,0.9999999999999999,135.0562966813791
6.912,1.0,135.00383748976523
6.92,1.0,134.95137696806992
6.928,1.0,134.89891511005084
6.936,1.0,134.84645190950357
6.944,1.0,134.79398736026124
6.952,0.9999999999999998,134.74152145619385
6.96,0.9999999999999998,134.6890541912078
6.968,1.0,134.63658555924513
6.976,1.0,134.58411555428307
6.984,1.0,134.53164417033332
6.992,1.0,134.47917140144156
7.0,1.0,134.4266972416867
7.008,1.0,134.37422168518023
7.016,1.0,134.32174472606587
7.024,1.0,134.26926635851845
7.032,0.9999999999999999,134.2167865767437
7.04,1.0,134.16430537497723
7.048,0.9999999999999999,134.1118227474842
7.056,1.0,134.05933868855837
7.064,1.0,134.00685319252142
7.072,0.9999999999999999,133.95436625372244
7.08,1.0,133.90187786653698
7.088,1.0,133.84938802536655
7.096,0.9999999999999998,133.7968967246376
7.104,1.0,133.74440395880114
7.112,0.9999999999999999,133.69190972233162
7.12,1.0,133.63941400972635
7.128,1.0,133.58691681550462
7.136,0.9999999999999999,133.5344181342071
7.144,1.0,133.48191796039464
7.152,0.9999999999999999,133.4294162886478
7.16,1.0,133.37691311356582
7.168,1.0,133.3244084297658
7.176,0.9999999999999999,133.27190223188188
7.184,0.9999999999999999,133.2193945145642
7.192,1.0,133.16688527247805
7.2,0.9999999999999999,133.114374500303
7.208,1.0,133.06186219273184
7.216,0.9999999999999999,133.00934834446974
7.224,1.0,132.95683295023304
7.232,0.9999999999999999,132.9043160047485
7.24,1.0,132.85179750275196
7.248,1.0,132.79927743898764
7.256,1.0,132.74675580820667
7.264,1.0,132.69423260516623
7.272,0.9999999999999999,132.64170782462836
7.28,0.9999999999999999,132.58918146135866
7.288,1.0,132.53665351012538
7.296,1.0,132.4841239656978
7.304,1.0,132.43159282284535
7.312,0.9999999999999999,132.3790600763361
7.32,1.0,132.32652572093545
7.328,1.0,132.2739897514049
7.336,1.0,132.22145216250055
7.344,0.9999999999999999,132.16891294897164
7.352,1.0,132.11637210555918
7.36,1.0,132.0638296269944
7.368,0.9999999999999999,132.01128550799712
7.376,1.0,131.95873974327426
7.384,0.9999999999999999,131.90619232751817
7.392,1.0,131.85364325540488
7.4,1.0,131.80109252159235
7.4079999999999995,1.0,131.7485401207188
7.416,1.0,131.6959860474007
7.4239999999999995,1.0,131.643430296231
7.432,1.0,131.59087286177697
7.4399999999999995,1.0,131.53831373857838
7.448,0.9999999999999999,131.48575292114535
7.4559999999999995,1.0,131.433190403956
7.464,1.0,131.3806261814545
7.4719999999999995,1.0,131.3280602480485
7.48,1.0,131.27549259810698
7.4879999999999995,1.0,131.22292322595754
7.496,1.0000000000000002,131.17035212588408
7.504,1.0,131.11777929212383
7.5120000000000005,1.0,131.06520471886503
7.52,0.9999999999999999,131.01262840024384
7.5280000000000005,1.0000000000000002,130.96005033034132
7.536,1.0,130.90747050318066
7.5440000000000005,1.0000000000000002,130.85488891272382
7.552,1.0,130.80230555286826
7.5600000000000005,1.0,130.74972041744365
7.568,0.9999999999999999,130.6971335002083
7.5760000000000005,1.0,130.64454479484542
7.584,1.0,130.5919542949595
7.5920000000000005,0.9999999999999999,130.53936199407207
7.6,0.9999999999999999,130.48676788561795
7.6080000000000005,0.9999999844484742,130.4341719629407
7.616,0.9999997796083087,130.3815742192883
7.6240000000000006,0.9999995680912516,130.32897464780842
7.632,0.999999349780828,130.27637324154387
7.640000000000001,0.9999991245580767,130.22376999342714
7.648,0.999998892301453,130.1711648962756
7.656000000000001,0.9999986528867287,130.11855794278586
7.664,0.9999984061868885,130.06594912552814
7.672,0.9999981520720185,130.01333843694016
7.68,0.9999978904091954,129.96072586932135
7.688,0.9999976210623654,129.90811141482592
7.696,0.9999973438922213,129.85549506545655
7.704,0.999997058756072,129.802876813057
7.712,0.9999967655077082,129.75025664930496
7.72,0.9999964639972598,129.69763456570428
7.728,0.9999961540710482,129.6450105535769
7.736,0.9999958355714331,129.59238460405442
7.744,0.9999955083366477,129.53975670806926
7.752,0.9999951722006317,129.4871268563455
7.76,0.9999948269928536,129.43449503938893
7.768,0.9999944725381247,129.38186124747725
7.776,0.9999941086564049,129.3292254706492
7.784,0.9999937351625988,129.27658769869325
7.792,0.9999933518663421,129.2239479211362
7.8,0.9999929585717783,129.17130612723042
7.808,0.9999925550773227,129.11866230594134
7.816,0.9999921411754167,129.06601644593343
7.824,0.9999917166522696,129.01336853555608
7.832,0.999991281287585,128.96071856282856
7.84,0.9999908348542772,128.90806651542383
7.848,0.9999903771181698,128.8554123806523
7.856,0.9999899078376818,128.8027561454437
7.864,0.9999894267634934,128.7500977963289
7.872,0.9999889336381991,128.6974373194201
7.88,0.9999884281959384,128.64477470039012
7.888,0.99998791016201,128.59210992445065
7.896,0.9999873792524624,128.53944297632916
7.904,0.9999868351736644,128.4867738402444
7.912,0.9999862776218518,128.4341024998808
7.92,0.9999857062826484,128.38142893836078
7.928,0.9999851208305607,128.32875313821623
7.936,0.9999845209284437,128.27607508135765
7.944,0.9999839062269387,128.22339474904163
7.952,0.9999832763638744,128.17071212183652
7.96,0.9999826309636392,128.1180271795858
7.968,0.9999819696365115,128.0653399013692
7.976,0.9999812919779538,128.01265026546147
7.984,0.9999805975678644,127.95995824928843
7.992,0.9999798859697827,127.9072638293803
8.0,0.9999791567300477,127.85456698132192
8.008,0.9999784093769053,127.80186767969984
8.016,0.9999776434195586,127.74916589804567
8.024000000000001,0.9999768583471602,127.69646160877595
8.032,0.999976053627741,127.6437547831277
8.04,0.9999752287070692,127.59104539108962
8.048,0.9999743830074379,127.53833340132856
8.056000000000001,0.9999735159263712,127.48561878111073
8.064,0.9999726268352472,127.43290149621765
8.072,0.9999717150778287,127.38018151085552
8.08,0.9999707799686934,127.32745878755841
8.088000000000001,0.9999698207915599,127.27473328708427
8.096,0.9999688367974968,127.22200496830311
8.104,0.9999678272030071,127.16927378807667
8.112,0.9999667911879787,127.11653970112917
8.120000000000001,0.9999657278934874,127.06380265990785
8.128,0.9999646364194437,127.01106261443262
8.136,0.9999635158220661,126.95831951213374
8.144,0.9999623651111691,126.90557329767668
8.152000000000001,0.9999611832472481,126.85282391277237
8.16,0.999959969138345,126.80007129597206
8.168,0.9999587216366708,126.74731538244475
8.176,0.9999574395349723,126.69455610373599
8.184000000000001,0.9999561215626079,126.64179338750576
8.192,0.999954766381315,126.58902715724345
8.2,0.9999533725806359,126.53625733195763
8.208,0.9999519386729702,126.48348382583792
8.216000000000001,0.9999504630882199,126.43070654788613
8.224,0.9999489441679835,126.37792540151288
8.232,0.999947380159262,126.32514028409689
8.24,0.9999457692076182,126.27235108650143
8.248000000000001,0.9999441093497438,126.21955769254465
8.256,0.9999423985053666,126.16675997841706
8.264,0.9999406344684343,126.113957812041
8.272,0.9999388148974926,126.06115105236478
8.280000000000001,0.9999369373051811,126.00833954858398
8.288,0.9999349990467392,125.95552313928034
8.296,0.9999329973074257,125.90270165146872
8.304,0.999930929088721,125.84987489953984
8.312,0.9999287911931785,125.79704268408652
8.32,0.999926580207774,125.744204790596
8.328,0.9999242924855686,125.69136098799295
8.336,0.9999219241254971,125.63851102701081
8.344,0.9999194709500429,125.58565463836915
8.352,0.9999169284805592,125.53279153072839
8.36,0.9999142919099331,125.47992138839005
8.368,0.9999115560722569,125.42704386870648
8.376,0.9999087154091393,125.37415859915403
8.384,0.9999057639322065,125.32126517401943
8.392,0.9999026951812999,125.26836315063963
8.4,0.999899502177796,125.21545204512154
8.408,0.999896177372383,125.16253132745776
8.416,0.9998927125865447,125.1096004159378
8.424,0.9998890989468546,125.05665867073229
8.432,0.9998853268110844,125.00370538650697
8.44,0.999881385684939,124.9507397838914
8.448,0.9998772641280536,124.89776099959204
8.456,0.9998729496477088,124.84476807489126
8.464,0.9998684285783851,124.79175994222496
8.472,0.9998636859450851,124.73873540945047
8.48,0.9998587053079353,124.68569314133786
8.488,0.9998534685852635,124.63263163769807
8.496,0.9998479558518318,124.57954920742317
8.504,0.9998421451085363,124.5264439375279
8.512,0.9998360120192163,124.47331365604893
8.52,0.9998295296098325,124.42015588734544
8.528,0.9998226679245774,124.36696779795524
8.536,0.9998153936331916,124.31374613061921
8.544,0.9998076695834383,124.26048712339836
8.552,0.9997994542930042,124.20718640986493
8.56,0.9997907013761038,124.15383889508223
8.568,0.9997813589026446,124.10043860037378
8.576,0.9997713686929338,124.04697846750338
8.584,0.9997606655606385,123.9934501096053
8.592,0.9997491765338148,123.93984349159588
8.6,0.9997368201145119,123.88614651624691
8.608,0.9997235056906016,123.8323444827443
8.616,0.9997091333062595,123.7784193709705
8.624,0.9996935941601021,123.72434888484835
8.632,0.9996767724863495,123.67010515861745
8.64,0.9996585499849677,123.61565298586206
8.648,0.9996388148911285,123.56094736469637
8.656,0.9996174794731698,123.50593005219595
8.664,0.9995945129362052,123.45052467012212
8.672,0.9995700028116802,123.39462968149543
8.68,0.9995442698690175,123.33810824804303
8.688,0.9995180855137108,123.28077361406109
8.696,0.9994930894486774,123.22236847293595
8.704,0.9994726058669571,123.16253770267957
8.712,0.9994632602733725,123.10079926581253
8.72,0.9994781799378516,123.03653914770986
8.728,0.9995430667658396,122.96912744600539
8.736,0.9997059060604059,122.89846067123158
8.744,0.9999999999999999,122.82664898154624
8.752,0.9999999999999999,122.76126862500607
8.76,0.9999999999999999,122.71525224096615
8.768,1.0,122.69260614748065
8.776,0.9999999999999999,122.67794068137583
8.784,1.0,122.65568061827929
8.792,1.0,122.62259446119403
8.8,1.0,122.58144183789737
8.808,1.0,122.53529988783647
8.815999999999999,1.0,122.48623628874205
8.824,1.0,122.43547314567684
8.832,1.0,122.38371146263209
8.84,0.9999999999999998,122.33135519301406
8.847999999999999,1.0,122.27864105430356
8.856,0.9999999999999999,122.22571055223369
8.864,0.9999999999999999,122.17264990708051
8.872,1.0,122.11951252439162
8.879999999999999,1.0,122.06633190998177
8.888,0.9999999999999999,122.01312926156294
8.896,1.0,121.95991803041063
8.904,1.0,121.90670671941868
8.911999999999999,1.0,121.85350063195123
8.92,1.0,121.80030298354944
8.928,1.0,121.7471156191896
8.936,1.0,121.6939394820958
8.943999999999999,0.9999999999999999,121.64077492351481
8.952,0.9999999999999998,121.58762190923939
8.96,1.0,121.53448015823412
8.968,0.9999999999999999,121.48134923609781
8.975999999999999,0.9999999999999999,121.42822861819808
8.984,1.0,121.37511773226565
8.992,0.9999999999999999,121.32201598697925
9.0,0.9999999999999999,121.26892279094632
9.008,0.9999999999999999,121.21583756508232
9.016,1.0,121.16275975043202
9.024000000000001,1.0,121.10968881286146
9.032,1.0,121.05662424559247
9.04,1.0,121.00356557027438
9.048,1.0,120.95051233706556
9.056000000000001,0.9999999999999999,120.89746412406383
9.064,1.0,120.84442053631801
9.072,0.9999999999999999,120.79138120458428
9.08,0.9999999999999999,120.73834578394461
9.088000000000001,0.9999999999999999,120.68531395236154
9.096,1.0,120.63228540922472
9.104,0.9999999999999999,120.57925987392562
9.112,1.0,120.52623708448196
9.120000000000001,0.9999999999999999,120.47321679622752
9.128,1.0,120.42019878057347
9.136,0.9999999999999999,120.36718282384719
9.144,1.0,120.31416872620744
9.152000000000001,0.9999999999999998,120.26115630063515
9.16,0.9999999999999999,120.20814537199712
9.168,1.0,120.15513577617978
9.176,1.0,120.10212735928772
9.184000000000001,0.9999999999999998,120.04911997690431
9.192,1.0,119.99611349340925
9.2,1.0,119.94310778134933
9.208,1.0,119.89010272085821
9.216000000000001,0.9999999999999999,119.83709819912178
9.224,0.9999999999999998,119.7840941098852
9.232,1.0,119.73109035299777
9.24,0.9999999999999999,119.67808683399434
9.248000000000001,0.9999999999999999,119.62508346370794
9.256,0.9999999999999999,119.57208015791258
9.264,0.9999999999999999,119.51907683699386
9.272,1.0,119.46607342564342
9.280000000000001,0.9999999999999999,119.41306985257768
9.288,1.0,119.36006605027697
9.296,1.0,119.30706195474389
9.304,1.0000000000000002,119.25405750527993
9.312000000000001,1.0,119.20105264427829
9.32,1.0,119.14804731703128
9.328,1.0,119.09504147155222
9.336,0.9999999999999999,119.04203505840934
9.344,0.9999999999999999,118.989028030572
9.352,1.0,118.93602034326722
9.36,0.9999999999999998,118.88301195384638
9.368,1.0,118.83000282166088
9.376,1.0,118.77699290794656
9.384,1.0,118.72398217571548
9.392,1.0,118.67097058965537
9.4,1.0,118.61795811603528
9.408,0.9999999999999999,118.56494472261787
9.416,1.0,118.51193037857695
9.424,0.9999999999999999,118.45891505442074
9.432,1.0,118.40589872191958
9.44,1.0,118.35288135403871
9.448,1.0,118.29986292487465
9.456,1.0,118.2468434095961
9.464,0.9999999999999999,118.19382278438815
9.472,1.0,118.14080102639987
9.48,1.0,118.08777811369517
9.488,1.0,118.0347540252067
9.496,1.0,117.98172874069213
9.504,0.9999999999999999,117.92870224069328
9.512,1.0,117.87567450649765
9.52,0.9999999999999999,117.82264552010191
9.528,1.0,117.7696152641778
9.536,1.0,117.71658372203963
9.544,1.0,117.66355087761384
9.552,1.0,117.61051671541024
9.56,1.0,117.55748122049468
9.568,1.0,117.50444437846342
9.576,0.9999999999999999,117.45140617541861
9.584,1.0,117.3983665979455
9.592,1.0,117.3453256330904
9.6,0.9999999999999999,117.29228326834017
9.608,0.9999999999999999,117.23923949160255
9.616,0.9999999999999999,117.18619429118777
9.624,1.0,117.13314765579072
9.632,0.9999999999999999,117.08009957447452
9.64,0.9999999999999999,117.02705003665433
9.648,1.0,116.9739990320827
9.656,1.0,116.9209465508349
9.664,1.0,116.8678925832956
9.672,1.0,116.81483712014578
9.68,1.0,116.76178015235051
9.688,1.0,116.70872167114725
9.696,1.0,116.65566166803464
9.704,0.9999999999999999,116.60260013476201
9.712,1.0,116.54953706331919
9.72,0.9999999999999999,116.49647244592687
9.728,0.9999999999999999,116.44340627502748
9.736,0.9999999999999999,116.39033854327637
9.744,1.0,116.3372692435335
9.752,1.0,116.28419836885539
9.76,1.0,116.23112591248761
9.768,1.0,116.17805186785742
9.776,1.0,116.12497622856691
9.784,1.0000000000000002,116.0718989883861
9.792,0.9999999999999999,116.01882014124703
9.8,1.0,115.96573968123727
9.808,1.0000000000000002,115.9126576025943
9.816,0.9999999999999999,115.85957389969992
9.824,0.9999999999999999,115.806488567075
9.832,1.0,115.75340159937417
9.84,0.9999999999999999,115.70031299138115
9.847999999999999,1.0,115.64722273800399
9.856,0.9999999999999999,115.59413083427054
9.864,1.0,115.5410372753242
9.872,0.9999999999999999,115.48794205641981
9.879999999999999,1.0,115.4348451729196
9.888,1.0,115.38174662028949
9.896,0.9999999999999999,115.32864639409544
9.904,1.0,115.27554448999993
9.911999999999999,0.9999999999999999,115.22244090375847
9.92,1.0,115.16933563121657
9.928,0.9999999999999999,115.1162286683066
9.936,1.0,115.0631200110447
9.943999999999999,1.0000000000000002,115.01000965552798
9.952,1.0,114.95689759793173
9.96,1.0,114.90378383450688
9.968,0.9999999999999999,114.85066836157732
9.975999999999999,0.9999999999999999,114.79755117553745
9.984,1.0,114.74443227284989
9.992,0.9999999999999998,114.6913116500432
10.0,0.9999999999999999,114.6381893037096
10.008,1.0,114.58506523050296
10.016,0.9999999999999999,114.53193942713668
