freq,mag,phase
6.0,0.9999972670521883,108.97953878518946
6.008,0.9999972001018332,108.87986284646149
6.016,0.9999971346693167,108.78016695953862
6.024,0.9999970707516076,108.68045109480335
6.032,0.9999970083455282,108.5807152226509
6.04,0.9999969474477579,108.48095931348914
6.048,0.9999968880548348,108.3811833377386
6.056,0.9999968301631571,108.28138726583241
6.064,0.9999967737689852,108.18157106821623
6.072,0.9999967188684423,108.08173471534833
6.08,0.9999966654575175,107.98187817769946
6.088,0.9999966135320668,107.88200142575283
6.096,0.9999965630878146,107.78210443000417
6.104,0.9999965141203561,107.68218716096159
6.112,0.9999964666251585,107.58224958914559
6.12,0.9999964205975623,107.48229168508905
6.128,0.9999963760327844,107.38231341933717
6.136,0.9999963329259174,107.28231476244743
6.144,0.9999962912719339,107.18229568498963
6.152,0.9999962510656863,107.08225615754571
6.16,0.9999962123019093,106.98219615070992
6.168,0.9999961749752213,106.88211563508861
6.176,0.999996139080126,106.78201458130025
6.184,0.9999961046110142,106.68189295997544
6.192,0.9999960715621653,106.58175074175684
6.2,0.9999960399277489,106.48158789729914
6.208,0.9999960097018267,106.38140439726902
6.216,0.9999959808783535,106.28120021234513
6.224,0.9999959534511799,106.18097531321803
6.232,0.9999959274140523,106.0807296705902
6.24,0.9999959027606162,105.98046325517593
6.248,0.9999958794844169,105.88017603770139
6.256,0.9999958575789009,105.77986798890447
6.264,0.9999958370374179,105.67953907953485
6.272,0.9999958178532222,105.5791892803539
6.28,0.9999958000194749,105.47881856213465
6.288,0.9999957835292438,105.3784268956618
6.296,0.9999957683755073,105.27801425173163
6.304,0.9999957545511541,105.17758060115197
6.312,0.999995742048985,105.0771259147422
6.32,0.9999957308617152,104.97665016333313
6.328,0.9999957209819759,104.87615331776709
6.336,0.9999957124023142,104.77563534889774
6.344,0.9999957051151975,104.67509622759013
6.352,0.9999956991130118,104.57453592472069
6.36,0.9999956943880651,104.47395441117709
6.368,0.9999956909325891,104.37335165785821
6.376,0.9999956887387397,104.27272763567422
6.384,0.9999956877985988,104.17208231554639
6.392,0.9999956881041763,104.07141566840717
6.4,0.9999956896474108,103.97072766520004
6.408,0.9999956924201723,103.87001827687956
6.416,0.9999956964142618,103.76928747441129
6.424,0.9999957016214145,103.66853522877173
6.432,0.9999957080333005,103.56776151094833
6.44,0.9999957156415261,103.46696629193939
6.448,0.9999957244376361,103.36614954275404
6.456,0.9999957344131136,103.26531123441224
6.464,0.9999957455593834,103.16445133794464
6.472,0.9999957578678119,103.06356982439267
6.48,0.9999957713297098,102.96266666480832
6.4879999999999995,0.9999957859363321,102.86174183025432
6.496,0.9999958016788807,102.76079529180383
6.504,0.999995818548505,102.65982702054069
6.5120000000000005,0.9999958365363043,102.55883698755909
6.52,0.9999958556333276,102.45782516396379
6.5280000000000005,0.9999958758305768,102.35679152086982
6.536,0.9999958971190067,102.25573602940267
6.5440000000000005,0.9999959194895269,102.15465866069803
6.552,0.9999959429330032,102.05355938590196
6.5600000000000005,0.9999959674402593,101.95243817617062
6.568,0.9999959930020773,101.85129500267044
6.5760000000000005,0.9999960196091996,101.75012983657788
6.584,0.9999960472523302,101.64894264907954
6.592,0.9999960759221358,101.54773341137205
6.6,0.9999961056092477,101.44650209466194
6.608,0.9999961363042625,101.34524867016576
6.616,0.9999961679977435,101.2439731091099
6.624,0.9999962006802223,101.14267538273062
6.632,0.9999962343422003,101.04135546227393
6.64,0.9999962689741488,100.94001331899561
6.648,0.999996304566512,100.83864892416112
6.656,0.9999963411097071,100.7372622490456
6.664,0.9999963785941259,100.63585326493371
6.672,0.9999964170101358,100.53442194311974
6.68,0.9999964563480817,100.43296825490742
6.688,0.9999964965982868,100.33149217160995
6.696,0.9999965377510538,100.22999366454991
6.704,0.9999965797966666,100.12847270505928
6.712,0.9999966227253909,100.02692926447928
6.72,0.9999966665274755,99.92536331416039
6.728,0.9999967111931545,99.82377482546232
6.736,0.9999967567126474,99.72216376975388
6.744,0.9999968030761603,99.62053011841301
6.752,0.9999968502738881,99.5188738428267
6.76,0.9999968982960149,99.41719491439086
6.768,0.999996947132715,99.31549330451045
6.776,0.9999969967741548,99.21376898459926
6.784,0.9999970472104935,99.11202192607989
6.792,0.9999970984318848,99.01025210038377
6.8,0.999997150428477,98.90845947895107
6.808,0.9999972031904151,98.8066440332306
6.816,0.9999972567078419,98.70480573467982
6.824,0.9999973109708987,98.60294455476476
6.832,0.999997365969726,98.50106046495998
6.84,0.9999974216944665,98.39915343674849
6.848,0.9999974781352637,98.29722344162172
6.856,0.9999975352822651,98.19527045107948
6.864,0.9999975931256223,98.09329443662985
6.872,0.9999976516554923,97.99129536978919
6.88,0.9999977108620379,97.88927322208204
6.888,0.9999977707354308,97.7872279650411
6.896,0.99999783126585,97.68515957020712
6.904,0.9999978924434849,97.58306800912895
6.912,0.9999979542585355,97.48095325336337
6.92,0.9999980167012135,97.37881527447507
6.928,0.9999980797617436,97.27665404403666
6.936,0.9999981434303644,97.1744695336285
6.944,0.9999982076973292,97.07226171483876
6.952,0.9999982725529074,96.97003055926328
6.96,0.9999983379873856,96.86777603850553
6.968,0.9999984039910678,96.76549812417662
6.976,0.9999984705542777,96.66319678789512
6.984,0.9999985376673578,96.56087200128714
6.992,0.9999986053206732,96.45852373598615
7.0,0.99999867350461,96.35615196363302
7.008,0.9999987422095769,96.25375665587592
7.016,0.9999988114260071,96.15133778437023
7.024,0.9999988811443584,96.04889532077856
7.032,0.9999989513551145,95.94642923677061
7.04,0.9999990220487858,95.84393950402321
7.048,0.99999909321591,95.74142609422012
7.056,0.9999991648470539,95.63888897905211
7.064,0.9999992369328137,95.53632813021687
7.072,0.9999993094638159,95.43374351941887
7.08,0.9999993824307185,95.33113511836939
7.088,0.9999994558242113,95.22850289878642
7.096,0.9999995296350183,95.12584683239463
7.104,0.9999996038538962,95.02316689092528
7.112,0.9999996784716372,94.92046304611617
7.12,0.9999997534790692,94.81773526971159
7.128,0.9999998288670573,94.71498353346226
7.136,0.9999999046265029,94.61220780912522
7.144,0.9999999807483465,94.50940806846391
7.152,1.0,94.40658428324791
7.16,0.9999999999999999,94.30373642525304
7.168,1.0,94.20086446626124
7.176,1.0,94.09796837806049
7.184,0.9999999999999999,93.99504813244481
7.192,1.0,93.89210370121413
7.2,1.0,93.78913505617425
7.208,1.0,93.68614216913684
7.216,0.9999999999999999,93.58312501191931
7.224,1.0,93.48008355634471
7.232,1.0,93.37701777424179
7.24,1.0,93.27392763744488
7.248,1.0,93.17081311779378
7.256,0.9999999999999999,93.06767418713375
7.264,1.0,92.96451081731546
7.272,1.0,92.86132298019488
7.28,1.0,92.75811064763327
7.288,0.9999999999999999,92.65487379149708
7.296,1.0,92.5516123836579
7.304,1.0,92.44832639599238
7.312,0.9999999999999999,92.34501580038221
7.32,1.0,92.24168056871403
7.328,0.9999999999999999,92.13832067287933
7.336,1.0,92.03493608477449
7.344,0.9999999999999999,91.93152677630059
7.352,0.9999999999999999,91.82809271936343
7.36,1.0,91.72463388587347
7.368,1.0,91.62115024774573
7.376,1.0,91.5176417768997
7.384,1.0,91.41410844525934
7.392,0.9999999999999999,91.31055022475303
7.4,1.0,91.2069670873134
7.4079999999999995,0.9999999999999999,91.10335900487742
7.416,1.0,90.99972594938609
7.4239999999999995,1.0,90.89606789278473
7.432,0.9999999999999998,90.79238480702256
7.4399999999999995,1.0,90.68867666405293
7.448,1.0,90.584943435833
7.4559999999999995,0.9999999999999999,90.48118509432388
7.464,0.9999999999999999,90.37740161149041
7.4719999999999995,1.0,90.27359295930127
7.48,1.0,90.16975910972869
7.4879999999999995,1.0,90.06590003474862
7.496,1.0,89.96201570634045
7.504,1.0,89.85810609648715
7.5120000000000005,1.0,89.754171177175
7.52,1.0,89.6502109203937
7.5280000000000005,1.0,89.5462252981362
7.536,1.0,89.44221428239868
7.5440000000000005,1.0,89.33817784518044
7.552,0.9999999999999999,89.23411595848393
7.5600000000000005,1.0,89.13002859431451
7.568,0.9999999999999999,89.02591572468062
7.5760000000000005,1.0,88.92177732159347
7.584,1.0,88.8176133570672
7.5920000000000005,0.9999999999999999,88.71342380311862
7.6,1.0,88.60920863176727
7.6080000000000005,1.0,88.5049678150353
7.616,1.0,88.40070132494745
7.6240000000000006,1.0,88.29640913353087
7.632,0.9999999999999999,88.19209121281524
7.640000000000001,1.0,88.08774753483252
7.648,1.0,87.98337807161701
7.656000000000001,1.0,87.87898279520518
7.664,1.0,87.77456167763572
7.672,1.0,87.67011469094939
7.68,0.9999999999999999,87.56564180718894
7.688,1.0,87.46114299839914
7.696,1.0,87.35661823662663
7.704,1.0,87.25206749391984
7.712,1.0,87.14749074232901
7.72,1.0,87.04288795390606
7.728,0.9999999999999999,86.9382591007045
7.736,1.0,86.83360415477947
7.744,1.0,86.72892308818751
7.752,1.0,86.62421587298665
7.76,0.9999999999999998,86.51948248123628
7.768,1.0,86.41472288499703
7.776,1.0,86.30993705633082
7.784,1.0,86.20512496730068
7.792,1.0,86.10028658997071
7.8,0.9999999999999999,85.99542189640609
7.808,0.9999999999999999,85.89053085867293
7.816,0.9999999999999999,85.78561344883822
7.824,1.0,85.68066963896979
7.832,0.9999999999999999,85.57569940113619
7.84,1.0,85.47070270740667
7.848,1.0,85.36567952985115
7.856,0.9999999999999999,85.26062984054
7.864,1.0,85.15555361154416
7.872,1.0,85.05045081493496
7.88,0.9999999999999999,84.94532142278409
7.888,0.9999999999999999,84.84016540716347
7.896,1.0,84.73498274014531
7.904,1.0,84.62977339380191
7.912,1.0,84.52453734020568
7.92,1.0,84.41927455142906
7.928,1.0,84.31398499954436
7.936,1.0,84.20866865662386
7.944,1.0000000000000002,84.10332549473958
7.952,1.0,83.99795548596333
7.96,0.9999999999999999,83.89255860236658
7.968,0.9999999999999998,83.78713481602038
7.976,0.9999999999999999,83.68168409899536
7.984,1.0,83.57620642336164
7.992,1.0,83.47070176118868
8.0,1.0000000000000002,83.36517008454533
8.008,1.0,83.2596113654997
8.016,1.0,83.1540255761191
8.024000000000001,1.0,83.04841268846995
8.032,0.9999999999999999,82.94277267461783
8.04,0.9999999999999999,82.83710550662722
8.048,1.0,82.73141115656158
8.056000000000001,1.0,82.62568959648323
8.064,0.9999999999999999,82.51994079845332
8.072,1.0,82.41416473453171
8.08,1.0,82.30836137677689
8.088000000000001,1.0,82.20253069724599
8.096,0.9999999999999999,82.09667266799471
8.104,1.0,81.99078726107717
8.112,1.0,81.88487444854584
8.120000000000001,1.0,81.77893420245161
8.128,1.0,81.67296649484362
8.136,1.0,81.56697129776914
8.144,0.9999999999999999,81.46094858327362
8.152000000000001,0.9999999999999999,81.35489832340059
8.16,0.9999999999999999,81.24882049019156
8.168,1.0000000000000002,81.14271505568597
8.176,0.9999999999999999,81.03658199192108
8.184000000000001,0.9999999999999999,80.93042127093202
8.192,1.0,80.82423286475162
8.2,0.9999999999999999,80.7180167454104
8.208,1.0,80.61177288493634
8.216000000000001,1.0,80.50550125535517
8.224,1.0,80.39920182868995
8.232,1.0,80.29287457696115
8.24,1.0,80.18651947218656
8.248000000000001,0.9999999999999999,80.08013648638126
8.256,1.0,79.97372559155761
8.264,0.9999999999999999,79.86728675972493
8.272,0.9999999999999998,79.76081996288971
8.280000000000001,1.0,79.65432517305547
8.288,0.9999999999999999,79.5478023622226
8.296,1.0,79.4412515023884
8.304,1.0,79.33467256554691
8.312,0.9999999999999999,79.22806552368903
8.32,1.0,79.12143034880218
8.328,1.0,79.01476701287054
8.336,1.0,78.90807548787468
8.344,1.0,78.8013557457918
8.352,1.0,78.69460775859535
8.36,0.9999999999999999,78.58783149825527
8.368,0.9999999999999999,78.48102693673768
8.376,0.9999999999999999,78.37419404600499
8.384,0.9999999999999999,78.26733279801564
8.392,1.0,78.16044316472434
8.4,1.0,78.05352511808164
8.408,0.9999999999999999,77.94657863003415
8.416,0.9999999999999998,77.83960367252433
8.424,0.9999999999999999,77.73260021749047
8.432,1.0,77.62556823686664
8.44,0.9999999999999999,77.51850770258261
8.448,1.0,77.41141858656371
8.456,0.9999999999999999,77.30430086073095
8.464,0.9999999999999999,77.19715449700077
8.472,1.0,77.08997946728505
8.48,0.9999999999999999,76.98277574349108
8.488,0.9999999999999999,76.87554329752146
8.496,0.9999999999999999,76.76828210127398
8.504,0.9999999999999999,76.66099212664173
8.512,1.0,76.55367334551276
8.52,1.0,76.44632572977036
8.528,1.0,76.33894925129263
8.536,0.9999999999999999,76.2315438819528
8.544,0.9999999999999999,76.12410959361875
8.552,1.0,76.01664635815335
8.56,0.9999999999999998,75.90915414741409
8.568,0.9999999999999999,75.80163293325323
8.576,0.9999999999999999,75.69408268751758
8.584,1.0,75.58650338204853
8.592,1.0,75.47889498868192
8.6,1.0,75.37125747924813
8.608,1.0,75.26359082557178
8.616,1.0,75.15589499947187
8.624,1.0,75.0481699727616
8.632,0.9999999999999999,74.9404157172484
8.64,0.9999999999999999,74.83263220473374
8.648,1.0,74.72481940701327
8.656,1.0,74.6169772958765
8.664,1.0,74.50910584310697
8.672,1.0,74.401205020482
8.68,0.9999999999999999,74.29327479977286
8.688,0.9999999999999998,74.18531515274444
8.696,1.0,74.07732605115541
8.704,1.0,73.96930746675798
8.712,1.0,73.86125937129802
8.72,1.0,73.75318173651483
8.728,0.9999999999999999,73.64507453414124
8.736,0.9999999999999999,73.53693773590335
8.744,1.0,73.42877131352074
8.752,1.0,73.3205752387061
8.76,1.0,73.21234948316545
8.768,1.0,73.10409401859786
8.776,1.0,72.99580881669559
8.784,1.0,72.88749384914384
8.792,0.9999999999999999,72.77914908762081
8.8,1.0,72.6707745037976
8.808,0.9999999999999999,72.5623700693382
8.815999999999999,1.0,72.45393575589937
8.824,0.9999999999999999,72.34547153513053
8.832,1.0,72.2369773786739
8.84,0.9999999999999999,72.12845325816427
8.847999999999999,1.0,72.01989914522892
8.856,0.9999999999999999,71.91131501148769
8.864,1.0,71.80270082855284
8.872,1.0,71.6940565680291
8.879999999999999,0.9999999999999999,71.58538220151338
8.888,1.0,71.47667770059492
8.896,1.0,71.3679430368552
8.904,1.0,71.25917818186785
8.911999999999999,1.0,71.15038310719855
8.92,1.0,71.041557784405
8.928,0.9999999999999999,70.93270218503699
8.936,1.0000000000000002,70.82381628063615
8.943999999999999,1.0,70.71490004273599
8.952,1.0000000000000002,70.6059534428618
8.96,1.0,70.4969764525307
8.968,1.0,70.38796904325147
8.975999999999999,0.9999999999999999,70.27893118652455
8.984,1.0,70.16986285384188
8.992,1.0,70.06076401668703
9.0,1.0,69.95163464653506
9.008,1.0,69.84247471485234
9.016,1.0,69.73328419309668
9.024000000000001,0.9999999999999999,69.62406305271719
9.032,0.9999999999999999,69.51481126515426
9.04,1.0,69.40552880183944
9.048,1.0,69.29621563419538
9.056000000000001,0.9999999999999999,69.18687173363591
9.064,1.0,69.07749707156587
9.072,0.9999999999999999,68.96809161938108
9.08,0.9999999999999999,68.85865534846822
9.088000000000001,1.0,68.74918823020492
9.096,0.9999999999999999,68.63969023595965
9.104,0.9999999999999999,68.53016133709157
9.112,0.9999999999999999,68.42060150495055
9.120000000000001,1.0,68.31101071087718
9.128,1.0,68.20138892620267
9.136,1.0,68.09173612224869
9.144,1.0,67.9820522703274
9.152000000000001,0.9999999999999999,67.87233734174156
9.16,0.9999999999999999,67.7625913077842
9.168,1.0,67.65281413973871
9.176,0.9999999999999999,67.54300580887875
9.184000000000001,1.0,67.43316628646822
9.192,0.9999999999999999,67.3232955437613
9.2,1.0,67.21339355200216
9.208,1.0,67.10346028242512
9.216000000000001,1.0,66.9934957062545
9.224,1.0,66.88349979470469
9.232,1.0,66.77347251897989
9.24,1.0,66.66341385027415
9.248000000000001,1.0,66.55332375977149
9.256,0.9999999999999999,66.44320221864561
9.264,0.9999999999999999,66.33304919805991
9.272,1.0,66.22286466916749
9.280000000000001,1.0,66.11264860311105
9.288,0.9999999999999999,66.00240097102294
9.296,1.0,65.89212174402489
9.304,1.0,65.7818108932282
9.312000000000001,1.0,65.67146838973352
9.32,1.0,65.56109420463098
9.328,1.0,65.45068830899989
9.336,1.0,65.34025067390888
9.344,1.0,65.22978127041584
9.352,0.9999999999999999,65.11928006956778
9.36,1.0,65.00874704240086
9.368,1.0,64.89818215994025
9.376,0.9999999999999999,64.78758539320023
9.384,1.0,64.67695671318397
9.392,1.0,64.56629609088363
9.4,0.9999999999999999,64.45560349728017
9.408,0.9999999999999999,64.34487890334347
9.416,1.0,64.23412228003208
9.424,1.0,64.12333359829337
9.432,1.0,64.0125128290633
9.44,0.9999999999999999,63.901659943266544
9.448,1.0,63.79077491181631
9.456,1.0,63.67985770561438
9.464,0.9999999999999999,63.568908295550955
9.472,0.9999999999999999,63.45792665250477
9.48,1.0,63.34691274734281
9.488,0.9999999999999999,63.23586655092059
9.496,1.0,63.124788034081746
9.504,1.0,63.01367716765828
9.512,1.0,62.902533922470305
9.52,1.0,62.79135826932617
9.528,1.0,62.68015017902224
9.536,1.0,62.568909622343064
9.544,1.0,62.45763657006103
9.552,1.0,62.34633099293667
9.56,1.0,62.23499286171828
9.568,1.0,62.12362214714213
9.576,1.0,62.012218819932244
9.584,0.9999999999999999,61.900782850800496
9.592,1.0,61.789314210446356
9.6,1.0,61.67781286955718
9.608,0.9999999999999999,61.56627879880772
9.616,1.0,61.45471196886052
9.624,0.9999999999999999,61.343112350365544
9.632,0.9999999999999999,61.23147991396031
9.64,0.9999999999999998,61.119814630269715
9.648,0.9999999999999999,61.00811646990614
9.656,1.0,60.896385403469274
9.664,1.0,60.78462140154613
9.672,1.0,60.67282443471095
9.68,0.9999999999999999,60.56099447352527
9.688,0.9999999999999999,60.44913148853767
9.696,1.0,60.33723545028397
9.704,1.0,60.22530632928698
9.712,1.0,60.113344096056615
9.72,1.0,60.00134872108969
9.728,1.0,59.889320174870036
9.736,0.9999999999999999,59.77725842786828
9.744,1.0,59.66516345054201
9.752,1.0,59.55303521333548
9.76,1.0,59.44087368667981
9.768,0.9999999999999999,59.32867884099269
9.776,1.0,59.216450646678624
9.784,0.9999999999999999,59.104189074128605
9.792,0.9999999999999999,58.99189409372023
9.8,1.0,58.87956567581755
9.808,0.9999999999999999,58.76720379077123
9.816,1.0,58.65480840891817
9.824,0.9999999999999999,58.542379500581816
9.832,0.9999999999999999,58.4299170360718
9.84,1.0,58.31742098568414
9.847999999999999,0.9999999999999999,58.20489131970099
9.856,0.9999999999999999,58.092328008390716
9.864,1.0,57.97973102200788
9.872,1.0,57.86710033079309
9.879999999999999,1.0,57.75443590497297
9.888,1.0,57.641737714760126
9.896,1.0,57.5290057303532
9.904,1.0,57.416239921936636
9.911999999999999,0.9999999999999999,57.30344025968079
9.92,1.0,57.19060671374173
9.928,0.9999999999999998,57.07773925426134
9.936,1.0000000000000002,56.96483785136725
9.943999999999999,1.0,56.85190247517263
9.952,0.9999999999999999,56.738933095776304
9.96,0.9999999999999999,56.62592968326266
9.968,0.9999999999999998,56.51289220770163
9.975999999999999,1.0,56.39982063914854
9.984,1.0,56.28671494764406
9.992,1.0,56.17357510321432
10.0,0.9999999999999999,56.06040107587078
10.008,0.9999999999999999,55.94719283561004
10.016,1.0,55.83395035241394
10.024000000000001,1.0,55.720673596249505
10.032,1.0000000000000002,55.60736253706886
10.04,1.0,55.49401714480913
10.048,0.9999999999999999,55.38063738939244
10.056000000000001,1.0,55.2672232407259
10.064,1.0,55.15377466870151
10.072,0.9999999999999999,55.04029164319607
10.08,1.0,54.92677413407116
10.088000000000001,1.0,54.813222111173104
10.096,1.0,54.69963554433299
10.104,0.9999999999999998,54.58601440336638
10.112,0.9999999999999998,54.472358658073446
10.120000000000001,0.9999999999999999,54.35866827823896
10.128,0.9999999999999999,54.244943233632114
10.136,0.9999999999999999,54.13118349400642
10.144,0.9999999999999999,54.01738902909981
10.152000000000001,1.0,53.903559808634505
10.16,1.0,53.789695802316984
10.168,1.0,53.675796979837834
10.176,1.0,53.561863310871765
10.184000000000001,1.0,53.44789476507762
10.192,1.0,53.333891312098224
10.2,1.0,53.219852921560275
10.208,1.0,53.10577956307439
10.216000000000001,1.0,52.99167120623505
10.224,1.0,52.877527820620486
10.232,1.0000000000000002,52.76334937579259
10.24,1.0,52.64913584129689
10.248000000000001,1.0,52.53488718666255
10.256,1.0,52.42060338140226
10.264,0.9999999999999999,52.30628439501206
