freq,mag,phase
6.0,0.9993006940141611,-113.75393341882787
6.002287616,0.9995074837502519,-113.88473541395179
6.004575232,0.9997448865692244,-114.01875872355066
6.006862848,0.9999983561539427,-114.1563752776028
6.009150464,1.0002516834383564,-114.2976608618266
6.011438592,1.0004889225894409,-114.44254045858689
6.013726208,1.0006948404136609,-114.59062790825222
6.016013824,1.0008565976823556,-114.74140342334238
6.01830144,1.0009637606714137,-114.89414503454253
6.020589056,1.0010096425403345,-115.04796859647296
6.022876672,1.0009912543370283,-115.202032125962
6.025164288,1.000909840700939,-115.3553651485268
6.027451904,1.0007704561302073,-115.507094839793
6.029740032,1.0005818231621824,-115.65642262185315
6.032027648,1.0003561678118023,-115.80279504983915
6.034315264,1.00010742459851,-115.94570635184085
6.03660288,0.9998516280627301,-116.08495888842937
6.038890496,0.9996048246102247,-116.22052732492017
6.041178112,0.9993827932416799,-116.35272286683923
6.043465728,0.9991996527977918,-116.48194965672997
6.045753344,0.9990670401500397,-116.6088775661337
6.04804096,0.9989934036008123,-116.73428978444716
6.050329088,0.9989834499960584,-116.85911085356177
6.052616704,0.999037871599092,-116.98426960760393
6.05490432,0.9991532033328719,-117.1106400825343
6.057191936,0.9993219571372686,-117.2390894324701
6.059479552,0.9995337240566493,-117.37034174654559
6.061767168,0.9997749165127355,-117.50485799671104
6.064054784,1.0000300984698778,-117.64301896946355
6.0663424,1.000283202818805,-117.78485069101926
6.068630016,1.0005181555436677,-117.93023261579093
6.070918144,1.000720047706182,-118.07879579818801
6.07320576,1.0008761505477326,-118.22996521644879
6.075493376,1.0009764492461446,-118.38300626784171
6.077780992,1.0010145931052654,-118.53707719380515
6.080068608,1.0009883458951692,-118.69120502457976
6.082356224,1.000899035481482,-118.84449677014636
6.08464384,1.0007525324560882,-118.99608027182931
6.086931456,1.0005579794995794,-119.14522119100005
6.089219584,1.0003277572952591,-119.29129917196867
6.0915072,1.0000764128987694,-119.43382556159291
6.093794816,0.9998198461954447,-119.57269569846473
6.096082432,0.9995744745720897,-119.70789649677138
6.098370048,0.9993556850651277,-119.83972778139223
6.100657664,0.9991775517677886,-119.96862585708035
6.10294528,0.9990513543607674,-120.09532945217593
6.105232896,0.9989850666005289,-120.22064944200729
6.107520512,0.9989830701984923,-120.34546878723457
6.10980864,0.9990455740269446,-120.4707068371807
6.112096256,0.9991682548832251,-120.59730603050029
6.114383872,0.9993436455403245,-120.72607984913608
6.116671488,0.9995605718673396,-120.85772920903248
6.118959104,0.9998052286356064,-120.99272365792365
6.12124672,1.0000618873237677,-121.13138142587799
6.123534336,1.0003146414516493,-121.27370985757634
6.125821952,1.0005471588750094,-121.41957285556389
6.128109568,1.0007448362468119,-121.56858292137434
6.130397696,1.0008950247760502,-121.72014657315232
6.132685312,1.0009882919930433,-121.87344853399559
6.134972928,1.0010187321828687,-122.02766943593363
6.137260544,1.0009844065083586,-122.18180538349911
6.13954816,1.0008873922449508,-122.33503639858966
6.141835776,1.000733848321746,-122.48643880398733
6.144123392,1.0005334265885737,-122.63531044400554
6.146411008,1.0002990173087112,-122.78097641404811
6.148699136,1.000045194947505,-122.92312558781958
6.150986752,0.9997882874525397,-123.06154581242703
6.153274368,0.9995443147407882,-123.19636490148501
6.155561984,0.999329139699495,-123.32777888443468
6.1578496,0.9991561936258183,-123.45636881130893
6.160137216,0.9990365401359663,-123.58286120860423
6.162424832,0.9989777411055014,-123.70803015355062
6.164712448,0.9989838006781534,-123.83280450962015
6.167000064,0.9990541899487367,-123.95813534245954
6.169288192,0.9991843248934799,-124.08494682373271
6.171575808,0.9993661399167619,-124.21401669833081
6.173863424,0.9995880868041656,-124.34601056592767
6.17615104,0.9998359499912285,-124.48143908578427
6.178438656,1.0000940322406087,-124.62056248661325
6.180726272,1.0003459646518271,-124.76339149164197
6.183013888,1.0005758490817562,-124.90970335860197
6.185301504,1.0007690307973036,-125.05912171305971
6.18758912,1.0009131854063247,-125.21094122810794
6.189877248,1.0009994180059492,-125.36446313501496
6.192164864,1.0010219693945563,-125.51876950453355
6.19445248,1.0009796390626677,-125.67294945554741
6.196740096,1.0008748593459857,-125.82604490529984
6.199027712,1.000714380278182,-125.97721224777823
6.201315328,1.0005083672828008,-126.12573230086333
6.203602944,1.0002697594973098,-126.27105298812633
6.20589056,1.0000137346045999,-126.41274836583769
6.208178688,0.9997565318111452,-126.55070501372741
6.210466304,0.9995144055323294,-126.68504206415572
6.21275392,0.9993029358505389,-126.81604982319776
6.215041536,0.9991353349816696,-126.9442867408837
6.217329152,0.9990224193889944,-127.07049053515217
6.219616768,0.9989713657534455,-127.19547219209151
6.221904384,0.998985448795305,-127.32021589755507
6.224192,0.9990636128006295,-127.4456385288555
6.226479616,0.9992012372743913,-127.57260496511041
6.228767744,0.9993894031977396,-127.70193189275209
6.23105536,0.999616076392192,-127.83429421752749
6.233342976,0.9998670028483747,-127.97015590172505
6.235630592,1.0001262036641403,-128.10970032385254
6.237918208,1.0003772567736477,-128.25292407760787
6.240205824,1.0006041580743654,-128.39965382675788
6.24249344,1.0007927105081693,-128.5494030317107
6.244781056,1.0009306645060425,-128.70154497689583
6.247068672,1.0010095647284263,-128.8552333137497
6.2493568,1.001024237488794,-129.00957818679814
6.251644416,1.0009737725981152,-129.16370237381017
6.253932032,1.0008612556410577,-129.31660006912242
6.256219648,1.0006940994733575,-129.46749635473074
6.258507264,1.0004825102664645,-129.61565320547675
6.26079488,1.000240026911497,-129.7604887971033
6.263082496,0.9999819636055952,-129.90170536652712
6.265370112,0.9997248336634309,-130.03915455239996
6.26765824,0.9994847537136576,-130.17299672530635
6.269945856,0.9992772353074199,-130.30356756723245
6.272233472,0.9991152249816925,-130.43141365174043
6.274521088,0.9990091154810365,-130.55734532604336
6.276808704,0.998965808230941,-130.6821262788975
6.27909632,0.9989879457250728,-130.80680188254115
6.281383936,0.9990742133487558,-130.93222738704515
6.283671552,0.9992190579490499,-131.05934511515744
6.285959168,0.9994133975905187,-131.18892047072706
6.288247296,0.9996447538537232,-131.32166335117685
6.290534912,0.9998985046820578,-131.4578478068065
6.292822528,1.00015863954021,-131.59780583603046
6.295110144,1.0004085012749402,-131.74145246875554
6.29739776,1.0006323216204351,-131.88857521681717
6.299685376,1.0008158641049991,-132.0386017537531
6.301972992,1.0009475272683808,-132.19093369615416
6.304260608,1.0010189500609623,-132.3447555095843
6.306548224,1.0010256036040084,-132.49912281955528
6.308836352,1.0009670507486057,-132.65313829337953
6.311123968,1.0008470499155955,-132.80580801061816
6.313411584,1.000673037324253,-132.95636254172112
6.3156992,1.0004560254953003,-133.1040893694079
6.317986816,1.000209794476544,-133.24845911498008
6.320274432,0.9999500458567135,-133.38913934869836
6.322562048,0.9996931325877788,-133.5260185210772
6.324849664,0.9994554144644666,-133.65935769347567
6.327137792,0.9992519487711571,-133.78943213060143
6.329425408,0.9990957371044449,-133.91690170122362
6.331713024,0.9989967524835182,-134.0424901778588
6.33400064,0.9989612021198904,-134.16710011496528
6.336288256,0.9989914656754033,-134.29165769498968
6.338575872,0.9990856822529032,-134.41708534499062
6.340863488,0.9992377058276367,-134.54432558293115
6.343151104,0.9994380179935389,-134.67414301836232
6.34543872,0.9996739484081167,-134.80717485325343
6.347726848,0.9999302912209518,-134.9436941520086
6.350014464,1.0001910986257503,-135.08402752866394
6.35230208,1.0004394904548461,-135.2280396482963
6.354589696,1.0006599503018763,-135.37545758917702
6.356877312,1.0008383639736171,-135.52579809537716
6.359164928,1.0009634657237831,-135.678279163165
6.361452544,1.0010273994274421,-135.83216735348336
6.36374016,1.0010259776667987,-135.9864947218403
6.366027776,1.0009593553926024,-136.1403417789105
6.368315904,1.0008316302550253,-136.29275437882836
6.37060352,1.0006510560529756,-136.44294977224746
6.372891136,1.0004288033480337,-136.59018725426014
6.375178752,1.0001791210564877,-136.73404102335232
6.377466368,0.9999178060761902,-136.87409705869507
6.379753984,0.9996613366528815,-137.01045218036253
6.3820416,0.9994261697140002,-137.1431821780923
6.384329216,0.9992271138623188,-137.27274033334155
6.386617344,0.9990768906648444,-137.39977910516572
6.38890496,0.9989850328497399,-137.52504577875715
6.391192576,0.998957437143003,-137.64938805513924
6.393480192,0.9989960205969964,-137.77382958870382
6.395767808,0.9990980134705351,-137.89930782113404
6.398055424,0.999257264677944,-138.02664335257936
6.40034304,0.9994635278444522,-138.1566528638674
6.402630656,0.9997037148553201,-138.2898813295132
6.404918272,0.9999624687772809,-138.42679575555195
6.4072064,1.0002235887564448,-138.56747730585982
6.409494016,1.0004703767340573,-138.7117761990113
6.411781632,1.0006872142250636,-138.85951225978553
6.414069248,1.0008603224065116,-139.01003381640388
6.416356864,1.000978714056308,-139.16268909849953
6.41864448,1.001034936679804,-139.31659099661636
6.420932096,1.0010254111306318,-139.47081313546445
6.423219712,1.0009506122055711,-139.6244628595913
6.425507328,1.0008153979898282,-139.77655003331571
6.427795456,1.0006282468120995,-139.92630401676982
6.430083072,1.0004010043831957,-140.07305355054808
6.432370688,1.0001480582211897,-140.2162723983746
6.434658304,0.9998853704204925,-140.3557652291878
6.43694592,0.9996297373682174,-140.49150929153083
6.439233536,0.9993972551112542,-140.62365140361476
6.441521152,0.9992027476973598,-140.75267059338515
6.443808768,0.9990587473229039,-140.87920139148798
6.446096896,0.9989742758598296,-141.0040965405128
6.448384512,0.9989547751351168,-141.12821340774104
6.450672128,0.999001478776035,-141.25250972289768
6.452959744,0.9991114106729932,-141.37792659475753
6.45524736,0.9992777368142408,-141.50537613916632
6.457534976,0.9994897386505044,-141.63556371540218
6.459822592,0.9997340519299911,-141.76905239627985
6.462110208,0.9999951213517743,-141.90623012564203
6.464397824,1.0002563321744349,-142.04718200322233
6.466685952,1.0005012047956405,-142.19183863865499
6.468973568,1.0007142195467602,-142.3397734551729
6.471261184,1.0008816898145554,-142.49049010231658
6.4735488,1.0009931972938386,-142.64324467196036
6.475836416,1.0010416281230072,-142.79712042925544
6.478124032,1.0010238792465411,-142.95122838445138
6.480411648,1.000940958691892,-143.10457122426925
6.482699264,1.0007982928272587,-143.25630488482412
6.48498688,1.0006046805247049,-143.40559506992528
6.487275008,1.0003725251594802,-143.5517808765197
6.489562624,1.0001163735825476,-143.69441477648616
6.49185024,0.9998525934310944,-143.8332331608505
6.494137856,0.9995979356931967,-143.96828415040397
6.496425472,0.9993685587353008,-144.09983023598787
6.498713088,0.999178987294851,-144.22828367478823
6.501000704,0.9990413172570133,-144.35433834664315
6.50328832,0.9989643088083212,-144.47881902310903
6.505576448,0.998952863759996,-144.60261503732508
6.507864064,0.9990078617955482,-144.726767350866
6.51015168,0.9991257442695276,-144.85216821676883
6.512439296,0.9992989660243479,-144.979649462016
6.514726912,0.9995166429055501,-145.11000256393748
6.517014528,0.9997648036237822,-145.24370811600062
6.519302144,1.0000278938499723,-145.38114547812842
6.52158976,1.0002890858098854,-145.52240436615165
6.523877376,1.0005317114143824,-145.66725835847248
6.526165504,1.00074062262494,-145.81542772967907
6.52845312,1.000902322599009,-145.96627986593043
6.530740736,1.001006782168919,-146.11908248957667
6.533028352,1.001047312556649,-146.27289875665113
6.535315968,1.0010212800696288,-146.42677724760537
6.537603584,1.0009302269729987,-146.57987970369047
6.5398912,1.0007800567720733,-146.73116483139285
6.542178816,1.000580186874104,-146.87989215107308
6.544466432,1.0003433111761073,-147.02547747548175
6.54675456,1.000084310360725,-147.16746513665487
6.549042176,0.9998196997604613,-147.30561083704183
6.551329792,0.9995662825365987,-147.43995586121184
6.553617408,0.9993401407837659,-147.5708415372617
6.555905024,0.9991555632357026,-147.69869976833382
6.55819264,0.9990245395839142,-147.82421761755342
6.560480256,0.9989552198815453,-147.948310325998
6.562767872,0.9989520537958014,-148.07181696217953
6.565056,0.9990153498335327,-148.19580093339167
6.567343616,0.9991410387972579,-148.32109619931774
6.569631232,0.9993211966635489,-148.44864228351832
6.571918848,0.9995442950191785,-148.5791178049605
6.574206464,0.9997962301620257,-148.7130324212966
6.57649408,1.000061062598691,-148.85069576102148
6.578781696,1.0003218072933002,-148.99220015214732
6.581069312,1.0005621424380058,-149.1372874722073
6.583356928,1.0007667003161564,-149.28564808388285
6.585645056,1.0009224820175207,-149.4365806713914
6.587932672,1.001019637879507,-149.58933684955014
6.590220288,1.0010520897437085,-149.74304911338137
6.592507904,1.001017623491723,-149.89673561755922
6.59479552,1.0009184863673903,-150.04945305332328
6.597083136,1.000760961487106,-150.20026058862194
6.599370752,1.000554921186181,-150.34845485574087
6.601658368,1.0003134891997072,-150.49338564300533
6.603945984,1.0000518169651604,-150.6346427908931
6.606234112,0.9997866031628451,-150.77206158066318
6.608521728,0.9995346765936298,-150.90567750531804
6.610809344,0.9993121015681052,-151.0358594270474
6.61309696,0.9991328811021847,-151.16311972976595
6.615384576,0.9990085822932799,-151.28809382553112
6.617672192,0.9989470965135162,-151.41174581254447
6.619959808,0.9989522700510889,-151.53495675100726
6.622247424,0.9990238496012727,-151.65871779398208
6.624535552,0.999157408556122,-151.78397597791133
6.626823168,0.9993443072492966,-151.9115093811667
6.629110784,0.9995727757142797,-152.04210848904845
6.6313984,0.9998282466748881,-152.17618438013184
6.633686016,1.0000946391504315,-152.31405697221732
6.635973632,1.000354762715627,-152.45575555595516
6.638261248,1.0005924471494774,-152.60105296459122
6.640548864,1.0007923993428114,-152.74954963070005
6.64283648,1.000941967898617,-152.900538699214
6.645124608,1.0010316756478004,-153.0532670587975
6.647412224,1.001055919230778,-153.2067910099037
6.64969984,1.0010131147218377,-153.36021697221872
6.651987456,1.0009058365049794,-153.51250701313694
6.654275072,1.0007409955209066,-153.66281215751422
6.656562688,1.0005289183485928,-153.8103881729093
6.658850304,1.0002830107102434,-153.95463583545305
6.66113792,1.0000189477802732,-154.09512086942493
6.663426048,0.9997533946012426,-154.2317848032189
6.665713664,0.9995031979074911,-154.36467261654838
6.66800128,0.9992843779806255,-154.49412861447817
6.670288896,0.9991107103487166,-154.62069714578382
6.672576512,0.9989933768264794,-154.74513113936882
6.674864128,0.9989398281241557,-154.86830377564254
6.677151744,0.9989534497131951,-154.991197317147
6.67943936,0.9990334403583175,-155.11473555599787
6.681726976,0.9991747481114285,-155.23988228510368
6.684015104,0.9993683053692939,-155.36743502244738
6.68630272,0.9996019945770551,-155.49810029463794
6.688590336,0.9998607952940776,-155.6323348734436
6.690877952,1.0001283176303029,-155.77043024884046
6.693165568,1.000387717285041,-155.91230112026759
6.695453184,1.0006223968181391,-156.05774760903887
6.6977408,1.0008174655479336,-156.20632181779715
6.700028416,1.0009605645058364,-156.3573475510328
6.702316032,1.0010427444974517,-156.50999218425702
6.70460416,1.0010587114834617,-156.6633118545164
6.706891776,1.0010074036743744,-156.81635766017757
6.709179392,1.0008920151789928,-156.96822057244734
6.711467008,1.000719866110729,-157.11798526596914
6.713754624,1.0005019280824294,-157.26488898097557
6.71604224,1.0002518024249216,-157.40841174632055
6.718329856,0.9999855471917143,-157.54811046095875
6.720617472,0.9997198846704818,-157.68397007940516
6.7229056,0.9994717139223758,-157.8160604857467
6.725193216,0.9992569701566526,-157.94477386865884
6.727480832,0.9990891097345919,-158.07066637310155
6.729768448,0.9989789717260011,-158.1945207127036
6.732056064,0.9989334175712176,-158.31723505463071
6.73434368,0.9989555749369732,-158.4397365467415
6.736631296,0.9990440225452754,-158.56308399637206
6.738918912,0.9991930117540391,-158.6880744896372
6.741206528,0.9993931885671786,-158.81562386436906
6.743494656,0.9996318679740293,-158.94638966694927
6.745782272,0.9998938332478332,-159.08074277933784
6.748069888,1.0001624270288478,-159.21896273283807
6.750357504,1.000420611357726,-159.36102733168315
6.75264512,1.0006521406803361,-159.50658035078757
6.754932736,1.000842105919944,-159.65520895582023
6.757220352,1.000978714345257,-159.80620288533632
6.759507968,1.001053023711273,-159.9587317666009
6.761795584,1.001060572363413,-160.11179008513395
6.764083712,1.0010006596331238,-160.26449286349512
6.766371328,1.0008771924943016,-160.41585884741994
6.768658944,1.000697895654204,-160.56498255981262
6.77094656,1.0004741163305366,-160.71118033455159
6.773234176,1.0002200085551407,-160.8539233744178
6.775521792,0.9999517440075414,-160.9928377656289
6.777809408,0.9996862402675951,-161.12784951276294
6.780097024,0.9994404314284921,-161.2591172517581
6.782385152,0.9992297685576667,-161.38705017746267
6.784672768,0.9990680408862189,-161.5122621849997
6.786960384,0.9989652323034076,-161.63550483160628
6.789248,0.9989280455452622,-161.7577242013148
6.791535616,0.998958833817029,-161.8798818491417
6.793823232,0.9990556682418336,-162.00295633000542
6.796110848,0.9992123952766129,-162.12781333720574
6.798398464,0.9994190096284675,-162.2553622218407
6.80068608,0.999662529180842,-162.3861544455526
6.802974208,0.9999273971297293,-162.5206307872838
6.805261824,1.0001967756490666,-162.6589860990672
6.80754944,1.0004535843402549,-162.80115466101626
6.809837056,1.0006815263754205,-162.94683037216618
6.812124672,1.0008662642785287,-163.0954813327869
6.814412288,1.0009959532582131,-163.2464143189423
6.816699904,1.0010623443010596,-163.39873206717795
6.81898752,1.0010612847444413,-163.5515121526332
6.821275136,1.0009928163969755,-163.7037944071092
6.823563264,1.000861253783895,-163.8546211008263
6.82585088,1.0006748834861277,-164.00310617619238
6.828138496,1.000445466179185,-164.14857424050197
6.830426112,1.0001875471947315,-164.29046987286844
6.832713728,0.9999175347492737,-164.428526867461
6.835001344,0.9996524493307825,-164.5626689684479
6.83728896,0.9994092345177444,-164.6931246339204
6.839576576,0.9992032813616346,-164.8202306536339
6.841864704,0.9990477686225552,-164.94471001159238
6.84415232,0.9989525571416543,-165.06734267408086
6.846439936,0.9989237225074796,-165.1890434622937
6.848727552,0.9989632090817602,-165.31082312379309
6.851015168,0.9990684425699016,-165.43360763669668
6.853302784,0.9992327508447013,-165.5583765622075
6.8555904,0.9994458237796803,-165.6858577430944
6.857878016,0.9996940021866424,-165.81670538144647
6.860165632,0.9999615424038032,-165.95125313282816
6.86245376,1.0002313079777463,-166.08972576890275
6.864741376,1.0004865492681039,-166.23197798535872
6.867028992,1.000710824929114,-166.37774109774296
6.869316608,1.0008898426057575,-166.52636673427992
6.871604224,1.0010125050254306,-166.67718752082948
6.87389184,1.0010707722768692,-166.8293211175712
6.876179456,1.0010610838721288,-166.98175632183666
6.878467072,1.0009839378143126,-167.1335688016863
6.880754688,1.000844323126758,-167.28382821119047
6.883042816,1.0006509521548035,-167.4316035963859
6.885330432,1.0004160283666532,-167.57629187785946
6.887618048,1.0001545201146549,-167.7173460473951
6.889905664,0.9998830385978116,-167.85449614610877
6.89219328,0.9996186399932934,-167.9877440876252
6.894480896,0.9993781924295451,-168.11728705298987
6.896768512,0.9991770700595298,-168.24360367770777
6.899056128,0.9990280574268712,-168.36735145295094
6.901344256,0.9989406316320468,-168.48930496089147
6.903631872,0.9989204181606932,-168.6105004179318
6.905919488,0.9989686791286244,-168.73187305961548
