freq,mag,phase
6.0,0.9999940923136658,67.9839331140058
6.008,0.9999936529142892,67.79880364913103
6.016,0.9999932172899623,67.61354661146066
6.024,0.9999927854659559,67.42816205957143
6.032,0.9999923574669444,67.2426500533807
6.04,0.9999919333170055,67.05701065415133
6.048,0.9999915130396239,66.87124392449653
6.056,0.9999910966576918,66.68534992838464
6.064,0.9999906841935121,66.49932873114395
6.072,0.9999902756687995,66.3131803994675
6.08,0.9999898711046823,66.12690500141784
6.088,0.9999894705217058,65.94050260643179
6.096,0.9999890739398314,65.75397328532515
6.104,0.999988681378443,65.5673171102975
6.112,0.999988292856345,65.3805341549368
6.12,0.9999879083917661,65.19362449422412
6.128,0.9999875280023617,65.00658820453837
6.136,0.9999871517052157,64.81942536366086
6.144,0.9999867795168421,64.63213605077998
6.152,0.9999864114531878,64.44472034649576
6.16,0.9999860475296345,64.25717833282455
6.168,0.9999856877610013,64.06951009320352
6.176,0.9999853321615457,63.88171571249521
6.184,0.9999849807449677,63.693795276992155
6.192,0.9999846335244109,63.50574887442126
6.2,0.9999842905124645,63.317576593948395
6.208,0.9999839517211662,63.12927852618286
6.216,0.9999836171620045,62.94085476318174
6.224,0.9999832868459206,62.75230539845442
6.232,0.9999829607833115,62.56363052696699
6.24,0.999982638984032,62.37483024514656
6.248,0.9999823214573961,62.185904650885696
6.256,0.9999820082121815,61.996853843546674
6.264,0.99998169925663,61.807677923965855
6.272,0.9999813945984515,61.618376994457925
6.28,0.9999810942448251,61.42895115882022
6.288,0.9999807982024029,61.23940052233687
6.296,0.9999805064773117,61.04972519178311
6.304,0.9999802190751556,60.85992527542938
6.312,0.9999799360010189,60.67000088304557
6.32,0.9999796572594679,60.47995212590506
6.328,0.9999793828545553,60.28977911678893
6.336,0.9999791127898201,60.09948196998997
6.344,0.9999788470682928,59.909060801316706
6.352,0.9999785856924963,59.71851572809757
6.36,0.9999783286644494,59.527846869184714
6.368,0.9999780759856696,59.337054344958126
6.376,0.9999778276571745,59.146138277329506
6.384,0.999977583679487,58.95509878974616
6.392,0.999977344052635,58.76393600719495
6.4,0.9999771087761572,58.57265005620608
6.408,0.9999768778491035,58.38124106485696
6.416,0.9999766512700388,58.189709162776005
6.424,0.9999764290370458,57.99805448114632
6.432,0.9999762111477281,57.806277152709605
6.44,0.9999759975992117,57.61437731176961
6.448,0.9999757883881503,57.42235509419605
6.456,0.9999755835107254,57.230210637428044
6.464,0.999975382962652,57.037944080477864
6.472,0.9999751867391787,56.84555556393439
6.48,0.9999749948350931,56.65304522996672
6.4879999999999995,0.999974807244723,56.460413222327674
6.496,0.9999746239619407,56.26765968635718
6.504,0.999974444980165,56.07478476898588
6.5120000000000005,0.9999742702923649,55.88178861873828
6.52,0.9999740998910615,55.68867138573641
6.5280000000000005,0.9999739337683331,55.495433221702854
6.536,0.9999737719158169,55.30207427996432
6.5440000000000005,0.9999736143247112,55.108594715454664
6.552,0.9999734609857805,54.91499468471832
6.5600000000000005,0.999973311889358,54.721274345913244
6.568,0.9999731670253469,54.52743385881439
6.5760000000000005,0.9999730263832263,54.33347338481639
6.584,0.9999728899520532,54.139393086937105
6.592,0.9999727577204649,53.94519312982022
6.6,0.9999726296766835,53.75087367973854
6.608,0.9999725058085184,53.556434904596834
6.616,0.9999723861033695,53.36187697393473
6.624,0.9999722705482306,53.16720005892962
6.632,0.999972159129693,52.972404332399506
6.64,0.9999720518339483,52.7774899688058
6.648,0.9999719486467923,52.58245714425604
6.656,0.9999718495536273,52.38730603650661
6.664,0.9999717545394661,52.19203682496546
6.672,0.9999716635889359,51.99664969069471
6.68,0.99997157668628,51.801144816413206
6.688,0.9999714938153637,51.605522386499096
6.696,0.9999714149596743,51.409782586992314
6.704,0.9999713401023281,51.2139256055971
6.712,0.9999712692260716,51.0179516316843
6.72,0.9999712023132847,50.821860856293846
6.728,0.9999711393459866,50.62565347213702
6.736,0.9999710803058357,50.429329673598765
6.744,0.999971025174136,50.23288965673988
6.752,0.9999709739318399,50.03633361929928
6.76,0.9999709265595503,49.839661760696075
6.768,0.9999708830375263,49.642874282031684
6.776,0.9999708433456846,49.44597138609192
6.784,0.9999708074636047,49.24895327734897
6.792,0.9999707753705317,49.05182016196333
6.8,0.99997074704538,48.854572247785725
6.808,0.9999707224667366,48.65720974435906
6.816,0.9999707016128654,48.45973286292009
6.824,0.9999706844617101,48.26214181640126
6.832,0.999970670990898,48.064436819432444
6.84,0.9999706611777447,47.86661808834255
6.848,0.999970654999255,47.66868584116118
6.856,0.9999706524321302,47.47064029762018
6.864,0.9999706534527688,47.27248167915516
6.872,0.9999706580372715,47.07421020890699
6.88,0.9999706661614448,46.87582611172315
6.888,0.9999706778008045,46.677329614159135
6.896,0.9999706929305798,46.47872094447977
6.904,0.9999707115257159,46.28000033266045
6.912,0.9999707335608802,46.08116801038837
6.92,0.9999707590104627,45.88222421106364
6.928,0.9999707878485821,45.68316916980045
6.936,0.999970820049089,45.48400312342805
6.944,0.9999708555855694,45.284726310491784
6.952,0.9999708944313496,45.085338971254
6.96,0.9999709365594973,44.885841347695006
6.968,0.9999709819428289,44.68623368351381
6.976,0.9999710305539103,44.48651622412897
6.984,0.9999710823650634,44.28668921667921
6.992,0.9999711373483666,44.08675291002425
7.0,0.9999711954756629,43.886707554745286
7.008,0.9999712567185592,43.68655340314557
7.016,0.999971321048434,43.48629070925091
7.024,0.9999713884364384,43.28591972881017
7.032,0.9999714588535025,43.085440719295555
7.04,0.9999715322703365,42.88485393990297
7.048,0.9999716086574373,42.684159651552335
7.056,0.99997168798509,42.48335811688774
7.064,0.999971770223374,42.282449600277644
7.072,0.9999718553421653,42.081434367814886
7.08,0.9999719433111405,41.88031268731682
7.088,0.9999720340997815,41.679084828325195
7.096,0.9999721276773798,41.47775106210618
7.104,0.999972224013038,41.276311661650105
7.112,0.999972323075677,41.07476690167131
7.12,0.9999724248340375,40.87311705860791
7.128,0.9999725292566847,40.67136241062142
7.136,0.9999726363120123,40.46950323759638
7.144,0.999972745968247,40.26753982113993
7.152,0.999972858193451,40.065472444581246
7.16,0.9999729729555277,39.86330139297105
7.168,0.999973090222224,39.66102695308093
7.176,0.9999732099611357,39.45864941340263
7.184,0.9999733321397098,39.25616906414734
7.192,0.9999734567252507,39.053586197244876
7.2,0.9999735836849223,38.85090110634269
7.208,0.9999737129857521,38.64811408680508
7.216,0.9999738445946362,38.44522543571209
7.224,0.9999739784783424,38.242235451858456
7.232,0.9999741146035154,38.03914443575247
7.24,0.9999742529366782,37.8359526896148
7.248,0.9999743934442389,37.632660517377154
7.256,0.9999745360924928,37.429268224681074
7.264,0.9999746808476279,37.22577611887643
7.272,0.9999748276757271,37.02218450902
7.28,0.9999749765427733,36.81849370587397
7.288,0.999975127414654,36.61470402190428
7.296,0.9999752802571628,36.41081577127909
7.304,0.9999754350360058,36.206829269866894
7.312,0.9999755917168057,36.002744835234914
7.32,0.9999757502651029,35.79856278664707
7.328,0.9999759106463627,35.594283445062175
7.336,0.9999760728259776,35.38990713313194
7.344,0.9999762367692709,35.18543417519887
7.352,0.9999764024415025,34.98086489729421
7.36,0.999976569807871,34.776199627135696
7.368,0.9999767388335175,34.57143869412532
7.376,0.9999769094835318,34.36658242934706
7.384,0.9999770817229543,34.161631165564415
7.392,0.9999772555167796,33.95658523721798
7.4,0.9999774308299629,33.75144498042294
7.4079999999999995,0.9999776076274214,33.546210732966486
7.416,0.9999777858740388,33.34088283430501
7.4239999999999995,0.9999779655346706,33.13546162556171
7.432,0.9999781465741461,32.92994744952332
7.4399999999999995,0.9999783289572732,32.72434065063775
7.448,0.9999785126488431,32.51864157501065
7.4559999999999995,0.9999786976136325,32.31285057040292
7.464,0.9999788838164083,32.106967986227154
7.4719999999999995,0.9999790712219315,31.900994173544866
7.48,0.9999792597949623,31.694929485062993
7.4879999999999995,0.9999794495002604,31.48877427513091
7.496,0.999979640302593,31.282528899736793
7.504,0.9999798321667357,31.076193716504427
7.5120000000000005,0.9999800250574779,30.869769084689484
7.52,0.9999802189396259,30.663255365176266
7.5280000000000005,0.9999804137780075,30.456652920473733
7.536,0.9999806095374739,30.24996211471214
7.5440000000000005,0.9999808061829061,30.04318331363895
7.552,0.9999810036792163,29.83631688461532
7.5600000000000005,0.9999812019913538,29.629363196611816
7.568,0.9999814010843068,29.422322620204852
7.5760000000000005,0.9999816009231073,29.215195527572245
7.584,0.9999818014728344,29.007982292489444
7.5920000000000005,0.999982002698619,28.800683290324994
7.6,0.9999822045656455,28.593298898036643
7.6080000000000005,0.9999824070391573,28.38582949416663
7.616,0.9999826100844598,28.178275458837653
7.6240000000000006,0.9999828136669242,27.97063717374805
7.632,0.9999830177519906,27.762915022167608
7.640000000000001,0.9999832223051724,27.555109388932582
7.648,0.9999834272920599,27.347220660441355
7.656000000000001,0.9999836326783238,27.139249224649372
7.664,0.9999838384297177,26.931195471064637
7.672,0.999984044512083,26.723059790742475
7.68,0.9999842508913528,26.51484257628086
7.688,0.9999844575335538,26.306544221815198
7.696,0.9999846644048114,26.098165123013295
7.704,0.999984871471352,25.88970567707018
7.712,0.9999850786995078,25.681166282702804
7.72,0.9999852860557191,25.47254734014478
7.728,0.9999854935065383,25.263849251140947
7.736,0.9999857010186335,25.05507241894196
7.744,0.9999859085587911,24.84621724829873
7.752,0.999986116093921,24.637284145456793
7.76,0.9999863235910572,24.42827351815074
7.768,0.9999865310173647,24.219185775598334
7.776,0.9999867383401391,24.01002132849483
7.784,0.9999869455268129,23.800780589007026
7.792,0.9999871525449578,23.591463970767325
7.8,0.9999873593622877,23.382071888867713
7.808,0.9999875659466614,23.172604759853687
7.816,0.999987772266088,22.96306300171806
7.824,0.999987978288728,22.753447033894766
7.832,0.9999881839828972,22.54375727725256
7.84,0.9999883893170706,22.33399415408863
7.848,0.9999885942598844,22.124158088122147
7.856,0.99998879878014,21.914249504487824
7.864,0.9999890028468066,21.704268829729276
7.872,0.9999892064290257,21.494216491792372
7.88,0.9999894094961106,21.284092920018608
7.888,0.9999896120175547,21.073898545138206
7.896,0.9999898139630299,20.863633799263372
7.904,0.9999900153023923,20.653299115881296
7.912,0.9999902160056837,20.44289492984725
7.92,0.9999904160431362,20.23242167737743
7.928,0.9999906153851731,20.021879796041937
7.936,0.9999908140024135,19.81126972475752
7.944,0.9999910118656747,19.60059190378035
7.952,0.999991208945974,19.389846774698704
7.96,0.9999914052145339,19.179034780425543
7.968,0.9999916006427821,18.968156365191092
7.976,0.9999917952023569,18.75721197453528
7.984,0.9999919888651077,18.546202055300196
7.992,0.9999921816030997,18.335127055622376
8.0,0.9999923733886149,18.123987424925154
8.008,0.9999925641941562,17.91278361391083
8.016,0.9999927539924491,17.701516074552732
8.024000000000001,0.999992942756445,17.490185260087507
8.032,0.9999931304593231,17.278791625007045
8.04,0.9999933170744932,17.067335625050273
8.048,0.9999935025755992,16.855817717195222
8.056000000000001,0.9999936869365199,16.644238359650878
8.064,0.999993870131373,16.43259801184888
8.072,0.9999940521345168,16.22089713443512
8.08,0.9999942329205526,16.009136189261458
8.088000000000001,0.9999944124643275,15.797315639377418
8.096,0.9999945907409364,15.585435949021564
8.104,0.9999947677257249,15.373497583612878
8.112,0.9999949433942908,15.161501009742231
8.120000000000001,0.9999951177224863,14.949446695163807
8.128,0.9999952906864221,14.737335108786244
8.136,0.9999954622624674,14.525166720663764
8.144,0.9999956324272526,14.3129420019874
8.152000000000001,0.9999958011576728,14.10066142507617
8.16,0.9999959684308879,13.888325463368005
8.168,0.9999961342243265,13.675934591410591
8.176,0.9999962985156872,13.463489284852388
8.184000000000001,0.9999964612829398,13.250990020433559
8.192,0.9999966225043292,13.038437275976634
8.2,0.9999967821583755,12.825831530377181
8.208,0.9999969402238769,12.61317326359453
8.216000000000001,0.9999970966799117,12.400462956642475
8.224,0.9999972515058397,12.187701091579765
8.232,0.9999974046813043,11.974888151500457
8.24,0.9999975561862339,11.762024620524478
8.248000000000001,0.9999977060008446,11.549110983788088
8.256,0.9999978541056408,11.336147727434122
8.264,0.9999980004814176,11.123135338602141
8.272,0.9999981451092625,10.910074305418766
8.280000000000001,0.9999982879705571,10.696965116987913
8.288,0.9999984290469773,10.48380826338084
8.296,0.999998568320497,10.270604235626063
8.304,0.9999987057733888,10.057353525699469
8.312,0.9999988413882241,9.844056626514408
8.32,0.9999989751478774,9.63071403191125
8.328,0.9999991070355246,9.417326236647614
8.336,0.999999237034647,9.203893736387778
8.344,0.9999993651290309,8.99041702769279
8.352,0.9999994913027702,8.776896608009782
8.36,0.9999996155402662,8.563332975662014
8.368,0.9999997378262306,8.34972662983804
8.376,0.9999998581456851,8.136078070581686
8.384,0.9999999764839642,7.922387798781092
8.392,1.0,7.7086563161586135
8.4,1.0,7.494884125259768
8.408,1.0,7.281071729443038
8.416,1.0,7.067219632868729
8.424,1.0,6.853328340488644
8.432,1.0,6.6393983580349
8.44,1.0,6.425430192009489
8.448,1.0,6.211424349673019
8.456,1.0,5.9973813390341455
8.464,1.0,5.783301668838267
8.472,0.9999999999999999,5.569185848556874
8.48,0.9999999999999999,5.355034388376119
8.488,1.0,5.1408477991861075
8.496,1.0,4.926626592569385
8.504,1.0,4.712371280790145
8.512,0.9999999999999999,4.498082376782628
8.52,0.9999999999999999,4.283760394140252
8.528,1.0,4.069405847103934
8.536,0.9999999999999999,3.8550192505511456
8.544,1.0,3.6406011199841575
8.552,1.0,3.426151971519009
8.56,0.9999999999999999,3.2116723218736882
8.568,1.0,2.9971626883570317
8.576,0.9999999999999999,2.7826235888568234
8.584,0.9999999999999999,2.5680555418286284
8.592,0.9999999999999999,2.353459066283823
8.6,1.0,2.138834681778351
8.608,1.0,1.9241829084006967
8.616,0.9999999999999999,1.7095042667605793
8.624,1.0,1.4947992779768433
8.632,1.0,1.2800684636661033
8.64,0.9999999999999999,1.0653123459305673
8.648,1.0,0.8505314473466214
8.656,0.9999999999999999,0.6357262909525906
8.664,1.0,0.4208974002372658
8.672,1.0,0.2060452991276108
8.68,0.9999999999999999,-0.008829488022775792
8.688,1.0,-0.22372643644599813
8.696,1.0,-0.4386450209714642
8.704,1.0,-0.6535847160382722
8.712,1.0,-0.8685449957068601
8.72,1.0,-1.0835253336714497
8.728,0.9999999999999999,-1.2985252032717391
8.736,0.9999999999999999,-1.5135440775053934
8.744,1.0,-1.7285814290397885
8.752,1.0,-1.943636730224545
8.76,1.0,-2.158709453103314
8.768,1.0,-2.3737990694263527
8.776,1.0,-2.588905050662354
8.784,1.0,-2.8040268680110643
8.792,1.0,-3.0191639924151454
8.8,1.0,-3.234315894572834
8.808,1.0,-3.4494820449498347
8.815999999999999,1.0,-3.6646619137919716
8.824,0.9999999999999999,-3.879854971137356
8.832,0.9999999999999998,-4.09506068682863
8.84,1.0,-4.310278530525407
8.847999999999999,0.9999999999999999,-4.5255079717167455
8.856,0.9999999999999999,-4.740748479733414
8.864,1.0,-4.955999523760203
8.872,1.0000000000000002,-5.171260572848417
8.879999999999999,0.9999999999999999,-5.386531095928381
8.888,1.0,-5.601810561821784
8.896,1.0,-5.817098439254008
8.904,1.0,-6.03239419686668
8.911999999999999,1.0,-6.247697303230209
8.92,1.0,-6.463007226856172
8.928,0.9999999999999999,-6.678323436209671
8.936,0.9999999999999998,-6.893645399721923
8.943999999999999,0.9999999999999999,-7.108972585802827
8.952,0.9999999999999999,-7.324304462853367
8.96,1.0,-7.539640499278011
8.968,0.9999999999999999,-7.754980163497285
8.975999999999999,1.0,-7.970322923960414
8.984,0.9999999999999999,-8.185668249157684
8.992,1.0,-8.401015607632884
9.0,1.0,-8.616364467995894
9.008,0.9999999999999999,-8.831714298935317
9.016,1.0,-9.047064569230844
9.024000000000001,0.9999999999999998,-9.262414747765723
9.032,0.9999999999999999,-9.477764303539315
9.04,1.0,-9.693112705679729
9.048,1.0,-9.90845942345621
9.056000000000001,1.0,-10.123803926291567
9.064,1.0,-10.339145683774712
9.072,1.0,-10.554484165673328
9.08,1.0,-10.76981884194617
9.088000000000001,0.9999999999999999,-10.985149182755514
9.096,1.0,-11.200474658479703
9.104,0.9999999999999999,-11.415794739725706
9.112,1.0,-11.63110889734148
9.120000000000001,1.0,-11.846416602428327
9.128,1.0,-12.061717326353437
9.136,1.0,-12.277010540762383
9.144,1.0,-12.492295717591487
9.152000000000001,1.0000000000000002,-12.707572329080099
9.16,1.0,-12.922839847783097
9.168,0.9999999999999999,-13.138097746583355
9.176,1.0,-13.353345498704053
9.184000000000001,0.9999999999999999,-13.568582577720878
9.192,0.9999999999999999,-13.783808457574514
9.2,0.9999999999999999,-13.999022612583016
9.208,0.9999999999999999,-14.214224517454067
9.216000000000001,1.0,-14.429413647297135
9.224,1.0,-14.64458947763587
9.232,0.9999999999999999,-14.859751484420435
9.24,0.9999999758476346,-15.074899144039664
9.248000000000001,0.999999863311294,-15.290031933333156
9.256,0.9999997490974271,-15.50514932960364
9.264,0.9999996332245185,-15.720250810629134
9.272,0.9999995157112704,-15.935335854675108
9.280000000000001,0.9999993965766032,-16.150403940506468
9.288,0.9999992758396492,-16.36545454739976
9.296,0.999999153519753,-16.580487155155424
9.304,0.9999990296364663,-16.79550124410964
9.312000000000001,0.9999989042095473,-17.010496295146368
9.32,0.9999987772589568,-17.22547178970944
9.328,0.9999986488048558,-17.440427209814615
9.336,0.9999985188676025,-17.655362038061458
9.344,0.9999983874677494,-17.87027575764516
9.352,0.9999982546260414,-18.085167852368727
9.36,0.9999981203634121,-18.300037806654522
9.368,0.9999979847009803,-18.514885105556466
9.376,0.9999978476600493,-18.729709234771498
9.384,0.9999977092621016,-18.94450968065175
9.392,0.9999975695287978,-19.15928593021587
9.4,0.9999974284819725,-19.37403747116122
9.408,0.9999972861436318,-19.588763791875113
9.416,0.9999971425359506,-19.803464381446915
9.424,0.9999969976812688,-20.018138729679233
9.432,0.9999968516020894,-20.23278632709996
9.44,0.9999967043210742,-20.447406664973396
9.448,0.9999965558610423,-20.661999235312212
9.456,0.9999964062449657,-20.876563530888486
9.464,0.999996255495966,-21.091099045245638
9.472,0.9999961036373136,-21.305605272709386
9.48,0.9999959506924223,-21.520081708399516
9.488,0.9999957966848462,-21.734527848240912
9.496,0.9999956416382783,-21.948943188975157
9.504,0.9999954855765456,-22.16332722817148
9.512,0.9999953285236074,-22.377679464238323
9.52,0.9999951705035507,-22.591999396434183
9.528,0.999995011540588,-22.806286524879106
9.536,0.9999948516590542,-23.020540350565426
9.544,0.9999946908834023,-23.23476037536923
9.552,0.9999945292382012,-23.44894610206095
9.56,0.9999943667481322,-23.66309703431675
9.568,0.9999942034379853,-23.877212676729112
9.576,0.9999940393326565,-24.09129253481807
9.584,0.9999938744571454,-24.30533611504163
9.592,0.999993708836549,-24.51934292480707
9.6,0.9999935424960618,-24.733312472481224
9.608,0.9999933754609702,-24.947244267401594
9.616,0.9999932077566502,-25.16113781988666
9.624,0.9999930394085638,-25.374992641246852
9.632,0.999992870442256,-25.588808243794755
9.64,0.9999927008833509,-25.802584140855988
9.648,0.9999925307575491,-26.016319846779325
9.656,0.9999923600906231,-26.230014876947493
9.664,0.9999921889084155,-26.443668747787182
9.672,0.9999920172368346,-26.6572809767797
9.68,0.9999918451018515,-26.870851082470946
9.688,0.9999916725294965,-27.08437858448193
9.696,0.9999914995458556,-27.297863003518653
9.704,0.9999913261770677,-27.511303861382565
9.712,0.9999911524493204,-27.72470068098023
9.72,0.9999909783888469,-27.93805298633379
9.728,0.9999908040219236,-28.1513603025905
9.736,0.9999906293748648,-28.364622156033054
9.744,0.999990454474021,-28.577838074089012
9.752,0.9999902793457747,-28.791007585341056
