freq,mag,phase
6.0,0.999978631484955,70.18963241278112
6.002285056,0.9998404791319568,70.02307038489354
6.004570112,0.999712872562234,69.85843803496054
6.006855168,0.9996036650119223,69.69554109324407
6.009140224,0.9995198408529763,69.53404677411174
6.01142528,0.9994666191887308,69.37357605929687
6.013710336,0.9994474550392182,69.21363627481719
6.015995392,0.9994635941559393,69.05371914409257
6.018280448,0.9995140025007131,68.89336709283867
6.020565504,0.9995955850000545,68.73202453382974
6.02285056,0.9997031340502318,68.56933739321583
6.025135616,0.9998298664041451,68.40495520332829
6.027420672,0.999967823714539,68.23866577946073
6.029705728,1.0001082270718373,68.0703661749515
6.031990784,1.000242234547881,67.90006894859343
6.03427584,1.0003614570808432,67.72795154985556
6.036560896,1.0004582606691867,67.55428155726592
6.038845952,1.0005265154156628,67.37941720925362
6.041131008,1.0005619220470254,67.20381348131015
6.043416064,1.0005623029652522,67.02793698437756
6.04570112,1.000527497037725,66.85232493423841
6.047986176,1.0004597134145505,66.67745138544868
6.050271232,1.000363171229384,66.50379640232715
6.052556288,1.0002439649455837,66.33169546900845
6.054841344,1.0001096422502966,66.1614432620306
6.0571264,0.9999685525047712,65.99319563012199
6.059411456,0.99982975676464,65.8269780216136
6.061696512,0.9997019630836443,65.66271732748784
6.063981568,0.9995933163435731,65.50016386926201
6.066266624,0.9995105854709474,65.3390467602801
6.06855168,0.9994591166529843,65.17887557953243
6.070836736,0.9994421223264852,65.01923544633622
6.073121792,0.9994607186002524,64.85957742964915
6.075406848,0.9995138343631362,64.69941586385372
6.077691904,0.9995980297824804,64.53826729946954
6.07997696,0.9997081162408208,64.37571686777348
6.082262016,0.9998370388985524,64.21143679515164
6.084547072,0.9999766197150571,64.04520415464728
6.086832128,1.0001181772418857,63.876940677285276
6.089117184,1.0002527815345652,63.70669364379667
6.09140224,1.0003717529265048,63.534597180666246
6.093687296,1.0004677558830652,63.36094257068114
6.095972352,1.0005345596028112,63.1861257807492
6.098257408,1.0005680018891554,63.010589302007105
6.100542464,1.000565939561515,62.83479810003607
6.10282752,1.000528513522738,62.65933032258184
6.105112576,1.000457952267722,62.48462441571991
6.107397632,1.0003588248624937,62.31117071397996
6.1096832,1.000237258085658,62.13930492900291
6.111968256,1.0001009980393172,61.96931643370754
6.114253312,0.9999585271342405,61.80135031902788
6.116538368,0.9998189289446628,61.63543347109763
6.118823424,0.9996909874962328,61.471494395041695
6.12110848,0.9995828776935041,61.30924123082059
6.123393536,0.9995013743917895,61.148397641875235
6.125678592,0.9994516019940081,60.988494531882424
6.127963648,0.9994369169876504,60.82907478105937
6.130248704,0.9994581033899553,60.66961320934008
6.13253376,0.9995139359404791,60.50960500558816
6.134818816,0.9996008358084641,60.348570850802325
6.137103872,0.9997134564652971,60.186078456231165
6.139388928,0.9998444741340871,60.02184297693518
6.141673984,0.9999858460736226,59.855604384271956
6.14395904,1.0001285701297964,59.6873324346573
6.146244096,1.0002634944169988,59.5170467925485
6.148529152,1.000382355643882,59.344915884652615
6.150814208,1.0004773849770219,59.17123141403311
6.153099264,1.0005426842603693,58.99639348852598
6.15538432,1.0005740659582631,58.820851922773485
6.157669376,1.0005695891334874,58.64511509276372
6.159954432,1.0005295102210152,58.469702909345806
6.162239488,1.0004562186895765,58.2951026790729
6.164524544,1.00035443669555,58.12178597965115
6.1668096,1.0002304746617925,57.95009932344074
6.169094656,1.00009221164032,57.78032812142192
6.171379712,0.9999483475414557,57.61260134417979
6.173664768,0.9998078774383874,57.446923898271564
6.175949824,0.999679948713632,57.283198582744646
6.17823488,0.999572311991794,57.12120829731476
6.180519936,0.999492072851645,56.96058865029749
6.182804992,0.999444116836869,56.80089350497756
6.185090048,0.9994317283697304,56.64164039558297
6.187375104,0.9994555244214002,56.48230952765755
6.18966016,0.9995141084874614,56.32239106126922
6.191945216,0.9996037706168708,56.16139685703955
6.194230272,0.9997189394788616,55.99892990459957
6.196515328,0.9998521332154467,55.83464866386049
6.198800384,0.9999952352115955,55.668357158043804
6.20108544,1.0001390008079691,55.49998204434365
6.203370496,1.0002744399342236,55.32959834233302
6.205655552,1.0003929759146515,55.15738317933051
6.207940608,1.0004871008386718,54.98360169093697
6.210225664,1.0005508235728815,54.80869376749058
6.21251072,1.0005801104307936,54.63309433905086
6.214795776,1.000573210095161,54.45733243793817
6.217080832,1.0005303494142717,54.28192105916915
6.219365888,1.0004543170407973,54.10738314284526
6.221650944,1.0003498888489095,53.934154109572276
6.223936,1.0002235324929174,53.76259140601297
6.226221056,1.0000832837449853,53.59295280989129
6.228506112,0.999938034925346,53.42539171975404
6.230791168,0.999796953373877,53.25990173169555
6.233076224,0.9996687951284469,53.09638351779448
6.23536128,0.9995618976759093,52.934561565512
6.237646336,0.9994829002737108,52.77408906905519
6.239931392,0.9994368914809785,52.61454791127623
6.242216448,0.9994267312059756,52.455403904118356
6.244501504,0.9994531850562434,52.29614804573652
6.24678656,0.9995145364767418,52.136256337113785
6.249071616,0.9996069914448437,51.97523624409875
6.251356672,0.9997246378148799,51.81271048724902
6.253641728,0.9998601092219349,51.64833770789582
6.255926784,1.0000048154633188,51.4819311504706
6.25821184,1.0001496680372663,51.31341367447277
6.260496896,1.00028554338548,51.14285288052802
6.262781952,1.0004036900360975,50.9704726764312
6.265067008,1.0004967650231706,50.79654518677568
6.267352064,1.0005589593090896,50.62147355249187
6.26963712,1.000586148419962,50.44575344362543
6.271922176,1.000576658104833,50.269914733002885
6.274207232,1.0005310570234325,50.09447883265717
6.276492288,1.000452237989308,49.919929013980024
6.278777344,1.000345117667864,49.746702000805534
6.2810624,1.000216328043713,49.57520100699025
6.283347456,1.0000742273641074,49.405671308380555
6.285632512,0.9999275594644479,49.23820985051648
6.287917568,0.9997856582223464,49.0728639385618
6.290202624,0.9996575424346978,48.9094631953223
6.29248768,0.9995513000791338,48.74777161832605
6.294772736,0.9994736831506318,48.587410702594276
6.297057792,0.9994295836806002,48.42793037279708
6.299342848,0.9994217869240092,48.26883984091592
6.301627904,0.9994508690789298,48.109577341174386
6.30391296,0.9995150964982944,47.94965887112314
6.306198016,0.9996102813297598,47.78857764504435
6.308483072,0.9997304821611436,47.6259309733482
6.310768128,0.9998681560455399,47.46137242407042
6.313053184,1.0000145640111993,47.294785855170815
6.31533824,1.0001604931088754,47.12605531539375
6.317623296,1.000296612265196,46.95530772103797
6.319908352,1.0004145027951143,46.78267617713049
6.322193408,1.000506602518452,46.60853732547925
6.324478976,1.0005670858897768,46.433266712381474
6.326764032,1.0005920429061261,46.25738255861199
6.329049088,1.0005801021208274,46.08138511653081
6.331334144,1.0005316128885595,45.905837109474795
6.3336192,1.0004499899143335,45.73123173414926
6.335904256,1.0003401714374838,45.55798433037399
6.338189312,1.000209026431917,45.386479520838066
6.340474368,1.0000648942321733,45.21696433156595
6.342759424,0.9999169484715926,45.04956864290664
6.34504448,0.9997743023665827,44.8842862309376
6.347329536,0.9996462140184484,44.72095999337077
6.349614592,0.9995406867094718,44.559314985560334
6.351899648,0.9994644451481524,44.39901275724056
6.354184704,0.9994222566594191,44.23955064601784
6.35646976,0.9994169174351838,44.08044866889939
6.358754816,0.9994487804863967,43.92112672967594
6.361039872,0.9995157859927362,43.76111067624816
6.363324928,0.9996137570586042,43.59987143194183
6.365609984,0.9997366072239642,43.437038769504355
6.36789504,0.9998763663052821,43.27227896420488
6.370180096,1.000024442693409,43.10543084122313
6.372465152,1.0001714138602011,42.93643455618777
6.374750208,1.0003079344540309,42.76538343729064
6.377035264,1.0004253940148635,42.59249160044991
6.37932032,1.0005163673964423,42.418069038819894
6.381605376,1.000575124199927,42.24253611472445
6.383890432,1.0005979337188797,42.066426046093575
6.386175488,1.0005833428828206,41.89023792153087
6.388460544,1.0005321071276547,41.7145160388146
6.3907456,1.0004475670260349,41.53976396689724
6.393030656,1.0003350821333408,41.366435226421515
6.395315712,1.0002015471332184,41.19489211556418
6.397600768,1.0000554492060996,41.0253466206293
6.399885824,0.9999061269927493,40.8579455196011
6.40217088,0.999762900770268,40.692675014358606
6.404455936,0.9996347845640889,40.52935409330292
6.406740992,0.9995300238975319,40.367721342584844
6.409026048,0.9994551807665591,40.20740784077126
6.411311104,0.999415003704922,40.04789856860112
6.41359616,0.9994121462666641,39.88870645675561
6.415881216,0.9994467496519146,39.729283739365066
6.418166272,0.9995166815947213,39.56908928721477
6.420451328,0.9996173960072988,39.4076686758388
6.422736384,0.9997428285348913,39.244565313113895
6.42502144,0.9998848861906262,39.07953226362967
6.427306496,1.0000345025842106,38.91239138334836
6.429591552,1.0001825434037426,38.7430599357659
6.431876608,1.0003193879081096,38.57166431889032
6.434161664,1.0004363831401926,38.39840107956582
6.43644672,1.0005262842824156,38.22364278126324
6.438731776,1.0005833074688295,38.04779150323463
6.441016832,1.0006038199284006,37.87138734597505
6.443301888,1.0005865411304484,37.6949273111869
6.445586944,1.0005324824962794,37.518991221113886
6.447872,1.000445065380951,37.344057545432534
6.450157056,1.000329821596631,37.17057133586973
6.452442112,1.0001939262757966,36.99891549893417
6.454727168,1.0000459559405062,36.82929539978214
6.457012224,0.9998952742336017,36.661849012115994
6.45929728,0.999751326767307,36.496516606284935
6.461582336,0.9996233899423403,36.33313804008032
6.463867392,0.9995193910915838,36.171456315897956
6.466152448,0.999445936606378,36.011052751527814
6.468437504,0.9994078275117582,35.85145602509919
6.47072256,0.9994074331298474,35.69212498497426
6.473007616,0.9994448113613404,35.53254336228421
6.475292672,0.9995175488490028,35.37211120513887
6.477577728,0.9996211714319418,35.21041168385794
6.479862784,0.9997491757118188,35.047031143862846
6.48214784,0.9998933635028415,34.8816565309532
6.484432896,1.0000447759192028,34.71412304405211
6.486717952,1.000193637965002,34.54440564527833
6.489003008,1.0003307386091942,34.372591511327485
6.491288064,1.000447342884306,34.19893612354364
6.49357312,1.0005360457214563,34.023775095472935
6.495858176,1.000591328240911,33.84755640403615
6.498143232,1.0006095751348982,33.67079096740057
6.500428288,1.0005896041464544,33.49400916043892
6.502713344,1.00053272401124,33.31778121120314
6.5049984,1.0004425255741625,33.14262108316583
6.507283456,1.0003245292925702,32.96893727066597
6.509568512,1.000186198543944,32.797096092525784
6.511853568,1.000036300358733,32.62734592881722
6.514138624,0.9998843626686571,32.45976629004204
6.51642368,0.9997398389838864,32.294316220514
6.518708736,0.9996118685725581,32.1308477492252
6.520993792,0.9995087542528395,31.96904850040285
6.523278848,0.9994367969341956,31.80852388056253
6.525563904,0.9994007985510213,31.648762254246467
6.52784896,0.9994028990122797,31.48923170103256
6.530134016,0.9994431031400042,31.329387794662736
6.532419072,0.9995187229707103,31.168691511461873
6.534704128,0.9996251757980423,31.006683341940143
6.536989184,0.9997558361036053,30.84290269067545
6.53927424,0.9999021402749435,30.677117017912675
6.541559808,1.0000551179701553,30.509151413355255
6.543844864,1.0002049513456626,30.338981456180285
6.54612992,1.0003423057987824,30.166690505753095
6.548414976,1.000458441958371,29.992579458399803
6.550700032,1.0005459646283863,29.816959491754083
6.552985088,1.0005994415305377,29.6402919138554
6.555270144,1.0006153506507438,29.463133400350063
6.5575552,1.0005927020831895,29.285987872063178
6.559840256,1.0005329951786788,29.1094084392809
6.562125312,1.0004398464724094,28.933927367412107
6.564410368,1.00031907891072,28.759981569343
6.566695424,1.0001783877660622,28.587933670556644
6.56898048,1.000026673394102,28.417986239049807
6.571265536,0.9998732709309915,28.250232875804752
6.573550592,0.9997281937186838,28.084630496113668
6.575835648,0.9996004271485125,27.920979030228658
6.578120704,0.9994981094727494,27.759016419737023
6.58040576,0.9994277565192821,27.598279507951574
6.582690816,0.999393765109267,27.43830945099807
6.584975872,0.9993983555440653,27.278517161381348
6.587260928,0.9994413957137853,27.11837591143046
6.589545984,0.9995200024610533,26.957331124540815
6.59183104,0.9996293582926274,26.79492799749908
6.594116096,0.9997623802951571,26.630736644389156
6.596401152,0.9999109246032961,26.4644816855497
6.598686208,1.0000654697414388,26.296031896386594
6.600971264,1.0002162496986888,26.12532596138007
6.60325632,1.000353885106576,25.95253422514661
6.605541376,1.000469468669826,25.777887779376723
6.607826432,1.000555766933195,25.601745526853556
6.610111488,1.0006074654935047,25.424589771184735
6.612396544,1.0006209925569882,25.246946865428363
6.6146816,1.0005956285752367,25.06938146664197
6.616966656,1.000533059056244,24.892413075744116
6.619251712,1.0004369032883793,24.716572500241565
6.621536768,1.0003134647669696,24.542309042154827
6.623821824,1.0001704213029983,24.369973179725093
6.62610688,1.0000167169415806,24.199766929577958
6.628391936,0.999862167769724,24.031772666475682
6.630676992,0.9997164292514292,23.865950710561123
6.632962048,0.9995888510390816,23.702081789277425
6.635247104,0.9994874537847841,23.53988261349668
6.63753216,0.9994185393632751,23.378899277103503
6.639817216,0.9993867599760368,23.218648258903837
6.642102272,0.9993939573625696,23.058545230697437
6.644387328,0.9994396754655873,22.898039504467082
6.646672384,0.9995212395061448,22.736606558330976
6.64895744,0.9996334526087309,22.57374977946226
6.651242496,0.9997690694906348,22.409073985529872
6.653527552,0.9999197496018254,22.242303192450184
6.655812608,1.0000759298568769,22.073292830656573
6.658097664,1.0002276433637172,21.90201247384095
6.66038272,1.0003654501612287,21.728646353311444
6.662667776,1.000480493637293,21.553396350570708
6.664952832,1.000565651264194,21.376689166638315
6.667237888,1.0006152971732702,21.198982083425186
6.669522944,1.000626587833412,21.020805330688596
6.671808,1.0005985414132355,20.842735045829865
6.674093056,1.0005330517607918,20.665338355641968
6.676378112,1.0004339586680064,20.48907225189022
6.678663168,1.0003078755731345,20.314457878062413
6.680948224,1.0001624331145784,20.14176146186597
6.68323328,1.0000068675510394,19.97123676651636
6.685518336,0.9998510167155642,19.802965657057932
6.687803392,0.9997047606823588,19.636852542419714
6.690088448,0.9995773180060534,19.47272804864954
6.692373504,0.9994767894373248,19.310229245937805
6.69465856,0.999409528283282,19.14893680530442
6.696943616,0.9993798059127128,18.9883261962565
6.699228672,0.9993896129762025,18.827866127207095
6.701513728,0.999438184544839,18.66694673434546
6.703798784,0.9995226736774395,18.505043367467106
6.70608384,0.9996377456145074,18.34170255431654
6.708368896,0.9997759734286878,18.17645854544421
6.710653952,0.9999287597665909,18.009103594168238
6.712939008,1.0000863646375149,17.839491231154526
6.715224064,1.0002391012961922,17.667595360130708
6.71750912,1.0003770406164079,17.49357558687267
6.719794176,1.0004915189759043,17.3176844777835
6.722079232,1.0005754099780992,17.140347140559054
6.724364288,1.000623252211506,16.962020241868153
6.726649344,1.000632119569428,16.783278183513783
6.7289344,1.0006014176905567,16.604663533978893
6.731219456,1.000532907692559,16.426740708472376
6.733504512,1.0004310133983803,16.250025556764168
6.735789568,1.0003020731055163,16.07494720586324
6.738074624,1.000154282914249,15.90188309353062
6.74035968,0.999996847882955,15.730997103309024
6.742644736,0.9998398533986477,15.56236723358904
6.744929792,0.9996930846290105,15.395941306761788
6.747214848,0.9995658075384377,15.231457145958798
6.749499904,0.9994662026206844,15.068612395735961
6.75178496,0.9994005301143645,14.906961458958863
6.754070016,0.9993728776367312,14.745958847961932
6.756355072,0.9993853006081418,14.585051107837932
6.75864064,0.9994367254417827,14.4236774210123
6.760925696,0.999524175061398,14.261237976802482
6.763210752,0.999642010798494,14.097323817143101
6.765495808,0.9997827314723237,13.93151254496447
6.767780864,0.9999377585182192,13.763506126539433
6.77006592,1.0000970188735336,13.59321240465542
6.772350976,1.000250612851412,13.420626907729945
6.774636032,1.000388572243735,13.24589876136839
6.776921088,1.0005025388731208,13.06931706504139
6.779206144,1.0005851551221647,12.891307310174147
6.7814912,1.0006311007523199,12.712317713434942
6.783776256,1.0006376015758662,12.532938673648909
6.786061312,1.0006040823323636,12.353713440315508
6.788346368,1.000532708884072,12.17523245113688
6.790631424,1.000427879896292,11.997985926819275
6.79291648,1.0002962543919856,11.822432304825872
6.795201536,1.0001460816160304,11.64891247902743
6.797486592,0.9999868205475912,11.477602767183061
6.799771648,0.9998285423982951,11.308575317389051
6.802056704,0.9996812638505411,11.141737429185865
6.80434176,0.9995542312363257,10.976876149237675
6.806626816,0.9994555378196812,10.813642762849808
6.808911872,0.9993914200227788,10.651567447906922
6.811196928,0.9993660729252288,10.490104305428355
6.813481984,0.9993809357188281,10.328723422429336
6.81576704,0.9994353719083412,10.16679848624447
6.818052096,0.9995256601727202,10.003800516072547
6.820337152,0.999646253654457,9.839259300324297
6.822622208,0.9997896770662033,9.672772324881455
6.824907264,0.9999466793703382,9.504101889979685
6.82719232,1.0001075417369067,9.333074983228205
6.829477376,1.0002619189013886,9.15974646184153
6.831762432,1.0004002632493676,8.984280088984963
6.834047488,1.000513542403152,8.806945137140382
6.836332544,1.0005948239394997,8.62818029039466
6.8386176,1.000639061980614,8.44848556506762
6.840902656,1.0006429610413936,8.268401812359802
6.843187712,1.0006068215655917,8.088533585583948
6.845472768,1.0005324591513505,7.9094217512062075
6.847757824,1.0004247476021386,7.7316047270203505
6.85004288,1.0002904784813678,7.555517299730675
6.852327936,1.0001378804984737,7.381478932725202
6.854612992,0.9999768098009668,7.209684311659448
6.856898048,0.9998172733728029,7.040199725876152
6.859183104,0.9996694554464929,6.872930262491416
6.86146816,0.9995427408204922,6.707649705304545
6.863753216,0.9994449477687015,6.5439296284703365
6.866038272,0.9993824808171689,6.381375381882961
6.868323328,0.9993592122503474,6.219420039332786
6.870608384,0.9993767515473317,6.0574778296513
6.87289344,0.9994339735897041,5.894977502064603
6.875178496,0.9995272775107092,5.731372939843232
6.877463552,0.9996507641629211,5.566142820469099
6.879748608,0.9997966226212411,5.398953052440119
6.882033664,0.9999558080531065,5.229508433922569
6.88431872,1.000118109246921,5.057716868229367
6.886603776,1.0002733371161934,4.883597508546914
6.888888832,1.000411748910213,4.707305270220196
6.891173888,1.0005245949652837,4.529164640576889
6.893458944,1.0006045780917099,4.349602666789057
6.895744,1.000646748357702,4.16912625516434
6.898029056,1.000648390629418,3.988301231328288
6.900314112,1.0006093992441547,3.8077325708837955
6.902599168,1.0005323099406782,3.6279441964143433
6.904884224,1.0004215626693678,3.449510326649592
6.90716928,1.000284643017412,3.272836909556425
6.909454336,1.0001297526689783,3.0982381520894715
6.911739392,0.9999667718459232,2.925914855955927
6.914024448,0.99980607778477,2.7559314166800286
6.916309504,0.9996578076872179,2.5881420578567793
6.91859456,0.9995311865956871,2.422337570285303
6.920879616,0.9994344028384655,2.25812709451454
6.923164672,0.9993734730724879,2.095051551035218
6.925449728,0.9993525257968515,1.932530048927391
6.927734784,0.9993725945843348,1.7699992151701447
6.93001984,0.9994326599590667,1.6068557538346828
6.932304896,0.9995288659491507,1.442547542722882
