freq,mag,phase
6.0,0.9999949465738386,-50.504970605153794
6.008,0.999997029986647,-50.883670821967776
6.016,0.9999990127989028,-51.26194176081489
6.024,1.0,-51.63978116145751
6.032,0.9999999999999999,-52.01718679580279
6.04,0.9999999999999999,-52.39415646788979
6.048,1.0,-52.770688013872515
6.056,1.0,-53.14677930199855
6.064,1.0,-53.52242823258374
6.072,0.9999999999999999,-53.897632737982995
6.08,0.9999999999999999,-54.272390782556705
6.088,1.0,-54.64670036263358
6.096,1.0,-55.02055950646924
6.104,1.0,-55.39396627420128
6.112,1.0,-55.76691875780038
6.12,1.0,-56.13941508101744
6.128,1.0000000000000002,-56.51145339932745
6.136,0.9999999999999999,-56.88303189986936
6.144,1.0,-57.25414880138245
6.152,0.9999999999999999,-57.62480235413925
6.16,0.9999999999999999,-57.99499083987473
6.168,1.0,-58.36471257171229
6.176,0.9999999999999999,-58.73396589408615
6.184,1.0,-59.10274918266067
6.192,1.0,-59.47106084424593
6.2,0.9999999999999999,-59.8388993167106
6.208,0.9999999999999999,-60.2062630688913
6.216,1.0000000000000002,-60.573150600498884
6.224,1.0,-60.93956044202166
6.232,1.0,-61.305491154625756
6.24,0.9999999999999999,-61.67094133005219
6.248,0.9999999999999999,-62.035909590511444
6.256,1.0,-62.40039458857471
6.264,0.9999999999999999,-62.76439500706288
6.272,1.0,-63.1279095589322
6.28,0.9999999999999999,-63.49093698715778
6.288,1.0,-63.853476064614114
6.296,1.0,-64.21552559395313
6.304,0.9999999999999998,-64.57708440747973
6.312,0.9999999999999999,-64.93815136702486
6.32,0.9999999999999999,-65.29872536381608
6.328,1.0,-65.65880531834593
6.336,0.9999999999999998,-66.01839018023783
6.344,1.0,-66.37747892810977
6.352,1.0,-66.73607056943591
6.36,1.0,-67.09416414040578
6.368,1.0,-67.45175870578171
6.376,1.0,-67.808853358754
6.384,0.9999999999999999,-68.16544722079412
6.392,0.9999999999999999,-68.52153944150605
6.4,1.0,-68.8771291984757
6.408,0.9999999999999999,-69.23221569711845
6.416,0.9999999999999999,-69.5867981705251
6.424,1.0,-69.94087587930584
6.432,0.9999999999999999,-70.29444811143267
6.44,0.9999999999999999,-70.64751418208031
6.448,1.0,-71.00007343346529
6.456,0.9999999999999999,-71.35212523468373
6.464,0.9999999999999999,-71.70366898154751
6.472,1.0,-72.05470409641921
6.48,1.0,-72.40523002804532
6.4879999999999995,0.9999999999999999,-72.75524625138858
6.496,1.0,-73.10475226745882
6.504,0.9999999999999999,-73.45374760314223
6.5120000000000005,1.0,-73.80223181103032
6.52,0.9999999999999998,-74.15020446924675
6.5280000000000005,1.0,-74.49766518127396
6.536,0.9999999999999999,-74.84461357577787
6.5440000000000005,1.0,-75.19104930643269
6.552,0.9999999999999999,-75.53697205174346
6.5600000000000005,0.9999999999999999,-75.88238151486914
6.568,1.0,-76.22727742344334
6.5760000000000005,0.9999999999999999,-76.57165952939572
6.584,1.0,-76.91552760877124
6.592,0.9999996770152395,-77.25888146154993
6.6,0.999998942261107,-77.60172091146492
6.608,0.9999982095429016,-77.9440458058206
6.616,0.9999974793823381,-78.28585601530966
6.624,0.9999967522843294,-78.62715143383005
6.632,0.9999960287372377,-78.9679319783009
6.64,0.9999953092131255,-79.30819758847841
6.648,0.9999945941680032,-79.64794822677104
6.656,0.999993884042078,-79.98718387805441
6.664,0.999993179260002,-80.32590454948583
6.672,0.9999924802311168,-80.66411027031842
6.68,0.9999917873497,-81.00180109171512
6.688,0.9999911009952075,-81.33897708656227
6.696,0.999990421532518,-81.67563834928312
6.704,0.9999897493121732,-82.01178499565103
6.712,0.9999890846706185,-82.34741716260267
6.72,0.9999884279304412,-82.68253500805105
6.728,0.9999877794006093,-83.01713871069843
6.736,0.9999871393767066,-83.35122846984932
6.744,0.9999865081411672,-83.68480450522325
6.752,0.9999858859635096,-84.01786705676797
6.76,0.9999852731005686,-84.35041638447215
6.768,0.9999846697967245,-84.68245276817876
6.776,0.999984076284132,-85.0139765073981
6.784,0.9999834927829476,-85.34498792112127
6.792,0.9999829195015557,-85.67548734763373
6.8,0.9999823566367907,-86.00547514432901
6.808,0.9999818043741608,-86.33495168752277
6.816,0.9999812628880675,-86.66391737226715
6.824,0.9999807323420247,-86.9923726121652
6.832,0.9999802128888754,-87.3203178391859
6.84,0.9999797046710069,-87.64775350347941
6.848,0.9999792078205648,-87.97468007319262
6.856,0.9999787224596638,-88.30109803428535
6.864,0.9999782487005976,-88.6270078903466
6.872,0.9999777866460479,-88.95241016241168
6.88,0.9999773363892883,-89.27730538877947
6.888,0.9999768980143903,-89.6016941248303
6.896,0.9999764715964242,-89.92557694284453
6.904,0.999976057201662,-90.2489544318213
6.912,0.9999756548877717,-90.57182719729819
6.92,0.999975264704018,-90.89419586117134
6.928,0.9999748866914527,-91.21606106151613
6.936,0.9999745208831109,-91.53742345240849
6.944,0.9999741673041992,-91.85828370374706
6.952,0.9999738259722853,-92.1786425010757
6.96,0.9999734968974847,-92.49850054540697
6.968,0.9999731800826435,-92.81785855304614
6.976,0.9999728755235229,-93.13671725541599
6.984,0.9999725832089795,-93.45507739888238
6.992,0.9999723031211428,-93.77293974458051
7.0,0.999972035235592,-94.090305068242
7.008,0.9999717795215309,-94.40717416002278
7.016,0.9999715359419601,-94.72354782433172
7.024,0.9999713044538464,-95.03942687966014
7.032,0.9999710850082928,-95.35481215841214
7.04,0.9999708775507024,-95.66970450673583
7.048,0.9999706820209449,-95.98410478435524
7.056,0.9999704983535176,-96.29801386440343
7.064,0.9999703264777055,-96.61143263325617
7.072,0.999970166317739,-96.9243619903667
7.08,0.999970017792951,-97.2368028481014
7.088,0.9999698808179295,-97.54875613157633
7.096,0.99996975530267,-97.86022277849472
7.104,0.9999696411527252,-98.17120373898548
7.112,0.9999695382693541,-98.4816999754426
7.12,0.9999694465496648,-98.79171246236545
7.128,0.9999693658867613,-99.10124218620035
7.136,0.9999692961698842,-99.41029014518271
7.144,0.9999692372845486,-99.71885734918057
7.152,0.9999691891126844,-100.02694481953884
7.16,0.9999691515327703,-100.33455358892478
7.168,0.9999691244199684,-100.64168470117436
7.176,0.9999691076462544,-100.94833921113967
7.184,0.9999691010805491,-101.25451818453753
7.192,0.999969104588845,-101.56022269779888
7.2,0.9999691180343325,-101.86545383791942
7.208,0.9999691412775228,-102.17021270231125
7.216,0.9999691741763701,-102.47450039865552
7.224,0.9999692165863926,-102.77831804475636
7.232,0.9999692683607883,-103.08166676839548
7.24,0.9999693293505532,-103.3845477071883
7.248,0.9999693994045932,-103.68696200844093
7.256,0.9999694783698387,-103.98891082900815
7.264,0.9999695660913522,-104.29039533515281
7.272,0.9999696624124389,-104.59141670240588
7.28,0.9999697671747527,-104.89197611542805
7.288,0.9999698802183995,-105.19207476787213
7.296,0.9999700013820418,-105.49171386224664
7.304,0.9999701305029997,-105.79089460978057
7.312,0.999970267417348,-106.08961823028915
7.32,0.999970411960016,-106.38788595204082
7.328,0.9999705639648819,-106.6856990116253
7.336,0.9999707232648671,-106.98305865382267
7.344,0.9999708896920269,-107.27996613147373
7.352,0.9999710630776429,-107.57642270535136
7.36,0.9999712432523106,-107.87242964403308
7.368,0.9999714300460251,-108.16798822377467
7.376,0.9999716232882672,-108.46309972838495
7.384,0.9999718228080883,-108.7577654491016
7.392,0.9999720284341893,-109.05198668446822
7.4,0.9999722399950026,-109.34576474021246
7.4079999999999995,0.9999724573187697,-109.63910092912522
7.416,0.9999726802336184,-109.93199657094115
7.4239999999999995,0.9999729085676375,-110.2244529922198
7.432,0.9999731421489514,-110.51647152622864
7.4399999999999995,0.9999733808057899,-110.80805351282646
7.448,0.9999736243665612,-111.09920029834844
7.4559999999999995,0.9999738726599187,-111.38991323549173
7.464,0.9999741255148296,-111.68019368320299
7.4719999999999995,0.9999743827606393,-111.97004300656606
7.48,0.9999746442271373,-112.25946257669173
7.4879999999999995,0.9999749097446182,-112.54845377060754
7.496,0.9999751791439442,-112.83701797114985
7.504,0.9999754522566039,-113.12515656685581
7.5120000000000005,0.9999757289147718,-113.41287095185773
7.52,0.9999760089513638,-113.70016252577702
7.5280000000000005,0.9999762922000935,-113.98703269362086
7.536,0.9999765784955265,-114.27348286567849
7.5440000000000005,0.9999768676731314,-114.5595144574197
7.552,0.9999771595693342,-114.84512888939355
7.5600000000000005,0.9999774540215646,-115.13032758712893
7.568,0.9999777508683072,-115.41511198103542
7.5760000000000005,0.9999780499491475,-115.69948350630608
7.584,0.9999783511048183,-115.98344360282029
7.5920000000000005,0.9999786541772441,-116.26699371504873
7.6,0.999978959009585,-116.55013529195843
7.6080000000000005,0.9999792654462776,-116.83286978691982
7.616,0.9999795733330776,-117.11519865761366
7.6240000000000006,0.9999798825170981,-117.39712336594054
7.632,0.9999801928468479,-117.67864537792975
7.640000000000001,0.9999805041722697,-117.95976616365064
7.648,0.9999808163447755,-118.24048719712385
7.656000000000001,0.9999811292172816,-118.52080995623457
7.664,0.9999814426442418,-118.80073592264593
7.672,0.9999817564816809,-119.08026658171414
7.68,0.9999820705872251,-119.35940342240403
7.688,0.9999823848201331,-119.63814793720607
7.696,0.9999826990413253,-119.91650162205408
7.704,0.9999830131134111,-120.19446597624413
7.712,0.9999833269007168,-120.47204250235423
7.72,0.9999836402693114,-120.74923270616523
7.728,0.9999839530870315,-121.02603809658251
7.736,0.9999842652235055,-121.30246018555881
7.744,0.9999845765501765,-121.57850048801774
7.752,0.9999848869403236,-121.85416052177864
7.76,0.9999851962690846,-122.12944180748208
7.768,0.9999855044134736,-122.4043458685164
7.776,0.9999858112524027,-122.67887423094537
7.784,0.9999861166666982,-122.95302842343641
7.792,0.999986420539119,-123.22680997719009
7.8,0.9999867227543721,-123.5002204258704
7.808,0.9999870231991289,-123.773261305536
7.816,0.9999873217620394,-124.04593415457224
7.824,0.9999876183337453,-124.31824051362425
7.832,0.9999879128068939,-124.59018192553094
7.84,0.9999882050761499,-124.86175993525971
7.848,0.9999884950382061,-125.13297608984222
7.856,0.9999887825917938,-125.40383193831087
7.864,0.9999890676376937,-125.6743290316365
7.872,0.9999893500787429,-125.94446892266649
7.88,0.9999896298198442,-126.2142531660641
7.888,0.9999899067679731,-126.4836833182485
7.896,0.9999901808321842,-126.75276093733555
7.904,0.999990451923617,-127.02148758307973
7.912,0.9999907199555016,-127.28986481681666
7.92,0.9999909848431623,-127.55789420140646
7.928,0.9999912465040219,-127.82557730117803
7.936,0.9999915048576045,-128.0929156818741
7.944,0.9999917598255382,-128.3599109105971
7.952,0.9999920113315562,-128.62656455575592
7.96,0.9999922593014983,-128.89287818701317
7.968,0.9999925036633118,-129.15885337523366
7.976,0.99999274434705,-129.42449169243332
7.984,0.9999929812848732,-129.6897947117292
7.992,0.9999932144110452,-129.9547640072898
8.0,0.9999934436619338,-130.21940115428666
8.008,0.9999936689760062,-130.48370772884644
8.016,0.9999938902938267,-130.74768530800387
8.024000000000001,0.999994107558053,-131.0113354696551
8.032,0.999994320713433,-131.27465979251244
8.04,0.9999945297067974,-131.5376598560593
8.048,0.9999947344870579,-131.80033724050608
8.056000000000001,0.9999949350051983,-132.06269352674656
8.064,0.9999951312142711,-132.32473029631535
8.072,0.9999953230693879,-132.58644913134594
8.08,0.9999955105277146,-132.84785161452925
8.088000000000001,0.9999956935484624,-133.108939329073
8.096,0.99999587209288,-133.36971385866178
8.104,0.9999960461242453,-133.63017678741807
8.112,0.9999962156078559,-133.89032969986337
8.120000000000001,0.99999638051102,-134.15017418088044
8.128,0.9999965408030457,-134.409711815676
8.136,0.9999966964552323,-134.66894418974437
8.144,0.9999968474408584,-134.92787288883147
8.152000000000001,0.9999969937351708,-135.18649949889934
8.16,0.9999971353153738,-135.4448256060917
8.168,0.9999972721606166,-135.70285279670023
8.176,0.9999974042519821,-135.96058265713083
8.184000000000001,0.9999975315724722,-136.21801677387094
8.192,0.9999976541069985,-136.47515673345757
8.2,0.9999977718423652,-136.73200412244572
8.208,0.9999978847672583,-136.98856052737764
8.216000000000001,0.9999979928722302,-137.2448275347523
8.224,0.9999980961496865,-137.50080673099566
8.232,0.9999981945938703,-137.75649970243188
8.24,0.9999982882008487,-138.01190803525466
8.248000000000001,0.9999983769684971,-138.26703331549902
8.256,0.9999984608964834,-138.5218771290141
8.264,0.9999985399862529,-138.77644106143654
8.272,0.9999986142410126,-139.03072669816402
8.280000000000001,0.9999986836657144,-139.28473562432944
8.288,0.9999987482670393,-139.53846942477585
8.296,0.9999988080533794,-139.79192968403208
8.304,0.9999988630348234,-140.0451179862884
8.312,0.9999989132231369,-140.2980359153728
8.32,0.9999989586317469,-140.55068505472846
8.328,0.9999989992757227,-140.8030669873908
8.336,0.99999903517176,-141.0551832959658
8.344,0.9999990663381605,-141.30703556260815
8.352,0.9999990927948162,-141.55862536900082
8.36,0.9999991145631895,-141.8099542963339
8.368,0.9999991316662937,-142.06102392528538
8.376,0.999999144128678,-142.31183583600085
8.384,0.9999991519764038,-142.56239160807525
8.392,0.9999991552370293,-142.8126928205336
8.4,0.9999991539395885,-143.06274105181367
8.408,0.9999991481145718,-143.3125378797477
8.416,0.9999991377939076,-143.56208488154584
8.424,0.9999991230109414,-143.81138363377892
8.432,0.9999991038004168,-144.0604357123628
8.44,0.9999990801984545,-144.30924269254206
8.448,0.9999990522425343,-144.5578061488751
8.456,0.9999990199714722,-144.80612765521886
8.464,0.999998983425402,-145.05420878471472
8.472,0.999998942645755,-145.30205110977397
8.48,0.9999988976752375,-145.5496562020648
8.488,0.9999988485578125,-145.79702563249862
8.496,0.9999987953386776,-146.0441609712175
8.504,0.9999987380642454,-146.2910637875816
8.512,0.9999986767821204,-146.53773565015754
8.52,0.9999986115410808,-146.78417812670634
8.528,0.9999985423910549,-147.0303927841727
8.536,0.9999984693831029,-147.27638118867384
8.544,0.9999983925693922,-147.52214490548945
8.552,0.9999983120031791,-147.76768549905125
8.56,0.9999982277387867,-148.0130045329337
8.568,0.9999981398315823,-148.2581035698445
8.576,0.9999980483379577,-148.50298417161585
8.584,0.9999979533153072,-148.74764789919564
8.592,0.9999978548220056,-148.9920963126396
8.6,0.9999977529173872,-149.23633097110317
8.608,0.9999976476617242,-149.48035343283425
8.616,0.9999975391162055,-149.72416525516581
8.624,0.9999974273429144,-149.96776799450936
8.632,0.9999973124048067,-150.21116320634826
8.64,0.9999971943656911,-150.45435244523188
8.648,0.999997073290205,-150.69733726476935
8.656,0.9999969492437943,-150.94011921762467
8.664,0.999996822292692,-151.18269985551103
8.672,0.9999966925038954,-151.42508072918645
8.68,0.9999965599451454,-151.6672633884488
8.688,0.9999964246849042,-151.90924938213197
8.696,0.999996286792335,-152.1510402581018
8.704,0.9999961463372776,-152.39263756325258
8.712,0.9999960033902304,-152.63404284350352
8.72,0.999995858022326,-152.8752576437962
8.728,0.999995710305311,-153.11628350809127
8.736,0.9999955603115238,-153.35712197936667
8.744,0.9999954081138736,-153.5977745996148
8.752,0.9999952537858182,-153.83824290984137
8.76,0.9999950974013443,-154.07852845006317
8.768,0.9999949390349433,-154.3186327593074
8.776,0.9999947787615923,-154.55855737560998
8.784,0.9999946166567318,-154.7983038360153
8.792,0.9999944527962444,-155.03787367657534
8.8,0.9999942872564339,-155.2772684323498
8.808,0.9999941201140035,-155.5164896374057
8.815999999999999,0.9999939514460354,-155.75553882481796
8.824,0.9999937813299691,-155.99441752666974
8.832,0.9999936098435813,-156.23312727405323
8.84,0.9999934370649631,-156.47166959707062
8.847999999999999,0.9999932630725015,-156.71004602483544
8.856,0.9999930879448565,-156.94825808547395
8.864,0.9999929117609413,-157.18630730612685
8.872,0.9999927345999016,-157.42419521295113
8.879999999999999,0.9999925565410949,-157.66192333112255
8.888,0.9999923776640699,-157.89949318483767
8.896,0.999992198048545,-158.13690629731656
8.904,0.9999920177743904,-158.3741641908057
8.911999999999999,0.9999918369216049,-158.61126838658103
8.92,0.9999916555702979,-158.8482204049512
8.928,0.9999914738006673,-159.08502176526088
8.936,0.9999912916929821,-159.32167398589453
8.943999999999999,0.9999911093275589,-159.5581785842804
8.952,0.9999909267847445,-159.79453707689441
8.96,0.9999907441448964,-160.03075097926455
8.968,0.9999905614883611,-160.2668218059751
8.975999999999999,0.9999903788954555,-160.5027510706717
8.984,0.9999901964464476,-160.7385402860659
8.992,0.9999900142215373,-160.97419096394023
9.0,0.999989832300836,-161.20970461515338
9.008,0.9999896507643485,-161.4450827496458
9.016,0.9999894696919529,-161.68032687644512
9.024000000000001,0.9999892891633826,-161.9154385036718
9.032,0.9999891092582069,-162.1504191385452
9.04,0.9999889300558117,-162.3852702873898
9.048,0.9999887516353819,-162.6199934556412
9.056000000000001,0.9999885740758816,-162.85459014785266
9.064,0.9999883974560366,-163.08906186770167
9.072,0.9999882218543164,-163.3234101179968
9.08,0.999988047348914,-163.55763640068454
9.088000000000001,0.9999878740177304,-163.79174221685633
9.096,0.9999877019383544,-164.0257290667558
9.104,0.9999875311880456,-164.25959844978615
9.112,0.9999873618437176,-164.49335186451788
9.120000000000001,0.9999871939819184,-164.726990808696
9.128,0.9999870276788146,-164.96051677924825
9.136,0.999986863010173,-165.19393127229287
9.144,0.9999867000513444,-165.42723578314678
9.152000000000001,0.9999865388772449,-165.6604318063337
9.16,0.99998637956234,-165.89352083559254
9.168,0.9999862221806286,-166.12650436388608
9.176,0.9999860668056237,-166.35938388340944
9.184000000000001,0.9999859135103379,-166.5921608855987
9.192,0.9999857623672667,-166.82483686114006
9.2,0.9999856134483719,-167.05741329997875
9.208,0.9999854668250645,-167.2898916913281
9.216000000000001,0.9999853225681903,-167.52227352367893
9.224,0.9999851807480126,-167.7545602848086
9.232,0.9999850414341978,-167.98675346179098
9.24,0.9999849046957979,-168.21885454100573
9.248000000000001,0.9999847706012365,-168.45086500814796
9.256,0.9999846392182936,-168.68278634823824
9.264,0.999984510614089,-168.91462004563246
9.272,0.9999843848550685,-169.14636758403196
9.280000000000001,0.9999842620069884,-169.37803044649345
9.288,0.9999841421349006,-169.60961011543938
9.296,0.9999840253031393,-169.84110807266833
9.304,0.9999839115753036,-170.07252579936554
9.312000000000001,0.999983801014247,-170.30386477611304
9.32,0.9999836936820599,-170.53512648290072
9.328,0.9999835896400578,-170.76631239913692
9.336,0.9999834889487665,-170.99742400365923
9.344,0.9999833916679076,-171.22846277474522
9.352,0.999983297856387,-171.45943019012387
9.36,0.9999832075722799,-171.6903277269861
9.368,0.9999831208728178,-171.9211568619965
9.376,0.9999830378143758,-172.15191907130406
9.384,0.9999829584524593,-172.38261583055393
9.392,0.999982882841691,-172.61324861489842
9.4,0.9999828110358,-172.84381889900888
9.408,0.9999827430876066,-173.0743281570869
9.416,0.9999826790490118,-173.3047778628763
9.424,0.9999826189709856,-173.53516948967442
9.432,0.9999825629035528,-173.7655045103443
9.44,0.9999825108957839,-173.99578439732616
9.448,0.9999824629957815,-174.22601062264968
9.456,0.99998241925067,-174.45618465794558
9.464,0.9999823797065831,-174.68630797445803
9.472,0.9999823444086539,-174.91638204305642
9.48,0.9999823134010033,-175.1464083342478
9.488,0.9999822867267293,-175.37638831818884
9.496,0.9999822644278964,-175.60632346469842
9.504,0.9999822465455243,-175.8362152432695
9.512,0.99998223311958,-176.06606512308207
9.52,0.9999822241889644,-176.29587457301514
9.528,0.9999822197915048,-176.52564506165947
9.536,0.9999822199639448,-176.75537805732992
9.544,0.9999822247419333,-176.9850750280783
9.552,0.9999822341600165,-177.2147374417057
9.56,0.9999822482516281,-177.4443667657754
9.568,0.9999822670490798,-177.67396446762547
9.576,0.9999822905835535,-177.90353201438168
9.584,0.999982318885092,-178.13307087296997
9.592,0.9999823519825894,-178.36258251012978
9.6,0.9999823899037855,-178.5920683924264
