freq,mag,phase
6.0,1.0003443743416631,-167.07751073319966
6.002285056,1.0002515507098215,-167.23001177018222
6.004570112,1.0001424814486624,-167.38102399857675
6.006855168,1.0000243001142395,-167.53036159714628
6.009140224,0.9999043914915875,-167.6779199280407
6.01142528,0.9997904147429645,-167.8237393217745
6.013710336,0.9996894773873073,-167.96799022442005
6.015995392,0.9996082375473432,-168.1108873799779
6.018280448,0.9995516891083365,-168.2527088115987
6.020565504,0.9995233825792087,-168.39389192882584
6.02285056,0.9995252955210737,-168.53484001249376
6.025135616,0.9995572780062856,-168.6760101741466
6.027420672,0.9996172681568296,-168.81782041595062
6.029705728,0.9997013185398111,-168.96064084790015
6.031990784,0.9998044185964636,-169.10476417925173
6.03427584,0.9999199049356811,-169.25046981635586
6.036560896,1.0000404644450587,-169.39784743388978
6.038845952,1.000158409879241,-169.54690607577334
6.041131008,1.000266287788851,-169.69760629542998
6.043416064,1.0003572519112651,-169.84971755281111
6.04570112,1.0004255515971618,-170.00293944003332
6.047986176,1.0004669377653475,-170.15690076022565
6.050271232,1.0004785553061581,-170.31124922112062
6.052556288,1.0004598072067978,-170.46550103871326
6.054841344,1.0004118754451239,-170.61925710574133
6.0571264,1.0003376910267985,-170.7720488297651
6.059411456,1.0002420637289267,-170.92363099494392
6.061696512,1.0001308841690557,-171.07363051288297
6.063981568,1.0000113234424333,-171.22195358148855
6.066266624,0.9998908917230634,-171.36845923714557
6.06855168,0.9997772746618809,-171.51327302674895
6.070836736,0.9996776297663073,-171.656496748204
6.073121792,0.9995981820126805,-171.79834371139012
6.075406848,0.9995442345690063,-171.9392179198753
6.077691904,0.9995190400583146,-172.07942776047554
6.07997696,0.9995244170855266,-172.21947516498622
6.082262016,0.9995596637517248,-172.35984446278476
6.084547072,0.9996228866690107,-172.5008426602077
6.086832128,0.9997100419327433,-172.64290258021992
6.089117184,0.9998154344183334,-172.7863165679189
6.09140224,0.9999326466451315,-172.9313499650903
6.093687296,1.000053996506771,-173.07804190217408
6.095972352,1.0001720616685728,-173.2264892702268
6.098257408,1.0002790259620193,-173.37649461932855
6.100542464,1.000368349687695,-173.52790056595538
6.10282752,1.0004343773625644,-173.68042363257513
6.105112576,1.00047280036139,-173.83364639053684
6.107397632,1.0004811411384456,-173.98719155768381
6.1096832,1.0004589327693316,-174.14059150566314
6.111968256,1.000407615402436,-174.29343661056598
6.114253312,1.0003304066115188,-174.4453171103892
6.116538368,1.0002319745417994,-174.59587515768504
6.118823424,1.0001188115903608,-174.74487758821766
6.12110848,0.999997931382119,-174.8921100875317
6.123393536,0.9998770196807923,-175.0375970280811
6.125678592,0.9997638385150823,-175.18131099383874
6.127963648,0.9996654500931565,-175.32345760028545
6.130248704,0.9995882064858774,-175.46430414678892
6.13253376,0.9995369970829996,-175.60417126733807
6.134818816,0.9995149800651307,-175.74346490885065
6.137103872,0.999523634635844,-175.8826022784172
6.139388928,0.9995624477613031,-176.0220758812955
6.141673984,0.9996290684221808,-176.1622858242387
6.14395904,0.9997191389086297,-176.30356787674245
6.146244096,0.9998269571444767,-176.4462881873851
6.148529152,0.999945735452127,-176.59060282363004
6.150814208,1.000067980289343,-176.7366315978778
6.153099264,1.0001858412029836,-176.8843974309882
6.15538432,1.0002920078734414,-177.0337346743387
6.157669376,1.0003795902726276,-177.1844470084418
6.159954432,1.0004430821461456,-177.3362126185718
6.162239488,1.0004784469606736,-177.48866484815022
6.164524544,1.0004834534747733,-177.64140571673786
6.1668096,1.0004577893208355,-177.7939120307209
6.169094656,1.000402948525108,-177.94585701418328
6.171379712,1.000322528978902,-178.0967779646196
6.173664768,1.0002215446183005,-178.24630083250202
6.175949824,1.0001062807667094,-178.3942360068562
6.17823488,0.9999842839776699,-178.5404293351284
6.180519936,0.9998629866833473,-178.6847945049369
6.182804992,0.9997503373702156,-178.82743006724502
6.185090048,0.9996533824648615,-178.9685185987682
6.187375104,0.9995783485033896,-179.10831014320058
6.18966016,0.9995298724608997,-179.24716029873738
6.191945216,0.999511147774056,-179.38550382383426
6.194230272,0.9995233657093154,-179.52370827749527
6.196515328,0.9995657349065965,-179.66232517476044
6.198800384,0.9996356632006234,-179.80170284787215
6.20108544,0.999728710520518,-179.94225685358543
6.203370496,0.9998389547379923,179.9158104530192
6.205655552,0.9999592680972901,179.77216990696334
6.207940608,1.0000822461510184,179.62683486771485
6.210225664,1.0002000156961093,179.47976845156117
6.21251072,1.00030514812386,179.33113447119425
6.214795776,1.0003907779094616,179.18111502894982
6.217080832,1.0004517288706698,179.03011549545943
6.219365888,1.0004839760579958,178.8784410755719
6.221650944,1.0004854004979662,178.72655980022077
6.223936,1.0004560682426598,178.5749220754622
6.226221056,1.0003977650017166,178.42394634787104
6.228506112,1.0003141022461117,178.27406063813837
6.230791168,1.0002105061389452,178.12551302520305
6.233076224,1.000093318096944,177.97864290874145
6.23536128,0.9999701699966241,177.8335561766009
6.237646336,0.9998487171515175,177.69030661347497
6.239931392,0.9997366965611977,177.5487544025304
6.242216448,0.9996412750389021,177.40876463582788
6.244501504,0.9995684807583083,177.2700278169256
6.24678656,0.9995230535398238,177.13220359694986
6.249071616,0.999507728542215,176.9948610413832
6.251356672,0.9995234762808054,176.85755756573383
6.253641728,0.9995695810111853,176.71982139333332
6.255926784,0.9996428703258688,176.58126571268906
6.25821184,0.9997387833635356,176.44152244106584
6.260496896,0.9998512749622563,176.30027066668262
6.262781952,0.999973158466139,176.15739413811315
6.265067008,1.0000967599745263,176.01275024802206
6.267352064,1.0002143039182019,175.8663898014405
6.26963712,1.0003181618658201,175.71842462933125
6.271922176,1.00040187914737,175.56918581857937
6.274207232,1.0004601247473834,175.41892437331106
6.276492288,1.000489054179051,175.2680278109845
6.278777344,1.0004870425883605,175.11702935563235
6.2810624,1.0004540209650095,174.96631874185542
6.283347456,1.0003921389275763,174.8163126365222
6.285632512,1.000305294283851,174.6674111039256
6.287917568,1.0001989711935162,174.5199556451882
6.290202624,1.0000800160095074,174.37416041026052
6.29248768,0.9999557540168533,174.23018932688112
6.294772736,0.9998340627336545,174.08802318853196
6.297057792,0.9997230252394388,173.94760431479392
6.299342848,0.9996290846447735,173.80873909534301
6.301627904,0.9995587503571669,173.6710974651304
6.30391296,0.9995164444691703,173.53428464999513
6.306198016,0.9995045748509062,173.3979287113684
6.308483072,0.999524059528371,173.26153875499563
6.310768128,0.9995737188820333,173.12471904637667
6.313053184,0.9996504544124325,172.98699135873025
6.31533824,0.9997493504717611,172.84797511353167
6.317623296,0.9998641132959925,172.70753064182674
6.319908352,0.9999875240767622,172.56532568598038
6.322193408,1.0001116585822623,172.42140580536096
6.324478976,1.0002287691003582,172.2757099864655
6.326764032,1.0003313132787244,172.12851705580954
6.329049088,1.0004128037786337,171.97999537426915
6.331334144,1.0004682242929364,171.83050342016998
6.3336192,1.0004939069686694,171.68047979645644
6.335904256,1.0004881737687263,171.53032918094817
6.338189312,1.0004513268402662,171.3805213571069
6.340474368,1.0003860104333202,171.2314977558761
6.342759424,1.0002958949632843,171.08362776411346
6.34504448,1.0001869920915871,170.93724216003545
6.347329536,1.0000661129518025,170.7925858335015
6.349614592,0.9999408587409264,170.64972367182983
6.351899648,0.9998192627550903,170.508718913705
6.354184704,0.9997090372270201,170.36943887072286
6.35646976,0.9996169928347897,170.23166099052114
6.358754816,0.9995492866362127,170.09509606977878
6.361039872,0.9995100480098955,169.9593077301983
6.363324928,0.9995018900559899,169.82396333477186
6.365609984,0.9995250886458478,169.68851214521362
6.36789504,0.9995785657186006,169.55255163332205
6.370180096,0.9996586635438551,169.41565396045732
6.372465152,0.9997604576858599,169.27746452430912
6.374750208,0.9998774805390126,169.13770687776486
6.377035264,1.0000022161736004,168.9962637835411
6.37932032,1.0001268047438863,168.85303233193304
6.381605376,1.000243382331013,168.70808675414875
6.383890432,1.0003445617651268,168.5615997347424
6.386175488,1.0004237538107479,168.41381441341073
6.388460544,1.0004762640490579,168.2651069583061
6.3907456,1.0004984107445596,168.11590446402786
6.393030656,1.000488992604623,167.9666646194863
6.395315712,1.0004483942695972,167.81780563700846
6.397600768,1.0003793202089744,167.66977345137684
6.399885824,1.0002861704121166,167.5229509519465
6.40217088,1.0001745967165157,167.37766740519734
6.404455936,1.0000519916548116,167.23411011885884
6.406740992,0.9999258435666175,167.09240864711907
6.409026048,0.9998043325587961,166.95255127982645
6.411311104,0.9996950684243213,166.8144170655485
6.41359616,0.9996050767335306,166.6777545327915
6.415881216,0.9995399629760623,166.54227030967527
6.418166272,0.9995040424438315,166.40754103893494
6.420451328,0.999499483935836,166.27316195881573
6.422736384,0.9995266838908382,166.13865763533832
6.42502144,0.9995839206284083,166.0035778569768
6.427306496,0.9996674766390989,165.86748140619466
6.429591552,0.9997721182491482,165.730089811291
6.431876608,0.9998912900123843,165.59109826643513
6.434161664,1.0000172486247312,165.45037767632007
6.43644672,1.000142222402355,165.3078468335091
6.438731776,1.0002581709457814,165.16361531014851
6.441016832,1.0003577663564418,165.01782995076545
6.443301888,1.0004346004570124,164.8708386359235
6.445586944,1.00048398429318,164.72292276582115
6.447872,1.0005025332963127,164.57459280043534
6.450157056,1.0004891762646415,164.426205838562
6.452442112,1.0004447638588274,164.27833121078856
6.454727168,1.0003720271873717,164.13131389947733
6.457012224,1.000275664361883,163.98554120944095
6.45929728,1.0001616013716714,163.84135573006125
6.461582336,1.0000371972803308,163.6989331524181
6.463867392,0.999910289642333,163.55840345238045
6.466152448,0.9997890484932076,163.41968980006644
6.468437504,0.9996809265069516,163.2826698243424
6.47072256,0.999593029663837,163.14714196756154
6.473007616,0.9995308370849325,163.01272918554332
6.475292672,0.9994982613740402,162.8790820070929
6.477577728,0.999497554640929,162.74568633969625
6.479862784,0.9995286559932549,162.6121365786931
6.48214784,0.9995897017581569,162.477912704943
6.484432896,0.9996767054838149,162.34267768184768
6.486717952,0.9997842035744691,162.20605357502072
6.489003008,0.9999055766274324,162.06780942987047
6.491288064,1.000032758079814,161.92779616058786
6.49357312,1.0001580191509418,161.78597034112164
6.495858176,1.0002730617497384,161.6424601556451
6.498143232,1.0003710198048639,161.49737704637056
6.500428288,1.0004452525758656,161.35114995729717
6.502713344,1.0004913330933205,161.20404088460162
6.5049984,1.000506126332502,161.05654820825512
6.507283456,1.0004890411390015,160.90909769166268
6.509568512,1.00044051901963,160.76216043272836
6.511853568,1.0003641588122283,160.6161737690827
6.514138624,1.0002645706006075,160.4715035668045
6.51642368,1.0001480847921136,160.3284355964807
6.518708736,1.0000220883264035,160.18716444285326
6.520993792,0.9998944703538463,160.0477748868232
6.523278848,0.9997734795266098,159.91021855565572
6.525563904,0.9996666677236766,159.77438387874585
6.52784896,0.9995810598022361,159.63997305230504
6.530134016,0.9995218060256836,159.50666516896675
6.532419072,0.9994929273953125,159.3740214116001
6.534704128,0.9994961275983077,159.24160966390755
6.536989184,0.9995312184851238,159.10898681910956
6.53927424,0.9995961136776699,158.97566084829515
6.541559808,0.9996866008249076,158.84122906895846
6.543844864,0.9997968690114416,158.70539073738914
6.54612992,0.9999203672647275,158.56788310307448
6.548414976,1.0000485543441984,158.4285866796243
6.550700032,1.0001739889060444,158.2874716839415
6.552985088,1.0002881842488214,158.14464540370216
6.555270144,1.0003842556602323,158.00036349034806
6.5575552,1.0004559080297397,157.85486073335346
6.559840256,1.0004984508016739,157.70854308365207
6.562125312,1.0005095229707521,157.56192751490346
6.564410368,1.0004882599373173,157.41540836828472
6.566695424,1.0004358092882453,157.2694479915126
6.56898048,1.0003557511507817,157.1244666224621
6.571265536,1.0002530156822365,156.9808955791349
6.573550592,1.0001341772321373,156.83894784540587
6.575835648,1.0000065468499344,156.69879816187512
6.578120704,0.9998784079183227,156.56059649622188
6.58040576,0.9997578974553226,156.4242149436861
6.582690816,0.9996525832117887,156.28952251303213
6.584975872,0.9995691986521273,156.15624154394948
6.587260928,0.9995131634743212,156.02402939780032
6.589545984,0.9994879201344017,155.89243027523858
6.59183104,0.9994951334023683,155.76099283256326
6.594116096,0.9995343837577061,155.62929119787174
6.596401152,0.9996030506699579,155.49683067765608
6.598686208,0.9996971167755839,155.36320999698407
6.600971264,0.9998102758681692,155.22813112274034
6.60325632,0.9999354846343493,155.09134156032212
6.605541376,1.000064884518377,154.952771339859
6.607826432,1.0001901435482496,154.81232547488673
6.610111488,1.0003034529845034,154.67025031482743
6.612396544,1.0003974514685652,154.52664953988514
6.6146816,1.0004661714679255,154.38193552727142
6.616966656,1.000505429971086,154.23647719985084
6.619251712,1.0005123883774558,154.0906933049249
6.621536768,1.0004870005142452,153.94510009633225
6.623821824,1.000430620971499,153.80010184668944
6.62610688,1.0003468433936147,153.65619030746578
6.628391936,1.000240956320613,153.51367779284928
6.630676992,1.0001195010231452,153.3728602132006
6.632962048,0.9999904314782426,153.2338866142176
6.635247104,0.9998618849889683,153.09684967886093
6.63753216,0.9997420421421847,152.96164505477336
6.639817216,0.9996383385558665,152.82813104926348
6.642102272,0.9995575117904079,152.69595228309652
6.644387328,0.9995047614902697,152.56479963557192
6.646672384,0.9994832527773873,152.434255922197
6.64895744,0.9994946787163059,152.30380897913838
6.651242496,0.9995379235448243,152.17301264845744
6.653527552,0.9996106693757637,152.0413757416201
6.655812608,0.9997081180460055,151.90857947613645
6.658097664,0.999824199315379,151.7742348712085
6.66038272,0.9999513144560372,151.63818399289323
6.662667776,1.0000815192392616,151.50029018698228
6.664952832,1.000206647112391,151.36057394133962
6.667237888,1.0003186476023151,151.21919496400434
6.669522944,1.0004105643260601,151.07634747767318
6.671808,1.000476218905754,150.9323487596418
6.674093056,1.0005118433205251,150.78771433588025
6.676378112,1.000514862466143,150.64281263331668
6.678663168,1.0004852467260303,150.49813432244602
6.680948224,1.0004247554241423,150.3541330871223
6.68323328,1.0003371594168529,150.2112675258961
6.685518336,1.000228109079362,150.06985849936092
6.687803392,1.0001044544172293,149.93018128074354
6.690088448,0.9999739741736876,149.79237195383905
6.692373504,0.9998451820334094,149.6564836629668
6.69465856,0.9997259456781484,149.52246152532905
6.696943616,0.9996240368285316,149.39010429738252
6.699228672,0.999545964149344,149.25905910843366
6.701513728,0.9994965478523885,149.1290039686025
6.703798784,0.9994791192890328,148.99945448246305
6.70608384,0.9994946314486332,148.86998253602692
6.708368896,0.9995422424707828,148.74007968474933
6.710653952,0.999618994668302,148.60931243282698
6.712939008,0.999719830341576,148.47726586776142
6.715224064,0.9998385247007168,148.34366363611727
6.71750912,0.9999674470888905,148.20831532784152
6.719794176,1.0000985617594824,148.07113158168292
6.722079232,1.0002233949749233,147.93209898624215
6.724364288,1.0003340103204703,147.79138797213545
6.726649344,1.0004235593011253,147.64926124252852
6.7289344,1.0004861637548015,147.5060830733291
6.731219456,1.0005178564324186,147.36223375551995
6.733504512,1.0005167791021181,147.21818755862282
6.735789568,1.0004828670381676,147.07445875626007
6.738074624,1.0004182745381902,146.9314522942208
6.74035968,1.0003268606231577,146.789624852018
6.742644736,1.0002147065869558,146.6493098733201
6.744929792,1.0000888914216732,146.5107780838897
6.747214848,0.999957140769062,146.37410930897354
6.749499904,0.9998280615316609,146.23942196217635
6.75178496,0.9997098468544277,146.1065852207973
6.754070016,0.9996098513084659,145.9753443220393
6.756355072,0.9995345852909427,145.84541364203298
6.75864064,0.9994887867853544,145.71642719032965
6.760925696,0.9994752787597796,145.58790227649646
6.763210752,0.9994951220451204,145.45937210144797
6.765495808,0.9995471254880225,145.3303529949264
6.767780864,0.9996278056561095,145.20042454979065
6.77006592,0.9997320772360347,145.06916463151555
6.772350976,0.9998534419760705,144.93629360413019
6.774636032,0.9999840412442723,144.80164306739758
6.776921088,1.0001157531805205,144.66509975307832
6.779206144,1.0002403161761468,144.52675319410685
6.7814912,1.0003493795271248,144.38673541560428
6.783776256,1.0004364319709036,144.24534693557825
6.786061312,1.0004957011298279,144.10289167636907
6.788346368,1.0005236272824938,143.95985720667875
6.790631424,1.0005181795236981,143.81669494909946
6.79291648,1.0004798416298,143.67390079030793
6.795201536,1.0004110980155645,143.53188959401314
6.797486592,1.000315950272782,143.391132769586
6.799771648,1.0002007682453409,143.2519278790465
6.802056704,1.0000726830979043,143.11452587367089
6.80434176,0.9999398048851216,142.97905916309742
6.806626816,0.9998107374911681,142.84552418314152
6.808911872,0.9996935551806427,142.71380427884674
6.811196928,0.999595624690692,142.5837291618352
6.813481984,0.9995233346627677,142.4549326536556
6.81576704,0.9994812679631118,142.32697767955855
6.818052096,0.9994720287705486,142.19946363039463
6.820337152,0.9994963369306948,142.07185647452152
6.822622208,0.9995526246751121,141.943685399771
6.824907264,0.9996372722510192,141.81457869418628
6.82719232,0.9997450167765345,141.68407719113807
6.829477376,0.9998689893369361,141.55191758780964
6.831762432,1.0000013921914706,141.41796342475973
6.834047488,1.0001335874189128,141.28208694827057
6.836332544,1.0002573202284875,141.1443915004487
6.8386176,1.0003648246938288,141.00506490524216
6.840902656,1.000449177585102,140.86437502640572
6.843187712,1.00050506814836,140.7226851506645
6.845472768,1.0005289140250102,140.5804616273829
6.847757824,1.0005190274501716,140.43816020839577
6.85004288,1.0004762371416926,140.29629699285968
6.852327936,1.000403243866382,140.15529128864554
6.854612992,1.000304377083006,140.01557017914936
6.856898048,1.0001860778519842,139.87746805843005
6.859183104,1.0000560663118363,139.74122243434195
6.86146816,0.9999222220450921,139.60691453351035
6.863753216,0.999793168429882,139.47453212754908
6.866038272,0.9996771728735588,139.34401829050682
6.868323328,0.9995814895599786,139.21504851403412
6.870608384,0.9995123755943346,139.0873400126116
6.87289344,0.9994742254461078,138.96043164277415
6.875178496,0.9994692246022375,138.8338997019641
6.877463552,0.9994982039985548,138.70722268446727
6.879748608,0.9995587766010021,138.57991319520323
6.882033664,0.999647416824325,138.45157173597875
6.88431872,0.999758583891915,138.32182839276788
6.886603776,0.9998850727335011,138.19035974708973
6.888888832,1.0000188413433575,138.05705925442405
6.891173888,1.000151477784022,137.9218511819512
6.893458944,1.0002745284479795,137.7847859285307
6.895744,1.00038022669214,137.6461392469342
6.898029056,1.0004618196072048,137.5061312828857
6.900314112,1.000514079978453,137.36521354141325
6.902599168,1.0005336046355267,137.22377689518245
6.904884224,1.0005192978931898,137.08236455839224
6.90716928,1.0004719397702422,136.9414283318839
6.909454336,1.000394672177657,136.801411374911
6.911739392,1.0002921280498676,136.6627731961865
6.914024448,1.0001709960723457,136.52575806851863
6.916309504,1.0000387824074517,136.3906469093692
6.91859456,0.999904038498714,136.25748693555687
6.920879616,0.9997753425509083,136.12629862920113
