freq,mag,phase
6.0,1.0,34.43673871321808
6.008,1.0,34.217938231314555
6.016,0.9999998754997123,33.999074974986506
6.024,0.9999988496113217,33.78014912501254
6.032,0.9999978414211569,33.5611608629354
6.04,0.9999968507708626,33.34211037106123
6.048,0.9999958775027068,33.12299783245878
6.056,0.9999949214595822,32.90382343095861
6.064,0.9999939824850079,32.68458735115229
6.072,0.9999930604231322,32.46528977839156
6.08,0.9999921551187327,32.24593089878737
6.088,0.9999912664172195,32.026510899209114
6.096,0.9999903941646364,31.807029967283597
6.104,0.999989538207662,31.587488291394163
6.112,0.9999886983936125,31.36788606067959
6.12,0.9999878745704427,31.148223465033258
6.128,0.9999870665867474,30.92850069510201
6.136,0.9999862742917632,30.708717942285073
6.144,0.9999854975353711,30.48887539873306
6.152,0.9999847361680964,30.268973257346786
6.16,0.9999839900411106,30.049011711776174
6.168,0.9999832590062343,29.828990956419105
6.176,0.9999825429159371,29.608911186420112
6.184,0.9999818416233398,29.388772597669355
6.192,0.9999811549822154,29.16857538680122
6.2,0.9999804828469915,28.948319751193104
6.208,0.9999798250727506,28.728005888964123
6.216,0.9999791815152319,28.507633998973784
6.224,0.9999785520308326,28.287204280820625
6.232,0.99997793647661,28.06671693484085
6.24,0.9999773347102812,27.846172162106924
6.248,0.9999767465902256,27.625570164426115
6.256,0.9999761719754859,27.404911144339092
6.264,0.9999756107257696,27.184195305118337
6.272,0.9999750627014498,26.963422850766793
6.28,0.9999745277635657,26.742593986016164
6.288,0.999974005773826,26.521708916325412
6.296,0.9999734965946072,26.30076784787921
6.304,0.999973000088957,26.079770987586258
6.312,0.9999725161205943,25.85871854307762
6.32,0.9999720445539106,25.637610722705137
6.328,0.9999715852539705,25.416447735539634
6.336,0.9999711380865137,25.19522979136923
6.344,0.9999707029179553,24.973957100697596
6.352,0.9999702796153868,24.752629874742127
6.36,0.9999698680465771,24.531248325432173
6.368,0.9999694680799741,24.309812665407172
6.376,0.9999690795847045,24.088323108014794
6.384,0.9999687024305747,23.866779867309063
6.392,0.9999683364880734,23.6451831580484
6.4,0.9999679816283699,23.42353319569371
6.408,0.9999676377233172,23.201830196406394
6.416,0.9999673046454511,22.98007437704632
6.424,0.9999669822679917,22.758265955169858
6.432,0.9999666704648441,22.536405149027754
6.44,0.9999663691105989,22.31449217756309
6.448,0.9999660780805332,22.092527260409142
6.456,0.9999657972506109,21.87051061788726
6.464,0.9999655264974835,21.64844247100471
6.472,0.9999652656984905,21.426323041452456
6.48,0.9999650147316603,21.204152551602945
6.4879999999999995,0.9999647734757109,20.981931224507893
6.496,0.9999645418100493,20.7596592838959
6.504,0.9999643196147737,20.537336954170364
6.5120000000000005,0.9999641067706727,20.314964460406838
6.52,0.9999639031592258,20.092542028351055
6.5280000000000005,0.9999637086626048,19.870069884416132
6.536,0.9999635231636732,19.647548255680547
6.5440000000000005,0.9999633465459867,19.42497736988534
6.552,0.9999631786937945,19.202357455432004
6.5600000000000005,0.999963019492038,18.979688741379654
6.568,0.9999628688263529,18.756971457442805
6.5760000000000005,0.9999627265830676,18.53420583398854
6.584,0.999962592649205,18.311392102034237
6.592,0.999962466912482,18.08853049324468
6.6,0.9999623492613098,17.865621239929613
6.608,0.9999622395847941,17.642664575041074
6.616,0.9999621377727348,17.41966073217061
6.624,0.999962043715627,17.19660994554668
6.632,0.9999619573046609,16.97351245003186
6.64,0.9999618784317202,16.750368481120063
6.648,0.9999618069893852,16.527178274933824
6.656,0.9999617428709302,16.303942068221417
6.664,0.9999616859703242,16.08066009835403
6.672,0.9999616361822314,15.857332603322929
6.68,0.9999615934020107,15.633959821736518
6.688,0.9999615575257161,15.410541992817413
6.696,0.9999615284500954,15.187079356399563
6.704,0.9999615060725915,14.963572152925188
6.712,0.9999614902913405,14.740020623441847
6.72,0.999961481005174,14.516425009599368
6.728,0.9999614781136162,14.29278555364679
6.736,0.9999614815168857,14.069102498429327
6.744,0.9999614911158935,13.845376087385237
6.752,0.9999615068122447,13.621606564542672
6.76,0.9999615285082359,13.397794174516548
6.768,0.9999615561068569,13.173939162505352
6.776,0.9999615895117887,12.95004177428793
6.784,0.9999616286274042,12.72610225622025
6.792,0.9999616733587675,12.50212085523215
6.8,0.9999617236116329,12.278097818824044
6.808,0.999961779292445,12.054033395063604
6.816,0.9999618403083383,11.829927832582445
6.824,0.9999619065671357,11.605781380572736
6.832,0.9999619779773494,11.381594288783827
6.84,0.9999620544481785,11.157366807518834
6.848,0.9999621358895108,10.933099187631184
6.856,0.9999622222119193,10.708791680521188
6.864,0.9999623133266637,10.484444538132514
6.872,0.9999624091456896,10.26005801294868
6.88,0.9999625095816256,10.035632357989556
6.888,0.9999626145477856,9.811167826807727
6.896,0.9999627239581657,9.586664673484993
6.904,0.999962837727445,9.362123152628671
6.912,0.9999629557709829,9.137543519368023
6.92,0.9999630780048204,8.912926029350565
6.928,0.9999632043456782,8.68827093873838
6.936,0.9999633347109549,8.463578504204431
6.944,0.9999634690187282,8.23884898292879
6.952,0.9999636071877513,8.014082632594931
6.96,0.999963749137455,7.789279711385905
6.968,0.999963894787944,7.5644404779805425
6.976,0.999964044059997,7.339565191549654
6.984,0.9999641968750654,7.114654111752154
6.992,0.9999643531552738,6.889707498731167
7.0,0.9999645128234154,6.664725613110186
7.008,0.9999646758029541,6.439708715989091
7.016,0.9999648420180227,6.214657068940239
7.024,0.9999650113934205,5.989570934004479
7.032,0.999965183854613,5.76445057368717
7.04,0.9999653593277307,5.539296250954186
7.048,0.9999655377395666,5.314108229227825
7.056,0.999965719017578,5.088886772382817
7.064,0.9999659030898814,4.863632144742202
7.072,0.999966089885254,4.638344611073225
7.08,0.9999662793331304,4.413024436583247
7.088,0.9999664713636033,4.187671886915555
7.096,0.9999666659074198,3.9622872281452306
7.104,0.9999668628959814,3.736870726774921
7.112,0.9999670622613424,3.5114226497306698
7.12,0.999967263936209,3.285943264357649
7.128,0.9999674678539356,3.060432838415919
7.136,0.999967673948526,2.8348916400761546
7.144,0.9999678821546296,2.609319937915348
7.152,0.999968092407542,2.383718000912487
7.16,0.9999683046432012,2.1580860984442105
7.168,0.9999685187981879,1.9324245002804663
7.176,0.9999687348097221,1.7067334765801216
7.184,0.9999689526156633,1.4810132978865624
7.192,0.9999691721545069,1.2552642351232774
7.2,0.9999693933653845,1.0294865595894185
7.208,0.9999696161880597,0.803680542955342
7.216,0.999969840562929,0.577846457258116
7.224,0.999970066431019,0.3519845748970563
7.232,0.9999702937339824,0.12609516862915954
7.24,0.9999705224141001,-0.09982148843538917
7.248,0.9999707524142771,-0.3257651228377974
7.256,0.9999709836780402,-0.5517354607752403
7.264,0.9999712161495367,-0.7777322281054392
7.272,0.999971449773534,-1.0037551503512816
7.28,0.9999716844954146,-1.2298039527054643
7.288,0.9999719202611774,-1.4558783600351355
7.296,0.9999721570174328,-1.681978096886548
7.304,0.9999723947114026,-1.908102887489741
7.312,0.9999726332909178,-2.134252455763294
7.32,0.9999728727044156,-2.360426525318975
7.328,0.9999731129009376,-2.5866248194665373
7.336,0.9999733538301289,-2.812847061218435
7.344,0.9999735954422347,-3.0390929732946197
7.352,0.9999738376880984,-3.265362278127308
7.36,0.9999740805191594,-3.4916546978658203
7.368,0.999974323887452,-3.717969954381365
7.376,0.9999745677456017,-3.9443077692718984
7.384,0.9999748120468234,-4.17066786386698
7.392,0.9999750567449202,-4.397049959232631
7.4,0.999975301794279,-4.6234537761762375
7.4079999999999995,0.9999755471498715,-4.849879035251402
7.416,0.9999757927672478,-5.076325456763025
7.4239999999999995,0.9999760386025381,-5.302792760771922
7.432,0.9999762846124473,-5.529280667100172
7.4399999999999995,0.999976530754254,-5.75578889533568
7.448,0.9999767769858088,-5.982317164837531
7.4559999999999995,0.9999770232655298,-6.208865194740616
7.464,0.999977269552403,-6.435432703960998
7.4719999999999995,0.9999775158059766,-6.6620194112005855
7.48,0.9999777619863616,-6.888625034952511
7.4879999999999995,0.9999780080542273,-7.115249293505819
7.496,0.9999782539708,-7.341891904950903
7.504,0.9999784996978596,-7.56855258718421
7.5120000000000005,0.9999787451977374,-7.795231057913687
7.52,0.9999789904333141,-8.021927034663511
7.5280000000000005,0.9999792353680165,-8.248640234779613
7.536,0.9999794799658152,-8.475370375434368
7.5440000000000005,0.9999797241912217,-8.702117173632168
7.552,0.9999799680092869,-8.92888034621414
7.5600000000000005,0.9999802113855963,-9.155659609863752
7.568,0.9999804542862699,-9.382454681111552
7.5760000000000005,0.9999806966779581,-9.609265276340762
7.584,0.9999809385278382,-9.836091111792093
7.5920000000000005,0.9999811798036142,-10.062931903569327
7.6,0.9999814204735117,-10.289787367644145
7.6080000000000005,0.9999816605062761,-10.51665721986179
7.616,0.9999818998711701,-10.743541175945849
7.6240000000000006,0.9999821385379705,-10.970438951503958
7.632,0.9999823764769659,-11.197350262032622
7.640000000000001,0.9999826136589526,-11.424274822922927
7.648,0.9999828500552339,-11.651212349465377
7.656000000000001,0.9999830856376158,-11.878162556855616
7.664,0.9999833203784038,-12.105125160199327
7.672,0.9999835542504013,-12.332099874517896
7.68,0.9999837872269061,-12.559086414753466
7.688,0.9999840192817077,-12.786084495774393
7.696,0.999984250389084,-13.013093832380541
7.704,0.9999844805237981,-13.240114139308645
7.712,0.999984709661097,-13.467145131237643
7.72,0.9999849377767069,-13.694186522794043
7.728,0.9999851648468306,-13.921238028557287
7.736,0.9999853908481454,-14.14829936306513
7.744,0.9999856157577991,-14.375370240819018
7.752,0.9999858395534075,-14.602450376289463
7.76,0.9999860622130518,-14.829539483921451
7.768,0.999986283715274,-15.056637278139846
7.776,0.9999865040390759,-15.283743473354775
7.784,0.9999867231639142,-15.510857783967067
7.792,0.9999869410696994,-15.737979924373665
7.8,0.9999871577367909,-15.965109608973016
7.808,0.9999873731459943,-16.19224655217057
7.816,0.9999875872785599,-16.41939046838412
7.824,0.9999878001161768,-16.646541072049363
7.832,0.9999880116409723,-16.873698077625196
7.84,0.9999882218355073,-17.10086119959932
7.848,0.9999884306827741,-17.32803015249356
7.856,0.9999886381661922,-17.555204650869403
7.864,0.9999888442696059,-17.782384409333453
7.872,0.9999890489772808,-18.00956914254282
7.88,0.9999892522739012,-18.236758565210703
7.888,0.9999894541445657,-18.463952392111764
7.896,0.9999896545747855,-18.691150338087645
7.904,0.9999898535504794,-18.91835211805245
7.912,0.9999900510579727,-19.145557446998183
7.92,0.9999902470839912,-19.372766040000307
7.928,0.9999904416156619,-19.599977612223093
7.936,0.9999906346405052,-19.827191878925273
7.944,0.9999908261464352,-20.054408555465383
7.952,0.9999910161217543,-20.281627357307336
7.96,0.9999912045551512,-20.50884800002587
7.968,0.9999913914356972,-20.736070199312024
7.976,0.9999915767528421,-20.963293670978697
7.984,0.9999917604964124,-21.190518130966066
7.992,0.9999919426566066,-21.417743295347094
8.0,0.9999921232239929,-21.64496888033305
8.008,0.9999923021895051,-21.872194602278938
8.016,0.99999247954444,-22.09942017768914
8.024000000000001,0.9999926552804532,-22.32664532322263
8.032,0.9999928293895564,-22.553869755698663
8.04,0.999993001864114,-22.78109319210229
8.048,0.9999931726968398,-23.008315349589793
8.056000000000001,0.9999933418807927,-23.235535945494043
8.064,0.9999935094093744,-23.46275469733007
8.072,0.9999936752763263,-23.689971322800666
8.08,0.9999938394757248,-23.91718553980177
8.088000000000001,0.9999940020019786,-24.1443970664278
8.096,0.9999941628498253,-24.37160562097728
8.104,0.9999943220143288,-24.598810921958343
8.112,0.9999944794908743,-24.82601268809417
8.120000000000001,0.9999946352751655,-25.0532106383283
8.128,0.9999947893632226,-25.28040449183017
8.136,0.9999949417513765,-25.50759396800075
8.144,0.9999950924362667,-25.73477878647783
8.152000000000001,0.9999952414148386,-25.961958667141353
8.16,0.9999953886843381,-26.18913333011902
8.168,0.9999955342423101,-26.416302495791765
8.176,0.999995678086594,-26.64346588479912
8.184000000000001,0.9999958202153196,-26.87062321804454
8.192,0.9999959606269065,-27.097774216700888
8.2,0.9999960993200571,-27.324918602215995
8.208,0.999996236293755,-27.55205609631797
8.216000000000001,0.9999963715472621,-27.77918642102043
8.224,0.9999965050801135,-28.0063092986281
8.232,0.9999966368921158,-28.23342445174222
8.24,0.9999967669833416,-28.4605316032659
8.248000000000001,0.9999968953541285,-28.687630476409282
8.256,0.9999970220050737,-28.914720794695175
8.264,0.9999971469370311,-29.141802281964353
8.272,0.9999972701511083,-29.3688746623809
8.280000000000001,0.9999973916486625,-29.595937660437446
8.288,0.9999975114312976,-29.822991000960613
8.296,0.9999976295008606,-30.050034409116353
8.304,0.9999977458594373,-30.277067610415315
8.312,0.9999978605093502,-30.5040903307179
8.32,0.9999979734531546,-30.731102296239932
8.328,0.9999980846936344,-30.958103233557583
8.336,0.999998194233799,-31.185092869613076
8.344,0.9999983020768809,-31.41207093171944
8.352,0.9999984082263309,-31.639037147566345
8.36,0.9999985126858145,-31.865991245224794
8.368,0.9999986154592103,-32.092932953152925
8.376,0.9999987165506043,-32.3198620002007
8.384,0.9999988159642884,-32.546778115615616
8.392,0.9999989137047546,-32.773681029047495
8.4,0.9999990097766939,-33.00057047055411
8.408,0.999999104184992,-33.22744617060589
8.416,0.9999991969347258,-33.454307860091625
8.424,0.9999992880311591,-33.68115527032312
8.432,0.9999993774797411,-33.90798813304083
8.44,0.9999994652861006,-34.13480618041857
8.448,0.9999995514560451,-34.36160914506904
8.456,0.9999996359955554,-34.588396760048525
8.464,0.9999997189107829,-34.81516875886249
8.472,0.9999998002080456,-35.04192487547015
8.48,0.9999998798938265,-35.26866484429004
8.488,0.9999999579747678,-35.495388400204654
8.496,1.0,-35.722095278565895
8.504,1.0,-35.948785215199685
8.512,1.0,-36.17545794641145
8.52,1.0,-36.402113208990706
8.528,1.0,-36.62875074021646
8.536,1.0,-36.855370277861766
8.544,1.0,-37.0819715601991
8.552,0.9999999999999999,-37.308554326004966
8.56,1.0,-37.53511831456518
8.568,1.0,-37.761663265679395
8.576,0.9999999999999999,-37.98818891966644
8.584,1.0,-38.21469501736877
8.592,0.9999999999999999,-38.44118130015782
8.6,0.9999999999999999,-38.66764750993837
8.608,1.0,-38.89409338915385
8.616,0.9999999999999999,-39.12051868079074
8.624,0.9999999999999999,-39.346923128383835
8.632,1.0,-39.57330647602053
8.64,1.0,-39.79966846834613
8.648,0.9999999999999999,-40.02600885056811
8.656,0.9999999999999999,-40.25232736846136
8.664,1.0,-40.47862376837239
8.672,1.0,-40.70489779722451
8.68,1.0,-40.93114920252218
8.688,1.0,-41.15737773235588
8.696,1.0,-41.38358313540671
8.704,0.9999999999999999,-41.60976516095105
8.712,0.9999999999999999,-41.83592355886499
8.72,1.0,-42.06205807962936
8.728,1.0,-42.28816847433381
8.736,1.0,-42.51425449468179
8.744,1.0,-42.740315892994765
8.752,0.9999999999999999,-42.966352422217064
8.76,1.0,-43.192363835919984
8.768,0.9999999999999999,-43.418349888306814
8.776,1.0,-43.6443103342167
8.784,0.9999999999999999,-43.870244929129626
8.792,1.0000000000000002,-44.09615342917043
8.8,1.0,-44.32203559111357
8.808,1.0,-44.54789117238713
8.815999999999999,0.9999999999999999,-44.77371993107757
8.824,1.0,-44.999521625933895
8.832,1.0,-45.22529601637185
8.84,1.0,-45.451042862478374
8.847999999999999,1.0,-45.676761925016
8.856,1.0,-45.90245296542696
8.864,0.9999999999999999,-46.128115745837384
8.872,1.0,-46.35375002906157
8.879999999999999,0.9999999999999999,-46.57935557860635
8.888,0.9999999999999999,-46.804932158675086
8.896,1.0,-47.03047953417184
8.904,1.0,-47.2559974707055
8.911999999999999,1.0,-47.48148573459404
8.92,1.0,-47.70694409286854
8.928,0.9999999999999999,-47.9323723132771
8.936,1.0,-48.157770164289055
8.943999999999999,0.9999999999999999,-48.38313741509901
8.952,1.0,-48.608473835630846
8.96,1.0,-48.83377919654152
8.968,1.0000000000000002,-49.05905326922518
8.975999999999999,0.9999999999999999,-49.28429582581714
8.984,0.9999999999999999,-49.50950663919778
8.992,1.0000000000000002,-49.73468548299624
9.0,1.0,-49.95983213159444
9.008,0.9999999999999999,-50.184946360131015
9.016,0.9999999999999999,-50.410027944505046
9.024000000000001,1.0,-50.63507666137971
9.032,1.0,-50.860092288186245
9.04,1.0,-51.08507460312765
9.048,1.0,-51.31002338518253
9.056000000000001,0.9999999999999998,-51.53493841410843
9.064,1.0,-51.75981947044588
9.072,0.9999999999999999,-51.984666335521936
9.08,1.0,-52.209478791453854
9.088000000000001,1.0,-52.4342566211525
9.096,0.9999999999999999,-52.65899960832608
9.104,1.0,-52.883707537483815
9.112,0.9999999999999998,-53.10838019393936
9.120000000000001,1.0,-53.33301736381417
9.128,1.0,-53.55761883404113
9.136,0.9999999999999999,-53.782184392368116
9.144,1.0,-54.006713827361295
9.152000000000001,1.0,-54.23120692840851
9.16,1.0,-54.45566348572269
9.168,0.9999999999999999,-54.68008329034531
9.176,1.0,-54.904466134149715
9.184000000000001,1.0,-55.12881180984425
9.192,1.0,-55.35312011097566
9.2,1.0,-55.57739083193252
9.208,1.0,-55.80162376794822
9.216000000000001,1.0,-56.0258187151043
9.224,1.0,-56.249975470333524
9.232,1.0,-56.47409383142327
9.24,1.0,-56.69817359701848
9.248000000000001,1.0,-56.922214566624824
9.256,1.0,-57.14621654061168
9.264,1.0,-57.370179320215485
9.272,1.0,-57.59410270754251
9.280000000000001,1.0000000000000002,-57.817986505571916
9.288,1.0,-58.04183051815873
9.296,1.0000000000000002,-58.26563455003697
9.304,1.0,-58.489398406822474
9.312000000000001,1.0,-58.71312189501567
9.32,1.0,-58.93680482200458
9.328,1.0,-59.160446996067826
9.336,0.9999999999999999,-59.3840482263773
9.344,1.0,-59.60760832300086
9.352,1.0,-59.831127096905455
9.36,1.0,-60.05460435995947
9.368,0.9999999999999999,-60.27803992493591
9.376,0.9999999999999999,-60.501433605514606
9.384,1.0,-60.72478521628543
9.392,1.0,-60.94809457275046
9.4,0.9999999999999999,-61.17136149132706
9.408,1.0,-61.39458578935003
9.416,0.9999999999999999,-61.61776728507468
9.424,0.9999999999999998,-61.8409057976789
9.432,0.9999999999999999,-62.06400114726616
9.44,0.9999999999999999,-62.28705315486758
9.448,1.0,-62.510061642444825
9.456,1.0000000000000002,-62.73302643289215
9.464,1.0,-62.955947350039274
9.472,0.9999999999999999,-63.17882421865337
9.48,1.0,-63.40165686444185
9.488,1.0,-63.62444511405429
9.496,1.0,-63.84718879508524
9.504,0.9999999885952631,-64.06988773607605
9.512,0.9999999350026227,-64.2925417665177
9.52,0.9999998808175643,-64.51515071685252
9.528,0.9999998260403263,-64.73771441847687
9.536,0.9999997706708927,-64.96023270374299
9.544,0.99999971470899,-65.18270540596161
9.552,0.9999996581540832,-65.40513235940368
9.56,0.9999996010053723,-65.62751339930291
9.568,0.9999995432617884,-65.84984836185754
9.576,0.9999994849219904,-66.07213708423282
9.584,0.9999994259843604,-66.29437940456268
9.592,0.999999366447002,-66.51657516195219
9.6,0.9999993063077339,-66.73872419647924
9.608,0.9999992455640874,-66.96082634919688
9.616,0.9999991842133023,-67.18288146213496
9.624,0.9999991222523228,-67.40488937830249
9.632,0.9999990596777938,-67.62684994168919
9.64,0.9999989964860564,-67.84876299726778
9.648,0.999998932673144,-68.07062839099561
9.656,0.9999988682347781,-68.29244596981673
9.664,0.9999988031663649,-68.51421558166362
9.672,0.9999987374629888,-68.73593707545918
9.68,0.9999986711194111,-68.95761030111834
9.688,0.9999986041300621,-69.17923510955018
9.696,0.9999985364890408,-69.40081135265935
9.704,0.9999984681901062,-69.6223388833482
9.712,0.9999983992266754,-69.84381755551821
9.72,0.9999983295918183,-70.06524722407202
9.728,0.999998259278253,-70.28662774491482
9.736,0.9999981882783405,-70.50795897495647
9.744,0.9999981165840794,-70.72924077211259
9.752,0.9999980441871029,-70.95047299530695
9.76,0.9999979710786716,-71.17165550447244
9.768,0.9999978972496697,-71.39278816055321
