freq,mag,phase
6.0,0.9999935915172325,-114.97359385481161
6.008,0.9999946903357625,-115.3750083002758
6.016,0.9999957482996301,-115.77614031866548
6.024,0.9999967661910706,-116.17699032063818
6.032,0.999997744783558,-116.57755873248509
6.04,0.9999986848418377,-116.97784599601223
6.048,0.9999995871219537,-117.37785256842174
6.056,0.9999999999999999,-117.77757892219304
6.064,1.0,-118.17702554496381
6.072,0.9999999999999999,-118.57619293941134
6.08,1.0,-118.9750816231335
6.088,1.0,-119.37369212853014
6.096,0.9999999999999999,-119.77202500268413
6.104,1.0,-120.17008080724271
6.112,1.0,-120.56786011829902
6.12,0.9999999999999999,-120.96536352627332
6.128,0.9999999999999999,-121.36259163579489
6.136,0.9999999999999999,-121.75954506558341
6.144,1.0,-122.1562244483311
6.152,1.0,-122.55263043058459
6.16,1.0,-122.94876367262704
6.168,0.9999999999999999,-123.3446248483606
6.176,1.0,-123.74021464518904
6.184,1.0,-124.13553376390034
6.192,0.9999999999999999,-124.53058291854968
6.2,0.9999999999999999,-124.9253628363428
6.208,1.0000000000000002,-125.31987425751933
6.216,1.0,-125.71411793523664
6.224,1.0,-126.10809463545364
6.232,1.0,-126.50180513681528
6.24,0.9999999999999999,-126.8952502305369
6.248,1.0,-127.28843072028927
6.256,0.9999999999999999,-127.6813474220837
6.264,1.0,-128.07400116415755
6.272,1.0,-128.46639278686007
6.28,1.0,-128.85852314253867
6.288,1.0,-129.25039309542532
6.296,0.9999999999999999,-129.6420035215236
6.304,1.0,-130.03335530849597
6.312,0.9999999999999999,-130.42444935555136
6.32,0.9999999999999999,-130.81528657333337
6.328,1.0,-131.20586788380857
6.336,1.0,-131.59619422015555
6.344,1.0,-131.98626652665405
6.352,1.0,-132.37608575857482
6.36,0.9999999999999999,-132.76565288206965
6.368,1.0,-133.15496887406212
6.376,1.0,-133.54403472213858
6.384,1.0,-133.9328514244395
6.392,0.9999999999999999,-134.32141998955163
6.4,0.9999999999999999,-134.70974143640035
6.408,1.0,-135.0978167941426
6.416,1.0,-135.48564710206026
6.424,1.0,-135.87323340945395
6.432,1.0,-136.26057677553752
6.44,1.0,-136.64767826933272
6.448,1.0,-137.0345389695649
6.456,1.0,-137.4211599645586
6.464,1.0,-137.807542352134
6.472,0.9999999999999999,-138.19368723950393
6.48,1.0,-138.5795957431711
6.4879999999999995,1.0,-138.96526898882627
6.496,1.0,-139.35070811124677
6.504,1.0,-139.73591425419517
6.5120000000000005,0.9999999999999999,-140.1208885703194
6.52,0.9999999999999999,-140.5056322210522
6.5280000000000005,0.9999999999999999,-140.8901463765125
6.536,0.9999999999999999,-141.2744322154059
6.5440000000000005,0.9999999999999999,-141.65849092492707
6.552,0.9999999999999998,-142.04232370066148
6.5600000000000005,1.0,-142.42593174648883
6.568,1.0,-142.80931627448604
6.5760000000000005,0.9999999999999999,-143.19247850483148
6.584,1.0,-143.57541966570932
6.592,1.0,-143.95814099321498
6.6,1.0,-144.34064373126054
6.608,0.9999999999999999,-144.72292913148107
6.616,1.0,-145.10499845314155
6.624,1.0,-145.4868529630441
6.632,1.0,-145.86849393543622
6.64,0.9999999999999999,-146.2499226519192
6.648,1.0,-146.63114040135713
6.656,0.9999999999999998,-147.01214847978693
6.664,0.9999999999999999,-147.39294819032835
6.672,1.0,-147.77354084309496
6.68,0.9999999999999999,-148.15392775510568
6.688,0.9999999999999999,-148.53411025019662
6.696,1.0,-148.91408965893385
6.704,1.0,-149.2938673185265
6.712,1.0,-149.6734445727406
6.72,0.9999999999999999,-150.05282277181334
6.728,0.9999997555467894,-150.4320032723681
6.736,0.9999993864508799,-150.81098743732977
6.744,0.9999990170998531,-151.1897766358411
6.752,0.9999986476682843,-151.5683722431791
6.76,0.9999982783265264,-151.94677564067248
6.768,0.9999979092407594,-152.3249882156193
6.776,0.9999975405730435,-152.70301136120537
6.784,0.9999971724813712,-153.08084647642335
6.792,0.9999968051197183,-153.4584949659921
6.8,0.9999964386380954,-153.83595824027685
6.808,0.9999960731825991,-154.2132377152099
6.816,0.9999957088954623,-154.59033481221178
6.824,0.9999953459151053,-154.9672509581131
6.832,0.9999949843761855,-155.3439875850769
6.84,0.9999946244096485,-155.72054613052148
6.848,0.999994266142776,-156.09692803704397
6.856,0.9999939096992377,-156.47313475234444
6.864,0.9999935551991382,-156.84916772915028
6.872,0.9999932027590673,-157.22502842514155
6.88,0.9999928524921485,-157.60071830287646
6.888,0.9999925045080865,-157.97623882971791
6.896,0.9999921589132168,-158.35159147775994
6.904,0.9999918158105519,-158.7267777237553
6.912,0.9999914752998296,-159.1017990490432
6.92,0.9999911374775605,-159.47665693947775
6.928,0.9999908024370741,-159.85135288535693
6.936,0.9999904702685657,-160.22588838135192
6.944,0.9999901410591426,-160.6002649264374
6.952,0.9999898148928714,-160.9744840238217
6.96,0.9999894918508209,-161.34854718087809
6.968,0.9999891720111097,-161.72245590907627
6.976,0.9999888554489513,-162.09621172391454
6.984,0.9999885422366973,-162.46981614485213
6.992,0.9999882324438827,-162.84327069524272
7.0,0.9999879261372703,-163.21657690226755
7.008,0.9999876233808942,-163.58973629687003
7.016,0.9999873242361028,-163.9627504136899
7.024,0.9999870287616026,-164.33562079099866
7.032,0.9999867370135004,-164.70834897063497
7.04,0.9999864490453467,-165.08093649794088
7.048,0.9999861649081767,-165.45338492169816
7.056,0.999985884650553,-165.82569579406564
7.064,0.9999856083186069,-166.19787067051644
7.072,0.9999853359560793,-166.56991110977614
7.08,0.9999850676043615,-166.94181867376128
7.088,0.9999848033025357,-167.313594927518
7.096,0.9999845430874168,-167.68524143916179
7.104,0.9999842869935889,-168.056759779817
7.112,0.9999840350534478,-168.42815152355737
7.12,0.9999837872972391,-168.79941824734652
7.128,0.9999835437530967,-169.1705615309794
7.136,0.9999833044470817,-169.5415829570237
7.144,0.9999830694032208,-169.91248411076197
7.152,0.9999828386435434,-170.28326658013407
7.16,0.9999826121881192,-170.65393195568015
7.168,0.999982390055097,-171.0244818304838
7.176,0.9999821722607395,-171.39491780011602
7.184,0.9999819588194593,-171.76524146257916
7.192,0.9999817497438582,-172.13545441825164
7.2,0.9999815450447601,-172.5055582698328
7.208,0.9999813447312474,-172.87555462228826
7.216,0.9999811488106958,-173.2454450827958
7.224,0.9999809572888106,-173.61523126069142
7.232,0.9999807701696599,-173.98491476741572
7.24,0.9999805874557071,-174.35449721646108
7.248,0.9999804091478491,-174.72398022331873
7.256,0.9999802352454451,-175.0933654054265
7.264,0.9999800657463536,-175.46265438211685
7.272,0.999979900646962,-175.83184877456515
7.28,0.9999797399422214,-176.20095020573842
7.288,0.999979583625677,-176.56996030034458
7.296,0.9999794316895014,-176.9388806847816
7.304,0.9999792841245259,-177.3077129870876
7.312,0.9999791409202702,-177.67645883689065
7.32,0.9999790020649745,-178.0451198653594
7.328,0.9999788675456309,-178.4136977051537
7.336,0.9999787373480108,-178.7821939903759
7.344,0.9999786114566971,-179.150610356522
7.352,0.9999784898551132,-179.51894844043355
7.36,0.9999783725255521,-179.8872098802496
7.368,0.9999782594492043,179.74460368464108
7.376,0.9999781506061886,179.37649061364715
7.384,0.9999780459755773,179.00844926502188
7.392,0.9999779455354274,178.64047799591017
7.4,0.9999778492628063,178.27257516239476
7.4079999999999995,0.9999777571338183,177.9047391195426
7.416,0.9999776691236341,177.5369682214507
7.4239999999999995,0.999977585206515,177.16926082129243
7.432,0.9999775053558405,176.80161527136175
7.4399999999999995,0.9999774295441354,176.43402992311988
7.448,0.9999773577430917,176.06650312723892
7.4559999999999995,0.9999772899235989,175.69903323364744
7.464,0.9999772260557653,175.33161859157443
7.4719999999999995,0.9999771661089453,174.96425754959373
7.48,0.9999771100517617,174.59694845566784
7.4879999999999995,0.9999770578521321,174.22968965719204
7.496,0.999977009477291,173.86247950103728
7.504,0.9999769648938143,173.49531633359427
7.5120000000000005,0.9999769240676428,173.12819850081578
7.52,0.9999768869641041,172.76112434826027
7.5280000000000005,0.9999768535479368,172.39409222113395
7.536,0.9999768237833107,172.02710046433387
7.5440000000000005,0.9999767976338522,171.6601474224896
7.552,0.9999767750626626,171.29323144000602
7.5600000000000005,0.9999767560323423,170.92635086110457
7.568,0.9999767405050095,170.55950402986565
7.5760000000000005,0.9999767284423249,170.19268929026964
7.584,0.9999767198055081,169.82590498623887
7.5920000000000005,0.9999767145553603,169.45914946167832
7.6,0.9999767126522847,169.0924210605173
7.6080000000000005,0.9999767140563055,168.7257181267498
7.616,0.9999767187270872,168.35903900447596
7.6240000000000006,0.9999767266239542,167.992382037942
7.632,0.9999767377059104,167.6257455715816
7.640000000000001,0.9999767519316569,167.2591279500554
7.648,0.9999767692596112,166.89252751829198
7.656000000000001,0.9999767896479248,166.52594262152758
7.664,0.999976813054501,166.1593716053465
7.672,0.999976839437014,165.79281281572057
7.68,0.9999768687529234,165.42626459904935
7.688,0.9999769009594949,165.0597253021997
7.696,0.9999769360138142,164.69319327254533
7.704,0.9999769738728044,164.3266668580065
7.712,0.9999770144932432,163.96014440708925
7.72,0.9999770578317777,163.59362426892486
7.728,0.999977103844942,163.2271047933092
7.736,0.99997715248917,162.86058433074172
7.744,0.9999772037208127,162.49406123246484
7.752,0.9999772574961531,162.12753385050286
7.76,0.999977313771421,161.76100053770094
7.768,0.9999773725028062,161.3944596477642
7.776,0.9999774336464748,161.02790953529652
7.784,0.9999774971585814,160.66134855583948
7.792,0.9999775629952844,160.29477506591107
7.8,0.999977631112759,159.9281874230447
7.808,0.9999777014672094,159.56158398582767
7.816,0.9999777740148842,159.1949631139401
7.824,0.9999778487120878,158.82832316819366
7.832,0.9999779255151927,158.4616625105701
7.84,0.9999780043806525,158.09497950426015
7.848,0.999978085265015,157.728272513702
7.856,0.9999781681249315,157.36153990462006
7.864,0.9999782529171711,156.9947800440637
7.872,0.9999783395986312,156.62799130044584
7.88,0.999978428126349,156.26117204358172
7.888,0.999978518457511,155.89432064472746
7.896,0.9999786105494662,155.527435476619
7.904,0.9999787043597356,155.16051491351067
7.912,0.999978799846022,154.7935573312141
7.92,0.9999788969662209,154.42656110713696
7.928,0.9999789956784303,154.0595246203219
7.936,0.9999790959409599,153.69244625148522
7.944,0.9999791977123422,153.3253243830562
7.952,0.999979300951339,152.9581573992156
7.96,0.9999794056169539,152.59094368593523
7.968,0.9999795116684381,152.22368163101658
7.976,0.9999796190653008,151.85636962413022
7.984,0.9999797277673179,151.48900605685515
7.992,0.9999798377345391,151.12158932271777
8.0,0.9999799489272967,150.75411781723156
8.008,0.9999800613062135,150.38658993793646
8.016,0.9999801748322102,150.0190040844382
8.024000000000001,0.9999802894665133,149.65135865844823
8.032,0.9999804051706617,149.2836520638235
8.04,0.999980521906514,148.91588270660577
8.048,0.9999806396362567,148.54804899506195
8.056000000000001,0.999980758322409,148.18014933972412
8.064,0.99998087792783,147.81218215342963
8.072,0.9999809984157265,147.44414585136104
8.08,0.9999811197496568,147.07603885108682
8.088000000000001,0.9999812418935373,146.70785957260165
8.096,0.9999813648116502,146.33960643836735
8.104,0.9999814884686469,145.97127787335293
8.112,0.9999816128295542,145.60287230507598
8.120000000000001,0.99998173785978,145.2343881636436
8.128,0.9999818635251171,144.86582388179343
8.136,0.9999819897917499,144.49717789493482
8.144,0.999982116626258,144.12844864119026
8.152000000000001,0.9999822439956209,143.75963456143725
8.16,0.9999823718672225,143.3907340993497
8.168,0.999982500208855,143.0217457014397
8.176,0.9999826289887244,142.65266781709977
8.184000000000001,0.9999827581754515,142.28349889864506
8.192,0.9999828877380789,141.91423740135568
8.2,0.9999830176460721,141.54488178351897
8.208,0.9999831478693252,141.17543050647234
8.216000000000001,0.9999832783781614,140.80588203464634
8.224,0.9999834091433379,140.43623483560754
8.232,0.9999835401360488,140.0664873801015
8.24,0.9999836713279276,139.69663814209656
8.248000000000001,0.999983802691049,139.32668559882728
8.256,0.9999839341979332,138.95662823083836
8.264,0.9999840658215461,138.5864645220282
8.272,0.9999841975353027,138.21619295969353
8.280000000000001,0.9999843293130697,137.84581203457358
8.288,0.9999844611291656,137.47532024089486
8.296,0.9999845929583642,137.10471607641554
8.304,0.9999847247758947,136.73399804247063
8.312,0.9999848565574445,136.3631646440175
8.32,0.999984988279159,135.9922143896807
8.328,0.9999851199176445,135.62114579179817
8.336,0.9999852514499669,135.2499573664665
8.344,0.9999853828536557,134.87864763358763
8.352,0.9999855141067019,134.5072151169145
8.36,0.9999856451875596,134.13565834409818
8.368,0.9999857760751473,133.76397584673396
8.376,0.9999859067488466,133.392166160409
8.384,0.9999860371885043,133.02022782474884
8.392,0.9999861673744307,132.64815938346564
8.4,0.9999862972874002,132.27595938440487
8.408,0.9999864269086518,131.9036263795943
8.416,0.9999865562198882,131.5311589252911
8.424,0.9999866852032749,131.15855558203125
8.432,0.9999868138414406,130.78581491467716
8.44,0.9999869421174754,130.41293549246757
8.448,0.9999870700149313,130.03991588906578
8.456,0.9999871975178203,129.66675468260976
8.464,0.9999873246106137,129.2934504557612
8.472,0.9999874512782411,128.9200017957559
8.48,0.9999875775060886,128.54640729445347
8.488,0.9999877032799981,128.17266554838815
8.496,0.9999878285862647,127.79877515881901
8.504,0.9999879534116368,127.42473473178147
8.512,0.9999880777433123,127.05054287813768
8.52,0.9999882015689395,126.67619821362887
8.528,0.9999883248766113,126.30169935892611
8.536,0.9999884476548668,125.92704493968323
8.544,0.9999885698926877,125.55223358658813
8.552,0.9999886915794952,125.17726393541604
8.56,0.999988812705149,124.80213462708166
8.568,0.9999889332599442,124.42684430769285
8.576,0.9999890532346083,124.05139162860314
8.584,0.9999891726202994,123.67577524646615
8.592,0.9999892914086032,123.2999938232885
8.6,0.9999894095915296,122.92404602648494
8.608,0.9999895271615102,122.54793052893173
8.616,0.9999896441113948,122.1716460090221
8.624,0.9999897604344495,121.79519115072048
8.632,0.9999898761243513,121.4185646436184
8.64,0.9999899911751865,121.04176518298922
8.648,0.9999901055814469,120.6647914698445
8.656,0.9999902193380256,120.28764221098946
8.664,0.9999903324402142,119.91031611907981
8.672,0.9999904448836989,119.53281191267763
8.68,0.9999905566645563,119.15512831630895
8.688,0.9999906677792502,118.77726406052007
8.696,0.9999907782246267,118.3992178819356
8.704,0.999990887997911,118.0209885233155
8.712,0.9999909970967034,117.64257473361344
8.72,0.9999911055189737,117.26397526803466
8.728,0.9999912132630594,116.88518888809462
8.736,0.9999913203276588,116.50621436167738
8.744,0.9999914267118283,116.12705046309502
8.752,0.9999915324149767,115.74769597314635
8.76,0.9999916374368617,115.36814967917698
8.768,0.9999917417775844,114.98841037513836
8.776,0.9999918454375858,114.6084768616486
8.784,0.9999919484176396,114.22834794605193
8.792,0.9999920507188506,113.84802244248002
8.8,0.9999921523426469,113.46749917191198
8.808,0.9999922532907768,113.0867769622362
8.815999999999999,0.9999923535653028,112.70585464831092
8.824,0.9999924531685969,112.32473107202611
8.832,0.9999925521033346,111.94340508236543
8.84,0.999992650372492,111.56187553546806
8.847999999999999,0.9999927479793369,111.18014129469087
8.856,0.9999928449274265,110.79820123067104
8.864,0.9999929412206011,110.41605422138903
8.872,0.9999930368629777,110.03369915223145
8.879999999999999,0.9999931318589458,109.65113491605408
8.888,0.9999932262131607,109.26836041324549
8.896,0.9999933199305393,108.88537455179099
8.904,0.9999934130162523,108.5021762473363
8.911999999999999,0.9999935054757213,108.11876442325152
8.92,0.9999935973146105,107.73513801069574
8.928,0.9999936885388218,107.35129594868175
8.936,0.9999937791544893,106.96723718414064
8.943999999999999,0.9999938691679732,106.58296067198667
8.952,0.9999939585858537,106.19846537518262
8.96,0.9999940474149251,105.81375026480539
8.968,0.9999941356621898,105.42881432011144
8.975999999999999,0.9999942233348517,105.04365652860243
8.984,0.9999943104403114,104.65827588609133
8.992,0.9999943969861592,104.27267139676883
9.0,0.9999944829801689,103.88684207326953
9.008,0.9999945684302907,103.50078693673827
9.016,0.9999946533446478,103.11450501689701
9.024000000000001,0.9999947377315269,102.72799535211195
9.032,0.9999948215993743,102.3412569894603
9.04,0.9999949049567883,101.95428898479737
9.048,0.9999949878125127,101.5670904028241
9.056000000000001,0.9999950701754318,101.17966031715468
9.064,0.9999951520545627,100.7919978103841
9.072,0.9999952334590492,100.40410197415567
9.08,0.9999953143981564,100.01597190922917
9.088000000000001,0.9999953948812622,99.62760672554906
9.096,0.9999954749178526,99.23900554231243
9.104,0.999995554517515,98.85016748803713
9.112,0.9999956336899308,98.46109170063028
9.120000000000001,0.9999957124448697,98.07177732745701
9.128,0.9999957907921833,97.68222352540882
9.136,0.9999958687417974,97.292429460972
9.144,0.9999959463037071,96.90239431029676
9.152000000000001,0.9999960234879695,96.51211725926598
9.16,0.9999961003046964,96.12159750356416
9.168,0.9999961767640495,95.73083424874606
9.176,0.999996252876232,95.33982671030596
9.184000000000001,0.999996328651483,94.9485741137469
9.192,0.9999964041000721,94.55707569464953
9.2,0.9999964792322901,94.16533069874123
9.208,0.9999965540584441,93.7733383819653
9.216000000000001,0.9999966285888526,93.38109801055045
9.224,0.9999967028338351,92.98860886107967
9.232,0.9999967768037098,92.59587022055942
9.24,0.9999968505087827,92.20288138648887
9.248000000000001,0.9999969239593458,91.80964166692934
9.256,0.9999969971656669,91.41615038057323
9.264,0.9999970701379847,91.022406856813
9.272,0.9999971428865025,90.62841043581041
9.280000000000001,0.999997215421382,90.23416046856579
9.288,0.9999972877527353,89.83965631698675
9.296,0.9999973598906202,89.44489735395702
9.304,0.999997431845033,89.04988296340544
9.312000000000001,0.999997503625903,88.65461254037488
9.32,0.9999975752430846,88.25908549109074
9.328,0.9999976467063536,87.86330123302935
9.336,0.9999977180253973,87.46725919498654
9.344,0.9999977892098124,87.07095881714632
9.352,0.9999978602690957,86.67439955114843
9.36,0.9999979312126396,86.27758086015704
9.368,0.999998002049725,85.88050221892804
9.376,0.9999980727895159,85.48316311387741
9.384,0.9999981434410531,85.08556304314814
9.392,0.9999982140132491,84.68770151667826
9.4,0.9999982845148802,84.28957805626736
9.408,0.999998354954582,83.8911921956443
9.416,0.999998425340844,83.49254348053319
9.424,0.9999984956820024,83.09363146872076
9.432,0.9999985659862355,82.69445573012185
9.44,0.9999986362615574,82.29501584684623
9.448,0.9999987065158122,81.89531141326361
9.456,0.9999987767566694,81.49534203607001
9.464,0.9999988469916167,81.09510733435219
9.472,0.9999989172279569,80.69460693965327
9.48,0.9999989874727996,80.29384049603672
9.488,0.9999990577330585,79.89280766015142
9.496,0.9999991280154451,79.49150810129484
9.504,0.999999198326462,79.08994150147743
9.512,0.9999992686724001,78.68810755548526
9.52,0.9999993390593324,78.28600597094355
9.528,0.9999994094931088,77.88363646837853
9.536,0.9999994799793522,77.48099878128033
9.544,0.9999995505234516,77.07809265616405
9.552,0.9999996211305597,76.67491785263158
9.56,0.9999996918055866,76.27147414343207
9.568,0.9999997625531952,75.86776131452287
9.576,0.9999998333777979,75.46377916512891
9.584,0.9999999042835511,75.0595275078029
9.592,0.9999999752743503,74.6550061684836
9.6,1.0,74.25021498655524
9.608,1.0,73.84515381490458
9.616,0.9999999999999999,73.43982251997936
9.624,0.9999999999999999,73.03422098184443
9.632,1.0,72.62834909423886
9.64,1.0,72.22220676463117
9.648,0.9999999999999999,71.81579391427523
9.656,1.0,71.40911047826427
9.664,0.9999999999999999,71.00215640558562
9.672,1.0,70.5949316591735
9.68,0.9999999999999999,70.1874362159625
9.688,1.0,69.77967006693909
9.696,0.9999999999999999,69.37163321719373
9.704,1.0,68.96332568597114
9.712,1.0,68.554747506721
