freq,mag,phase
6.0,1.0003576421816842,96.89224202362453
6.002285056,1.0003502669714928,96.75327482717809
6.004570112,1.0003201217427535,96.6145865053386
6.006855168,1.0002699021669874,96.47654590491359
6.009140224,1.0002025432642674,96.3394009144404
6.01142528,1.0001223878381496,96.20331189302335
6.013710336,1.0000345010417957,96.06852216582827
6.015995392,0.9999445577511472,95.93504104855761
6.018280448,0.9998581318593639,95.80285794832629
6.020565504,0.9997807260408663,95.67192233253527
6.02285056,0.9997172066329871,95.54201722370532
6.025135616,0.9996716706384894,95.41298435427016
6.027420672,0.9996471223195672,95.284456413415
6.029705728,0.9996451241990921,95.15617907767911
6.031990784,0.9996657242579804,95.02778232193717
6.03427584,0.9997075738319028,94.89900319402763
6.036560896,0.9997683606148007,94.76946253688814
6.038845952,0.9998439182418691,94.63899038513803
6.041131008,0.9999294553509499,94.50737441132638
6.043416064,1.0000198669216636,94.37449645934892
6.04570112,1.0001092219371368,94.24036643180166
6.047986176,1.0001918181952936,94.10498279745785
6.050271232,1.0002624845828054,93.9685312673407
6.052556288,1.0003166937324868,93.83120866302434
6.054841344,1.000351137325873,93.69325969242298
6.0571264,1.0003633376038685,93.55501506072355
6.059411456,1.0003526800702018,93.41675512422448
6.061696512,1.0003197039452536,93.27888695329473
6.063981568,1.0002667082400702,93.14160858433378
6.066266624,1.0001967359028932,93.00531668670138
6.06855168,1.000114317415758,92.87013908961111
6.070836736,1.0000247366078574,92.73620411586612
6.073121792,0.9999335691555121,92.60366020073977
6.075406848,0.9998468083142384,92.47237208345759
6.077691904,0.9997696952640404,92.34237525881021
6.07997696,0.9997070988439355,92.21342714227094
6.082262016,0.9996633655999532,92.08524813518159
6.084547072,0.9996409257308416,91.95757251239242
6.086832128,0.9996414085437096,91.83012102872064
6.089117184,0.9996647706184337,91.70252439676581
6.09140224,0.9997096149126941,91.574453703898
6.093687296,0.9997730008087639,91.44561152647191
6.095972352,0.9998510005419823,91.31579448973106
6.098257408,0.9999387080068474,91.18480181535996
6.100542464,1.0000305083559649,91.05253181170465
6.10282752,1.0001205838151284,90.91894175073458
6.105112576,1.000203099830397,90.78412846373121
6.107397632,1.000273114352199,90.6482503376501
6.1096832,1.0003259638559556,90.51149978197947
6.111968256,1.0003583334374522,90.37414812246102
6.114253312,1.00036805926342,90.2365271103632
6.116538368,1.0003547085188353,90.09893657106814
6.118823424,1.0003189885309038,89.96175150930516
6.12110848,1.0002629781962877,89.82526296783863
6.123393536,1.0001903821155647,89.68970363364625
6.125678592,1.0001058160173775,89.55533836284118
6.127963648,1.0000145387899562,89.42226241588779
6.130248704,0.9999223401421903,89.29053340209134
6.13253376,0.999835081807017,89.1601327113752
6.134818816,0.9997582855052487,89.03100027104807
6.137103872,0.9996969578470816,88.90286944561593
6.139388928,0.9996548235112294,88.77551180487399
6.141673984,0.9996347174268367,88.64863352498095
6.14395904,0.9996379111764565,88.52194158686717
6.146244096,0.9996641653743223,88.39503504654434
6.148529152,0.9997119844445801,88.26763909693638
6.150814208,0.9997781009664161,88.13941935362452
6.153099264,0.9998585697736873,88.0101637370596
6.15538432,0.9999482466844382,87.87972164821177
6.157669376,1.000041367368672,87.74792477601567
6.159954432,1.0001321338455629,87.61485202901261
6.162239488,1.0002147107936434,87.48053572684701
6.164524544,1.0002838524112656,87.34515648735838
6.1668096,1.0003352277208286,87.20890502058876
6.169094656,1.000365614564012,87.07209633552877
6.171379712,1.0003727919572445,86.93500167668063
6.173664768,1.000356568432824,86.79802757135039
6.175949824,1.0003178086596343,86.66147263843797
6.17823488,1.0002589443013523,86.52563120907617
6.180519936,1.0001837253198582,86.39080467460177
6.182804992,1.0000969004887235,86.25716327346953
6.185090048,1.0000040065713114,86.12484739896941
6.187375104,0.9999107617563444,85.99393222161038
6.18966016,0.9998233108894826,85.86433898953194
6.191945216,0.9997470634220982,85.73597093876832
6.194230272,0.9996868389566641,85.60860672731434
6.196515328,0.999646667395765,85.48201891324779
6.198800384,0.9996288705788376,85.35586247851252
6.20108544,0.9996348279913224,85.22982045518208
6.203370496,0.9996641183132433,85.10353362099927
6.205655552,0.9997148441845495,84.97670518893173
6.207940608,0.9997838074933655,84.84905714214344
6.210225664,0.9998667323118844,84.72030060469064
6.21251072,0.9999582968169898,84.59029868281594
6.214795776,1.0000528233232666,84.45895901868113
6.217080832,1.0001440909351709,84.32630193257062
6.219365888,1.000226502910573,84.19239693550408
6.221650944,1.000294744860392,84.05741342470027
6.223936,1.0003445560630355,83.92161361080052
6.226221056,1.0003726550131176,83.78522409354589
6.228506112,1.0003772372018005,83.6486775684281
6.230791168,1.0003580917684014,83.51220092379629
6.233076224,1.0003162403336092,83.3762227246926
6.23536128,1.0002544339235595,83.24099791868561
6.237646336,1.0001765880296838,83.10680865584196
6.239931392,1.000087605366156,82.97384992214093
6.242216448,0.9999929803179112,82.84225471114416
6.244501504,0.9998988514691919,82.7120498663193
6.24678656,0.9998111866272241,82.58318071048332
6.249071616,0.999735468431636,82.45552381685371
6.251356672,0.9996766143996957,82.32887511416467
6.253641728,0.9996384168215905,82.2029384842441
6.255926784,0.999623140007777,82.0774484473723
6.25821184,0.9996319203121657,81.95198016869249
6.260496896,0.9996641493428532,81.82627913412628
6.262781952,0.999717958461215,81.69996233663048
6.265067008,0.9997897984313275,81.57273651070946
6.267352064,0.9998752146844263,81.44441683621929
6.26963712,0.9999686955302699,81.31481718206993
6.271922176,1.0000643983492725,81.18383789144636
6.274207232,1.0001562360623764,81.05151563486083
6.276492288,1.0002383578266234,80.91794909183764
6.278777344,1.0003056191562305,80.7833415493072
6.2810624,1.000353590022692,80.64788568234952
6.283347456,1.0003794368417438,80.51191783770903
6.285632512,1.0003813462860645,80.37575629431926
6.287917568,1.0003591070733948,80.23975104373724
6.290202624,1.0003142462928076,80.10427774448053
6.29248768,1.0002495161918485,79.96958996547654
6.294772736,1.0001689438929628,79.83600588240651
6.297057792,1.0000777466371404,79.70366461185588
6.299342848,0.9999815256434152,79.57269512031455
6.301627904,0.9998866224105311,79.4431263860191
6.30391296,0.9997988831156099,79.31493761570624
6.306198016,0.9997239596993066,79.18793406841607
6.308483072,0.999666524019401,79.06191779153515
6.310768128,0.9996303470831714,78.93661039684481
6.313053184,0.999617735715714,78.81166159799542
6.31533824,0.9996294698448095,78.68673978655318
6.317623296,0.9996648202257157,78.56150785804788
6.319908352,0.9997216694670262,78.43562286374966
6.322193408,0.9997962660467264,78.30880376182064
6.324478976,0.999884112225057,78.18081760586433
6.326764032,0.9999794604681425,78.05151404437824
6.329049088,1.0000763936266124,77.9208247575375
6.331334144,1.0001686685814715,77.78878419411826
6.3336192,1.0002503586784521,77.65548336318923
6.335904256,1.0003164986302513,77.52112110933436
6.338189312,1.0003626706979183,77.38599529861801
6.340474368,1.000386080861622,77.25033364558907
6.342759424,1.000385093574818,77.11453723579342
6.34504448,1.0003598038369859,76.97893979052867
6.347329536,1.0003117555527063,76.84386634341469
6.349614592,1.000244072487898,76.70969218342495
6.351899648,1.0001609386929127,76.57662815832879
6.354184704,1.0000675495535134,76.44484314378003
6.35646976,0.9999698900180563,76.31443244653677
6.358754816,0.9998742383736544,76.18549455440979
6.361039872,0.9997864728947855,76.05789437039138
6.363324928,0.9997122709016832,75.93146660133924
6.365609984,0.9996564793227435,75.80599225601334
6.36789504,0.9996224635725736,75.68123600456447
6.370180096,0.9996125409805496,75.5567946165646
6.372465152,0.9996273075171821,75.4323197034794
6.374750208,0.9996658806411411,75.3075152201328
6.377035264,0.9997257764471942,75.18197410003938
6.37932032,0.9998032720509925,75.05546184035181
6.381605376,0.9998934302701139,74.92774588150098
6.383890432,0.9999905691283386,74.79867819932261
6.386175488,1.000088624510893,74.66820598183048
6.388460544,1.0001811967932663,74.53637051278352
6.3907456,1.0002625263931342,74.40326777894282
6.393030656,1.0003273156171615,74.2691330123522
6.395315712,1.000371620878181,74.13419266422926
6.397600768,1.0003925074090705,73.99879637439655
6.399885824,1.0003885870272156,73.86329377160688
6.40217088,1.0003601571132141,73.72803261471886
6.404455936,1.0003089452490455,73.59337351880554
6.406740992,1.0002382602941837,73.45961348817828
6.409026048,1.000152426650381,73.32697886080955
6.411311104,1.000056949090751,73.19568028764958
6.41359616,0.9999578340835256,73.06584265908538
6.415881216,0.9998614706718024,72.93740288078877
6.418166272,0.9997738426501788,72.81032058547834
6.420451328,0.9997006929665325,72.68440905466466
6.422736384,0.9996464568816446,72.55945489628596
6.42502144,0.9996148238808412,72.43515025424034
6.427306496,0.9996076522342227,72.3111331420985
6.429591552,0.9996255019276546,72.18706057867374
6.431876608,0.9996672734276861,72.06254914696201
6.434161664,0.9997303067479805,71.93731227957173
6.43644672,0.9998106648689011,71.81103014209947
6.438731776,0.9999032501342388,71.68350382926835
6.441016832,1.0000022057711369,71.55460324573886
6.443301888,1.0001011853168962,71.42427195449278
6.445586944,1.0001938808727702,71.29257330829213
6.447872,1.0002746133502862,71.15959772398163
6.450157056,1.0003381183231566,71.02558166645815
6.452442112,1.0003803530322721,70.89082149980386
6.454727168,1.0003985696046152,70.75562904407431
6.457012224,1.0003916323132171,70.62036250700568
6.45929728,1.0003600516454312,70.4853796670127
6.461582336,1.000305525321588,70.35103151555535
6.463867392,1.0002317923621968,70.21760813929266
6.466152448,1.0001433387488081,70.08539651809674
6.468437504,1.0000458449066965,69.95454131312786
6.47072256,0.9999453758367015,69.82511703056656
6.473007616,0.9998484412866384,69.69713095537583
6.475292672,0.9997611167855388,69.57053342575395
6.477577728,0.9996888629710644,69.44509110009086
6.479862784,0.9996365191465574,69.32055718167884
6.48214784,0.9996073369332956,69.19665357097183
6.484432896,0.9996030382563482,69.07297593879984
6.486717952,0.9996241097124999,68.94920930052713
6.489003008,0.9996692358953988,68.82497222334632
6.491288064,0.9997353522357759,68.69993217544926
6.49357312,0.9998186231506676,68.57381931548058
6.495858176,0.9999135793831452,68.4464379325689
6.498143232,1.0000142207369196,68.31762461609796
6.500428288,1.0001141537271268,68.18736513404737
6.502713344,1.0002070533338048,68.05569675165272
6.5049984,1.0002869999214947,67.9227862372453
6.507283456,1.000349015561577,67.78885099496969
6.509568512,1.000388983172719,67.65417831842032
6.511853568,1.00040449722149,67.51911325194894
6.514138624,1.0003944085196843,67.38401412027184
6.51642368,1.000359486017248,67.24925094049969
6.518708736,1.000301747515622,67.1151480848614
6.520993792,1.000224937999259,66.98203555295925
6.523278848,1.0001339567918284,66.85016188454058
6.525563904,1.0000343989190466,66.71964598683185
6.52784896,0.9999326840928341,66.5906530850987
6.530134016,0.9998352085474719,66.46307804967385
6.532419072,0.999748222310833,66.33687454882958
6.534704128,0.9996771148288437,66.21180752673389
6.536989184,0.9996267380414454,66.087642967147
6.53927424,0.9996000094944394,65.96406695733815
6.541559808,0.9995987325694965,65.84067338656288
6.543844864,0.9996230750383148,65.71714804030896
6.54612992,0.9996714436786693,65.59308289004989
6.548414976,0.9997408811997875,65.46819903348587
6.550700032,0.9998269731778091,65.34215797915247
6.552985088,0.9999242383892423,65.21481528526832
6.555270144,1.0000264293908028,65.08601597733272
6.5575552,1.0001272340425322,64.95575026456177
6.559840256,1.000220135162753,64.82407863851188
6.562125312,1.0002993404226614,64.6911609704576
6.564410368,1.000359730590029,64.55724470404895
6.566695424,1.0003974968224272,64.42258673866849
6.56898048,1.000410186351777,64.28759018041008
6.571265536,1.00039692076684,64.15260360578893
6.573550592,1.0003586162501437,64.01797555134031
6.575835648,1.00029757494001,63.88408807580731
6.578120704,1.000217732074247,63.7512202866006
6.58040576,1.0001240823717554,63.619625911428166
6.582690816,1.0000225779608403,63.48943167102789
6.584975872,0.9999196725324697,63.36073857393062
6.587260928,0.9998217747447012,63.23350288666434
6.589545984,0.9997352391220714,63.107645929044175
6.59183104,0.9996655275349716,62.98290077139114
6.594116096,0.9996170317202432,62.85903757417209
6.596401152,0.999593007605802,62.735697851106025
6.598686208,0.9995948023313033,62.61254134898025
6.600971264,0.999622430979321,62.489173662746545
6.60325632,0.9996742011781228,62.365224544821764
6.605541376,0.9997468505922483,62.24039750543001
6.607826432,0.9998357223599538,62.11439728015879
6.610111488,0.9999352369561693,61.987009080980016
6.612396544,1.0000390546146634,61.85817306327049
6.6146816,1.0001406796237302,61.72781517391701
6.616966656,1.0002334667000918,61.59605473262593
6.619251712,1.0003117014400882,61.463071914164914
6.621536768,1.000370435020552,61.32909574229799
6.623821824,1.0004057722078024,61.19441593685991
6.62610688,1.0004154749614755,61.059397330876386
6.628391936,1.0003989578875705,60.924465811010435
6.630676992,1.0003572025958802,60.78993513004573
6.632962048,1.0002928254888146,60.6561916155096
6.635247104,1.0002100253577817,60.52349802996274
6.63753216,1.0001138083715697,60.39210994117883
6.639817216,1.0000103970959604,60.26217352701264
6.642102272,0.9999063285092219,60.13374310077313
6.644387328,0.9998081758419437,60.006796998061745
6.646672384,0.999722167743778,59.881208506851564
6.64895744,0.99965391861926,59.756706180378764
6.651242496,0.9996075307948095,59.63307196032252
6.653527552,0.9995861324763756,59.50993870680102
6.655812608,0.9995911774444322,59.38691379787699
6.658097664,0.9996222502150355,59.26365087018765
6.66038272,0.9996774430985993,59.1397584717094
6.662667776,0.9997532112707352,59.01489353484232
6.664952832,0.9998449741117713,58.88884130299498
6.667237888,0.9999466426930967,58.761379183403676
6.669522944,1.000051966445395,58.632398684525995
6.671808,1.0001541865924308,58.50188976116602
6.674093056,1.0002468635114612,58.36999827809906
6.676378112,1.0003240790358459,58.23686170213736
6.678663168,1.0003809407762416,58.10274395351313
6.680948224,1.0004137705984522,57.96797127348545
6.68323328,1.00042048299954,57.83292300658742
6.685518336,1.0004006244338868,57.697957874938275
6.687803392,1.000355391389,57.56345211090764
6.690088448,1.0002878474712762,57.429768235415615
6.692373504,1.0002019381027136,57.29721190911882
6.69465856,1.0001031850666005,57.16598460343966
6.696943616,0.9999978949943134,57.03624390338813
6.699228672,0.9998927735615923,56.90801986274625
6.701513728,0.9997943995897892,56.78128831891312
6.703798784,0.9997091114660236,56.6558883007265
6.70608384,0.9996423445806395,56.53160622064086
6.708368896,0.9995982258990241,56.408118432536035
6.710653952,0.9995796925512057,56.28509273980441
6.712939008,0.9995880142158058,56.16217341852712
6.715224064,0.9996225391243236,56.03890438712631
6.71750912,0.9996811641732778,55.914964235568206
6.719794176,0.9997602329508136,55.79002603945612
6.722079232,0.9998546862729559,55.66384083572431
6.724364288,0.9999585694111843,55.536199197694515
6.726649344,1.0000652772310503,55.40703595408736
6.7289344,1.0001681339001012,55.27633740097929
6.731219456,1.000260454090719,55.14421887068547
6.733504512,1.0003364880916104,55.01085101008024
6.735789568,1.0003913612160618,54.8765710655584
6.738074624,1.0004215573155715,54.74162850947297
6.74035968,1.0004252593664553,54.60645462816263
6.742644736,1.0004019572833893,54.47141017609397
6.744929792,1.0003532273925202,54.336889260985224
6.747214848,1.0002822145699295,54.20321556170671
6.749499904,1.0001933074422535,54.070705230750484
6.75178496,1.0000921813086314,53.93958917759424
6.754070016,0.9999850338962074,53.809976826803826
6.756355072,0.9998789876388173,53.68190189726249
6.75864064,0.9997805294606124,53.55530713505243
6.760925696,0.9996960552064557,53.430066155738004
6.763210752,0.9996308407232068,53.30589189907833
6.765495808,0.9995890982474736,53.18249914798416
6.767780864,0.9995735356381714,53.05954644545698
6.77006592,0.9995850345879898,52.93660371130781
6.772350976,0.9996231304187427,52.81329142689751
6.774636032,0.999685325581161,52.68926318559184
6.776921088,0.999767496606401,52.56416236021903
6.779206144,0.9998647585405174,52.43777542795042
6.7814912,0.9999707456251032,52.3098928421541
6.783776256,1.0000788163305758,52.18046968175459
6.786061312,1.000182071787045,52.04947165685052
6.788346368,1.0002740778474097,51.91707650118034
6.790631424,1.000348855911617,51.783445337262286
6.79291648,1.000401672695831,51.64888050435556
6.795201536,1.0004291539145649,51.51372823317596
6.797486592,1.0004295346058518,51.37836094921584
6.799771648,1.0004027924956411,51.243184873829556
6.802056704,1.0003505527403211,51.108571465136194
6.80434176,1.0002761593328289,50.9748703925859
6.806626816,1.0001841548808015,50.842377440508145
6.808911872,1.0000805988585793,50.71129231112709
6.811196928,0.9999718378246331,50.58173140650027
6.813481984,0.9998648986158678,50.453750109278275
6.81576704,0.9997664134075268,50.32724701469269
6.818052096,0.9996828259650814,50.20207416618425
6.820337152,0.9996193881206906,50.07795710637606
6.822622208,0.999580144366334,49.95460822224379
6.824907264,0.9995675640387953,49.831618692345735
6.82719232,0.9995826031962891,49.708602821795424
6.829477376,0.9996242010008132,49.5851728296462
6.831762432,0.9996898240085165,49.46096433363246
6.834047488,0.9997753006782497,49.335641039800805
6.836332544,0.9998752645764911,49.20897902251978
6.8386176,0.9999832958510265,49.0807925900061
6.840902656,1.0000927250721936,48.95101017942817
6.843187712,1.0001963642859644,48.81967980923001
6.845472768,1.0002878301401164,48.68692730283
6.847757824,1.0003611751631343,48.552943435704925
6.85004288,1.000411765835601,48.41807056990967
6.852327936,1.0004365068952499,48.28263825764581
6.854612992,1.0004336413172394,48.14701817326687
6.856898048,1.0004032992249732,48.01163552617959
6.859183104,1.0003475347703485,47.87688090520045
6.86146816,1.0002696720288131,47.74307725252981
6.863753216,1.0001748116890417,47.61051574151138
6.866038272,1.000068747715434,47.47940892070242
6.868323328,0.9999583882173807,47.34986598623787
6.870608384,0.9998506042130506,47.22190565138382
6.87289344,0.9997522700277672,47.095424505145
6.875178496,0.9996696913685769,46.97025845557128
6.877463552,0.999608048659156,46.846147062342865
6.879748608,0.9995713305282611,46.7227329172822
6.882033664,0.9995619795639223,46.5996630118819
6.88431872,0.999580439361244,46.47652084457778
6.886603776,0.999625697901528,46.35288738910413
6.888888832,0.9996948153106927,46.228427849430346
6.891173888,0.999783477488449,46.10282705281153
6.893458944,0.9998861675447456,45.97580774901836
6.895744,0.9999963139335729,45.847238346118495
6.898029056,1.0001067493609628,45.71704478928708
6.900314112,1.0002107265421563,45.58529634778841
6.902599168,1.0003015392855783,45.45211412055533
6.904884224,1.000373403021862,45.31774067308459
6.90716928,1.0004218039819655,45.18246566749818
6.909454336,1.0004435732516164,45.04667499554858
6.911739392,1.0004373322833817,44.91074800078622
6.914024448,1.0004034470243581,44.77512397597324
6.916309504,1.0003439890089603,44.64016105006354
6.91859456,1.0002627871424206,44.50618815689396
6.920879616,1.000164927988877,44.373510788166115
6.923164672,1.0000565728667723,44.242317518866614
6.925449728,0.9999446336690418,44.11272378788842
6.927734784,0.9998361719368766,43.984720910383146
6.93001984,0.9997381144422953,43.85821672093323
6.932304896,0.9996566119804461,43.73299101733254
6.934589952,0.9995968951117158,43.60879379281341
6.936875008,0.9995628935780004,43.485266703269026
