freq,mag,phase
6.0,0.9999971517926819,-147.33262598810217
6.008,0.9999969064779571,-147.69389132103356
6.016,0.9999966759077488,-148.05476508045996
6.024,0.9999964596719471,-148.4152509379133
6.032,0.9999962573671154,-148.77535257044008
6.04,0.9999960685964248,-149.13507366044544
6.048,0.9999958929695876,-149.49441789553987
6.056,0.9999957301027896,-149.8533889683896
6.064,0.999995579618629,-150.2119905765699
6.072,0.9999954411460468,-150.57022642242163
6.08,0.999995314320265,-150.92810021291092
6.088,0.9999951987827189,-151.2856156594919
6.096,0.9999950941809944,-151.6427764779724
6.104,0.9999950001687625,-151.9995863883827
6.112,0.9999949164057157,-152.3560491148474
6.12,0.9999948425575028,-152.7121683854599
6.128,0.9999947782956672,-153.06794793216005
6.136,0.9999947232975811,-153.42339149061468
6.144,0.9999946772463829,-153.77850280010068
6.152,0.9999946398309167,-154.133285603391
6.16,0.999994610745667,-154.4877436466437
6.168,0.9999945896906952,-154.8418806792934
6.176,0.9999945763715817,-155.19570045394545
6.184,0.9999945704993615,-155.5492067262726
6.192,0.9999945717904614,-155.90240325491501
6.2,0.9999945799666435,-156.25529380138195
6.208,0.9999945947549398,-156.6078821299564
6.216,0.9999946158875939,-156.9601720076026
6.224,0.9999946431020015,-157.31216720387525
6.232,0.9999946761406484,-157.66387149083184
6.24,0.999994714751054,-158.0152886429473
6.248,0.9999947586857096,-158.36642243703054
6.256,0.9999948077020239,-158.71727665214402
6.264,0.9999948615622583,-159.06785506952528
6.272,0.9999949200334737,-159.41816147251063
6.28,0.9999949828874724,-159.7681996464615
6.288,0.9999950499007405,-160.11797337869262
6.296,0.9999951208543921,-160.46748645840265
6.304,0.9999951955341091,-160.8167426766067
6.312,0.99999527373009,-161.16574582607143
6.32,0.9999953552369913,-161.51449970125174
6.328,0.9999954398538756,-161.86300809822973
6.336,0.9999955273841508,-162.21127481465595
6.344,0.9999956176355227,-162.55930364969203
6.352,0.9999957104199348,-162.9070984039559
6.36,0.9999958055535211,-163.25466287946873
6.368,0.9999959028565464,-163.60200087960348
6.376,0.9999960021533579,-163.9491162090359
6.384,0.9999961032723323,-164.29601267369685
6.392,0.9999962060458211,-164.6426940807267
6.4,0.9999963103101024,-164.98916423843156
6.408,0.9999964159053275,-165.33542695624098
6.416,0.9999965226754721,-165.6814860446678
6.424,0.9999966304682855,-166.02734531526914
6.432,0.9999967391352362,-166.37300858060973
6.44,0.9999968485314715,-166.71847965422634
6.448,0.999996958515762,-167.06376235059398
6.456,0.9999970689504496,-167.4088604850937
6.464,0.9999971797014104,-167.7537778739822
6.472,0.9999972906379974,-168.0985183343622
6.48,0.9999974016329938,-168.44308568415542
6.4879999999999995,0.9999975125625749,-168.78748374207572
6.496,0.9999976233062471,-169.1317163276053
6.504,0.9999977337468151,-169.47578726097018
6.5120000000000005,0.9999978437703285,-169.8197003631196
6.52,0.9999979532660394,-170.16345945570424
6.5280000000000005,0.9999980621263556,-170.50706836105786
6.536,0.9999981702467966,-170.85053090217878
6.5440000000000005,0.9999982775259526,-171.1938509027137
6.552,0.9999983838654348,-171.53703218694162
6.5600000000000005,0.9999984891698387,-171.8800785797604
6.568,0.9999985933466962,-172.2229939066732
6.5760000000000005,0.9999986963064347,-172.56578199377682
6.584,0.9999987979623365,-172.9084466677509
6.592,0.9999988982304936,-173.25099175584864
6.6,0.999998997029772,-173.593421085888
6.608,0.9999990942817636,-173.93573848624428
6.616,0.9999991899107521,-174.27794778584388
6.624,0.9999992838436698,-174.62005281415884
6.632,0.9999993760100574,-174.96205740120251
6.64,0.9999994663420273,-175.30396537752597
6.648,0.9999995547742209,-175.64578057421573
6.656,0.9999996412437739,-175.98750682289204
6.664,0.9999997256902762,-176.32914795570818
6.672,0.9999998080557326,-176.67070780535067
6.68,0.9999998882845295,-177.01219020504038
6.688,0.9999999663233935,-177.35359898853412
6.696,0.9999999999999999,-177.69493799012747
6.704,0.9999999999999999,-178.0362110446581
6.712,1.0,-178.3774219875098
6.72,1.0,-178.71857465461738
6.728,0.9999999999999999,-179.05967288247228
6.736,1.0,-179.40072050812861
6.744,0.9999999999999999,-179.74172136921013
6.752,1.0,179.91732069608238
6.76,0.9999999999999998,179.57640184896294
6.768,1.0,179.23551825005188
6.776,1.0,178.89466605936656
6.784,1.0,178.55384143631164
6.792,0.9999999999999999,178.21304053966887
6.8,0.9999999999999999,177.87225952758646
6.808,0.9999999999999999,177.53149455756784
6.816,1.0,177.19074178646002
6.824,1.0,176.84999737044174
6.832,0.9999999999999999,176.50925746501085
6.84,1.0,176.16851822497185
6.848,1.0000000000000002,175.82777580442243
6.856,1.0,175.48702635674033
6.864,0.9999999999999998,175.14626603456946
6.872,0.9999999999999999,174.80549098980597
6.88,0.9999999999999999,174.46469737358393
6.888,1.0,174.12388133626104
6.896,0.9999999999999999,173.78303902740362
6.904,1.0,173.44216659577205
6.912,1.0,173.10126018930558
6.92,0.9999999999999998,172.76031595510725
6.928,1.0,172.4193300394285
6.936,0.9999999999999998,172.07829858765388
6.944,1.0,171.7372177442856
6.952,1.0,171.39608365292804
6.96,1.0,171.05489245627217
6.968,1.0,170.71364029608014
6.976,1.0,170.37232331316966
6.984,1.0,170.03093764739873
6.992,1.0,169.68947943765002
7.0,1.0,169.34794482181582
7.008,0.9999999999999999,169.0063299367826
7.016,0.9999999999999999,168.6646309184162
7.024,1.0,168.3228439015469
7.032,1.0,167.98096501995445
7.04,1.0,167.63899040635403
7.048,0.9999999999999999,167.29691619238156
7.056,1.0,166.9547385085799
7.064,0.9999999999999998,166.61245348438504
7.072,1.0,166.2700572481127
7.08,1.0,165.92754592694502
7.088,1.0,165.5849156469181
7.096,1.0,165.24216253290925
7.104,1.0,164.8992827086252
7.112,1.0,164.5562722965904
7.12,0.9999999999999999,164.21312741813577
7.128,1.0,163.86984419338822
7.136,1.0,163.5264187412602
7.144,1.0,163.18284717944007
7.152,0.9999999291612219,162.83912562438303
7.16,0.9999998497848542,162.4952501913024
7.168,0.9999997681118877,162.15121699416153
7.176,0.99999968417516,161.8070221456666
7.184,0.9999995980081812,161.46266175725967
7.192,0.9999995096451103,161.11813193911254
7.2,0.9999994191207416,160.77342880012148
7.208,0.9999993264704824,160.42854844790227
7.216,0.9999992317303376,160.08348698878643
7.224,0.9999991349368902,159.7382405278178
7.232,0.9999990361272841,159.39280516875016
7.24,0.9999989353392059,159.04717701404567
7.248,0.9999988326108691,158.7013521648739
7.256,0.9999987279809945,158.35532672111205
7.264,0.9999986214887963,158.00909678134585
7.272,0.999998513173962,157.66265844287128
7.28,0.9999984030766377,157.3160078016976
7.288,0.9999982912374118,156.96914095255096
7.296,0.999998177697297,156.6220539888793
7.304,0.9999980624977166,156.27474300285806
7.312,0.9999979456804869,155.92720408539694
7.32,0.9999978272878003,155.579433326148
7.328,0.9999977073622129,155.23142681351462
7.336,0.999997585946627,154.88318063466153
7.344,0.9999974630842752,154.53469087552634
7.352,0.9999973388187066,154.1859536208318
7.36,0.9999972131937716,153.83696495409978
7.368,0.9999970862536068,153.48772095766606
7.376,0.9999969580426195,153.13821771269656
7.384,0.9999968286054755,152.78845129920506
7.392,0.9999966979870818,152.43841779607186
7.4,0.9999965662325745,152.08811328106415
7.4079999999999995,0.9999964333873038,151.7375338308577
7.416,0.999996299496821,151.38667552105957
7.4239999999999995,0.9999961646068635,151.0355344262332
7.432,0.9999960287633406,150.68410661992377
7.4399999999999995,0.9999958920123224,150.33238817468614
7.448,0.9999957544000248,149.9803751621137
7.4559999999999995,0.9999956159727954,149.62806365286897
7.464,0.999995476777103,149.27544971671585
7.4719999999999995,0.9999953368595217,148.92252942255365
7.48,0.9999951962667193,148.56929883845214
7.4879999999999995,0.9999950550454453,148.2157540316894
7.496,0.9999949132425174,147.86189106879024
7.504,0.9999947709048086,147.50770601556727
7.5120000000000005,0.9999946280792364,147.153194937163
7.52,0.9999944848127487,146.7983538980949
7.5280000000000005,0.9999943411523122,146.44317896230072
7.536,0.9999941971449011,146.08766619318732
7.5440000000000005,0.9999940528374847,145.73181165368024
7.552,0.9999939082770157,145.37561140627616
7.5600000000000005,0.9999937635104176,145.01906151309612
7.568,0.999993618584575,144.66215803594255
7.5760000000000005,0.9999934735463211,144.30489703635646
7.584,0.9999933284424245,143.94727457567828
7.5920000000000005,0.999993183319582,143.5892867151097
7.6,0.9999930382244032,143.23092951577854
7.6080000000000005,0.9999928932034028,142.8721990388052
7.616,0.9999927483029877,142.5130913453719
7.6240000000000006,0.9999926035694461,142.1536024967933
7.632,0.9999924590489379,141.79372855459104
7.640000000000001,0.9999923147874834,141.4334655805685
7.648,0.9999921708309526,141.07280963688999
7.656000000000001,0.9999920272250551,140.71175678616075
7.664,0.9999918840153289,140.35030309151088
7.672,0.9999917412471316,139.98844461668006
7.68,0.999991598965628,139.62617742610664
7.688,0.9999914572157829,139.26349758501777
7.696,0.9999913160423481,138.90040115952317
7.704,0.9999911754898544,138.536884216711
7.712,0.999991035602601,138.17294282474646
7.72,0.9999908964246467,137.80857305297357
7.728,0.9999907579997974,137.443770972019
7.736,0.9999906203716012,137.07853265389943
7.744,0.9999904835833338,136.71285417213113
7.752,0.9999903476779931,136.3467316018428
7.76,0.9999902126982875,135.98016101989137
7.768,0.9999900786866277,135.61313850498038
7.776,0.9999899456851168,135.2456601377818
7.784,0.999989813735542,134.87772200106065
7.792,0.9999896828793646,134.50932017980264
7.8,0.999989553157712,134.14045076134522
7.808,0.9999894246113682,133.7711098355115
7.816,0.9999892972807652,133.40129349474753
7.824,0.9999891712059743,133.03099783426276
7.832,0.9999890464266973,132.66021895217386
7.84,0.999988922982258,132.28895294965173
7.848,0.9999888009115939,131.91719593107206
7.856,0.9999886802532475,131.54494400416903
7.864,0.9999885610453577,131.17219328019294
7.872,0.9999884433256523,130.7989398740707
7.88,0.999988327131439,130.42517990457026
7.888,0.9999882124995974,130.05090949446864
7.896,0.9999880994665714,129.67612477072333
7.904,0.9999879880683609,129.30082186464753
7.912,0.9999878783405138,128.92499691208906
7.92,0.9999877703181184,128.54864605361283
7.928,0.9999876640357945,128.17176543468744
7.936,0.9999875595276876,127.79435120587526
7.944,0.9999874568274598,127.41639952302657
7.952,0.9999873559682835,127.03790654747753
7.96,0.9999872569828306,126.65886844625214
7.968,0.9999871599032709,126.27928139226805
7.976,0.9999870647612588,125.89914156454672
7.984,0.9999869715879298,125.51844514842719
7.992,0.9999868804138915,125.13718833578434
8.0,0.9999867912692175,124.75536732525116
8.008,0.9999867041834389,124.37297832244519
8.016,0.9999866191855395,123.99001754019906
8.024000000000001,0.9999865363039462,123.60648119879579
8.032,0.9999864555665248,123.22236552620782
8.04,0.9999863770005708,122.83766675834057
8.048,0.999986300632804,122.45238113928045
8.056000000000001,0.9999862264893625,122.06650492154766
8.064,0.9999861545957944,121.6800343663527
8.072,0.9999860849770525,121.29296574385775
8.08,0.9999860176574873,120.90529533344277
8.088000000000001,0.9999859526608412,120.51701942397608
8.096,0.9999858900102421,120.12813431408948
8.104,0.9999858297281968,119.73863631245773
8.112,0.999985771836585,119.34852173808325
8.120000000000001,0.9999857163566538,118.95778692058552
8.128,0.9999856633090112,118.56642820049481
8.136,0.9999856127136202,118.1744419295508
8.144,0.9999855645897935,117.78182447100629
8.152000000000001,0.9999855189561874,117.38857219993585
8.16,0.999985475830796,116.99468150354892
8.168,0.9999854352309469,116.60014878150788
8.176,0.9999853971732937,116.20497044625158
8.184000000000001,0.9999853616738119,115.8091429233235
8.192,0.9999853287477943,115.41266265170498
8.2,0.9999852984098441,115.0155260841531
8.208,0.9999852706738708,114.6177296875443
8.216000000000001,0.9999852455530854,114.21926994322301
8.224,0.9999852230599952,113.82014334735496
8.232,0.9999852032063985,113.42034641128568
8.24,0.9999851860033808,113.01987566190466
8.248000000000001,0.9999851714613093,112.61872764201452
8.256,0.9999851595898294,112.21689891070511
8.264,0.9999851503978588,111.81438604373294
8.272,0.9999851438935853,111.4111856339061
8.280000000000001,0.9999851400844599,111.0072942914746
8.288,0.9999851389771955,110.6027086445254
8.296,0.9999851405777611,110.19742533938313
8.304,0.9999851448913776,109.79144104101613
8.312,0.9999851519225159,109.38475243344816
8.32,0.9999851616748919,108.9773562201744
8.328,0.9999851741514629,108.56924912458437
8.336,0.9999851893544252,108.1604278903886
8.344,0.999985207285209,107.75088928205216
8.352,0.999985227944477,107.34063008523216
8.36,0.9999852513321208,106.92964710722217
8.368,0.9999852774472571,106.51793717740036
8.376,0.9999853062882266,106.10549714768482
8.384,0.9999853378525897,105.69232389299242
8.392,0.9999853721371245,105.2784143117049
8.4,0.9999854091378252,104.86376532613862
8.408,0.9999854488498984,104.44837388302129
8.416,0.9999854912677618,104.03223695397253
8.424,0.9999855363850428,103.61535153599138
8.432,0.9999855841945756,103.19771465194749
8.44,0.9999856346883997,102.77932335107933
8.448,0.9999856878577589,102.36017470949608
8.456,0.9999857436930991,101.94026583068641
8.464,0.9999858021840676,101.51959384603104
8.472,0.9999858633195134,101.0981559153219
8.48,0.999985927087483,100.67594922728517
8.488,0.9999859934752223,100.25297100011109
8.496,0.9999860624691757,99.82921848198718
8.504,0.9999861340549839,99.40468895163828
8.512,0.9999862082174862,98.97937971887022
8.52,0.999986284940719,98.55328812511989
8.528,0.999986364207916,98.1264115440089
8.536,0.9999864460015083,97.69874738190384
8.544,0.9999865303031259,97.2702930784797
8.552,0.9999866170935965,96.84104610728987
8.56,0.9999867063529487,96.41100397633943
8.568,0.9999867980604114,95.98016422866462
8.576,0.9999868921944147,95.54852444291556
8.584,0.9999869887325936,95.11608223394518
8.592,0.9999870876517869,94.68283525340108
8.6,0.9999871889280411,94.24878119032353
8.608,0.9999872925366103,93.81391777174632
8.616,0.9999873984519615,93.37824276330353
8.624,0.999987506647774,92.941753969839
8.632,0.9999876170969442,92.5044492360216
8.64,0.9999877297715869,92.06632644696299
8.648,0.9999878446430394,91.62738352884104
8.656,0.9999879616818651,91.18761844952552
8.664,0.999988080857857,90.74702921920922
8.672,0.9999882021400396,90.30561389104135
8.68,0.9999883254966752,89.8633705617659
8.688,0.999988450895268,89.42029737236217
8.696,0.999988578302567,88.97639250869008
8.704,0.9999887076845727,88.53165420213746
8.712,0.9999888390065403,88.08608073027172
8.72,0.999988972232986,87.63967041749332
8.728,0.9999891073276925,87.19242163569359
8.736,0.9999892442537144,86.74433280491368
8.744,0.9999893829733839,86.29540239400797
8.752,0.9999895234483175,85.8456289213081
8.76,0.9999896656394229,85.3950109552912
8.768,0.9999898095069052,84.94354711524866
8.776,0.9999899550102731,84.49123607195848
8.784,0.9999901021083479,84.03807654835808
8.792,0.9999902507592707,83.58406732022027
8.8,0.9999904009205087,83.12920721682937
8.808,0.9999905525488653,82.6734951216602
8.815999999999999,0.999990705600487,82.21692997305693
8.824,0.9999908600308733,81.75951076491383
8.832,0.9999910157948848,81.30123654735685
8.84,0.999991172846752,80.84210642742568
8.847999999999999,0.9999913311400862,80.38211956975587
8.856,0.9999914906278887,79.92127519726205
8.864,0.9999916512625601,79.45957259182104
8.872,0.9999918129959116,78.99701109495449
8.879999999999999,0.9999919757791753,78.53359010851112
8.888,0.9999921395630154,78.06930909534898
8.896,0.9999923042975388,77.60416758001683
8.904,0.9999924699323073,77.13816514943414
8.911999999999999,0.9999926364163494,76.6713014535699
8.92,0.9999928036981717,76.2035762061204
8.928,0.9999929717257723,75.73498918518536
8.936,0.9999931404466528,75.26554023394166
8.943999999999999,0.9999933098078313,74.79522926131493
8.952,0.9999934797558563,74.32405624264914
8.96,0.9999936502368192,73.85202122037357
8.968,0.9999938211963699,73.37912430466636
8.975999999999999,0.9999939925797293,72.9053656741149
8.984,0.9999941643317042,72.4307455763732
8.992,0.9999943363967031,71.95526432881543
9.0,0.9999945087187495,71.4789223191853
9.008,0.999994681241499,71.00172000624082
9.016,0.9999948539082537,70.52365792039517
9.024000000000001,0.9999950266619784,70.0447366643526
9.032,0.9999951994453178,69.56495691373885
9.04,0.9999953722006113,69.08431941772604
9.048,0.999995544869911,68.60282499965233
9.056000000000001,0.9999957173949987,68.12047455763557
9.064,0.9999958897174029,67.63726906518015
9.072,0.9999960617784163,67.15320957177713
9.08,0.9999962335191136,66.66829720349806
9.088000000000001,0.9999964048803716,66.18253316358135
9.096,0.9999965758028838,65.69591873301067
9.104,0.999996746227183,65.20845527108557
9.112,0.9999969160936582,64.7201442159841
9.120000000000001,0.9999970853425735,64.23098708531712
9.128,0.9999972539140894,63.740985476673146
9.136,0.9999974217482808,63.250141068154
9.144,0.9999975887851578,62.75845561890154
9.152000000000001,0.9999977549646856,62.26593096961429
9.16,0.9999979202268049,61.77256904305359
9.168,0.9999980845114532,61.27837184453917
9.176,0.9999982477585847,60.78334146243434
9.184000000000001,0.9999984099081918,60.28748006861984
9.192,0.9999985709003274,59.790789918955866
9.2,0.9999987306751247,59.29327335373211
9.208,0.99999888917282,58.79493279810598
9.216000000000001,0.9999990463337742,58.29577076252834
9.224,0.999999202098496,57.79578984315591
9.232,0.999999356407662,57.29499272225019
9.24,0.9999995092021412,56.79338216856354
9.248000000000001,0.9999996604230169,56.29096103771105
9.256,0.9999998100116084,55.78773227252783
9.264,0.999999957909496,55.28369890341168
9.272,0.9999999999999999,54.77886404865109
9.280000000000001,0.9999999999999999,54.273230914738114
9.288,0.9999999999999999,53.7668027966651
9.296,0.9999999999999999,53.25958307820539
9.304,0.9999999999999999,52.75157523217815
9.312000000000001,1.0,52.242782820696725
9.32,0.9999999999999999,51.733209495399386
9.328,0.9999999999999999,51.22285899766276
9.336,1.0,50.71173515879841
9.344,0.9999999999999999,50.19984190023113
9.352,1.0,49.68718323365821
9.36,0.9999999999999999,49.173763261191695
9.368,1.0000000000000002,48.65958617547993
9.376,1.0,48.144656259811846
9.384,1.0,47.628977888199785
9.392,1.0,47.11255552544456
9.4,1.0,46.59539372717852
9.408,1.0,46.07749713989004
9.416,1.0,45.5588705009257
9.424,0.9999999999999999,45.03951863847337
9.432,1.0,44.51944647152211
9.44,1.0,43.998659009802736
9.448,0.9999999999999999,43.47716135370476
9.456,1.0,42.95495869417319
9.464,0.9999999999999999,42.43205631258148
9.472,1.0,41.90845958058375
9.48,0.9999999999999999,41.38417395994274
9.488,1.0,40.85920500233662
9.496,1.0,40.33355834914105
9.504,0.9999999999999999,39.80723973118973
9.512,0.9999999999999999,39.280254968509894
9.52,1.0,38.75260997003578
9.528,0.9999999999999999,38.22431073329674
9.536,1.0,37.69536334408316
9.544,0.9999999999999998,37.16577397608641
9.552,1.0,36.63554889051663
9.56,1.0,36.10469443569411
9.568,1.0,35.573217046618225
9.576,0.9999999999999999,35.04112324450986
9.584,1.0,34.508419636331126
9.592,0.9999999999999999,33.975112914278405
9.6,1.0,33.441209855252495
9.608,1.0,32.906717320302064
9.616,0.9999999999999999,32.371642254044
9.624,1.0,31.8359916840569
9.632,1.0000000000000002,31.29977272025158
9.64,1.0,30.762992554214744
9.648,1.0,30.22565845852933
9.656,1.0,29.687777786068356
9.664,1.0,29.149357969265452
9.672,1.0,28.61040651935875
9.68,0.9999999999999999,28.070931025611817
9.688,1.0,27.530939154507877
9.696,1.0,26.990438648921444
9.704,1.0,26.44943732726318
9.712,1.0,25.90794308260248
9.72,0.9999999999999999,25.36596388176369
9.728,1.0,24.82350776439997
9.736,1.0,24.280582842041326
9.744,1.0,23.73719729712067
9.752,1.0,23.193359381974105
9.76,1.0,22.649077417819914
9.768,1.0,22.104359793712025
9.776,1.0,21.5592149654726
