freq,mag,phase
6.0,0.9999962104384793,98.88504641821217
6.008,0.9999968548210435,98.77212334894166
6.016,0.9999974824081241,98.65918151892059
6.024,0.9999980933331925,98.54622091728667
6.032,0.9999986877286462,98.43324153317691
6.04,0.9999992657258012,98.32024335572798
6.048,0.9999998274548813,98.20722637407647
6.056,1.0,98.09419057735937
6.064,0.9999999999999999,97.98113595471438
6.072,1.0000000000000002,97.86806249528026
6.08,0.9999999999999999,97.75497018819728
6.088,1.0,97.64185902260762
6.096,1.0,97.52872898765575
6.104,0.9999999999999999,97.41558007248892
6.112,0.9999999999999999,97.30241226625755
6.12,1.0,97.18922555811572
6.128,1.0,97.07601993722164
6.136,1.0,96.9627953927382
6.144,1.0,96.84955191383337
6.152,1.0000000000000002,96.73628948968086
6.16,1.0,96.62300810946057
6.168,1.0,96.50970776235924
6.176,0.9999999999999999,96.396388437571
6.184,1.0,96.28305012429801
6.192,1.0,96.16969281175106
6.2,1.0,96.05631648915033
6.208,1.0,95.942921145726
6.216,0.9999999999999999,95.82950677071901
6.224,1.0,95.7160733533818
6.232,1.0,95.60262088297917
6.24,0.9999999999999998,95.48914934878894
6.248,1.0,95.37565874010305
6.256,1.0,95.26214904622817
6.264,1.0,95.1486202564869
6.272,1.0,95.03507236021855
6.28,1.0,94.9215053467803
6.288,0.9999999999999998,94.80791920554817
6.296,1.0,94.69431392591821
6.304,0.9999999999999999,94.5806894973076
6.312,1.0,94.46704590915597
6.32,0.9999999999999999,94.35338315092658
6.328,1.0,94.23970121210776
6.336,0.9999999999999999,94.12600008221425
6.344,1.0,94.01227975078872
6.352,1.0,93.89854020740337
6.36,1.0,93.78478144166147
6.368,1.0,93.6710034431991
6.376,0.9999999999999999,93.55720620168701
6.384,1.0,93.44338970683252
6.392,1.0,93.3295539483814
6.4,1.0,93.21569891612013
6.408,1.0,93.10182459987793
6.416,0.9999999999999999,92.98793098952922
6.424,1.0,92.87401807499607
6.432,1.0,92.7600858462507
6.44,0.9999999999999999,92.64613429331824
6.448,0.9999999999999999,92.5321634062796
6.456,1.0,92.41817317527448
6.464,0.9999999999999999,92.30416359050457
6.472,1.0,92.19013464223696
6.48,1.0,92.07608632080759
6.4879999999999995,0.9999999999999999,91.96201861662512
6.496,1.0,91.84793152017481
6.504,1.0,91.73382502202276
6.5120000000000005,0.9999999999999999,91.61969911282031
6.52,1.0,91.50555378330883
6.5280000000000005,0.9999999999999999,91.39138902432441
6.536,1.0000000000000002,91.27720482680348
6.5440000000000005,1.0,91.16300118178802
6.552,0.9999999999999999,91.0487780804317
6.5600000000000005,1.0,90.93453551400583
6.568,0.9999999999999999,90.82027347390627
6.5760000000000005,1.0,90.70599195166014
6.584,1.0,90.59169093893337
6.592,1.0,90.47737042753852
6.6,0.9999999999999999,90.3630304094431
6.608,0.9999999999999999,90.24867087677839
6.616,0.9999999999999999,90.13429182184885
6.624,1.0000000000000002,90.019893237142
6.632,0.9999999999999998,89.90547511533904
6.64,0.9999999999999998,89.79103744932608
6.648,1.0,89.67658023220596
6.656,0.9999999999999999,89.56210345731101
6.664,1.0,89.4476071182164
6.672,1.0,89.3330912087545
6.68,1.0,89.2185557230301
6.688,1.0,89.1040006554365
6.696,1.0,88.98942600067275
6.704,0.9999999999999999,88.87483175376194
6.712,0.9999996491631385,88.76021791007064
6.72,0.9999991539105816,88.64558446532965
6.728,0.9999986469405306,88.53093141565594
6.736,0.9999981281679196,88.41625875757636
6.744,0.9999975975019361,88.30156648805233
6.752,0.999997054845908,88.18685460450669
6.76,0.9999965000971942,88.07212310485197
6.768,0.9999959331470794,87.95737198752056
6.776,0.9999953538806743,87.84260125149697
6.784,0.9999947621768253,87.72781089635198
6.792,0.9999941579080314,87.61300092227926
6.8,0.9999935409403725,87.49817133013427
6.808,0.9999929111334507,87.38332212147562
6.816,0.9999922683403479,87.26845329860937
6.824,0.9999916124075985,87.153564864636
6.832,0.9999909431751864,87.03865682350057
6.84,0.9999902604765631,86.92372918004611
6.848,0.9999895641386969,86.80878194007047
6.856,0.9999888539821508,86.69381511038694
6.864,0.9999881298212008,86.57882869888863
6.872,0.9999873914639944,86.46382271461714
6.88,0.9999866387127584,86.3487971678355
6.888,0.9999858713640606,86.2337520701058
6.896,0.9999850892091373,86.11868743437167
6.904,0.9999842920342873,86.00360327504593
6.912,0.9999834796213515,85.88849960810363
6.92,0.9999826517482806,85.77337645118062
6.928,0.9999818081898068,85.6582338236783
6.936,0.9999809487182312,85.54307174687423
6.944,0.9999800731043442,85.42789024403926
6.952,0.9999791811184913,85.31268934056132
6.96,0.9999782725318036,85.19746906407588
6.968,0.9999773471176185,85.0822294446032
6.976,0.999976404653101,84.96697051469287
6.984,0.9999754449211068,84.85169230957521
6.992,0.9999744677122966,84.73639486731958
7.0,0.9999734728275463,84.62107822899956
7.008,0.9999724600806792,84.5057424388648
7.016,0.9999714293015537,84.39038754451876
7.024,0.9999703803395573,84.27501359710206
7.032,0.9999693130675325,84.15962065148048
7.04,0.9999682273862036,84.04420876643665
7.048,0.9999671232291302,83.92877800486364
7.056,0.999966000568262,83.81332843395928
7.064,0.999964859420145,83.69786012541859
7.072,0.9999636998528355,83.58237315562167
7.08,0.9999625219935979,83.46686760581397
7.088,0.9999613260374437,83.35134356227498
7.096,0.9999601122565842,83.23580111647023
7.104,0.9999588810108729,83.12024036518159
7.112,0.9999576327592956,83.00466141060883
7.12,0.9999563680725853,82.88906436043499
7.128,0.9999550876470173,82.7734493278461
7.136,0.9999537923194481,82.65781643149565
7.144,0.9999524830836249,82.54216579540106
7.152,0.9999511611078102,82.42649754875897
7.16,0.999949827753706,82.3108118256641
7.168,0.9999484845966773,82.1951087647139
7.176,0.9999471334471873,82.07938850848097
7.184,0.999945776373356,81.96365120283082
7.192,0.9999444157244699,81.84789699606358
7.2,0.9999430541552137,81.73212603785436
7.208,0.9999416946503108,81.61633847796763
7.216,0.999940340549161,81.50053446471853
7.224,0.9999389955699634,81.38471414315558
7.232,0.9999376638326742,81.26887765293942
7.24,0.9999363498800261,81.15302512589484
7.248,0.9999350586956803,81.0371566832172
7.256,0.999933795718408,80.9212724323197
7.264,0.9999325668510982,80.80537246331792
7.272,0.999931378463142,80.68945684515545
7.28,0.9999302373846942,80.5735256213933
7.288,0.9999291508911604,80.45757880569676
7.296,0.9999281266762008,80.34161637707913
7.304,0.9999271728115365,80.22563827498197
7.312,0.9999262976919595,80.10964439429743
7.32,0.9999255099640849,79.99363458046858
7.328,0.9999248184377434,79.87760862482844
7.336,0.99992423197935,79.7615662603694
7.344,0.9999237593871814,79.64550715815649
7.352,0.99992340924928,79.52943092461777
7.36,0.999923189785588,79.4133370999529
7.368,0.9999231086769522,79.29722515790257
7.376,0.9999231728847178,79.18109450710108
7.384,0.9999233884657266,79.0649444942038
7.392,0.9999237603885727,78.94877440893076
7.4,0.9999242923578103,78.8325834910953
7.4079999999999995,0.9999249866533894,78.71637093960676
7.416,0.9999258439928327,78.60013592333394
7.4239999999999995,0.9999268634234408,78.4838775936147
7.432,0.9999280422511196,78.36759509809312
7.4399999999999995,0.9999293760111959,78.25128759546713
7.448,0.9999308584849548,78.13495427065698
7.4559999999999995,0.9999324817635704,78.01859434984625
7.464,0.9999342363588404,77.90220711483259
7.4719999999999995,0.9999361113577746,77.78579191613044
7.48,0.9999380946158902,77.66934818432892
7.4879999999999995,0.9999401729820261,77.55287543927912
7.496,0.9999423325461434,77.43637329680197
7.504,0.9999445589004564,77.31984147273107
7.5120000000000005,0.9999468374040881,77.20327978423819
7.52,0.9999491534416269,77.08668814852501
7.5280000000000005,0.9999514926668736,76.97006657907535
7.536,0.9999538412243495,76.85341517977025
7.5440000000000005,0.9999561859428134,76.73673413723141
7.552,0.9999585144967499,76.62002371180833
7.5600000000000005,0.9999608155337206,76.50328422763558
7.568,0.9999630787670785,76.38651606218333
7.5760000000000005,0.9999652950351617,76.26971963568394
7.584,0.9999674563292125,76.15289540077941
7.5920000000000005,0.9999695557932701,76.03604383266944
7.6,0.9999715876998838,75.91916541998438
7.6080000000000005,0.9999735474057688,75.80226065653781
7.616,0.9999754312916507,75.68533003406101
7.6240000000000006,0.9999772366903661,75.56837403596448
7.632,0.9999789618069642,75.45139313212975
7.640000000000001,0.9999806056342085,75.33438777469703
7.648,0.9999821678663408,75.21735839478951
7.656000000000001,0.9999836488135091,75.10030540009275
7.664,0.999985049318778,74.98322917320029
7.672,0.9999863706791774,74.86613007062664
7.68,0.9999876145718255,74.74900842239218
7.688,0.9999887829858193,74.63186453208465
7.696,0.9999898781602807,74.51469867730907
7.704,0.999990902528683,74.39751111044617
7.712,0.9999918586694083,74.28030205964619
7.72,0.9999927492623313,74.16307172999576
7.728,0.9999935770511059,74.04582030480344
7.736,0.9999943448107889,73.92854794695819
7.744,0.9999950553203414,73.81125480032343
7.752,0.9999957113395945,73.69394099113578
7.76,0.9999963155901902,73.57660662938468
7.768,0.9999968707400848,73.45925181015396
7.776,0.9999973793911674,73.34187661491177
7.784,0.9999978440696141,73.2244811127387
7.792,0.9999982672185995,73.10706536148746
7.8,0.9999986511930345,72.98962940887071
7.808,0.999998998256026,72.87217329347442
7.816,0.9999993105767897,72.75469704569768
7.824,0.9999995902297759,72.63720068861934
7.832,0.9999998391947962,72.51968423879455
7.84,1.0,72.40214770698324
7.848,1.0,72.28459109881501
7.856,1.0,72.1670144153932
7.864,1.0,72.04941765384257
7.872,0.9999999999999999,71.93180080780465
7.88,1.0,71.81416386788428
7.888,1.0,71.6965068220514
7.896,0.9999999999999999,71.57882965600182
7.904,0.9999999999999999,71.4611323534803
7.912,1.0,71.34341489656954
7.92,0.9999999999999999,71.22567726594785
7.928,1.0,71.10791944111857
7.936,0.9999999999999999,70.99014140061402
7.944,1.0,70.87234312217629
7.952,1.0,70.7545245829171
7.96,0.9999999999999999,70.63668575945923
7.968,1.0,70.51882662806067
7.976,0.9999999999999999,70.4009471647241
7.984,1.0,70.2830473452925
7.992,0.9999999999999999,70.1651271455329
8.0,1.0,70.04718654120927
8.008,1.0,69.9292255081455
8.016,1.0,69.81124402228025
8.024000000000001,0.9999999999999999,69.69324205971381
8.032,0.9999999999999999,69.57521959674827
8.04,1.0,69.45717660992169
8.048,1.0,69.33911307603677
8.056000000000001,0.9999998916891341,69.2210289721852
8.064,0.9999997762905887,69.10292427576726
8.072,0.9999996583994869,68.98479896450823
8.08,0.9999995383471652,68.8666530164712
8.088000000000001,0.9999994164458247,68.74848641006736
8.096,0.9999992929896598,68.63029912406354
8.104,0.9999991682559188,68.51209113758762
8.112,0.9999990425059007,68.39386243013203
8.120000000000001,0.9999989159858885,68.2756129815558
8.128,0.9999987889280312,68.1573427720848
8.136,0.9999986615511662,68.03905178231103
8.144,0.9999985340615942,67.92073999319064
8.152000000000001,0.9999984066538073,67.80240738604127
8.16,0.9999982795111697,67.68405394253845
8.168,0.999998152806561,67.56567964471128
8.176,0.9999980267029747,67.44728447493769
8.184000000000001,0.9999979013540846,67.32886841593924
8.192,0.9999977769047746,67.21043145077557
8.2,0.9999976534916367,67.09197356283829
8.208,0.9999975312434372,66.97349473584497
8.216000000000001,0.9999974102815571,66.85499495383287
8.224,0.9999972907204034,66.73647420115239
8.232,0.9999971726677965,66.61793246246049
8.24,0.9999970562253346,66.49936972271412
8.248000000000001,0.999996941488735,66.3807859671637
8.256,0.9999968285481554,66.2621811813465
8.264,0.9999967174884968,66.14355535107981
8.272,0.9999966083896864,66.02490846245472
8.280000000000001,0.9999965013269454,65.9062405018296
8.288,0.9999963963710403,65.7875514558237
8.296,0.9999962935885184,65.66884131131083
8.304,0.9999961930419311,65.55011005541328
8.312,0.9999960947900427,65.43135767549585
8.32,0.9999959988880276,65.31258415915975
8.328,0.999995905387656,65.19378949423701
8.336,0.9999958143374682,65.07497366878471
8.344,0.9999957257829406,64.95613667107952
8.352,0.9999956397666386,64.83727848961233
8.36,0.9999955563283648,64.71839911308305
8.368,0.9999954755052962,64.59949853039537
8.376,0.9999953973321138,64.48057673065206
8.384,0.999995321841127,64.3616337031499
8.392,0.9999952490623865,64.24266943737526
8.4,0.9999951790237958,64.12368392299936
8.408,0.9999951117512144,64.00467714987406
8.416,0.999995047268553,63.885649108027394
8.424,0.9999949855978686,63.766599787659686
8.432,0.9999949267594486,63.64752917913933
8.44,0.9999948707718944,63.52843727299911
8.448,0.9999948176521993,63.409324059932246
8.456,0.9999947674158206,63.29018953078899
8.464,0.9999947200767509,63.17103367657294
8.472,0.9999946756475825,63.05185648843778
8.48,0.9999946341395695,62.93265795768387
8.488,0.9999945955626879,62.81343807575523
8.496,0.9999945599256904,62.69419683423632
8.504,0.9999945272361597,62.574934224849194
8.512,0.9999944975005578,62.45565023945052
8.52,0.9999944707242748,62.336344870029
8.528,0.9999944469116728,62.21701810870247
8.536,0.999994426066129,62.09766994771555
8.544,0.9999944081900758,61.97830037943691
8.552,0.9999943932850404,61.85890939635713
8.56,0.9999943813516796,61.739496991086114
8.568,0.9999943723898165,61.62006315635107
8.576,0.9999943663984706,61.50060788499419
8.584,0.9999943633758918,61.381131169970615
8.592,0.999994363319589,61.26163300434643
8.6,0.9999943662263584,61.14211338129675
8.608,0.9999943720923101,61.022572294103675
8.616,0.9999943809128943,60.90300973615473
8.624,0.9999943926829251,60.78342570094083
8.632,0.9999944073966043,60.663820182054906
8.64,0.9999944250475434,60.5441931731899
8.648,0.9999944456287838,60.42454466813757
8.656,0.999994469132818,60.30487466078667
8.664,0.9999944955516082,60.185183145121684
8.672,0.9999945248766042,60.06547011522123
8.68,0.9999945570987622,59.945735565256925
8.688,0.9999945922085591,59.82597948949179
8.696,0.9999946301960114,59.706201882279274
8.704,0.9999946710506876,59.586402738061715
8.712,0.9999947147617242,59.46658205136948
8.72,0.9999947613178395,59.34673981681947
8.728,0.9999948107073463,59.22687602911441
8.736,0.9999948629181652,59.106990683041374
8.744,0.9999949179378365,58.987083773471156
8.752,0.9999949757535317,58.867155295356895
8.76,0.9999950363520651,58.74720524373346
8.768,0.999995099719904,58.627233613716264
8.776,0.9999951658431797,58.507240400500564
8.784,0.9999952347076962,58.387225599360455
8.792,0.9999953062989406,58.26718920564821
8.8,0.9999953806020926,58.1471312147932
8.808,0.9999954576020316,58.027051622301535
8.815999999999999,0.9999955372833462,57.90695042375491
8.824,0.999995619630343,57.78682761481003
8.832,0.9999957046270528,57.66668319119813
8.84,0.9999957922572388,57.546517148724
8.847999999999999,0.9999958825044043,57.426329483265505
8.856,0.999995975351799,57.30612019077284
8.864,0.9999960707824253,57.18588926726813
8.872,0.9999961687790464,57.06563670884472
8.879999999999999,0.9999962693241905,56.94536251166655
8.888,0.9999963724001588,56.82506667196773
8.896,0.9999964779890299,56.70474918605205
8.904,0.9999965860726658,56.584410050292384
8.911999999999999,0.9999966966327175,56.46404926113023
8.92,0.999996809650631,56.34366681507518
8.928,0.9999969251076506,56.22326270870474
8.936,0.9999970429848254,56.10283693866356
8.943999999999999,0.9999971632630137,55.98238950166321
8.952,0.9999972859228882,55.861920394481686
8.96,0.9999974109449389,55.74142961396314
8.968,0.9999975383094795,55.620917157017445
8.975999999999999,0.9999976679966497,55.50038302061977
8.984,0.9999977999864215,55.37982720181026
8.992,0.999997934258602,55.25924969769383
9.0,0.9999980707928368,55.13865050543975
9.008,0.9999982095686148,55.01802962228123
9.016,0.9999983505652723,54.89738704551529
9.024000000000001,0.9999984937619955,54.77672277250244
9.032,0.9999986391378246,54.65603680066635
9.04,0.9999987866716575,54.5353291274936
9.048,0.999998936342253,54.41459975053342
9.056000000000001,0.999999088128234,54.29384866739749
9.064,0.9999992420080909,54.17307587575973
9.072,0.9999993979601851,54.05228137335591
9.08,0.9999995559627507,53.93146515798356
9.088000000000001,0.9999997159939004,53.810627227501826
9.096,0.999999878031625,53.68976757983113
9.104,1.0,53.56888621295301
9.112,0.9999999999999999,53.447983124909975
9.120000000000001,1.0,53.327058313805324
9.128,1.0,53.20611177780297
9.136,0.9999999999999998,53.085143515127236
9.144,1.0,52.96415352406272
9.152000000000001,1.0,52.8431418029542
9.16,1.0,52.722108350206476
9.168,1.0,52.60105316428408
9.176,0.9999999999999999,52.47997624371135
9.184000000000001,1.0,52.35887758707223
9.192,0.9999999999999999,52.237757193010154
9.2,0.9999999999999999,52.11661506022788
9.208,1.0,51.99545118748737
9.216000000000001,1.0,51.87426557360986
9.224,1.0,51.75305821747559
9.232,1.0,51.631829118023745
9.24,1.0,51.51057827425231
9.248000000000001,1.0,51.38930568521816
9.256,1.0,51.26801135003687
9.264,0.9999999999999999,51.146695267882585
9.272,0.9999999999999999,51.02535743798798
9.280000000000001,1.0,50.90399785964428
9.288,1.0,50.78261653220113
9.296,0.9999999999999999,50.661213455066495
9.304,1.0,50.53978862770663
9.312000000000001,1.0,50.41834204964608
9.32,0.9999999999999999,50.296873720467595
9.328,1.0,50.175383639812026
9.336,1.0,50.05387180737832
9.344,1.0,49.93233822292358
9.352,0.9999999999999999,49.81078288626282
9.36,0.9999999999999999,49.68920579726915
9.368,1.0,49.56760695587355
9.376,1.0,49.44598636206502
9.384,1.0,49.32434401589034
9.392,1.0,49.202679917454326
9.4,1.0000000000000002,49.08099406691947
9.408,0.9999999999999999,48.95928646450629
9.416,1.0,48.837557110492966
9.424,1.0,48.715806005215576
9.432,1.0,48.59403314906791
9.44,0.9999999999999999,48.47223854250164
9.448,1.0,48.35042218602613
9.456,1.0,48.228584080208535
9.464,0.9999999999999999,48.10672422567376
9.472,0.9999999999999998,47.98484262310453
9.48,1.0,47.86293927324118
9.488,1.0,47.74101417688198
9.496,0.9999999999999999,47.61906733488283
9.504,0.9999999999999999,47.497098748157455
9.512,1.0,47.3751084176773
9.52,0.9999999999999999,47.25309634447168
9.528,1.0,47.131062529627535
9.536,0.9999999999999999,47.009006974289775
9.544,1.0,46.88692967966098
9.552,0.9999999999999999,46.76483064700163
9.56,1.0,46.64270987763
9.568,1.0,46.52056737292221
9.576,1.0,46.39840313431225
9.584,0.9999999999999999,46.27621716329201
9.592,0.9999999999999999,46.154009461411235
9.6,0.9999999999999999,46.03178003027766
9.608,1.0,45.90952887155685
9.616,0.9999999999999999,45.78725598697247
9.624,1.0,45.66496137830603
9.632,0.9999999999999999,45.54264504739719
9.64,1.0,45.420306996143495
9.648,1.0,45.29794722650066
9.656,0.9999999999999999,45.17556574048247
9.664,1.0,45.053162540160805
9.672,0.9999999999999999,44.93073762766563
9.68,0.9999999999999999,44.808291005185204
9.688,0.9999999999999999,44.68582267496588
9.696,1.0,44.5633326393123
9.704,1.0,44.44082090058732
9.712,1.0,44.31828746121217
9.72,1.0,44.19573232366629
9.728,0.9999999999999999,44.07315549048761
9.736,0.9999999999999998,43.95055696427234
9.744,1.0,43.8279367476752
9.752,0.9999999999999999,43.70529484340929
9.76,1.0,43.58263125424634
9.768,1.0,43.45994598301641
9.776,0.9999999999999999,43.33723903260834
9.784,1.0,43.21451040596944
9.792,1.0,43.09176010610573
9.8,0.9999999999999999,42.968988136081876
9.808,0.9999999999999999,42.84619449902132
9.816,1.0,42.723379198106144
9.824,0.9999999999999999,42.600542236577375
9.832,1.0,42.477683617734755
9.84,0.9999999999999999,42.35480334493701
9.847999999999999,1.0,42.231901421601684
9.856,1.0,42.108977851205296
9.864,0.9999999999999999,41.9860326372834
9.872,0.9999999999999999,41.86306578343064
9.879999999999999,0.9999999999999999,41.74007729330061
9.888,0.9999999999999999,41.61706717060607
9.896,0.9999999999999999,41.49403541911898
9.904,0.9999999999999999,41.37098204267052
9.911999999999999,0.9999999999999999,41.247907045151045
9.92,1.0,41.1248104305102
9.928,1.0,41.00169220275703
9.936,1.0000000000000002,40.87855236595993
9.943999999999999,1.0,40.75539092424668
9.952,0.9999999999999999,40.63220788180451
9.96,1.0,40.50900324288022
9.968,1.0,40.385777011780114
9.975999999999999,1.0,40.26252919287008
9.984,1.0,40.13925979057561
