freq,mag,phase
6.0,0.9999800026286618,-173.4219296244317
6.002286592,0.999991270163783,-173.57408748412465
6.004572672,1.000003419116086,-173.72636301868977
6.006859264,1.0000158684290201,-173.87878799569543
6.009145344,1.0000278681877415,-174.03132610802376
6.011431936,1.0000386073582528,-174.18397209133684
6.013718016,1.00004735501204,-174.33674352022857
6.016004608,1.0000536601857937,-174.48956517585643
6.018290688,1.0000571099034499,-174.64244000554785
6.02057728,1.0000574767808519,-174.795254734085
6.022863872,1.000054659773001,-174.94803324846927
6.025149952,1.0000488713427982,-175.10071275584878
6.027436544,1.0000405161836181,-175.2532133108985
6.029722624,1.000030072421586,-175.4055621830482
6.032009216,1.0000182117946517,-175.5576912721827
6.034295296,1.0000056852226555,-175.70959880695844
6.036581888,0.9999932800878153,-175.8613006782389
6.03886848,0.9999818235632083,-176.01273284240875
6.04115456,0.9999718955792551,-176.16398087428715
6.043441152,0.9999643623500333,-176.3151018989671
6.045727232,0.9999595026961912,-176.46604239844268
6.048013824,0.9999578024139764,-176.61688583784132
6.050299904,0.999959168453667,-176.76771260511464
6.052586496,0.9999636097366121,-176.91851042253825
6.054872576,0.9999710684399823,-177.06933927191707
6.057159168,0.9999805985045137,-177.2202641434399
6.05944576,0.9999919680355636,-177.37129346939446
6.06173184,1.000004408707974,-177.52243726803172
6.064018432,1.0000170265141892,-177.67371769053088
6.066304512,1.0000289974786034,-177.82514796394287
6.068591104,1.000039706379742,-177.97669738800215
6.070877184,1.000048479760649,-178.12832316021496
6.073163776,1.000054785666542,-178.28003898933423
6.075450368,1.0000579079203398,-178.43175036802114
6.077736448,1.0000578479866993,-178.5834555416804
6.08002304,1.0000547560186344,-178.73507502178293
6.08230912,1.0000486756773543,-178.88662358749357
6.084595712,1.0000399316244273,-179.03797953025884
6.086881792,1.0000291538157953,-179.1891414334393
6.089168384,1.000017031755972,-179.3401058207217
6.091454464,1.0000042584897428,-179.49084114963458
6.093741056,0.9999918175988972,-179.64133036364808
6.096027648,0.9999803268630505,-179.7916347179045
6.098313728,0.9999705361720924,-179.9417200972549
6.10060032,0.9999630729285427,179.9083427480494
6.1028864,0.999958449255917,179.75860631511358
6.105172992,0.9999569570649867,179.60889070011433
6.107459072,0.9999587059215227,179.45923722555057
6.109745664,0.9999635149738278,179.30961557190622
6.112032256,0.9999711030218266,179.15994351144585
6.114318336,0.9999810770471155,179.0101640918863
6.116604928,0.9999927951640224,178.8602802489965
6.118891008,1.000005441640342,178.7102805895584
6.1211776,1.0000182076252666,178.56014239948522
6.12346368,1.0000303998011288,178.40985877369593
6.125750272,1.0000410804953275,178.2594357299863
6.128036352,1.000049678295751,178.1089655766538
6.130322944,1.0000556332575774,177.95839862339994
6.132609536,1.0000586018922928,177.8078207106537
6.134895616,1.0000583164972874,177.65727260833867
6.137182208,1.000054827898949,177.50683675588036
6.139468288,1.0000483545402357,177.35644270172588
6.14175488,1.0000392930496844,177.20624624893318
6.14404096,1.0000282509657528,177.0562695089717
6.146327552,1.0000157484143992,176.90649666380116
6.148614144,1.0000028238751983,176.75693420090036
6.150900224,0.9999902368852308,176.60762678311903
6.153186816,0.9999787397433018,176.45850812111533
6.155472896,0.9999690167213089,176.3096365717044
6.157759488,0.9999617056908219,176.1608974837619
6.160045568,0.9999573639272628,176.01230906236492
6.16233216,0.9999561596222855,175.86381676869442
6.16461824,0.9999582198313405,175.71535952748803
6.166904832,0.9999633463387673,175.56685986232497
6.169191424,0.9999713226959802,175.4183488148616
6.171477504,0.9999816554927596,175.26975534550974
6.173764096,0.9999936821160397,175.1210500790186
6.176050176,1.0000065972548953,174.97218278661356
6.178336768,1.0000194588822977,174.8231950144359
6.180622848,1.000031678630737,174.67405292565684
6.18290944,1.0000423178282496,174.5248280068971
6.18519552,1.0000508980582474,174.37549004283218
6.187482112,1.0000565539418929,174.22609506723862
6.189768704,1.0000592782419095,174.07668229352396
6.192054784,1.0000586684805401,173.92730616242054
6.194341376,1.000054838627155,173.77799625138726
6.196627456,1.0000480149781612,173.62884481346788
6.198914048,1.000038576108135,173.47982934565567
6.201200128,1.0000271843154895,173.33102572467817
6.20348672,1.0000145191175185,173.18243778828074
6.205773312,1.0000014254237868,173.03410449679203
6.208059392,0.9999888156028905,172.88597594370194
6.210345984,0.9999772143910447,172.73807303482099
6.212632064,0.9999676252027274,172.59036333315638
6.214918656,0.999960455958975,172.44284100532073
6.217204736,0.9999562225709525,172.2954551971829
6.219491328,0.9999554155320765,172.14814474732307
6.221777408,0.999957818687509,172.00087146130267
6.224064,0.9999633576123018,171.85361537586186
6.226350592,0.9999717411840473,171.70625369497856
6.228636672,0.9999824310630548,171.55883724856116
6.230923264,0.9999946443273736,171.41127721460566
6.233209344,1.000007748165219,171.26361419847245
6.235495936,1.0000208371411141,171.11578667349104
6.237782016,1.0000331459264433,170.9678383527515
6.240068608,1.0000437455681719,170.8197392652765
6.2423552,1.000052060796692,170.67159020879726
6.24464128,1.0000576824156997,170.52334538480025
6.246927872,1.0000599621281312,170.3751035531491
6.249213952,1.0000590998515475,170.22689626295912
6.251500544,1.0000547627633178,170.07880883711513
6.253786624,1.0000476127761562,169.93081529079834
6.256073216,1.0000379304083928,169.78301270694584
6.258359296,1.0000261669136556,169.63540137466615
6.260645888,1.000013238286968,169.48800677409486
6.26293248,1.0000000641171807,169.34085241870994
6.26521856,0.9999871582725941,169.19395537564415
6.267505152,0.9999756223946391,169.04728391866558
6.269791232,0.9999660173116854,168.90080692337105
6.272077824,0.9999591487610233,168.75447717486898
6.274363904,0.999955245339758,168.60829343204423
6.276650496,0.9999547159824199,168.46218698286566
6.278937088,0.9999575160106253,168.31610040373593
6.281223168,0.9999634491509662,168.17002053910713
6.28350976,0.9999721258784822,168.02390468484634
6.28579584,0.9999831119811071,167.87762630748495
6.288082432,0.9999957113770322,167.7312621565299
6.290368512,1.0000090027946331,167.58475301566276
6.292655104,1.0000222138300554,167.43811349443982
6.294941184,1.000034490977731,167.2913155947897
6.297227776,1.0000450441993716,167.14439287594726
6.299514368,1.0000532783376235,166.99741963448426
6.301800448,1.0000587043925517,166.850350421867
6.30408704,1.0000606677283397,166.70331522830233
6.30637312,1.0000594279679176,166.5562923501607
6.308659712,1.0000548056554133,166.409379705295
6.310945792,1.000047252799693,166.2625804936322
6.313232384,1.0000371624909066,166.11596859741925
6.315518464,1.0000251312374082,165.96956844151686
6.317805056,1.000011859960506,165.8233940586196
6.320091648,0.9999984144016391,165.67747408824505
6.322377728,0.9999855609616244,165.53176644033374
6.32466432,0.999974099997027,165.38630487417657
6.3269504,0.9999646032570677,165.2410513928062
6.329236992,0.9999579101036999,165.09593874129493
6.331523072,0.9999542198738285,164.95098648342147
6.333809664,0.9999539060031097,164.80605957927997
6.336096256,0.9999571398331305,164.66117371017484
6.338382336,0.9999634529244888,164.51629733387585
6.340668928,0.9999726301999033,164.3713352294782
6.342955008,0.9999839212865406,164.22627893727358
6.3452416,0.9999967247277324,164.08111486571812
6.34752768,1.0000103127309385,163.93576830913366
6.349814272,1.00002364964018,163.79028859977916
6.352100352,1.0000359816994266,163.64469197410446
6.354386944,1.0000464569310819,163.4989284959418
6.356673536,1.0000545488203574,163.35311354668414
6.358959616,1.0000595797613978,163.20723330302914
6.361246208,1.0000614009784083,163.061373759118
6.363532288,1.0000596419205865,162.9155546652475
6.36581888,1.0000547077274515,162.7698129800925
6.36810496,1.0000467955747203,162.62423417832534
6.370391552,1.0000362337956121,162.47882055905436
6.372678144,1.0000238869957323,162.3336130895638
6.374964224,1.0000105485995223,162.188664629352
6.377250816,0.9999969532749579,162.04394861428585
6.379536896,0.9999837695673225,161.89948429811244
6.381823488,0.999972366164987,161.75523449734354
6.384109568,0.9999631291618207,161.6111925702114
6.38639616,0.9999564945296431,161.46730080781984
6.38868224,0.9999532464230539,161.32351911864558
6.390968832,0.9999532959026968,161.17983938716506
6.393255424,0.9999568257396273,161.03615584817382
6.395541504,0.9999635796988727,160.8924802664381
6.397828096,0.9999730352489354,160.74871225405877
6.400114176,0.9999848705203848,160.60483447359712
6.402400768,0.9999977846334677,160.4608347977281
6.404686848,1.0000115374753678,160.31669302758627
6.40697344,1.0000251277245624,160.17236939397213
6.409260032,1.000037459626378,160.02793952281678
6.411546112,1.0000478404447752,159.8833834830691
6.413832704,1.0000557349306374,159.738726058382
6.416118784,1.0000605086090157,159.5940552791679
6.418405376,1.0000620134728295,159.44935288284714
6.420691456,1.0000599187195036,159.30470601108487
6.422978048,1.0000545914221775,159.16018063198194
6.425264128,1.000046193212759,159.01577649747713
6.42755072,1.0000352791351095,158.87157722492717
6.429837312,1.0000226970371686,158.7275838386203
6.432123392,1.0000090235087784,158.58384679732632
6.434409984,0.9999951869657916,158.44035530079157
6.436696064,0.9999822061194616,158.29709559491732
6.438982656,0.999970703341816,158.1540747935947
6.441268736,0.9999614358058588,158.0112445902586
6.443555328,0.99995532355038,157.86856255803963
6.44584192,0.99995217431579,157.7259992713624
6.448128,0.9999527009177088,157.58350767607692
6.450414592,0.999956678053613,157.44106482933321
6.452700672,0.9999637307315052,157.29856253166486
6.454987264,0.9999737454776848,157.15596493840923
6.457273344,0.9999857139426898,157.01327915762414
6.459559936,0.9999991965412948,156.87044396762985
6.461846016,1.0000131014617026,156.72746892284448
6.464132608,1.0000265839906803,156.58433004318235
6.4664192,1.0000389359173425,156.44104528401422
6.46870528,1.0000494179214514,156.29766131987824
6.470991872,1.0000570276600502,156.15420673860132
6.473277952,1.0000615567124724,156.01069067136115
6.475564544,1.0000625747217136,155.8671669895702
6.477850624,1.000060250080149,155.72372001738142
6.480137216,1.0000543856874797,155.58038755220028
6.482423296,1.000045607808719,155.4371689457577
6.484709888,1.0000344537160455,155.29418937867806
6.48699648,1.0000213013768586,155.15138817854222
6.48928256,1.0000073976111252,155.00888230415222
6.491569152,0.9999935365278002,154.86659297603532
6.493855232,0.9999804316212398,154.72454129634448
6.496141824,0.9999690182005524,154.58274546672956
6.498427904,0.9999599163226965,154.44111913825358
6.500714496,0.9999539571735142,154.299663217244
6.503001088,0.9999512039998588,154.1582818809633
6.505287168,0.9999520955498,154.01702424364873
6.50757376,0.999956487261338,153.87572761372513
6.50985984,0.9999641051605006,153.734401864895
6.512146432,0.9999744188927031,153.59302468131764
6.514432512,0.9999867817296976,153.4515031944309
6.516719104,1.0000003721403452,153.30985716966194
6.519005184,1.0000145848251338,153.1680280693179
6.521291776,1.0000281826418658,153.0260819862978
6.523578368,1.000040537274619,152.88396245867776
6.525864448,1.0000507667251273,152.7417239765358
6.52815104,1.0000582460290208,152.59942074004974
6.53043712,1.0000624968623035,152.45707466291762
6.532723712,1.0000632151870286,152.3147320217089
6.535009792,1.000060380168354,152.1724438678982
6.537296384,1.0000540401920293,152.03029648787708
6.539582976,1.000044909780194,151.88828864446387
6.541869056,1.0000332826075946,151.74648603026782
6.544155648,1.0000199524977278,151.60492183467608
6.546441728,1.0000057593390177,151.46360994421914
6.54872832,0.9999916035682137,151.32250831621653
6.5510144,0.9999785805685262,151.18169048413088
6.553300992,0.9999672452265544,151.0410948212261
6.555587072,0.9999584320460373,150.9006744607036
6.557873664,0.999952605107871,150.76042175027212
6.560160256,0.9999503487942278,150.62026846849128
6.562446336,0.9999515427785542,150.4801568415494
6.564732928,0.9999563885340026,150.34008047352378
6.567019008,0.9999644249923062,150.199934557421
6.5693056,0.9999750397312932,150.05972667969104
6.57159168,0.9999877918817903,149.919365228214
6.573878272,1.0000017918085615,149.77885153195882
6.576164864,1.0000160744039939,149.6381937823144
6.578450944,1.0000298606968905,149.49738811479216
6.580737536,1.0000421901021324,149.3564478493831
6.583023616,1.0000521814359458,149.21538457144612
6.585310208,1.000059391139731,149.07422047270552
6.587596288,1.0000634209095427,148.93303898538508
6.58988288,1.0000637403514563,148.7918553455704
6.59216896,1.0000604289031974,148.6507778452032
6.594455552,1.0000537074152107,148.50980831365192
6.596742144,1.0000441710027568,148.36896594621032
6.599028224,1.0000321334639544,148.22836084259848
6.601314816,1.0000185303758695,148.0879732752867
6.603600896,1.0000041415223555,147.94786296050842
6.605887488,0.999989969848591,147.80798548779507
6.608173568,0.9999768262873446,147.66833423834535
6.61046016,0.9999655183386684,147.52893527141373
6.612746752,0.9999568307594798,147.38970901579978
6.615032832,0.9999513180243648,147.25064856984343
6.617319424,0.9999493913565116,147.1116972514454
6.619605504,0.9999510369048416,146.97277426934608
6.621892096,0.9999563814897632,146.8338688593495
6.624178176,0.9999648506560087,146.69489482088204
6.626464768,0.9999758732975278,146.55583478831667
6.628750848,0.9999889627644382,146.4166331819468
6.63103744,1.0000032116049087,146.27728339218538
6.633324032,1.000017812548273,146.13778210601808
6.635610112,1.0000315302856058,145.99811310872573
6.637896704,1.0000438212377538,145.85829863556432
6.640182784,1.0000538044891585,145.71837651398488
6.642469376,1.0000608411968535,145.57838141006005
6.644755456,1.0000644588368315,145.43832125338207
6.647042048,1.0000643452613887,145.29832227633906
6.649328128,1.000060609819566,145.15837841999607
6.65161472,1.0000534558230965,145.01858328377332
6.653901312,1.0000433641904758,144.87888794493833
6.656187392,1.0000310527883842,144.73949141335478
6.658473984,1.0000169848287663,144.60028666681572
6.660760064,1.0000024175955795,144.46131622086648
6.663046656,0.999988106978,144.32267444419983
6.665332736,0.9999749174860922,144.18421280388793
6.667619328,0.999963660645917,144.0460162694934
6.66990592,0.9999552998867959,143.90796588603143
6.672192,0.9999501531618994,143.7700761809523
6.674478592,0.9999485155808252,143.63230585714
6.676764672,0.9999506586860868,143.4945530014688
6.679051264,0.9999563755382037,143.35678837162226
6.681337344,0.999965332577071,143.21896418243497
6.683623936,0.9999767986746708,143.0810577199499
6.685910016,0.9999902145557236,142.94302745696044
6.688196608,1.000004921594558,142.80482264472232
6.6904832,1.000019476944429,142.6664348341302
6.69276928,1.0000333853466725,142.52789632402826
6.695055872,1.0000455941694495,142.38920183642122
6.697341952,1.0000554149566265,142.25041344581237
6.699628544,1.0000620809298646,142.11154221713142
6.701914624,1.000065317530458,141.9726512728292
6.704201216,1.0000648360889377,141.83378171245795
6.706487808,1.0000606336586326,141.69501383650888
6.708773888,1.0000531050674153,141.55631585969175
6.71106048,1.000042543486339,141.4178610258583
6.71334656,1.0000297571851635,141.27957638559707
6.715633152,1.0000154181039658,141.1415360850454
6.717919232,1.0000006556001484,141.00377054244763
6.720205824,0.999986218560112,140.86626689509015
6.722491904,0.9999730591658677,140.72898242057175
6.724778496,0.9999620493625841,140.5919724747627
6.727065088,0.9999537233605438,140.45509576905695
6.729351168,0.9999489885773241,140.3183743737891
6.73163776,0.9999476272366534,140.18176393927547
6.73392384,0.9999503785664848,140.045149739218
6.736210432,0.9999564008587879,139.90856348896747
6.738496512,0.9999657429174901,139.77189645230817
6.740783104,0.9999778041257245,139.6351060212437
6.743069696,0.9999915265289449,139.49818042249592
6.745355776,1.0000063261140673,139.3611125050283
6.747642368,1.0000212544877036,139.22384065031832
6.749928448,1.0000351814560304,139.08641970898168
6.75221504,1.0000473750203949,138.9488562990719
6.75450112,1.0000569057730748,138.8111694782881
6.756787712,1.0000633102512342,138.67341961270307
6.759073792,1.0000661126276582,138.53562568472637
6.761360384,1.0000652652602666,138.39789686240823
6.763646976,1.000060610945429,138.26025067601452
6.765933056,1.0000525219488732,138.12273192835124
6.768219648,1.0000415667343006,137.98537776995238
6.770505728,1.00002834091978,137.84826426058612
6.77279232,1.000013752385856,137.7114016438354
6.7750784,0.9999987323045414,137.57477885143086
6.777364992,0.9999841285726557,137.4384411332162
6.779651584,0.9999710575296611,137.302346568949
6.781937664,0.999960140283881,137.1664597743042
6.784224256,0.9999522099819013,137.03073803898147
6.786510336,0.9999475506140842,136.8951981538253
6.788796928,0.9999469633778459,136.75972568112715
6.791083008,0.999949903242089,136.62425957478584
6.7933696,0.9999565680439505,136.488773641694
6.79565568,0.9999664407468978,136.35323552423228
6.797942272,0.9999787766830818,136.21755248427155
6.800228864,0.9999929722674836,136.0817568439797
6.802514944,1.0000080467259727,135.9457601866277
6.804801536,1.0000230234252823,135.80960157032914
6.807087616,1.00003699367391,135.6732711636127
6.809374208,1.000049014983683,135.53679970492658
6.811660288,1.0000584786549604,135.40023176197542
6.81394688,1.0000644309336981,135.26360682094375
6.81623296,1.000067005336752,135.1269154082987
6.818519552,1.0000656620138078,134.99029782380254
6.820806144,1.0000604772421051,134.85372754904307
6.823092224,1.0000519791436757,134.7173641724117
6.825378816,1.0000404440282507,134.58115015212113
6.827664896,1.0000268491995135,134.4451757969159
6.829951488,1.0000119659851627,134.30943764277637
6.832237568,0.9999968069308863,134.17398115538776
6.83452416,0.9999821082320476,134.03876273868426
6.836810752,0.9999690120921488,133.90380726908813
6.839096832,0.9999583054891567,133.76906493409683
6.841383424,0.9999506853117012,133.6345200343964
6.843669504,0.9999465471376189,133.50008431926975
6.845956096,0.9999461542629748,133.36571058517382
6.848242176,0.9999497874068142,133.2314121922031
6.850528768,0.9999568093965465,133.0970366014234
6.852814848,0.999967195160653,132.9625722906563
6.85510144,0.9999798980279646,132.82802483266974
6.857388032,0.9999943999093096,132.69330620124546
6.859674112,1.0000097805541592,132.55837783504631
6.861960704,1.0000248743394864,132.42330638298765
6.864246784,1.0000389172861415,132.28806710918457
6.866533376,1.000050787601756,132.15266284172245
6.868819456,1.0000599706400903,132.01717014661398
6.871106048,1.0000657767550358,131.88161401012124
6.87339264,1.0000677501842703,131.74603432642428
6.87567872,1.0000659529604106,131.6104942888446
6.877965312,1.0000602527029985,131.47507099055068
6.880251392,1.0000512972246622,131.33977419406756
6.882537984,1.0000393965520828,131.20468534350607
6.884824064,1.000025371666399,131.0698009885713
6.887110656,1.0000101827335335,130.93521069073842
6.889396736,0.9999947285793177,130.800876014368
6.891683328,0.999980063936316,130.66680567953105
6.89396992,0.9999669781929752,130.53295450867873
6.896256,0.9999563618149411,130.39933148433255
6.898542592,0.9999489984644603,130.2659019513274
6.900828672,0.9999452307997356,130.13259071690732
6.903115264,0.9999454447501268,129.9993302019355
6.905401344,0.9999493973089654,129.86611035845053
6.907687936,0.999957093642758,129.73282045406964
6.909974528,0.9999679152583562,129.59948212780307
6.912260608,0.9999812161564143,129.46598068608483
6.9145472,0.9999959682333596,129.33233471437563
6.91683328,1.0000116328502011,129.19849957448338
6.919119872,1.0000269295152076,129.06446957697935
6.921405952,1.0000409461444444,128.9302915740624
6.923692544,1.000052714719476,128.7959703254286
