freq,mag,phase
6.0,0.9999911101731985,-136.69502200650777
6.008,0.999991636926448,-137.13561770255833
6.016,0.999992169380167,-137.57605951261513
6.024,0.9999927072528713,-138.01634739285632
6.032,0.9999932502665058,-138.45648131313567
6.04,0.9999937981464416,-138.89646125689666
6.048,0.9999943506214747,-139.33628722108557
6.056,0.9999949074238235,-139.77595921606454
6.064,0.9999954682891213,-140.2154772655241
6.072,0.9999960329564185,-140.6548414063954
6.08,0.9999966011681721,-141.0940516887616
6.088,0.9999971726702455,-141.53310817576954
6.096,0.9999977472118995,-141.97201094354062
6.104,0.9999983245457883,-142.41076008108163
6.112,0.9999989044279536,-142.84935569019464
6.12,0.9999994866178181,-143.28779788538762
6.128,0.9999999999999999,-143.7260867937837
6.136,1.0,-144.16422255503093
6.144,1.0,-144.6022053212112
6.152,1.0,-145.0400352567493
6.16,0.9999999999999999,-145.47771253832158
6.168,1.0,-145.91523735476443
6.176,1.0,-146.35260990698234
6.184,0.9999999999999999,-146.78983040785621
6.192,1.0,-147.22689908215088
6.2,1.0,-147.663816166423
6.208,1.0,-148.10058190892852
6.216,0.9999999999999999,-148.53719656952993
6.224,1.0000000000000002,-148.97366041960333
6.232,1.0,-149.4099737419461
6.24,1.0,-149.8461368306831
6.248,1.0,-150.28214999117407
6.256,1.0,-150.71801353992007
6.264,0.9999999999999998,-151.15372780447044
6.272,1.0,-151.5892931233292
6.28,0.9999999999999999,-152.0247098458617
6.288,0.9999999999999999,-152.45997833220113
6.296,0.9999999999999999,-152.895098953155
6.304,1.0,-153.33007209011166
6.312,1.0,-153.76489813494643
6.32,1.0,-154.1995774899285
6.328,1.0,-154.63411056762686
6.336,1.0,-155.06849779081733
6.344,1.0,-155.50273959238837
6.352,0.9999999999999999,-155.93683641524828
6.36,0.9999999999999998,-156.37078871223113
6.368,1.0,-156.8045969460038
6.376,0.9999999999999999,-157.23826158897253
6.384,1.0,-157.67178312318953
6.392,1.0,-158.10516204025998
6.4,0.9999999999999999,-158.53839884124883
6.408,1.0,-158.97149403658798
6.416,0.9999999999999999,-159.4044481459832
6.424,1.0,-159.8372616983214
6.432,0.9999999999999999,-160.26993523157805
6.44,0.9999999999999999,-160.7024692927248
6.448,0.9999999999999999,-161.13486443763668
6.456,0.9999999999999999,-161.56712123100044
6.464,1.0,-161.99924024622194
6.472,1.0,-162.43122206533462
6.48,0.9999999999999999,-162.86306727890752
6.4879999999999995,1.0,-163.29477648595378
6.496,1.0,-163.72635029383946
6.504,1.0,-164.1577893181918
6.5120000000000005,0.9999999999999999,-164.58909418280894
6.52,1.0,-165.0202655195683
6.5280000000000005,0.9999999999999999,-165.45130396833687
6.536,0.9999999999999999,-165.8822101768799
6.5440000000000005,0.9999999999999999,-166.31298480077163
6.552,1.0,-166.74362850330445
6.5600000000000005,0.9999999999999999,-167.17414195540007
6.568,1.0,-167.6045258355193
6.5760000000000005,0.9999999999999998,-168.03478082957338
6.584,1.0,-168.46490763083452
6.592,1.0,-168.89490693984763
6.6,1.0,-169.32477946434147
6.608,1.0,-169.75452591914058
6.616,1.0,-170.1841470260774
6.624,0.9999999999999998,-170.6136435139044
6.632,0.9999999999999999,-171.04301611820688
6.64,1.0,-171.47226558131572
6.648,0.9999999999999999,-171.9013926522206
6.656,1.0,-172.33039808648343
6.664,0.9999999999999999,-172.75928264615203
6.672,1.0,-173.18804709967426
6.68,0.9999999999999999,-173.61669222181231
6.688,1.0,-174.0452187935574
6.696,1.0,-174.47362760204456
6.704,1.0,-174.90191944046805
6.712,0.9999999999999999,-175.33009510799684
6.72,0.9999999999999999,-175.75815540969052
6.728,1.0,-176.18610115641553
6.736,1.0,-176.61393316476162
6.744,0.9999999999999999,-177.0416522569587
6.752,1.0,-177.46925926079405
6.76,1.0,-177.89675500952984
6.768,1.0,-178.32414034182088
6.776,0.9999999999999999,-178.75141610163286
6.784,0.9999999999999999,-179.1785831381608
6.792,1.0,-179.60564230574795
6.8,1.0,179.96740553619503
6.808,1.0,179.54055952327062
6.816,0.9999999999999999,179.11381878617448
6.824,0.9999999999999999,178.68718245077534
6.832,1.0,178.2606496381943
6.84,0.9999999999999999,177.83421946488406
6.848,0.9999999999999998,177.40789104270758
6.856,1.0,176.98166347901648
6.864,0.9999999999999998,176.55553587672907
6.872,1.0,176.12950733440806
6.88,1.0,175.7035769463379
6.888,0.9999999999999999,175.27774380260163
6.896,1.0,174.85200698915776
6.904,1.0,174.42636558791617
6.912,0.9999999999999999,174.0008186768143
6.92,1.0,173.57536532989255
6.928,1.0,173.1500046173696
6.936,1.0,172.72473560571697
6.944,0.9999999999999999,172.29955735773373
6.952,1.0,171.87446893262052
6.96,0.9999999999999999,171.4494693860533
6.968,1.0,171.02455777025668
6.976,1.0,170.59973313407698
6.984,1.0,170.17499452305486
6.992,1.0000000000000002,169.75034097949774
7.0,1.0,169.32577154255154
7.008,1.0,168.90128524827233
7.016,1.0,168.47688112969772
7.024,1.0,168.0525582169174
7.032,1.0,167.62831553714386
7.04,0.9999999999999999,167.20415211478252
7.048,0.9999999999999999,166.78006697150138
7.056,0.9999999999999999,166.35605912630052
7.064,1.0,165.93212759558122
7.072,1.0,165.50827139321453
7.08,1.0,165.0844895306097
7.088,0.9999999999999999,164.6607810167822
7.096,1.0,164.23714485842126
7.104,1.0,163.81358005995727
7.112,1.0,163.3900856236286
7.12,0.9999999999999999,162.96666054954832
7.128,0.9999999999999999,162.54330383577022
7.136,1.0,162.12001447835488
7.144,1.0,161.69679147143512
7.152,1.0,161.27363380728121
7.16,1.0,160.8505404763657
7.168,0.9999999999999998,160.42751046742774
7.176,1.0,160.0045427675376
7.184,1.0,159.58163636216014
7.192,1.0,159.15879023521836
7.2,1.0,158.7360033691566
7.208,1.0,158.3132747450032
7.216,0.9999999999999999,157.8906033424331
7.224,1.0,157.46798813982983
7.232,1.0,157.04542811434726
7.24,0.9999999999999999,156.6229222419712
7.248,1.0,156.2004694975803
7.256,1.0,155.77806885500704
7.264,0.9999999999999999,155.35571928709797
7.272,1.0,154.93341976577412
7.28,0.9999999999999999,154.51116926209045
7.288,1.0,154.08896674629568
7.296,1.0,153.66681118789114
7.304,0.9999999999999999,153.24470155568983
7.312,1.0,152.82263681787487
7.32,1.0,152.40061594205764
7.328,1.0,151.9786378953358
7.336,1.0,151.55670164435077
7.344,1.0,151.13480615534496
7.352,1.0,150.71295039421892
7.36,0.9999999999999999,150.29113332658773
7.368,1.0,149.8693539178376
7.376,1.0,149.44761113318177
7.384,1.0,149.0259039377162
7.392,1.0,148.60423129647523
7.4,1.0,148.18259217448653
7.4079999999999995,1.0,147.760985536826
7.416,1.0,147.33941034867232
7.4239999999999995,1.0,146.9178655753614
7.432,0.9999999999999999,146.49635018243993
7.4399999999999995,1.0,146.07486313571968
7.448,1.0,145.65340340133025
7.4559999999999995,1.0,145.2319699457728
7.464,1.0,144.81056173597227
7.4719999999999995,0.9999999999999999,144.38917773933062
7.48,1.0,143.96781692377846
7.4879999999999995,1.0,143.54647825782766
7.496,1.0,143.12516071062245
7.504,1.0,142.70386325199155
7.5120000000000005,1.0,142.28258485249876
7.52,1.0,141.86132448349443
7.5280000000000005,0.9999999999999999,141.4400811171656
7.536,0.9999999999999999,141.01885372658685
7.5440000000000005,0.9999999999999999,140.59764128577004
7.552,1.0,140.17644276971464
7.5600000000000005,0.9999999999999999,139.75525715445687
7.568,1.0,139.33408341711947
7.5760000000000005,0.9999999999999999,138.91292053596038
7.584,0.9999999999999999,138.49176749042223
7.5920000000000005,0.9999999999999999,138.07062326118015
7.6,0.9999999999999998,137.64948683019097
7.6080000000000005,0.9999999999999999,137.22835718074055
7.616,1.0,136.80723329749236
7.6240000000000006,0.9999999999999999,136.3861141665345
7.632,1.0,135.9649987754277
7.640000000000001,1.0,135.5438861132517
7.648,0.9999999999999999,135.1227751706531
7.656000000000001,1.0,134.70166493989123
7.664,1.0,134.2805544148852
7.672,0.9999999999999999,133.85944259125958
7.68,1.0,133.43832846639086
7.688,1.0,133.01721103945312
7.696,1.0,132.5960893114633
7.704,1.0,132.17496228532687
7.712,0.9999999999999999,131.75382896588266
7.72,0.9999999999999999,131.332688359948
7.728,1.0,130.91153947636315
7.736,0.9999999999999999,130.49038132603582
7.744,1.0,130.06921292198555
7.752,0.9999999999999999,129.6480332793875
7.76,0.9999999999999999,129.2268414156164
7.768,1.0,128.80563635029029
7.776,1.0,128.38441710531347
7.784,0.9999999999999999,127.96318270492021
7.792,1.0,127.54193217571742
7.8,0.9999999999999999,127.12066454672757
7.808,1.0,126.69937884943114
7.816,0.9999999999999999,126.27807411780923
7.824,1.0,125.85674938838548
7.832,1.0,125.43540370026827
7.84,1.0,125.01403609519247
7.848,0.9999999999999999,124.59264561756099
7.856,0.9999999999999999,124.17123131448616
7.864,0.9999999999999999,123.74979223583117
7.872,1.0,123.32832743425081
7.88,1.0,122.90683596523255
7.888,1.0,122.48531688713705
7.896,1.0,122.06376926123879
7.904,1.0,121.64219215176621
7.912,1.0,121.22058462594192
7.92,1.0,120.79894575402257
7.928,1.0,120.37727460933866
7.936,0.9999999999999999,119.9555702683341
7.944,1.0000000000000002,119.53383181060556
7.952,1.0,119.11205831894173
7.96,0.9999999999999999,118.69024887936241
7.968,1.0,118.26840258115725
7.976,1.0,117.8465185169246
7.984,1.0,117.42459578260998
7.992,1.0,117.00263347754434
8.0,1.0,116.58063070448243
8.008,1.0,116.1585865696407
8.016,0.9999999999999998,115.73650018273506
8.024000000000001,0.9999999999999999,115.31437065701887
8.032,0.9999999999999999,114.89219710932024
8.04,1.0,114.46997866007928
8.048,1.0,114.04771443338535
8.056000000000001,1.0,113.62540355701447
8.064,1.0,113.20304516246571
8.072,0.9999999999999999,112.78063838499796
8.08,1.0,112.35818236366651
8.088000000000001,1.0,111.93567624135969
8.096,1.0,111.5131191648348
8.104,1.0,111.09051028475415
8.112,1.0,110.66784875572095
8.120000000000001,1.0,110.24513373631538
8.128,1.0,109.82236438912993
8.136,0.9999999999999998,109.39953988080462
8.144,0.9999999999999999,108.97665938206248
8.152000000000001,0.9999999999999999,108.55372206774484
8.16,0.9999999999999999,108.13072711684612
8.168,0.9999999999999999,107.70767371254837
8.176,1.0,107.28456104225617
8.184000000000001,0.9999999999999999,106.86138829763127
8.192,1.0,106.43815467462674
8.2,1.0,106.01485937352093
8.208,1.0,105.59150159895172
8.216000000000001,1.0,105.16808055995054
8.224,0.9999999999999998,104.74459546997588
8.232,1.0,104.32104554694672
8.24,0.9999999999999999,103.89743001327604
8.248000000000001,1.0,103.47374809590426
8.256,1.0,103.04999902633222
8.264,1.0,102.62618204065382
8.272,1.0,102.20229637958903
8.280000000000001,0.9999999999999998,101.77834128851676
8.288,1.0,101.35431601750699
8.296,1.0,100.93021982135306
8.304,1.0,100.50605195960392
8.312,0.999999953107253,100.0818116965964
8.32,0.9999996755097698,99.65749830148643
8.328,0.9999994005933643,99.23311104828147
8.336,0.9999991283863705,98.80864921587128
8.344,0.9999988589163705,98.38411208806004
8.352,0.9999985922101947,97.95949895359675
8.36,0.9999983282939182,97.53480910620718
8.368,0.9999980671928619,97.11004184462385
8.376,0.9999978089315885,96.6851964726176
8.384,0.9999975535339027,96.26027229902739
8.392,0.9999973010228492,95.83526863779142
8.4,0.9999970514207124,95.41018480797669
8.408,0.9999968047490148,94.98502013380981
8.416,0.9999965610285168,94.55977394470612
8.424,0.9999963202792147,94.13444557530028
8.432,0.9999960825203426,93.709034365475
8.44,0.9999958477703689,93.28353966039134
8.448,0.9999956160469988,92.8579608105171
8.456,0.9999953873671716,92.43229717165676
8.464,0.9999951617470624,92.0065481049795
8.472,0.9999949392020816,91.58071297704893
8.48,0.9999947197468741,91.15479115985065
8.488,0.9999945033953215,90.72878203082159
8.496,0.9999942901605398,90.30268497287744
8.504,0.9999940800548829,89.87649937444142
8.512,0.999993873089941,89.4502246294715
8.52,0.9999936692765418,89.02386013748871
8.528,0.9999934686247525,88.59740530360405
8.536,0.9999932711438789,88.17085953854655
8.544,0.9999930768424673,87.74422225868965
8.552,0.9999928857283069,87.31749288607892
8.56,0.9999926978084288,86.89067084845823
8.568,0.9999925130891094,86.46375557929696
8.576,0.9999923315758712,86.03674651781577
8.584,0.9999921532734833,85.60964310901359
8.592,0.9999919781859657,85.18244480369285
8.6,0.9999918063165888,84.75515105848618
8.608,0.9999916376678767,84.32776133588129
8.616,0.9999914722416089,83.90027510424719
8.624,0.9999913100388221,83.47269183785868
8.632,0.999991151059814,83.04501101692226
8.64,0.999990995304144,82.61723212760023
8.648,0.9999908427706365,82.18935466203608
8.656,0.9999906934573836,81.76137811837829
8.664,0.9999905473617486,81.33330200080526
8.672,0.9999904044803669,80.90512581954873
8.68,0.9999902648091509,80.47684909091832
8.688,0.9999901283432927,80.04847133732446
8.696,0.9999899950772666,79.61999208730252
8.704,0.9999898650048329,79.19141087553544
8.712,0.9999897381190418,78.76272724287722
8.72,0.9999896144122359,78.33394073637527
8.728,0.9999894938760547,77.9050509092935
8.736,0.9999893765014386,77.47605732113398
8.744,0.9999892622786314,77.04695953765987
8.752,0.9999891511971857,76.6177571309165
8.76,0.9999890432459665,76.18844967925388
8.768,0.9999889384131547,75.75903676734723
8.776,0.999988836686253,75.3295179862191
8.784,0.9999887380520888,74.89989293325951
8.792,0.9999886424968187,74.47016121224745
8.8,0.9999885500059346,74.04032243337062
8.808,0.9999884605642669,73.61037621324644
8.815999999999999,0.9999883741559896,73.18032217494141
8.824,0.9999882907646265,72.7501599479912
8.832,0.9999882103730537,72.31988916842019
8.84,0.9999881329635075,71.88950947876077
8.847999999999999,0.9999880585175877,71.45902052807202
8.856,0.9999879870162633,71.02842197195868
8.864,0.9999879184398789,70.59771347258983
8.872,0.9999878527681585,70.166894698717
8.879999999999999,0.9999877899802126,69.73596532569186
8.888,0.9999877300545437,69.30492503548423
8.896,0.9999876729690508,68.87377351669959
8.904,0.9999876187010368,68.4425104645961
8.911999999999999,0.9999875672272142,68.0111355811014
8.92,0.9999875185237105,67.57964857482932
8.928,0.9999874725660749,67.14804916109638
8.936,0.9999874293292846,66.7163370619378
8.943999999999999,0.9999873887877508,66.28451200612292
8.952,0.9999873509153258,65.85257372917108
8.96,0.9999873156853086,65.42052197336682
8.968,0.9999872830704519,64.98835648777468
8.975999999999999,0.9999872530429703,64.55607702825368
8.984,0.9999872255745443,64.12368335747178
8.992,0.9999872006363294,63.691175244920046
9.0,0.9999871781989622,63.25855246692626
9.008,0.9999871582325675,62.82581480666811
9.016,0.9999871407067662,62.39296205418649
9.024000000000001,0.999987125590681,61.95999400639849
9.032,0.9999871128529454,61.526910467109644
9.04,0.9999871024617102,61.093711247025965
9.048,0.9999870943846502,60.66039616376599
9.056000000000001,0.9999870885889738,60.22696504187244
9.064,0.9999870850414292,59.79341771282328
9.072,0.9999870837083124,59.359754015042334
9.08,0.9999870845554749,58.92597379391017
9.088000000000001,0.9999870875483313,58.492076901774325
9.096,0.9999870926518686,58.058063197959086
9.104,0.9999870998306525,57.623932548774846
9.112,0.9999871090488365,57.18968482752748
9.120000000000001,0.9999871202701693,56.75531991452734
9.128,0.9999871334580043,56.32083769709767
9.136,0.9999871485753067,55.8862380695825
9.144,0.9999871655846626,55.45152093335464
9.152000000000001,0.9999871844482865,55.01668619682335
9.16,0.999987205128031,54.581733775441265
9.168,0.999987227585394,54.14666359171088
9.176,0.9999872517815298,53.71147557519118
9.184000000000001,0.9999872776772545,53.276169662503726
9.192,0.9999873052330571,52.840745797338236
9.2,0.999987334409107,52.405203930457546
9.208,0.9999873651652648,51.96954401970273
9.216000000000001,0.9999873974610882,51.53376602999782
9.224,0.9999874312558443,51.09786993335373
9.232,0.999987466508516,50.66185570887178
9.24,0.9999875031778122,50.22572334274732
9.248000000000001,0.9999875412221776,49.789472828272814
9.256,0.9999875805998005,49.353104165840314
9.264,0.9999876212686231,48.91661736294339
9.272,0.9999876631863507,48.48001243417913
9.280000000000001,0.99998770631046,48.04328940124981
9.288,0.9999877505982105,47.60644829296351
9.296,0.9999877960066518,47.16948914523474
9.304,0.9999878424926342,46.73241200108461
9.312000000000001,0.9999878900128188,46.29521691064094
9.32,0.9999879385236855,45.85790393113732
9.328,0.999987987981544,45.42047312691194
9.336,0.9999880383425419,44.98292456940628
9.344,0.9999880895626777,44.545258337163524
9.352,0.9999881415978056,44.1074745158255
9.36,0.9999881944036494,43.66957319813084
9.368,0.9999882479358099,43.23155448391092
9.376,0.9999883021497766,42.793418480087105
9.384,0.9999883570009358,42.35516530066594
9.392,0.9999884124445811,41.91679506673542
9.4,0.9999884684359238,41.47830790645934
9.408,0.9999885249301023,41.03970395507285
9.416,0.999988581882192,40.60098335487562
9.424,0.9999886392472156,40.16214625522667
9.432,0.9999886969801529,39.72319281253678
9.44,0.9999887550359503,39.2841231902622
9.448,0.9999888133695322,38.84493755889626
9.456,0.9999888719358098,38.40563609596218
9.464,0.9999889306896916,37.966218986003796
9.472,0.9999889895860928,37.526686420577335
9.48,0.9999890485799472,37.0870385982414
9.488,0.9999891076262148,36.64727572454775
9.496,0.9999891666798939,36.207398012030275
9.504,0.9999892256960303,35.767405680195
9.512,0.9999892846297275,35.327298955508006
9.52,0.9999893434361564,34.88707807138458
9.528,0.9999894020705667,34.44674326817614
9.536,0.9999894604882955,34.00629479315852
9.544,0.999989518644778,33.56573290051781
9.552,0.999989576495558,33.125057851337814
9.56,0.9999896339962975,32.684269913585005
9.568,0.9999896911027867,32.24336936209475
9.576,0.9999897477709541,31.802356478555566
9.584,0.9999898039568773,31.36123155149433
9.592,0.999989859616792,30.919994876259494
9.6,0.9999899147071025,30.478646755005347
9.608,0.9999899691843913,30.037187496674303
9.616,0.9999900230054304,29.595617416980204
9.624,0.9999900761271894,29.15393683838957
9.632,0.9999901285068472,28.712146090103914
9.64,0.9999901801017999,28.270245508040063
9.648,0.9999902308696731,27.828235434811514
9.656,0.9999902807683296,27.386116219707688
9.664,0.9999903297558815,26.94388821867434
9.672,0.999990377790697,26.50155179429184
9.68,0.9999904248314128,26.05910731575456
9.688,0.9999904708369426,25.61655515884817
9.696,0.9999905157664879,25.17389570592802
9.704,0.9999905595795451,24.731129345895507
9.712,0.9999906022359188,24.288256474175384
9.72,0.9999906436957284,23.845277492691103
9.728,0.9999906839194188,23.402192809841228
9.736,0.9999907228677698,22.95900284047372
9.744,0.9999907605019057,22.515708005861285
9.752,0.9999907967833044,22.072308733674795
9.76,0.9999908316738062,21.628805457957544
9.768,0.9999908651356247,21.18519861909763
9.776,0.9999908971313548,20.74148866380127
9.784,0.9999909276239813,20.297676045064186
9.792,0.99999095657689,19.85376122214388
9.8,0.9999909839538746,19.409744660530002
9.808,0.9999910097191477,18.965626831915657
9.816,0.9999910338373472,18.52140821416675
9.824,0.999991056273548,18.077089291292314
9.832,0.999991076993269,17.632670553412776
9.84,0.9999910959624819,17.18815249672935
9.847999999999999,0.9999911131476207,16.743535623491436
9.856,0.9999911285155891,16.298820441964395
9.864,0.9999911420337708,15.854007466396919
9.872,0.9999911536700359,15.409097216987325
9.879999999999999,0.9999911633927497,14.964090219849474
9.888,0.9999911711707833,14.51898700697852
9.896,0.9999911769735177,14.073788116216186
9.904,0.9999911807708557,13.628494091215114
9.911999999999999,0.9999911825332269,13.183105481402826
9.92,0.9999911822315984,12.737622841945427
9.928,0.9999911798374805,12.292046733710942
9.936,0.9999911753229352,11.846377723231713
9.943999999999999,0.9999911686605839,11.400616382666307
9.952,0.999991159823615,10.954763289761345
9.96,0.9999911487857915,10.508819027812821
9.968,0.9999911355214579,10.062784185626569
9.975999999999999,0.9999911200055469,9.616659357478218
9.984,0.9999911022135888,9.170445143073065
9.992,0.9999910821217165,8.724142147505471
10.0,0.9999910597066726,8.277750981217393
10.008,0.9999910349458172,7.8312722599564175
10.016,0.9999910078171342,7.3847066047337195
10.024000000000001,0.9999909782992376,6.9380546417815525
