freq,mag,phase
6.0,0.9999968499415612,-173.12905257696022
6.008,0.9999954511342207,-173.54427087670825
6.016,0.9999941096888885,-173.95937600516544
6.024,0.9999928244144157,-174.37437128493156
6.032,0.9999915941340359,-174.7892600473908
6.04,0.9999904176852872,-175.20404563254544
6.048,0.9999892939199307,-175.61873138885093
6.056,0.9999882217038699,-176.03332067305217
6.064,0.9999871999170719,-176.44781685002133
6.072,0.9999862274534821,-176.862223292597
6.08,0.9999853032209434,-177.2765433814246
6.088,0.9999844261411137,-177.6907805047982
6.096,0.9999835951493804,-178.10493805850336
6.104,0.9999828091947769,-178.51901944566185
6.112,0.9999820672398979,-178.93302807657665
6.12,0.9999813682608139,-179.34696736857907
6.128,0.9999807112469862,-179.76084074587655
6.136,0.9999800952011783,179.82534836059816
6.144,0.9999795191393727,179.4115965133369
6.152,0.9999789820906803,178.99790026840458
6.16,0.9999784830972561,178.5842561755869
6.168,0.9999780212142102,178.1706607785367
6.176,0.9999775955095201,177.75711061491938
6.184,0.9999772050639401,177.34360221655743
6.192,0.9999768489709167,176.93013210957378
6.2,0.9999765263364976,176.51669681453424
6.208,0.9999762362792423,176.1032928465891
6.216,0.9999759779301338,175.68991671561358
6.224,0.9999757504324897,175.27656492634762
6.232,0.9999755529418692,174.8632339785347
6.24,0.9999753846259909,174.44992036705997
6.248,0.9999752446646327,174.0366205820871
6.256,0.9999751322495509,173.62333110919496
6.264,0.9999750465843857,173.2100484295131
6.272,0.999974986884571,172.7967690198568
6.28,0.999974952377247,172.38348935286106
6.288,0.9999749423011676,171.97020589711417
6.296,0.9999749559066126,171.5569151172906
6.304,0.999974992455293,171.1436134742832
6.312,0.9999750512202683,170.7302974253348
6.32,0.9999751314858477,170.31696342416922
6.328,0.9999752325475073,169.90360792112185
6.336,0.9999753537117982,169.4902273632695
6.344,0.9999754942962515,169.07681819455996
6.352,0.9999756536292985,168.66337685594098
6.36,0.9999758310501715,168.24989978548894
6.368,0.9999760259088188,167.83638341853683
6.376,0.9999762375658157,167.42282418780218
6.384,0.9999764653922733,167.0092185235144
6.392,0.9999767087697493,166.59556285354196
6.4,0.9999769670901623,166.18185360351907
6.408,0.9999772397556984,165.76808719697237
6.416,0.9999775261787256,165.35426005544704
6.424,0.9999778257817064,164.94036859863297
6.432,0.9999781379971041,164.52640924449068
6.44,0.9999784622673022,164.11237840937682
6.448,0.9999787980445116,163.69827250817
6.456,0.9999791447906852,163.28408795439623
6.464,0.9999795019774291,162.86982116035412
6.472,0.999979869085918,162.4554685372406
6.48,0.9999802456068049,162.04102649527582
6.4879999999999995,0.9999806310401395,161.626491443829
6.496,0.9999810248952767,161.21185979154322
6.504,0.999981426690795,160.79712794646164
6.5120000000000005,0.9999818359544085,160.3822923161522
6.52,0.999982252222883,159.96734930783404
6.5280000000000005,0.999982675041948,159.55229532850265
6.536,0.9999831039662175,159.13712678505667
6.5440000000000005,0.9999835385590993,158.72184008442312
6.552,0.9999839783927155,158.3064316336848
6.5600000000000005,0.9999844230478171,157.89089784020632
6.568,0.9999848721137002,157.47523511176152
6.5760000000000005,0.9999853251881241,157.05943985666042
6.584,0.9999857818772269,156.64350848387733
6.592,0.9999862417954449,156.22743740317844
6.6,0.9999867045654293,155.81122302525074
6.608,0.9999871698179644,155.3948617618305
6.616,0.9999876371918879,154.97835002583287
6.624,0.9999881063340078,154.56168423148176
6.632,0.9999885768990228,154.14486079443998
6.64,0.9999890485494421,153.72787613194032
6.648,0.9999895209555058,153.31072666291712
6.656,0.999989993795104,152.89340880813802
6.664,0.9999904667536988,152.47591899033716
6.672,0.999990939524246,152.0582536343482
6.68,0.9999914118071148,151.64040916723846
6.688,0.9999918833100115,151.2223820184439
6.696,0.9999923537479012,150.8041686199044
6.704,0.99999282284293,150.38576540620022
6.712,0.9999932903243496,149.9671688146891
6.72,0.9999937559284385,149.54837528564406
6.728,0.9999942193984285,149.12938126239234
6.736,0.9999946804844263,148.71018319145497
6.744,0.9999951389433405,148.29077752268736
6.752,0.9999955945388047,147.87116070942088
6.76,0.9999960470411043,147.45132920860522
6.768,0.9999964962271009,147.0312794809519
6.776,0.9999969418801599,146.61100799107876
6.784,0.9999973837900762,146.1905112076555
6.792,0.999997821753001,145.76978560355036
6.8,0.999998255571369,145.34882765597754
6.808,0.9999986850538279,144.92763384664636
6.816,0.9999991100151632,144.5062006619109
6.824,0.9999995302762292,144.08452459292147
6.832,0.9999999456638774,143.66260213577672
6.84,1.0,143.24042979167731
6.848,1.0,142.81800406708078
6.856,1.0,142.39532147385762
6.864,0.9999999999999999,141.97237852944863
6.872,1.0,141.5491717570238
6.88,0.9999999999999999,141.12569768564225
6.888,1.0,140.70195285041396
6.896,1.0,140.27793379266245
6.904,0.9999999999999999,139.85363706008908
6.912,1.0,139.42905920693912
6.92,0.9999999999999999,139.00419679416865
6.928,1.0,138.5790463896136
6.936,1.0,138.15360456815986
6.944,0.9999999999999999,137.72786791191515
6.952,1.0,137.3018330103825
6.96,1.0,136.87549646063516
6.968,1.0,136.4488548674934
6.976,0.9999999999999999,136.0219048437025
6.984,0.9999999999999999,135.5946430101129
6.992,0.9999999999999998,135.16706599586172
7.0,1.0,134.73917043855607
7.008,0.9999999999999999,134.31095298445817
7.016,1.0,133.88241028867205
7.024,1.0,133.45353901533218
7.032,1.0,133.02433583779373
7.04,1.0,132.59479743882486
7.048,1.0000000000000002,132.16492051080053
7.056,1.0,131.73470175589864
7.064,1.0,131.30413788629735
7.072,1.0,130.8732256243749
7.08,1.0,130.44196170291107
7.088,1.0,130.0103428652905
7.096,1.0,129.5783658657083
7.104,1.0,129.14602746937678
7.112,1.0,128.71332445273538
7.12,0.9999999999999999,128.2802536036616
7.128,1.0,127.84681172168419
7.136,1.0,127.41299561819854
7.144,1.0,126.97880211668405
7.152,1.0,126.54422805292333
7.16,0.9999999999999999,126.10927027522364
7.168,1.0,125.67392564464039
7.176,1.0,125.23819103520286
7.184,1.0,124.80206333414148
7.192,1.0,124.365539442118
7.2,1.0,123.9286162734571
7.208,1.0,123.4912907563804
7.216,0.9999999999999999,123.05355983324279
7.224,1.0,122.61542046077058
7.232,1.0,122.17686961030189
7.24,1.0,121.73790426802941
7.248,1.0,121.29852143524501
7.256,1.0,120.85871812858667
7.264,1.0,120.4184913802878
7.272,0.9999999999999999,119.97783823842836
7.28,1.0,119.53675576718838
7.288,1.0,119.09524104710358
7.296,1.0,118.6532911753235
7.304,1.0,118.21090326587118
7.312,0.9999999999999999,117.76807444990574
7.32,0.9999999999999999,117.32480187598665
7.328,1.0,116.88108271034051
7.336,1.0,116.43691413712982
7.344,1.0,115.99229335872397
7.352,1.0,115.54721759597267
7.36,0.9999999999999999,115.10168408848114
7.368,1.0,114.65569009488765
7.376,1.0,114.20923289314366
7.384,1.0,113.76230978079532
7.392,0.9999999999999999,113.31491807526774
7.4,1.0,112.86705511415127
7.4079999999999995,1.0,112.41871825548978
7.416,1.0,111.96990487807108
7.4239999999999995,1.0,111.5206123817199
7.432,1.0,111.070838187592
7.4399999999999995,1.0,110.62057973847173
7.448,1.0,110.16983449907009
7.4559999999999995,1.0,109.7185999563265
7.464,1.0,109.26687361971099
7.4719999999999995,1.0,108.81465302152992
7.48,0.9999999999999999,108.36193571723234
7.4879999999999995,1.0,107.90871928571961
7.496,1.0,107.45500132965569
7.504,0.9999999999999999,107.0007794757807
7.5120000000000005,0.9999999999999999,106.54605137522503
7.52,0.9999999999999999,106.09081470382674
7.5280000000000005,1.0,105.63506716244933
7.536,0.9999999999999999,105.17880647730297
7.5440000000000005,0.9999999999999999,104.72203040026582
7.552,0.9999999999999999,104.26473670920879
7.5600000000000005,1.0,103.80692320832041
7.568,1.0,103.34858772843515
7.5760000000000005,0.9999999999999999,102.88972812736158
7.584,0.9999999999999999,102.43034229021379
7.5920000000000005,0.9999999999999999,101.97042812974321
7.6,1.0,101.50998358667294
7.6080000000000005,1.0,101.04900663003258
7.616,1.0,100.58749525749572
7.6240000000000006,1.0,100.12544749571757
7.632,1.0,99.66286140067547
7.640000000000001,1.0,99.19973505800895
7.648,0.9999999999999999,98.73606658336313
7.656000000000001,0.9999999999999999,98.27185412273123
7.664,0.9999999999999999,97.80709585280039
7.672,1.0,97.34178998129676
7.68,1.0,96.87593474733305
7.688,1.0,96.40952842175633
7.696,0.9999999999999999,95.94256930749724
7.704,1.0,95.47505573991985
7.712,1.0,95.00698608717249
7.72,1.0,94.53835875053952
7.728,0.9999999999999999,94.06917216479347
7.736,0.9999999999999999,93.59942479854834
7.744,0.9999999999999999,93.12911515461309
7.752,1.0,92.65824177034597
7.76,1.0,92.18680321800905
7.768,0.9999999999999999,91.7147981051234
7.776,0.9999999999999999,91.24222507482449
7.784,1.0,90.7690828062178
7.792,0.9999999999999999,90.29537001473473
7.8,1.0,89.82108545248845
7.808,1.0,89.34622790862994
7.816,1.0,88.87079620970388
7.824,1.0,88.39478922000438
7.832,1.0,87.91820584193061
7.84,0.9999999999999999,87.4410450163419
7.848,0.9999999999999998,86.96330572291272
7.856,0.9999999999999999,86.4849869804869
7.864,1.0,86.00608784743147
7.872,1.0,85.5266074219898
7.88,1.0,85.04654484263385
7.888,1.0,84.56589928841572
7.896,1.0,84.0846699793182
7.904,1.0,83.60285617660418
7.912,0.9999999537102656,83.120457183165
7.92,0.9999997392853686,82.63747234386753
7.928,0.9999995266083093,82.15390104589991
7.936,0.999999315784899,81.66974271911573
7.944,0.9999991069197696,81.18499683637677
7.952,0.9999989001163377,80.69966291389399
7.96,0.999998695476773,80.21374051156668
7.968,0.9999984931019625,79.72722923331992
7.976,0.9999982930914787,79.24012872743972
7.984,0.9999980955435454,78.75243868690639
7.992,0.9999979005550061,78.26415884972529
8.0,0.9999977082212924,77.77528899925561
8.008,0.9999975186363913,77.2858289645364
8.016,0.9999973318928143,76.79577862060995
8.024000000000001,0.9999971480815667,76.305137888843
8.032,0.999996967292118,75.81390673724452
8.04,0.9999967896123703,75.3220851807805
8.048,0.9999966151286305,74.82967328168606
8.056000000000001,0.999996443925581,74.33667114977452
8.064,0.9999962760862505,73.8430789427425
8.072,0.9999961116919867,73.3488968664717
8.08,0.9999959508224286,72.85412517532745
8.088000000000001,0.9999957935554795,72.35876417245358
8.096,0.9999956399672805,71.86281421006295
8.104,0.9999954901321848,71.36627568972416
8.112,0.9999953441227319,70.86914906264433
8.120000000000001,0.9999952020096228,70.37143482994782
8.128,0.9999950638616957,69.8731335429501
8.136,0.9999949297459028,69.37424580342707
8.144,0.9999947997272857,68.87477226388015
8.152000000000001,0.9999946738689541,68.37471362779662
8.16,0.9999945522320635,67.87407064990467
8.168,0.9999944348757929,67.37284413642311
8.176,0.9999943218573242,66.87103494530672
8.184000000000001,0.9999942132318235,66.36864398648592
8.192,0.9999941090524195,65.86567222210074
8.2,0.9999940093701848,65.36212066672894
8.208,0.9999939142341187,64.85799038760919
8.216000000000001,0.9999938236911284,64.35328250485787
8.224,0.9999937377860123,63.847998191679864
8.232,0.9999936565614435,63.34213867457276
8.24,0.9999935800579538,62.835705233525594
8.248000000000001,0.9999935083139204,62.32869920221072
8.256,0.999993441365548,61.82112196816897
8.264,0.999993379246859,61.31297497298788
8.272,0.9999933219896779,60.8042597124736
8.280000000000001,0.9999932696236206,60.294977736815774
8.288,0.9999932221760819,59.7851306507447
8.296,0.9999931796722247,59.27472011368138
8.304,0.9999931421349711,58.763747839880565
8.312,0.9999931095849923,58.252215598566174
8.32,0.9999930820406998,57.74012521405808
8.328,0.999993059518237,57.227478565892675
8.336,0.9999930420314753,56.714277588933726
8.344,0.9999930295920036,56.20052427347683
8.352,0.9999930222091266,55.686220665343924
8.36,0.9999930198898566,55.171368865971125
8.368,0.9999930226389131,54.655971032486484
8.376,0.9999930304587172,54.140029377780714
8.384,0.9999930433493909,53.623546170567415
8.392,0.9999930613087548,53.10652373543634
8.4,0.9999930843323275,52.58896445289567
8.408,0.999993112413326,52.07087075940719
8.416,0.9999931455426668,51.55224514741031
8.424,0.9999931837089686,51.033090165338436
8.432,0.9999932268985525,50.513408417624255
8.44,0.9999932750954484,49.993202564697164
8.448,0.9999933282813979,49.472475322969075
8.456,0.9999933864358594,48.95122946481244
8.464,0.9999934495360158,48.429467818526355
8.472,0.9999935175567789,47.90719326829453
8.48,0.9999935904707997,47.38440875413132
8.488,0.9999936682484756,46.861117271819346
8.496,0.99999375085796,46.33732187283496
8.504,0.9999938382651745,45.81302566426513
8.512,0.999993930433818,45.28823180871193
8.52,0.999994027325379,44.762943524188344
8.528,0.9999941288991503,44.23716408400149
8.536,0.9999942351122421,43.71089681662698
8.544,0.999994345919596,43.18414510557046
8.552,0.999994461274001,42.656912389220174
8.56,0.9999945811261115,42.129202160686695
8.568,0.9999947054244628,41.60101796763341
8.576,0.9999948341154895,41.072363412093864
8.584,0.9999949671435459,40.54324215028011
8.592,0.999995104450925,40.013657892377566
8.6,0.9999952459778796,39.4836144023307
8.608,0.9999953916626437,38.95311549761534
8.616,0.9999955414414557,38.42216504900143
8.624,0.9999956952485807,37.890766980302644
8.632,0.9999958530163363,37.35892526811612
8.64,0.9999960146751158,36.82664394154899
8.648,0.9999961801534158,36.293927081935166
8.656,0.9999963493778617,35.7607788225386
8.664,0.9999965222732362,35.22720334824694
8.672,0.9999966987625061,34.69320489525158
8.68,0.9999968787668536,34.158787750718
8.688,0.9999970622057052,33.62395625244249
8.696,0.9999972489967608,33.08871478849933
8.704,0.9999974390560287,32.55306779687415
8.712,0.9999976322978551,32.017019765087724
8.72,0.9999978286349576,31.48057522980612
8.728,0.99999802797846,30.943738776441304
8.736,0.9999982302379259,30.406515038737968
8.744,0.9999984353213945,29.86890869835095
8.752,0.999998643135416,29.330924484409035
8.76,0.9999988535850886,28.79256717306919
8.768,0.9999990665740957,28.253841587057483
8.776,0.9999992820047444,27.714752595200352
8.784,0.999999499778004,27.175305111942688
8.792,0.9999997197935439,26.635504096856504
8.8,0.9999999419497764,26.095354554136303
8.808,1.0,25.554861532085326
8.815999999999999,1.0,25.014030122588725
8.824,1.0,24.472865460576962
8.832,0.9999999999999999,23.931372723478095
8.84,1.0,23.38955713065861
8.847999999999999,0.9999999999999999,22.847423942853617
8.856,1.0,22.304978461586636
8.864,1.0,21.762226028578855
8.872,0.9999999999999998,21.219172025147436
8.879999999999999,1.0,20.67582187159338
8.888,1.0,20.132181026579563
8.896,1.0,19.588254986498704
8.904,1.0,19.044049284830724
8.911999999999999,1.0,18.49956949149029
8.92,0.9999999999999999,17.954821212165015
8.928,1.0,17.409810087643994
8.936,1.0,16.864541793136517
8.943999999999999,1.0,16.319022037581252
8.952,1.0000000000000002,15.773256562946926
8.96,1.0,15.227251143523842
8.968,1.0,14.681011585206127
8.975999999999999,0.9999999999999999,14.134543724765285
8.984,0.9999999999999999,13.587853429115674
8.992,1.0,13.040946594571706
9.0,0.9999999999999999,12.4938291460964
9.008,1.0,11.9465070365419
9.016,1.0,11.398986245882778
9.024000000000001,1.0,10.851272780441684
9.032,0.9999999999999999,10.303372672107171
9.04,1.0,9.755291977544314
9.048,0.9999999999999999,9.207036777398823
9.056000000000001,1.0,8.65861317549442
9.064,0.9999999999999999,8.110027298023105
9.072,1.0,7.561285292729192
9.08,1.0,7.012393328087563
9.088000000000001,1.0,6.463357592476174
9.096,0.9999999999999998,5.914184293342327
9.104,1.0,5.364879656363456
9.112,1.0,4.815449924603311
9.120000000000001,1.0,4.265901357663069
9.128,1.0,3.716240230827284
9.136,0.9999999999999999,3.1664728342052886
9.144,1.0,2.6166054718689207
9.152000000000001,1.0,2.0666444609861356
9.16,1.0000000000000002,1.5165961309504794
9.168,1.0,0.9664668225069675
9.176,1.0,0.4162628868752848
9.184000000000001,1.0,-0.13400931513008257
9.192,1.0,-0.6843434139829175
9.2,0.9999999999999999,-1.2347330323308296
9.208,0.9999999999999999,-1.7851717858825435
9.216000000000001,0.9999999999999999,-2.3356532842972118
9.224,1.0,-2.88617113207579
9.232,1.0,-3.436718929454057
9.24,1.0,-3.9872902732961384
9.248000000000001,1.0,-4.537878757989058
9.256,1.0,-5.088477976338435
9.264,0.9999999999999999,-5.639081520464492
9.272,1.0,-6.189682982697789
9.280000000000001,1.0,-6.740275956474813
9.288,0.9999999999999999,-7.290854037233568
9.296,0.9999999999999999,-7.8414108233086095
9.304,1.0,-8.391939916824626
9.312000000000001,1.0,-8.942434924588786
9.32,1.0000000000000002,-9.492889458982159
9.328,0.9999999999999999,-10.043297138849447
9.336,1.0,-10.593651590386168
9.344,0.9999999999999999,-11.143946448023595
9.352,1.0,-11.694175355312304
9.36,0.9999999999999999,-12.24433196580123
9.368,0.9999999999999999,-12.794409943915634
9.376,1.0,-13.344402965829842
9.384,0.9999999999999999,-13.894304720338507
9.392,0.9999999999999999,-14.444108909721933
9.4,1.0,-14.993809250609736
9.408,1.0,-15.543399474837878
9.416,1.0,-16.092873330303426
9.424,0.9999999999999999,-16.642224581812457
9.432,0.9999999999999999,-17.191447011925213
9.44,0.9999999999999999,-17.740534421793633
9.448,1.0,-18.28948063199585
9.456,0.9999999999999999,-18.83827948336282
9.464,0.9999999999999999,-19.386924837801022
9.472,1.0,-19.93541057910713
9.48,0.9999999999999999,-20.483730613778302
9.488,1.0,-21.0318788718139
9.496,0.9999999999999999,-21.579849307512493
9.504,0.9999999999999999,-22.127635900259712
9.512,1.0,-22.675232655311213
9.52,1.0,-23.22263360456596
9.528,1.0,-23.76983280733405
9.536,1.0,-24.316824351094848
9.544,0.9999999999999999,-24.863602352248922
9.552,1.0,-25.41016095686007
9.56,1.0,-25.956494341390865
9.568,1.0,-26.502596713427707
9.576,0.9999999999999999,-27.048462312399245
9.584,0.9999999999999999,-27.594085410283913
9.592,1.0,-28.139460312310423
9.6,0.9999999999999999,-28.684581357647197
9.608,0.9999999999999999,-29.22944292008425
9.616,0.9999999999999999,-29.77403940870393
9.624,1.0,-30.318365268543698
9.632,1.0,-30.862414981247387
9.64,1.0000000000000002,-31.406183065708454
9.648,1.0,-31.94966407870128
9.656,1.0000000000000002,-32.492852615504184
9.664,1.0,-33.03574331051041
9.672,1.0,-33.5783308378305
9.68,1.0,-34.120609911882305
9.688,0.9999999999999999,-34.66257528797233
9.696,1.0,-35.204221762864535
9.704,1.0,-35.745544175340086
9.712,1.0,-36.286537406744465
9.72,0.9999999999999999,-36.82719638152553
9.728,0.9999999999999999,-37.367516067758494
9.736,0.9999999999999999,-37.90749147766189
9.744,1.0,-38.447117668100276
9.752,1.0,-38.98638974107765
9.76,1.0,-39.52530284421776
9.768,1.0,-40.063852171234764
9.776,0.9999999999999999,-40.60203296239075
9.784,1.0,-41.13984050494364
9.792,0.9999999999999999,-41.67727013358172
9.8,1.0,-42.21431723084845
9.808,1.0,-42.7509772275541
9.816,1.0,-43.28724560317728
9.824,1.0,-43.823117886253456
9.832,0.9999999999999999,-44.358589654753345
9.84,0.9999999999999999,-44.893656536448084
9.847999999999999,1.0,-45.4283142092644
9.856,0.9999999999999999,-45.96255840162708
9.864,1.0,-46.4963848927898
9.872,1.0,-47.02978951315504
9.879999999999999,1.0,-47.562768144582115
9.888,1.0,-48.09531672068354
9.896,1.0,-48.627431227109454
9.904,0.9999999999999999,-49.15910770182128
9.911999999999999,1.0,-49.69034223535373
9.92,1.0,-50.22113097106502
9.928,0.9999999999999999,-50.751470105375574
9.936,0.9999999999999999,-51.28135588799575
9.943999999999999,0.9999999999999999,-51.81078462214255
9.952,1.0,-52.339752664744225
9.96,1.0,-52.86825642663389
9.968,1.0,-53.396292372732404
9.975999999999999,0.9999999999999999,-53.92385702222012
9.984,1.0,-54.45094694869725
9.992,1.0,-54.97755878033308
10.0,1.0,-55.50368920000501
10.008,1.0,-56.02933494542664
10.016,1.0,-56.55449280926465
10.024000000000001,1.0,-57.07915963924522
10.032,1.0,-57.60333233825009
10.04,1.0,-58.12700786440247
10.048,0.9999997229288581,-58.65018323114187
10.056000000000001,0.9999993296805114,-59.1728555072887
10.064,0.9999989334648627,-59.695021817099416
10.072,0.9999985343965541,-60.216679340311124
