freq,mag,phase
6.0,0.9999857168346,85.87380581496008
6.008,0.9999842347447956,85.70620554809223
6.016,0.9999827763612016,85.53842831460231
6.024,0.9999813415112349,85.37047396727363
6.032,0.9999799300226956,85.2023423600413
6.04,0.9999785417237701,85.03403334800214
6.048,0.9999771764430337,84.86554678742459
6.056,0.9999758340094494,84.69688253575849
6.064,0.9999745142523746,84.52804045164524
6.072,0.9999732170015584,84.35902039492758
6.08,0.9999719420871463,84.18982222665979
6.088,0.9999706893396815,84.02044580911763
6.096,0.9999694585901064,83.85089100580845
6.104,0.9999682496697652,83.6811576814814
6.112,0.9999670624104056,83.51124570213747
6.12,0.9999658966441798,83.34115493503973
6.128,0.9999647522036481,83.17088524872355
6.136,0.9999636289217807,83.00043651300696
6.144,0.9999625266319565,82.82980859900066
6.152,0.999961445167972,82.6590013791187
6.16,0.9999603843640343,82.48801472708854
6.168,0.9999593440547705,82.31684851796156
6.176,0.9999583240752259,82.14550262812348
6.184,0.9999573242608661,81.9739769353048
6.192,0.9999563444475823,81.80227131859125
6.2,0.9999553844716886,81.63038565843428
6.208,0.9999544441699252,81.45831983666164
6.216,0.9999535233794647,81.28607373648805
6.224,0.9999526219379081,81.1136472425255
6.232,0.9999517396832908,80.94104024079411
6.24,0.999950876454082,80.76825261873296
6.248,0.9999500320891891,80.5952842652102
6.256,0.9999492064279571,80.42213507053437
6.264,0.9999483993101733,80.24880492646473
6.272,0.9999476105760682,80.07529372622231
6.28,0.9999468400663164,79.90160136450059
6.288,0.999946087622039,79.72772773747616
6.296,0.999945353084808,79.55367274281997
6.304,0.999944636296645,79.37943627970773
6.312,0.9999439371000256,79.20501824883124
6.32,0.9999432553378792,79.030418552409
6.328,0.9999425908535938,78.8556370941974
6.336,0.9999419434910144,78.68067377950157
6.344,0.9999413130944494,78.50552851518634
6.352,0.9999406995086694,78.33020120968743
6.36,0.9999401025789086,78.15469177302244
6.368,0.9999395221508727,77.97900011680186
6.376,0.9999389580707301,77.80312615424016
6.384,0.9999384101851265,77.6270698001671
6.392,0.9999378783411764,77.45083097103868
6.4,0.9999373623864731,77.27440958494842
6.408,0.999936862169084,77.0978055616385
6.416,0.9999363775375574,76.92101882251083
6.424,0.9999359083409212,76.74404929063871
6.432,0.9999354544286897,76.56689689077753
6.44,0.9999350156508608,76.38956154937658
6.448,0.9999345918579172,76.21204319458985
6.456,0.9999341829008346,76.03434175628769
6.464,0.9999337886310784,75.85645716606801
6.472,0.9999334089006077,75.67838935726768
6.48,0.9999330435618761,75.50013826497373
6.4879999999999995,0.9999326924678353,75.32170382603502
6.496,0.9999323554719365,75.14308597907332
6.504,0.9999320324281311,74.96428466449507
6.5120000000000005,0.999931723190875,74.78529982450246
6.52,0.9999314276151288,74.60613140310512
6.5280000000000005,0.9999311455563606,74.42677934613148
6.536,0.9999308768705484,74.24724360124043
6.5440000000000005,0.9999306214141809,74.0675241179323
6.552,0.9999303790442576,73.88762084756114
6.5600000000000005,0.9999301496182991,73.70753374334546
6.568,0.9999299329943383,73.52726276038032
6.5760000000000005,0.9999297290309298,73.34680785564872
6.584,0.9999295375871475,73.16616898803285
6.592,0.9999293585225898,72.98534611832602
6.6,0.9999291916973805,72.80433920924425
6.608,0.9999290369721693,72.62314822543742
6.616,0.9999288942081358,72.4417731335014
6.624,0.9999287632669914,72.26021390198927
6.632,0.9999286440109784,72.07847050142306
6.64,0.9999285363028758,71.89654290430546
6.648,0.9999284400059999,71.71443108513121
6.656,0.9999283549842016,71.53213502039881
6.664,0.9999282811018786,71.34965468862242
6.672,0.999928218223967,71.16699007034309
6.68,0.9999281662159494,70.9841411481406
6.688,0.9999281249438544,70.80110790664513
6.696,0.9999280942742585,70.61789033254877
6.704,0.9999280740742895,70.43448841461729
6.712,0.999928064211626,70.25090214370194
6.72,0.999928064554503,70.06713151275058
6.728,0.9999280749717089,69.88317651681987
6.736,0.9999280953325922,69.69903715308676
6.744,0.999928125507058,69.5147134208599
6.752,0.9999281653655773,69.33020532159172
6.76,0.9999282147791815,69.14551285888967
6.768,0.9999282736194679,68.96063603852808
6.776,0.9999283417586021,68.7755748684597
6.784,0.9999284190693177,68.5903293588275
6.792,0.9999285054249186,68.40489952197609
6.8,0.9999286006992815,68.21928537246339
6.808,0.9999287047668598,68.0334869270724
6.816,0.999928817502681,67.84750420482266
6.824,0.9999289387823512,67.66133722698181
6.832,0.9999290684820544,67.47498601707727
6.84,0.9999292064785598,67.2884506009079
6.848,0.9999293526492177,67.10173100655537
6.856,0.9999295068719646,66.91482726439585
6.864,0.9999296690253223,66.72773940711161
6.872,0.9999298389884028,66.54046746970228
6.88,0.9999300166409081,66.35301148949684
6.888,0.9999302018631322,66.16537150616463
6.896,0.9999303945359623,65.97754756172708
6.904,0.9999305945408813,65.78953970056935
6.912,0.999930801759971,65.60134796945138
6.92,0.9999310160759077,65.41297241751975
6.928,0.9999312373719739,65.22441309631873
6.936,0.9999314655320503,65.0356700598021
6.944,0.9999317004406206,64.84674336434398
6.952,0.9999319419827777,64.65763306875077
6.96,0.9999321900442196,64.46833923427224
6.968,0.9999324445112516,64.27886192461264
6.976,0.9999327052707916,64.0892012059423
6.984,0.9999329722103673,63.89935714690889
6.992,0.9999332452181208,63.70932981864838
7.0,0.9999335241828093,63.51911929479674
7.008,0.9999338089938054,63.32872565150045
7.016,0.9999340995411005,63.138148967428336
7.024,0.9999343957153053,62.94738932378241
7.032,0.999934697407651,62.7564468043089
7.04,0.9999350045099926,62.56532149530953
7.048,0.9999353169148066,62.37401348565232
7.056,0.9999356345151974,62.18252286678289
7.064,0.9999359572048949,61.990849732735114
7.072,0.9999362848782573,61.798994180142394
7.08,0.9999366174302724,61.60695630824835
7.088,0.999936954756559,61.41473621891769
7.096,0.9999372967533676,61.22233401664723
7.104,0.999937643317586,61.02974980857652
7.112,0.9999379943467316,60.836983704498614
7.12,0.999938349738962,60.64403581687089
7.128,0.9999387093930713,60.450906260825725
7.136,0.9999390732084924,60.25759515418096
7.144,0.9999394410852989,60.06410261745068
7.152,0.9999398129242055,59.87042877385578
7.16,0.9999401886265717,59.676573749334295
7.168,0.9999405680943969,59.482537672551956
7.176,0.9999409512303293,59.288320674912676
7.184,0.9999413379376617,59.09392289056888
7.192,0.9999417281203352,58.89934445643171
7.2,0.9999421216829392,58.70458551218136
7.208,0.9999425185307126,58.50964620027744
7.216,0.9999429185695461,58.31452666596897
7.224,0.9999433217059817,58.11922705730443
7.232,0.9999437278472143,57.923747525142076
7.24,0.9999441369010936,57.72808822315972
7.248,0.9999445487761234,57.53224930786475
7.256,0.9999449633814648,57.3362309386041
7.264,0.999945380626935,57.14003327757395
7.272,0.9999458004230107,56.94365648982959
7.28,0.9999462226808253,56.74710074329511
7.288,0.9999466473121744,56.550366208773035
7.296,0.9999470742295131,56.35345305995398
7.304,0.999947503345959,56.15636147342613
7.312,0.9999479345752916,55.95909162868464
7.32,0.999948367831954,55.761643708141264
7.328,0.9999488030310543,55.56401789713334
7.336,0.9999492400883642,55.366214383933404
7.344,0.9999496789203217,55.16823335975817
7.352,0.9999501194440323,54.9700750187777
7.36,0.9999505615772677,54.771739558124516
7.368,0.9999510052384677,54.57322717790257
7.376,0.9999514503467397,54.374538081196036
7.384,0.9999518968218629,54.1756724740784
7.392,0.9999523445842837,53.97663056562096
7.4,0.9999527935551208,53.77741256790165
7.4079999999999995,0.9999532436561624,53.5780186960137
7.416,0.9999536948098697,53.37844916807393
7.4239999999999995,0.9999541469393746,53.178704205231575
7.432,0.9999545999684828,52.97878403167628
7.4399999999999995,0.9999550538216725,52.778688874646654
7.448,0.9999555084240952,52.57841896443836
7.4559999999999995,0.999955963701577,52.37797453441228
7.464,0.9999564195806169,52.17735582100244
7.4719999999999995,0.9999568759883907,51.97656306372422
7.48,0.9999573328527472,51.77559650518191
7.4879999999999995,0.9999577901022118,51.57445639107672
7.496,0.9999582476659847,51.37314297021433
7.504,0.9999587054739428,51.17165649451259
7.5120000000000005,0.9999591634566379,50.96999721900888
7.52,0.9999596215452994,50.76816540186779
7.5280000000000005,0.9999600796718324,50.566161304388025
7.536,0.9999605377688187,50.363985191010116
7.5440000000000005,0.999960995769517,50.161637329323014
7.552,0.9999614536078627,49.95911799007175
7.5600000000000005,0.9999619112184679,49.756427447163674
7.568,0.9999623685366219,49.55356597767588
7.5760000000000005,0.999962825498291,49.35053386186152
7.584,0.999963282040118,49.147331383156754
7.5920000000000005,0.9999637380994227,48.94395882818697
7.6,0.999964193614202,48.74041648677352
7.6080000000000005,0.9999646485231287,48.536704651939665
7.616,0.9999651027655523,48.33282361991724
7.6240000000000006,0.9999655562814992,48.1287736901523
7.632,0.9999660090116709,47.9245551653115
7.640000000000001,0.9999664608974456,47.72016835128762
7.648,0.9999669118808767,47.515613557205725
7.656000000000001,0.9999673619046932,47.31089109542847
7.664,0.9999678109122979,47.10600128156192
7.672,0.9999682588477701,46.90094443446077
7.68,0.9999687056558617,46.69572087623382
7.688,0.999969151281999,46.49033093224912
7.696,0.9999695956722815,46.28477493113906
7.704,0.999970038773482,46.079053204805334
7.712,0.9999704805330443,45.87316608842377
7.72,0.9999709208990853,45.667113920449104
7.728,0.9999713598203925,45.46089704261956
7.736,0.9999717972464245,45.2545157999613
7.744,0.9999722331273084,45.04797054079282
7.752,0.999972667413842,44.84126161672918
7.76,0.9999731000574911,44.63438938268611
7.768,0.9999735310103884,44.42735419688399
7.776,0.9999739602253354,44.220156420851644
7.784,0.9999743876557977,44.01279641943018
7.792,0.9999748132559079,43.80527456077645
7.8,0.999975236980462,43.597591216366645
7.808,0.9999756587849196,43.389746760999444
7.816,0.999976078625403,43.18174157279942
7.824,0.9999764964586964,42.973576033219935
7.832,0.9999769122422445,42.765250527046106
7.84,0.9999773259341505,42.556765442397634
7.848,0.9999777374931772,42.34812117073141
7.856,0.9999781468787443,42.13931810684404
7.864,0.9999785540509274,41.93035664887418
7.872,0.9999789589704573,41.72123719830483
7.88,0.9999793615987188,41.51196015996539
7.888,0.9999797618977482,41.30252594203356
7.896,0.9999801598302338,41.09293495603722
7.904,0.9999805553595141,40.883187616856006
7.912,0.999980948449575,40.673284342722894
7.92,0.9999813390650504,40.46322555522548
7.928,0.9999817271712192,40.2530116793073
7.936,0.9999821127340051,40.0426431432688
7.944,0.9999824957199738,39.83212037876829
7.952,0.9999828760963329,39.6214438208227
7.96,0.9999832538309293,39.41061390780825
7.968,0.9999836288922475,39.1996310814608
7.976,0.9999840012494087,38.98849578687626
7.984,0.9999843708721687,38.77720847251072
7.992,0.9999847377309168,38.56576959018041
8.0,0.9999851017966723,38.35417959506159
8.008,0.9999854630410848,38.142438945690195
8.016,0.9999858214364314,37.93054810396136
8.024000000000001,0.9999861769556146,37.71850753512886
8.032,0.9999865295721614,37.506317707804314
8.04,0.9999868792602198,37.293979093956075
8.048,0.9999872259945584,37.08149216890825
8.056000000000001,0.9999875697505637,36.86885741133951
8.064,0.9999879105042386,36.65607530328151
8.072,0.9999882482321989,36.44314633011729
8.08,0.9999885829116728,36.230070980579534
8.088000000000001,0.9999889145204979,36.01684974674874
8.096,0.9999892430371198,35.803483124051034
8.104,0.9999895684405888,35.589971611255855
8.112,0.9999898907105584,35.376315710473534
8.120000000000001,0.9999902098272833,35.1625159271529
8.128,0.9999905257716156,34.94857277007827
8.136,0.999990838525005,34.73448675136655
8.144,0.9999911480694932,34.5202583864642
8.152000000000001,0.9999914543877145,34.30588819414396
8.16,0.999991757462892,34.0913766965014
8.168,0.9999920572788343,33.87672441895116
8.176,0.9999923538199348,33.66193189022324
8.184000000000001,0.9999926470711676,33.44699964235915
8.192,0.999992937018086,33.231928210707665
8.2,0.999993223646819,33.01671813392037
8.208,0.9999935069440689,32.80136995394734
8.216000000000001,0.9999937868971094,32.58588421603246
8.224,0.9999940634937816,32.37026146870856
8.232,0.9999943367224927,32.15450226379232
8.24,0.9999946065722113,31.938607156378993
8.248000000000001,0.9999948730324659,31.722576704837348
8.256,0.999995136093343,31.506411470803815
8.264,0.9999953957454814,31.290112019176796
8.272,0.9999956519800719,31.07367891811074
8.280000000000001,0.999995904788853,30.857112739010194
8.288,0.9999961541641084,30.640414056523397
8.296,0.9999964000986633,30.423583448535705
8.304,0.9999966425858823,30.206621496163123
8.312,0.9999968816196663,29.98952878374553
8.32,0.9999971171944481,29.772305898839356
8.328,0.9999973493051902,29.554953432210816
8.336,0.9999975779473826,29.3374719778281
8.344,0.9999978031170373,29.11986213285422
8.352,0.999998024810687,28.90212449763889
8.36,0.9999982430253803,28.684259675710972
8.368,0.9999984577586803,28.466268273769973
8.376,0.9999986690086592,28.24815090167815
8.384,0.9999988767738961,28.02990817245162
8.392,0.999999081053474,27.81154070225209
8.4,0.9999992818469747,27.593049110377635
8.408,0.9999994791544774,27.374434019254014
8.416,0.9999996729765537,27.155696054425093
8.424,0.9999998633142645,26.936835844543786
8.432,0.9999999999999999,26.717854021362097
8.44,1.0,26.498751219721687
8.448,1.0,26.279528077543592
8.456,0.9999999999999998,26.06018523581835
8.464,1.0,25.840723338595364
8.472,1.0,25.6211430329727
8.48,1.0,25.40144496908601
8.488,1.0,25.181629800098
8.496,0.9999999999999999,24.961698182186936
8.504,0.9999999999999999,24.741650774535824
8.512,1.0,24.521488239320455
8.52,1.0,24.301211241698216
8.528,1.0,24.080820449795855
8.536,1.0,23.860316534697773
8.544,0.9999999999999999,23.639700170433557
8.552,0.9999999999999999,23.41897203396581
8.56,0.9999999999999999,23.19813280517731
8.568,1.0,22.97718316685857
8.576,1.0,22.756123804694443
8.584,0.9999999999999999,22.53495540725149
8.592,1.0,22.313678665964154
8.6,0.9999999999999998,22.092294275121663
8.608,1.0,21.87080293185397
8.616,1.0,21.64920533611822
8.624,1.0,21.427502190684322
8.632,0.9999999999999999,21.205694201121073
8.64,1.0,20.983782075781296
8.648,1.0,20.76176652578767
8.656,1.0,20.539648265017508
8.664,0.9999999999999999,20.317428010088133
8.672,0.9999999999999999,20.09510648034134
8.68,0.9999999999999999,19.872684397828472
8.688,0.9999999999999998,19.65016248729442
8.696,1.0,19.427541476162357
8.704,1.0,19.204822094517453
8.712,1.0,18.98200507509111
8.72,1.0,18.75909115324444
8.728,1.0,18.536081066952132
8.736,0.9999999999999999,18.312975556785478
8.744,0.9999999999999999,18.08977536589597
8.752,1.0,17.866481239997942
8.76,1.0,17.643093927351824
8.768,1.0,17.41961417874642
8.776,0.9999999999999999,17.19604274748182
8.784,1.0,16.97238038935131
8.792,0.9999999999999999,16.748627862623955
8.8,1.0,16.52478592802615
8.808,0.9999999999999999,16.30085534872389
8.815999999999999,0.9999999999999999,16.076836890303976
8.824,0.9999999999999999,15.852731320755716
8.832,0.9999999999999999,15.628539410452255
8.84,1.0,15.404261932131648
8.847999999999999,1.0,15.179899660877714
8.856,1.0,14.955453374100925
8.864,0.9999999999999999,14.730923851519124
8.872,0.9999999999999998,14.506311875137907
8.879999999999999,1.0,14.281618229230794
8.888,1.0,14.056843700319511
8.896,1.0000000000000002,13.831989077153997
8.904,0.9999999999999999,13.60705515069216
8.911999999999999,1.0,13.382042714079404
8.92,1.0,13.156952562628225
8.928,0.9999999999999999,12.931785493797666
8.936,0.9999999999999999,12.706542307172334
8.943999999999999,0.9999999999999998,12.48122380444136
8.952,0.9999999999999999,12.255830789377358
8.96,1.0,12.030364067815214
8.968,0.9999999999999999,11.804824447630551
8.975999999999999,1.0,11.579212738718025
8.984,1.0,11.353529752969694
8.992,1.0,11.127776304253201
9.0,0.9999999999999999,10.901953208389637
9.008,0.9999999999999998,10.676061283131238
9.016,1.0,10.45010134813917
9.024000000000001,0.9999999999999999,10.224074224961116
9.032,0.9999999999999999,9.99798073700858
9.04,1.0,9.771821709533986
9.048,1.0,9.545597969607908
9.056000000000001,0.9999999999999999,9.319310346096078
9.064,0.9999999999999999,9.092959669636164
9.072,1.0,8.86654677261427
9.08,1.0,8.640072489141643
9.088000000000001,1.0,8.413537655031153
9.096,1.0,8.186943107773482
9.104,1.0,7.960289686513163
9.112,1.0,7.733578232024713
9.120000000000001,0.9999999999999999,7.506809586688603
9.128,1.0,7.279984594466946
9.136,1.0,7.053104100879013
9.144,0.9999999999999999,6.826168952976874
9.152000000000001,1.0,6.599179999320877
9.16,1.0,6.3721380899548326
9.168,1.0,6.145044076381056
9.176,1.0,5.917898811535541
9.184000000000001,1.0,5.690703149762946
9.192,0.9999999999999998,5.463457946791321
9.2,1.0,5.236164059706732
9.208,1.0,5.008822346927915
9.216000000000001,1.0,4.78143366818088
9.224,0.9999999999999999,4.553998884473167
9.232,0.9999999999999999,4.326518858068039
9.24,0.9999999999999999,4.098994452458738
9.248000000000001,0.9999999999999999,3.8714265323426327
9.256,1.0,3.6438159635951166
9.264,0.9999999999999999,3.4161636132433535
9.272,1.0,3.1884703494401463
9.280000000000001,1.0,2.9607370414377234
9.288,0.9999999999999999,2.732964559561208
9.296,1.0,2.5051537751820336
9.304,0.9999999999999999,2.277305560691416
9.312000000000001,0.9999999999999999,2.049420789473795
9.32,1.0,1.8215003358799495
9.328,1.0,1.5935450752000577
9.336,1.0,1.3655558836368387
9.344,0.9999999999999999,1.137533638278713
9.352,0.9999999999999999,0.9094792170723348
9.36,0.9999999999999999,0.6813934987958539
9.368,1.0,0.453277363031238
9.376,1.0,0.2251316901373825
9.384,1.0,-0.0030426387776881576
9.392,1.0,-0.2312447418838679
9.4,1.0,-0.4594737366569031
9.408,0.9999999999999999,-0.6877287399055646
9.416,0.9999999999999999,-0.9160088677997007
9.424,0.9999999999999999,-1.1443132358975379
9.432,1.0,-1.3726409591738653
9.44,0.9999999999999999,-1.6009911520474511
9.448,0.9999999999999999,-1.8293629284093043
9.456,0.9999999999999999,-2.057755401650235
9.464,1.0,-2.286167684689217
9.472,0.9999999662905774,-2.51459889000102
9.48,0.9999998437300324,-2.743048129644697
9.488,0.9999997205152223,-2.9715145152912914
9.496,0.9999995966743768,-3.1999971582524136
9.504,0.999999472235641,-3.4284951695080426
9.512,0.9999993472270741,-3.657007659735165
9.52,0.9999992216766447,-3.8855337393356466
9.528,0.9999990956122283,-4.1140725184649805
9.536,0.9999989690616037,-4.342623107060199
9.544,0.999998842052449,-4.571184614868668
9.552,0.9999987146123396,-4.799756151476071
9.56,0.9999985867687438,-5.028336826335277
9.568,0.9999984585490211,-5.256925748794356
9.576,0.9999983299804169,-5.4855220281254935
9.584,0.9999982010900625,-5.714124773553055
9.592,0.9999980719049681,-5.942733094282535
9.6,0.9999979424520239,-6.171346099528645
9.608,0.9999978127579936,-6.39996289854431
9.616,0.9999976828495143,-6.628582600648781
9.624,0.9999975527530915,-6.857204315256617
9.632,0.9999974224950972,-7.085827151905891
9.64,0.9999972921017675,-7.314450220287096
9.648,0.9999971615991989,-7.54307263027141
9.656,0.9999970310133456,-7.771693491939625
9.664,0.9999969003700181,-8.000311915610347
9.672,0.9999967696948789,-8.228927011868981
9.68,0.9999966390134413,-8.457537891595914
9.688,0.9999965083510655,-8.686143665995449
9.696,0.9999963777329576,-8.914743446624007
9.704,0.9999962471841656,-9.143336345419053
9.712,0.9999961167295779,-9.371921474727245
9.72,0.9999959863939207,-9.600497947333334
9.728,0.9999958562017565,-9.829064876488282
9.736,0.9999957261774794,-10.057621375938142
9.744,0.9999955963453161,-10.28616655995213
9.752,0.9999954667293206,-10.51469954335145
9.76,0.9999953373533744,-10.743219441537313
9.768,0.999995208241183,-10.97172537051972
9.776,0.9999950794162752,-11.20021644694543
9.784,0.9999949509019985,-11.428691788126665
9.792,0.9999948227215208,-11.657150512069029
9.8,0.9999946948978249,-11.885591737500135
