freq,mag,phase
6.0,0.999988458070094,83.16884929396281
6.008,0.9999884926670288,83.00351478535558
6.016,0.9999885205273699,82.83803610183632
6.024,0.9999885417834188,82.67241315987597
6.032,0.999988556566536,82.50664587694172
6.04,0.9999885650071401,82.34073417150383
6.048,0.9999885672347076,82.17467796304234
6.056,0.9999885633777731,82.00847717205376
6.064,0.9999885535639286,81.84213172005782
6.072,0.9999885379198241,81.67564152960426
6.08,0.9999885165711667,81.50900652427956
6.088,0.9999884896427212,81.34222662871369
6.096,0.9999884572583102,81.17530176858703
6.104,0.9999884195408127,81.00823187063706
6.112,0.9999883766121656,80.8410168626652
6.12,0.9999883285933634,80.67365667354369
6.128,0.9999882756044571,80.50615123322238
6.136,0.9999882177645558,80.33850047273563
6.144,0.9999881551918263,80.17070432420915
6.152,0.9999880880034921,80.00276272086694
6.16,0.999988016315835,79.83467559703803
6.168,0.9999879402441947,79.6664428881636
6.176,0.9999878599029683,79.4980645308037
6.184,0.9999877754056122,79.32954046264433
6.192,0.9999876868646402,79.16087062250419
6.2,0.9999875943916248,78.99205495034182
6.208,0.9999874980971983,78.82309338726247
6.216,0.9999873980910511,78.65398587552502
6.224,0.9999872944819338,78.48473235854902
6.232,0.9999871873776564,78.31533278092165
6.24,0.9999870768850895,78.1457870884047
6.248,0.9999869631101641,77.97609522794164
6.256,0.9999868461578717,77.8062571476645
6.264,0.9999867261322659,77.63627279690101
6.272,0.999986603136462,77.46614212618161
6.28,0.9999864772726371,77.29586508724638
6.288,0.9999863486420316,77.12544163305222
6.296,0.9999862173449496,76.95487171777982
6.304,0.9999860834807579,76.78415529684074
6.312,0.9999859471478895,76.61329232688445
6.32,0.9999858084438409,76.44228276580542
6.328,0.9999856674651751,76.2711265727502
6.336,0.9999855243075216,76.09982370812452
6.344,0.9999853790655769,75.92837413360033
6.352,0.9999852318331052,75.7567778121229
6.36,0.9999850827029392,75.58503470791797
6.368,0.9999849317669802,75.41314478649878
6.376,0.9999847791162014,75.24110801467326
6.384,0.9999846248406451,75.06892436055105
6.392,0.9999844690294264,74.89659379355072
6.4,0.9999843117707322,74.72411628440678
6.408,0.9999841531518237,74.55149180517688
6.416,0.9999839932590362,74.37872032924894
6.424,0.9999838321777805,74.2058018313482
6.432,0.9999836699925433,74.03273628754442
6.44,0.9999835067868896,73.85952367525906
6.448,0.9999833426434618,73.68616397327227
6.456,0.9999831776439828,73.51265716173016
6.464,0.9999830118692551,73.33900322215186
6.472,0.9999828453991635,73.16520213743672
6.48,0.9999826783126757,72.99125389187138
6.4879999999999995,0.999982510687843,72.81715847113702
6.496,0.9999823426018026,72.64291586231631
6.504,0.9999821741307775,72.46852605390086
6.5120000000000005,0.9999820053500788,72.2939890357979
6.52,0.9999818363341065,72.119304799338
6.5280000000000005,0.9999816671563513,71.9444733372816
6.536,0.999981497889395,71.76949464382666
6.5440000000000005,0.9999813286049135,71.59436871461541
6.552,0.9999811593736759,71.41909554674181
6.5600000000000005,0.9999809902655483,71.2436751387583
6.568,0.9999808213494937,71.06810749068336
6.5760000000000005,0.9999806526935746,70.89239260400818
6.584,0.9999804843649532,70.71653048170421
6.592,0.9999803164298943,70.54052112822991
6.6,0.9999801489537661,70.36436454953808
6.608,0.9999799820010421,70.1880607530829
6.616,0.9999798156353028,70.01160974782698
6.624,0.9999796499192367,69.83501154424852
6.632,0.9999794849146438,69.6582661543484
6.64,0.9999793206824349,69.48137359165717
6.648,0.9999791572826353,69.30433387124225
6.656,0.9999789947743859,69.12714700971488
6.664,0.9999788332159449,68.94981302523723
6.672,0.9999786726646898,68.77233193752944
6.68,0.9999785131771196,68.59470376787671
6.688,0.9999783548088561,68.41692853913624
6.696,0.9999781976146467,68.23900627574432
6.704,0.9999780416483657,68.0609370037233
6.712,0.9999778869630166,67.88272075068868
6.72,0.9999777336107342,67.70435754585598
6.728,0.9999775816427863,67.52584742004781
6.736,0.9999774311095767,67.3471904057008
6.744,0.9999772820606466,67.16838653687257
6.752,0.9999771345446768,66.98943584924871
6.76,0.9999769886094899,66.81033838014963
6.768,0.9999768443020539,66.6310941685376
6.776,0.9999767016684818,66.45170325502352
6.784,0.9999765607540372,66.27216568187394
6.792,0.9999764216031329,66.09248149301784
6.8,0.9999762842593374,65.9126507340536
6.808,0.9999761487653736,65.73267345225574
6.816,0.9999760151631236,65.55254969658182
6.824,0.999975883493631,65.3722795176792
6.832,0.9999757537971018,65.19186296789199
6.84,0.9999756261129084,65.01130010126761
6.848,0.9999755004795924,64.83059097356373
6.856,0.9999753769348658,64.64973564225498
6.864,0.999975255515615,64.46873416653965
6.872,0.9999751362579027,64.28758660734637
6.88,0.9999750191969712,64.10629302734094
6.888,0.9999749043672443,63.92485349093283
6.896,0.9999747918023314,63.74326806428198
6.904,0.9999746815350283,63.5615368153053
6.912,0.9999745735973226,63.37965981368342
6.92,0.9999744680203944,63.197637130867186
6.928,0.99997436483462,63.015468840084225
6.936,0.9999742640695757,62.83315501634557
6.944,0.9999741657540392,62.650695736452064
6.952,0.9999740699159938,62.46809107900096
6.96,0.9999739765826312,62.28534112439237
6.968,0.9999738857803536,62.10244595483567
6.976,0.999973797534779,61.91940565435599
6.984,0.9999737118707418,61.73622030880057
6.992,0.9999736288122979,61.552890005845136
7.0,0.9999735483827265,61.36941483500027
7.008,0.9999734706045353,61.18579488761771
7.016,0.9999733954994614,61.00203025689664
7.024,0.9999733230884762,60.818121037889995
7.032,0.9999732533917884,60.63406732751064
7.04,0.999973186428847,60.449869224537615
7.048,0.9999731222183456,60.26552682962228
7.056,0.9999730607782246,60.08104024529451
7.064,0.9999730021256756,59.89640957596878
7.072,0.9999729462771454,59.71163492795025
7.08,0.9999728932483375,59.52671640944082
7.088,0.9999728430542185,59.341654130545194
7.096,0.9999727957090188,59.15644820327678
7.104,0.999972751226239,58.97109874156375
7.112,0.9999727096186514,58.785605861254865
7.12,0.9999726708983052,58.59996968012546
7.128,0.9999726350765298,58.414190317883254
7.136,0.9999726021639374,58.2282678961741
7.144,0.9999725721704291,58.04220253858794
7.152,0.9999725451051973,57.85599437066433
7.16,0.9999725209767291,57.669643519898315
7.168,0.999972499792812,57.483150115746106
7.176,0.9999724815605362,57.29651428963058
7.184,0.9999724662862993,57.109736174946995
7.192,0.9999724539758104,56.9228159070685
7.2,0.999972444634094,56.735753623351684
7.208,0.9999724382654932,56.548549463141995
7.216,0.9999724348736766,56.361203567779256
7.224,0.999972434461639,56.17371608060298
7.232,0.999972437031707,55.98608714695777
7.24,0.9999724425855442,55.79831691419866
7.248,0.999972451124155,55.61040553169629
7.256,0.9999724626478869,55.42235315084221
7.264,0.9999724771564379,55.2341599250541
7.272,0.9999724946488585,55.04582600978078
7.28,0.9999725151235576,54.85735156250737
7.288,0.9999725385783053,54.66873674276035
7.296,0.9999725650102392,54.4799817121126
7.304,0.9999725944158676,54.291086634188225
7.312,0.9999726267910745,54.10205167466758
7.32,0.9999726621311236,53.91287700129207
7.328,0.9999727004306637,53.723562783869006
7.336,0.9999727416837326,53.5341091942763
7.344,0.9999727858837628,53.344516406467264
7.352,0.9999728330235844,53.15478459647519
7.36,0.9999728830954309,52.964913942417994
7.368,0.9999729360909441,52.7749046245028
7.376,0.9999729920011784,52.584756825030425
7.384,0.999973050816606,52.39447072839985
7.392,0.9999731125271211,52.20404652111258
7.4,0.9999731771220451,52.01348439177703
7.4079999999999995,0.9999732445901315,51.822784531112845
7.416,0.999973314919571,51.6319471319551
7.4239999999999995,0.999973388097996,51.44097238925853
7.432,0.9999734641124858,51.24986050010157
7.4399999999999995,0.9999735429495712,51.058611663690584
7.448,0.9999736245952403,50.867226081363704
7.4559999999999995,0.9999737090349433,50.67570395659499
7.464,0.9999737962535965,50.48404549499807
7.4719999999999995,0.9999738862355894,50.29225090433031
7.48,0.9999739789647877,50.100320394496286
7.4879999999999995,0.9999740744245402,49.90825417755178
7.496,0.9999741725976832,49.71605246770722
7.504,0.9999742734665451,49.52371548133147
7.5120000000000005,0.9999743770129537,49.33124343695519
7.52,0.9999744832182382,49.13863655527457
7.5280000000000005,0.9999745920632382,48.945895059154424
7.536,0.9999747035283058,48.75301917363191
7.5440000000000005,0.9999748175933135,48.56000912591945
7.552,0.9999749342376575,48.366865145408354
7.5600000000000005,0.9999750534402649,48.17358746367159
7.568,0.9999751751795976,47.98017631446724
7.5760000000000005,0.9999752994336584,47.78663193374125
7.584,0.9999754261799966,47.59295455963063
7.5920000000000005,0.9999755553957139,47.399144432466116
7.6,0.9999756870574681,47.20520179477532
7.6080000000000005,0.9999758211414814,47.01112689128514
7.616,0.9999759576235439,46.81691996892475
7.6240000000000006,0.9999760964790193,46.62258127682807
7.632,0.9999762376828516,46.428111066336434
7.640000000000001,0.9999763812095703,46.23350959100088
7.648,0.9999765270332952,46.03877710658491
7.656000000000001,0.9999766751277435,45.843913871066455
7.664,0.9999768254662342,45.64892014464051
7.672,0.9999769780216952,45.45379618972103
7.68,0.9999771327666674,45.258542270943245
7.688,0.9999772896733118,45.06315865516577
7.696,0.9999774487134148,44.86764561147239
7.704,0.9999776098583939,44.672003411174124
7.712,0.999977773079304,44.476232327811054
7.72,0.9999779383468422,44.280332637154025
7.728,0.9999781056313551,44.08430461720636
7.736,0.9999782749028436,43.888148548205535
7.744,0.9999784461309694,43.69186471262458
7.752,0.9999786192850602,43.495453395173676
7.76,0.9999787943341165,43.29891488280143
7.768,0.9999789712468172,43.10224946469625
7.776,0.9999791499915253,42.905457432287506
7.784,0.9999793305362941,42.70853907924675
7.792,0.9999795128488738,42.51149470148868
7.8,0.9999796968967163,42.3143245971722
7.808,0.9999798826469822,42.11702906670133
7.816,0.9999800700665463,41.919608412725964
7.824,0.9999802591220044,41.72206294014264
7.832,0.999980449779678,41.52439295609524
7.84,0.9999806420056223,41.32659876997548
7.848,0.9999808357656308,41.128680693423526
7.856,0.9999810310252416,40.93063904032826
7.864,0.9999812277497445,40.73247412682771
7.872,0.9999814259041864,40.534186271309245
7.88,0.9999816254533761,40.335775794409756
7.888,0.999981826361894,40.137243019015706
7.896,0.9999820285940947,39.93858827026313
7.904,0.9999822321141154,39.739811875537505
7.912,0.9999824368858808,39.54091416447362
7.92,0.9999826428731102,39.34189546895522
7.928,0.9999828500393236,39.142756123114744
7.936,0.9999830583478466,38.943496463332785
7.944,0.9999832677618191,38.74411682823762
7.952,0.999983478244199,38.54461755870447
7.96,0.9999836897577706,38.34499899785501
7.968,0.9999839022651488,38.14526149105626
7.976,0.999984115728787,37.945405385919955
7.984,0.9999843301109829,37.74543103230141
7.992,0.9999845453738839,37.5453387822985
8.0,0.9999847614794949,37.34512899025046
8.008,0.9999849783896831,37.144802012736676
8.016,0.9999851960661852,36.944358208575224
8.024000000000001,0.999985414470614,36.74379793882161
8.032,0.9999856335644626,36.5431215667671
8.04,0.9999858533091138,36.34232945793706
8.048,0.9999860736658432,36.1414219800893
8.056000000000001,0.9999862945958288,35.94039950321231
8.064,0.9999865160601543,35.73926239952333
8.072,0.9999867380198167,35.538011043466184
8.08,0.999986960435733,35.33664581170932
8.088000000000001,0.9999871832687456,35.1351670831437
8.096,0.9999874064796292,34.933575238880394
8.104,0.9999876300290962,34.73187066224811
8.112,0.999987853877805,34.530053738790876
8.120000000000001,0.9999880779863635,34.32812485626544
8.128,0.9999883023153372,34.12608440463859
8.136,0.9999885268252554,33.92393277608423
8.144,0.9999887514766168,33.72167036498069
8.152000000000001,0.999988976229896,33.519297567907735
8.16,0.9999892010455497,33.31681478364352
8.168,0.9999894258840237,33.1142224131613
8.176,0.9999896507057574,32.911520859626236
8.184000000000001,0.9999898754711918,32.70871052839214
8.192,0.9999901001407747,32.50579182699798
8.2,0.9999903246749675,32.30276516516414
8.208,0.9999905490342511,32.09963095478896
8.216000000000001,0.9999907731791317,31.896389609945007
8.224,0.9999909970701472,31.693041546875133
8.232,0.9999912206678749,31.489587183988476
8.24,0.9999914439329343,31.28602694185646
8.248000000000001,0.999991666825997,31.082361243208712
8.256,0.9999918893077899,30.878590512928795
8.264,0.9999921113391034,30.67471517804971
8.272,0.9999923328807954,30.47073566774951
8.280000000000001,0.9999925538937995,30.266652413346904
8.288,0.9999927743391301,30.06246584829646
8.296,0.9999929941778877,29.858176408183756
8.304,0.9999932133712666,29.65378453072065
8.312,0.9999934318805592,29.44929065574041
8.32,0.999993649667164,29.244695225192352
8.328,0.9999938666925892,29.039998683137064
8.336,0.9999940829184606,28.835201475740735
8.344,0.9999942983065263,28.630304051270205
8.352,0.9999945128186635,28.42530686008704
8.36,0.999994726416884,28.220210354642425
8.368,0.9999949390633405,28.015014989471073
8.376,0.999995150720331,27.809721221185825
8.384,0.9999953613503071,27.604329508471377
8.392,0.9999955709158771,27.398840312078743
8.4,0.9999957793798143,27.1932540948187
8.408,0.9999959867050606,26.98757132155605
8.416,0.9999961928547341,26.781792459202908
8.424,0.999996397792133,26.575917976712738
8.432,0.9999966014807432,26.36994834507343
8.44,0.9999968038842423,26.1638840373011
8.448,0.9999970049665061,25.957725528433045
8.456,0.999997204691614,25.751473295521237
8.464,0.9999974030238546,25.545127817625133
8.472,0.9999975999277314,25.338689575804977
8.48,0.9999977953679681,25.132159053114364
8.488,0.9999979893095138,24.92553673459337
8.496,0.9999981817175488,24.718823107260846
8.504,0.9999983725574907,24.51201866010742
8.512,0.9999985617949987,24.305123884087575
8.52,0.999998749395979,24.098139272112412
8.528,0.9999989353265908,23.89106531904154
8.536,0.9999991195532513,23.68390252167564
8.544,0.9999993020426409,23.476651378748116
8.552,0.9999994827617084,23.269312390917523
8.56,0.999999661677676,23.06188606075898
8.568,0.999999838758045,22.85437289275635
8.576,1.0,22.64677339329351
8.584,1.0,22.439088070646324
8.592,1.0,22.231317434973686
8.6,0.9999999999999998,22.02346199830927
8.608,0.9999999999999999,21.815522274552443
8.616,0.9999999999999999,21.60749877945976
8.624,0.9999999999999999,21.399392030635656
8.632,1.0,21.19120254752381
8.64,1.0,20.982930851397583
8.648,0.9999999999999999,20.774577465351197
8.656,0.9999999999999999,20.566142914289962
8.664,1.0,20.357627724921276
8.672,1.0,20.149032425744654
8.68,0.9999999999999999,19.940357547042495
8.688,0.9999999999999999,19.731603620869972
8.696,0.9999999999999999,19.522771181045538
8.704,1.0,19.313860763140664
8.712,1.0,19.10487290447013
8.72,1.0,18.89580814408159
8.728,1.0,18.686667022745628
8.736,1.0,18.47745008294514
8.744,1.0,18.26815786886527
8.752,1.0,18.058790926382464
8.76,1.0,17.84934980305433
8.768,0.9999999999999998,17.63983504810847
8.776,1.0,17.43024721243208
8.784,1.0,17.2205868485607
8.792,0.9999999999999999,17.010854510667578
8.8,0.9999999999999999,16.801050754552186
8.808,1.0,16.59117613762948
8.815999999999999,1.0,16.381231218918217
8.824,0.9999999999999999,16.1712165590298
8.832,1.0,15.961132720156868
8.84,1.0,15.750980266061688
8.847999999999999,1.0,15.540759762064383
8.856,1.0,15.330471775031327
8.864,1.0,15.120116873363393
8.872,0.9999999999999999,14.909695626983963
8.879999999999999,1.0000000000000002,14.699208607326831
8.888,0.9999999999999999,14.488656387324157
8.896,1.0,14.278039541394481
8.904,1.0,14.067358645430266
8.911999999999999,1.0,13.856614276785496
8.92,1.0,13.645807014263317
8.928,0.9999999999999999,13.43493743810359
8.936,1.0,13.224006129970215
8.943999999999999,1.0,13.013013672938285
8.952,1.0,12.801960651481458
8.96,0.9999999999999999,12.59084765145912
8.968,1.0,12.379675260103385
8.975999999999999,1.0,12.168444066005936
8.984,1.0,11.95715465910501
8.992,0.9999999999999998,11.745807630672292
9.0,0.9999999999999998,11.534403573299542
9.008,1.0,11.322943080885134
9.016,1.0,11.111426748620701
9.024000000000001,1.0,10.89985517297772
9.032,1.0,10.68822895169381
9.04,1.0,10.476548683758972
9.048,1.0,10.264814969401897
9.056000000000001,0.9999999999999999,10.053028410076255
9.064,0.9999999999999999,9.841189608446683
9.072,1.0,9.629299168374713
9.08,0.9999999999999999,9.417357694904783
9.088000000000001,1.0,9.20536579425024
9.096,0.9999999999999997,8.993324073778988
9.104,0.9999999999999999,8.78123314199917
9.112,1.0,8.569093608544867
9.120000000000001,0.9999999999999999,8.356906084161789
9.128,0.9999999999999999,8.1446711806927
9.136,0.9999999999999998,7.932389511062734
9.144,1.0,7.720061689264887
9.152000000000001,0.9999999999999999,7.507688330345396
9.16,1.0,7.295270050388885
9.168,1.0,7.08280746650344
9.176,0.9999999999999999,6.870301196805796
9.184000000000001,0.9999999999999999,6.657751860406477
9.192,1.0,6.445160077394678
9.2,1.0,6.232526468823074
9.208,1.0,6.019851656692758
9.216000000000001,1.0,5.807136263938136
9.224,0.9999999999999999,5.594380914411533
9.232,1.0,5.381586232867785
9.24,1.0,5.1687528449489335
9.248000000000001,1.0000000000000002,4.955881377168856
9.256,1.0,4.742972456897682
9.264,1.0,4.530026712346107
9.272,1.0,4.317044772549879
9.280000000000001,0.9999999999999999,4.104027267354224
9.288,1.0,3.890974827397988
9.296,1.0,3.677888084097796
9.304,1.0,3.464767669632282
9.312000000000001,0.9999999999999998,3.2516142169263125
9.32,0.9999999999999999,3.038428359634931
9.328,1.0,2.825210732127304
9.336,1.0,2.6119619694707517
9.344,0.9999999999999998,2.39868270741483
9.352,1.0,2.1853735823748415
9.36,0.9999999999999999,1.9720352314160607
9.368,1.0,1.7586682922371135
9.376,1.0,1.5452734031541018
9.384,1.0,1.3318512030839178
9.392,0.9999999999999999,1.1184023315282525
9.4,0.9999999999999999,0.9049274285568516
9.408,1.0,0.6914271347914293
9.416,0.9999999999999999,0.4779020913888581
9.424,1.0,0.2643529400249884
9.432,0.9999999999999999,0.050780322877766904
9.44,1.0,-0.16281511738900079
9.448,0.9999999999999999,-0.3764327376426298
9.456,1.0,-0.5900718942978376
9.464,0.9999999999999999,-0.8037319433337957
9.472,0.9999999999999999,-1.0174122403105208
9.48,0.9999999999999999,-1.2311121403859344
9.488,0.9999999999999999,-1.4448309983323038
9.496,1.0,-1.6585681685534366
9.504,0.9999999999999999,-1.8723230051011257
9.512,1.0,-2.0860948616924158
9.52,0.9999999999999999,-2.2998830917260764
9.528,0.9999999999999999,-2.513687048299941
9.536,1.0,-2.7275060842274566
9.544,1.0,-2.941339552055031
9.552,1.0,-3.1551868040786237
9.56,0.9999999999999999,-3.3690471923611773
9.568,1.0,-3.582920068749216
9.576,1.0,-3.7968047848903157
9.584,1.0,-4.0107006922497765
9.592,1.0,-4.22460714212809
9.6,1.0,-4.4385234856776545
9.608,0.9999998874017773,-4.652449073920287
9.616,0.9999996989860318,-4.866383257763949
9.624,0.999999508234774,-5.080325388020303
9.632,0.9999993151768815,-5.294274815421467
9.64,0.9999991198416797,-5.508230890637551
9.648,0.999998922258936,-5.722192964293483
9.656,0.9999987224588585,-5.9361603869865585
9.664,0.9999985204720907,-6.150132509303259
9.672,0.9999983163297089,-6.364108681836825
9.68,0.9999981100632184,-6.578088255204087
9.688,0.999997901704549,-6.792070580063067
9.696,0.999997691286053,-7.006055007129795
9.704,0.999997478840499,-7.220040887195931
9.712,0.9999972644010697,-7.434027571145578
9.72,0.9999970480013574,-7.648014409972897
9.728,0.9999968296753596,-7.862000754798949
9.736,0.9999966094574748,-8.075985956889282
9.744,0.9999963873824995,-8.289969367670789
9.752,0.999996163485622,-8.503950338749283
9.76,0.9999959378024206,-8.717928221926307
9.768,0.9999957103688563,-8.931902369216767
9.776,0.9999954812212706,-9.1458721328657
9.784,0.9999952503963795,-9.359836865365864
9.792,0.999995017931271,-9.573795919474536
9.8,0.9999947838633974,-9.787748648231062
9.808,0.9999945482305742,-10.001694404973627
9.816,0.9999943110709716,-10.215632543356786
