freq,mag,phase
6.0,0.9999964920702626,113.50233562026945
6.008,0.9999970298217101,113.40941127342138
6.016,0.9999975551183445,113.31647048798098
6.024,0.9999980680621932,113.22351325221685
6.032,0.9999985687548565,113.13053955441369
6.04,0.9999990572975062,113.03754938287257
6.048,0.9999995337908889,112.94454272591115
6.056,0.9999999983353254,112.85151957186396
6.064,1.0,112.75847990908264
6.072,1.0,112.66542372593625
6.08,1.0,112.5723510108116
6.088,0.9999999999999999,112.47926175211337
6.096,1.0000000000000002,112.3861559382646
6.104,0.9999999999999999,112.29303355770678
6.112,1.0,112.19989459890031
6.12,1.0,112.1067390503247
6.128,0.9999999999999999,112.01356690047892
6.136,0.9999999999999999,111.92037813788167
6.144,1.0,111.82717275107171
6.152,1.0,111.7339507286082
6.16,1.0,111.64071205907099
6.168,0.9999999999999999,111.54745673106098
6.176,1.0,111.45418473320036
6.184,1.0,111.3608960541331
6.192,1.0,111.26759068252514
6.2,1.0,111.17426860706487
6.208,1.0,111.08092981646341
6.216,1.0,110.98757429945493
6.224,1.0,110.89420204479714
6.232,1.0,110.80081304127154
6.24,1.0,110.70740727768387
6.248,0.9999999999999999,110.61398474286445
6.256,0.9999999999999999,110.52054542566863
6.264,1.0,110.42708931497715
6.272,1.0,110.3336163996965
6.28,1.0000000000000002,110.24012666875942
6.288,0.9999999999999999,110.14662011112524
6.296,1.0,110.05309671578041
6.304,0.9999999999999999,109.95955647173878
6.312,1.0,109.86599936804218
6.32,1.0,109.77242539376078
6.328,0.9999999999999999,109.67883453799365
6.336,0.9999999999999999,109.58522678986907
6.344,1.0,109.49160213854513
6.352,1.0,109.39796057321017
6.36,1.0,109.30430208308329
6.368,1.0,109.21062665741476
6.376,0.9999999999999999,109.1169342854867
6.384,1.0,109.02322495661339
6.392,1.0,108.92949866014197
6.4,1.0,108.83575538545288
6.408,1.0,108.74199512196041
6.416,0.9999999999999998,108.64821785911332
6.424,1.0,108.5544235863953
6.432,1.0,108.46061229332568
6.44,0.9999999999999999,108.36678396945985
6.448,1.0,108.27293860438999
6.456,1.0,108.17907618774566
6.464,1.0,108.0851967091943
6.472,1.0,107.99130015844204
6.48,1.0,107.89738652523415
6.4879999999999995,1.0,107.80345579935585
6.496,1.0,107.70950797063281
6.504,0.9999999999999999,107.61554302893201
6.5120000000000005,1.0,107.52156096416223
6.52,1.0,107.4275617662749
6.5280000000000005,0.9999999999999999,107.33354542526466
6.536,1.0,107.23951193117027
6.5440000000000005,0.9999999999999999,107.14546127407507
6.552,1.0,107.05139344410799
6.5600000000000005,1.0,106.95730843144406
6.568,0.9999999999999999,106.86320622630542
6.5760000000000005,0.9999999999999999,106.76908681896182
6.584,0.9999999999999999,106.67495019973164
6.592,0.9999999999999999,106.58079635898252
6.6,1.0,106.4866252871322
6.608,0.9999999999999999,106.39243697464941
6.616,1.0,106.29823141205463
6.624,1.0,106.20400858992085
6.632,0.9999999999999999,106.1097684988746
6.64,1.0,106.01551112959658
6.648,1.0,105.92123647282268
6.656,0.9999999999999998,105.82694451934476
6.664,1.0,105.73263526001156
6.672,1.0,105.63830868572957
6.68,0.9999999999999999,105.54396478746384
6.688,1.0,105.449603556239
6.696,0.9999999999999999,105.35522498314005
6.704,1.0,105.26082905931321
6.712,0.9999999999999998,105.16641577596698
6.72,0.9999999999999999,105.07198512437282
6.728,0.9999999999999999,104.97753709586617
6.736,0.9999999999999999,104.8830716818473
6.744,1.0,104.78858887378216
6.752,1.0,104.69408866320326
6.76,0.9999999999999999,104.59957104171052
6.768,1.0,104.50503600097213
6.776,0.9999999999999999,104.41048353272532
6.784,0.9999999999999999,104.31591362877724
6.792,1.0,104.22132628100567
6.8,0.9999999999999999,104.12672148135985
6.808,1.0,104.03209922186109
6.816,0.9999999999999998,103.93745949460362
6.824,0.9999999999999999,103.8428022917551
6.832,0.9999999999999999,103.74812760555731
6.84,1.0,103.65343542832672
6.848,0.9999999999999999,103.55872575245492
6.856,1.0,103.46399857040917
6.864,0.9999999999999999,103.36925387473269
6.872,1.0,103.27449165804508
6.88,1.0,103.1797119130424
6.888,0.9999999999999999,103.08491463249746
6.896,0.9999999999999999,102.99009980925976
6.904,0.9999998621466388,102.8952674362555
6.912,0.9999995553222076,102.8004175064873
6.92,0.9999992458170845,102.70555001303401
6.928,0.9999989337325024,102.6106649490502
6.936,0.9999986191714583,102.51576230776556
6.944,0.9999983022388089,102.42084208248413
6.952,0.9999979830413678,102.32590426658348
6.96,0.9999976616880033,102.23094885351337
6.968,0.9999973382897457,102.13597583679463
6.976,0.9999970129598924,102.04098521001745
6.984,0.9999966858141198,101.94597696683962
6.992,0.9999963569705992,101.85095110098455
7.0,0.9999960265501147,101.75590760623872
7.008,0.9999956946761851,101.66084647644934
7.016,0.9999953614751913,101.56576770552105
7.024,0.9999950270765061,101.47067128741286
7.032,0.9999946916126269,101.37555721613427
7.04,0.9999943552193147,101.28042548574133
7.048,0.9999940180357332,101.18527609033202
7.056,0.999993680204595,101.09010902404133
7.064,0.9999933418723088,100.99492428103571
7.072,0.9999930031891303,100.89972185550724
7.08,0.9999926643093173,100.80450174166693
7.088,0.9999923253912854,100.7092639337377
7.096,0.9999919865977679,100.61400842594658
7.104,0.9999916480959796,100.51873521251632
7.112,0.9999913100577772,100.42344428765628
7.12,0.999990972659828,100.32813564555252
7.128,0.9999906360837728,100.2328092803572
7.136,0.9999903005163953,100.13746518617711
7.144,0.9999899661497879,100.04210335706127
7.152,0.9999896331815159,99.94672378698769
7.16,0.9999893018147842,99.85132646984916
7.168,0.9999889722585972,99.75591139943796
7.176,0.999988644727918,99.66047856942959
7.184,0.9999883194438225,99.56502797336529
7.192,0.9999879966336475,99.46955960463359
7.2,0.9999876765311313,99.37407345645047
7.208,0.9999873593765495,99.2785695218384
7.216,0.9999870454168356,99.18304779360399
7.224,0.9999867349056968,99.08750826431448
7.232,0.9999864281037089,98.99195092627272
7.24,0.9999861252784035,98.89637577149084
7.248,0.9999858267043337,98.80078279166244
7.256,0.99998553266312,98.70517197813344
7.264,0.9999852434434788,98.60954332187129
7.272,0.9999849593412207,98.51389681343298
7.28,0.9999846806592242,98.41823244293137
7.288,0.9999844077073826,98.32255020000005
7.296,0.9999841408025114,98.22685007375705
7.304,0.9999838802682249,98.13113205276676
7.312,0.9999836264347693,98.03539612500091
7.32,0.9999833796388156,97.93964227779794
7.328,0.9999831402232034,97.84387049782137
7.336,0.9999829085366372,97.74808077101706
7.344,0.9999826849333232,97.65227308256951
7.352,0.9999824697725527,97.55644741685725
7.36,0.9999822634182225,97.46060375740792
7.368,0.9999820662382864,97.36474208685247
7.376,0.9999818786041407,97.26886238687952
7.384,0.9999817008899325,97.17296463818975
7.392,0.9999815334717926,97.07704882045044
7.4,0.9999813767269873,96.98111491225106
7.4079999999999995,0.9999812310329875,96.8851628910596
7.416,0.9999810967664479,96.78919273318057
7.4239999999999995,0.9999809743021008,96.69320441371487
7.432,0.9999808640115557,96.59719790652191
7.4399999999999995,0.9999807662620109,96.5011731841849
7.448,0.9999806814148681,96.40513021797912
7.4559999999999995,0.9999806098242568,96.30906897784466
7.464,0.9999805518354685,96.2129894323634
7.4719999999999995,0.9999805077833,96.11689154874148
7.48,0.9999804779903112,96.02077529279734
7.4879999999999995,0.9999804627650027,95.92464062895661
7.496,0.9999804623999192,95.82848752025399
7.504,0.9999804771696815,95.7323159283431
7.5120000000000005,0.9999805073289626,95.63612581351474
7.52,0.9999805531104136,95.53991713472463
7.5280000000000005,0.9999806147225516,95.44368984963057
7.536,0.9999806923476284,95.34744391464025
7.5440000000000005,0.999980786139484,95.2511792849699
7.552,0.9999808962214152,95.15489591471423
7.5600000000000005,0.9999810226840675,95.05859375692819
7.568,0.999981165583375,94.9622727637208
7.5760000000000005,0.999981324938567,94.86593288636101
7.584,0.9999815007302645,94.76957407539598
7.5920000000000005,0.9999816928986932,94.67319628078144
7.6,0.9999819013420266,94.57679945202403
7.6080000000000005,0.9999821259148973,94.48038353833513
7.616,0.9999823664270903,94.38394848879584
7.6240000000000006,0.9999826226424446,94.28749425253193
7.632,0.999982894277992,94.19102077889853
7.640000000000001,0.9999831810033463,94.09452801767269
7.648,0.9999834824403715,93.99801591925336
7.656000000000001,0.9999837981631419,93.9014844348665
7.664,0.9999841276982143,93.80493351677471
7.672,0.9999844705252245,93.70836311848849
7.68,0.9999848260778155,93.61177319497848
7.688,0.9999851937449081,93.51516370288583
7.696,0.9999855728723155,93.41853460072892
7.704,0.999985962764696,93.32188584910446
7.712,0.9999863626878427,93.22521741088083
7.72,0.9999867718713007,93.12852925138132
7.728,0.999987189511287,93.03182133855555
7.736,0.9999876147739083,92.93509364313678
7.744,0.9999880467986388,92.83834613878356
7.752,0.9999884847020419,92.74157880220399
7.76,0.9999889275816928,92.64479161326064
7.768,0.9999893745202787,92.54798455505555
7.776,0.9999898245898301,92.45115761399386
7.784,0.9999902768560491,92.35431077982506
7.792,0.9999907303826909,92.25744404566204
7.8,0.999991184235957,92.16055740797695
7.808,0.9999916374888581,92.06365086657455
7.816,0.999992089225506,91.96672442454299
7.824,0.9999925385452924,91.86977808818295
7.832,0.9999929845669162,91.77281186691596
7.84,0.999993426432227,91.67582577317285
7.848,0.9999938633098435,91.57881982226424
7.856,0.999994294398527,91.48179403223405
7.864,0.9999947189302768,91.38474842369823
7.872,0.9999951361731299,91.28768301967048
7.88,0.9999955454336443,91.19059784537683
7.888,0.9999959460590592,91.09349292806132
7.896,0.9999963374391148,90.99636829678487
7.904,0.9999967190075362,90.89922398221913
7.912,0.9999970902431774,90.80206001643798
7.92,0.9999974506708309,90.70487643270788
7.928,0.9999977998617098,90.6076732652797
7.936,0.999998137433616,90.5104505491833
7.944,0.9999984630508083,90.41320832002681
7.952,0.999998776423586,90.31594661380193
7.96,0.9999990773076104,90.21866546669663
7.968,0.9999993655029815,90.1213649149166
7.976,0.9999996408530969,90.02404499451598
7.984,0.9999999032433103,89.92670574123882
7.992,0.9999999999999999,89.82934719037127
8.0,1.0,89.73196937660543
8.008,0.9999999999999999,89.63457233391506
8.016,1.0,89.53715609544302
8.024000000000001,1.0,89.43972069340103
8.032,1.0,89.34226615898113
8.04,1.0,89.24479252227881
8.048,0.9999999999999999,89.14729981222756
8.056000000000001,0.9999999999999999,89.04978805654441
8.064,1.0,88.95225728168597
8.072,1.0,88.85470751281417
8.08,0.9999999999999998,88.75713877377173
8.088000000000001,1.0,88.65955108706618
8.096,0.9999999999999999,88.5619444738621
8.104,0.9999999999999999,88.46431895398061
8.112,0.9999999999999999,88.36667454590597
8.120000000000001,0.9999999999999999,88.26901126679826
8.128,1.0,88.17132913251145
8.136,0.9999999999999999,88.07362815761647
8.144,1.0,87.97590835542863
8.152000000000001,0.9999999999999999,87.87816973803878
8.16,1.0,87.78041231634755
8.168,1.0,87.68263610010237
8.176,0.9999999999999999,87.58484109793662
8.184000000000001,0.9999999999999999,87.4870273174106
8.192,1.0,87.38919476505384
8.2,1.0,87.29134344640828
8.208,1.0,87.19347336607206
8.216000000000001,1.0,87.09558452774394
8.224,1.0,86.99767693426728
8.232,1.0,86.8997505876741
8.24,0.9999999999999998,86.8018054892287
8.248000000000001,1.0,86.70384163947057
8.256,0.9999999999999999,86.60585903825657
8.264,0.9999999999999999,86.50785768480212
8.272,1.0,86.40983757772145
8.280000000000001,1.0,86.31179871506662
8.288,0.9999999999999999,86.2137410943654
8.296,0.9999999999999998,86.11566471265776
8.304,0.9999999999999999,86.01756956653107
8.312,0.9999999999999999,85.91945565215411
8.32,1.0,85.82132296530932
8.328,1.0,85.72317150142408
8.336,1.0,85.62500125560024
8.344,0.9999999999999999,85.52681222264256
8.352,0.9999999999999999,85.42860439708548
8.36,1.0,85.33037777321886
8.368,0.9999999999999999,85.23213234511209
8.376,1.0,85.13386810663721
8.384,1.0,85.0355850514904
8.392,0.9999999999999999,84.93728317321273
8.4,0.9999999999999998,84.83896246520919
8.408,0.9999999999999999,84.74062292076711
8.416,1.0,84.64226453307299
8.424,1.0,84.54388729522876
8.432,0.9999999523452247,84.44549120026657
8.44,0.9999998409920172,84.34707624116304
8.448,0.9999997299564869,84.24864241085214
8.456,0.9999996193692123,84.15018970223774
8.464,0.9999995093554123,84.05171810820472
8.472,0.9999994000351022,83.95322762162988
8.48,0.9999992915232505,83.85471823539152
8.488,0.9999991839299337,83.75618994237888
8.496,0.9999990773604895,83.65764273550042
8.504,0.9999989719156674,83.5590766076918
8.512,0.9999988676917795,83.460491551923
8.52,0.9999987647808447,83.36188756120518
8.528,0.999998663270734,83.2632646285967
8.536,0.999998563245311,83.16462274720884
8.544,0.9999984647845683,83.06596191021092
8.552,0.9999983679647642,82.96728211083516
8.56,0.9999982728585509,82.86858334238087
8.568,0.9999981795351053,82.7698655982186
8.576,0.9999980880602504,82.67112887179347
8.584,0.9999979984965783,82.57237315662866
8.592,0.999997910903566,82.47359844632813
8.6,0.9999978253376905,82.37480473457953
8.608,0.9999977418525376,82.27599201515625
8.616,0.9999976604989104,82.17716028191984
8.624,0.9999975813249313,82.07830952882165
8.632,0.999997504376143,81.97943974990466
8.64,0.9999974296956052,81.88055093930477
8.648,0.9999973573239874,81.78164309125232
8.656,0.9999972872996595,81.68271620007286
8.664,0.9999972196587793,81.58377026018842
8.672,0.9999971544353758,81.48480526611796
8.68,0.9999970916614306,81.38582121247833
8.688,0.999997031366956,81.28681809398458
8.696,0.9999969735800698,81.18779590545044
8.704,0.9999969183270682,81.08875464178863
8.712,0.9999968656324955,80.98969429801106
8.72,0.9999968155192109,80.8906148692289
8.728,0.9999967680084534,80.79151635065269
8.736,0.9999967231199033,80.69239873759217
8.744,0.999996680871742,80.59326202545637
8.752,0.999996641280711,80.4941062097532
8.76,0.9999966043621648,80.39493128608946
8.768,0.9999965701301249,80.29573725017035
8.776,0.9999965385973314,80.19652409779933
8.784,0.9999965097752905,80.0972918248776
8.792,0.9999964836743234,79.99804042740388
8.8,0.9999964603036089,79.89876990147377
8.808,0.9999964396712295,79.7994802432795
8.815999999999999,0.9999964217842106,79.70017144910933
8.824,0.9999964066485622,79.60084351534704
8.832,0.999996394269316,79.50149643847145
8.84,0.9999963846505636,79.40213021505593
8.847999999999999,0.9999963777954896,79.30274484176775
8.856,0.9999963737064077,79.20334031536751
8.864,0.9999963723847924,79.10391663270872
8.872,0.9999963738313095,79.00447379073708
8.879999999999999,0.999996378045847,78.90501178648994
8.888,0.9999963850275433,78.80553061709568
8.896,0.999996394774815,78.70603027977322
8.904,0.9999964072853823,78.60651077183137
8.911999999999999,0.9999964225562972,78.50697209066816
8.92,0.9999964405839639,78.40741423377037
8.928,0.9999964613641651,78.30783719871295
8.936,0.9999964848920834,78.20824098315833
8.943999999999999,0.9999965111623219,78.10862558485597
8.952,0.9999965401689269,78.00899100164163
8.96,0.9999965719054053,77.90933723143701
8.968,0.9999966063647459,77.80966427224901
8.975999999999999,0.9999966435394352,77.70997212216928
8.984,0.9999966834214766,77.6102607793736
8.992,0.9999967260024071,77.51053024212145
9.0,0.9999967712733122,77.41078050875538
9.008,0.9999968192248424,77.31101157770051
9.016,0.9999968698472275,77.21122344746401
9.024000000000001,0.9999969231302915,77.1114161166347
9.032,0.999996979063465,77.01158958388245
9.04,0.9999970376358,76.91174384795767
9.048,0.9999970988359809,76.81187890769088
9.056000000000001,0.9999971626523375,76.71199476199233
9.064,0.9999972290728565,76.6120914098514
9.072,0.9999972980851926,76.51216885033625
9.08,0.9999973696766791,76.41222708259329
9.088000000000001,0.9999974438343383,76.31226610584687
9.096,0.9999975205448913,76.21228591939882
9.104,0.999997599794768,76.11228652262798
9.112,0.9999976815701157,76.01226791498986
9.120000000000001,0.9999977658568078,75.91223009601624
9.128,0.999997852640453,75.81217306531485
9.136,0.9999979419064026,75.71209682256885
9.144,0.999998033639759,75.61200136753662
9.152000000000001,0.999998127825383,75.51188670005132
9.16,0.9999982244479008,75.41175282002065
9.168,0.9999983234917112,75.31159972742638
9.176,0.9999984249409928,75.21142742232409
9.184000000000001,0.9999985287797092,75.1112359048429
9.192,0.999998634991617,75.01102517518514
9.2,0.9999987435602702,74.91079523362595
9.208,0.9999988544690269,74.81054608051312
9.216000000000001,0.9999989677010547,74.7102777162668
9.224,0.999999083239336,74.60999014137919
9.232,0.9999992010666732,74.5096833564142
9.24,0.9999993211656941,74.40935736200728
9.248000000000001,0.999999443518856,74.30901215886527
9.256,0.9999995681084514,74.20864774776595
9.264,0.9999996949166112,74.10826412955794
9.272,0.9999998239253106,74.00786130516035
9.280000000000001,0.9999999551163717,73.90743927556275
9.288,0.9999999999999999,73.80699804182485
9.296,0.9999999999999999,73.7065376050762
9.304,0.9999999999999998,73.60605796651616
9.312000000000001,0.9999999999999999,73.5055591274136
9.32,0.9999999999999998,73.40504108910679
9.328,0.9999999999999998,73.30450385300308
9.336,0.9999999999999999,73.20394742057888
9.344,1.0,73.10337179337947
9.352,1.0,73.00277697301865
9.36,1.0,72.90216296117892
9.368,0.9999999999999999,72.80152975961094
9.376,1.0,72.70087737013374
9.384,1.0,72.6002057946343
9.392,1.0,72.49951503506766
9.4,1.0,72.3988050934565
9.408,1.0,72.29807597189131
9.416,0.9999999999999999,72.19732767253004
9.424,1.0,72.09656019759817
9.432,1.0,71.99577354938837
9.44,1.0,71.8949677302607
9.448,1.0,71.79414274264217
9.456,1.0,71.69329858902691
9.464,1.0,71.59243527197592
9.472,1.0,71.49155279411706
9.48,1.0,71.39065115814488
9.488,1.0,71.28973036682066
9.496,0.9999999999999999,71.18879042297219
9.504,0.9999999999999999,71.08783132949384
9.512,0.9999999999999999,70.9868530893463
9.52,1.0,70.88585570555675
9.528,1.0,70.78483918121854
9.536,0.9999999999999999,70.68380351949138
9.544,0.9999999999999999,70.58274872360101
9.552,0.9999999999999999,70.48167479683946
9.56,1.0,70.38058174256469
9.568,0.9999999999999999,70.27946956420072
9.576,0.9999999999999999,70.17833826523753
9.584,0.9999999999999999,70.07718784923105
9.592,0.9999999999999998,69.97601831980307
9.6,0.9999999999999999,69.87482968064126
9.608,1.0,69.77362193549898
9.616,0.9999999999999999,69.67239508819553
9.624,0.9999999999999999,69.57114914261582
9.632,0.9999999999999999,69.46988410271055
9.64,0.9999999999999999,69.36859997249601
9.648,1.0,69.26729675605428
9.656,1.0,69.16597445753294
9.664,0.9999999999999999,69.0646330811453
9.672,0.9999999999999999,68.96327263117018
9.68,1.0,68.86189311195204
9.688,1.0,68.76049452790087
9.696,0.9999999999999999,68.65907688349225
9.704,1.0,68.55764018326721
9.712,1.0,68.45618443183244
9.72,0.9999999999999999,68.35470963386003
9.728,1.0,68.25321579408771
9.736,1.0,68.1517029173186
9.744,1.0,68.05017100842147
9.752,1.0,67.94862007233044
9.76,0.9999999999999999,67.84705011404527
9.768,1.0,67.74546113863116
9.776,0.9999999999999999,67.64385315121886
9.784,1.0,67.5422261570046
9.792,1.0,67.4405801612502
9.8,1.0,67.33891516928293
9.808,1.0,67.23723118649569
9.816,0.9999999999999999,67.13552821834679
9.824,0.9999999999999999,67.03380627036029
9.832,1.0,66.93206534812563
9.84,1.0,66.830305457298
9.847999999999999,1.0,66.72852660359804
9.856,1.0,66.62672879281206
9.864,1.0,66.52491203079205
9.872,0.9999999999999999,66.42307632345556
9.879999999999999,1.0,66.32122167678588
9.888,0.9999999999999999,66.21934809683187
9.896,1.0,66.11745558970819
9.904,1.0,66.0155441615952
9.911999999999999,1.0,65.91361381873895
9.92,1.0,65.81166456745127
9.928,1.0,65.70969641410981
9.936,1.0,65.60770936515799
9.943999999999999,1.0,65.50570342710506
9.952,1.0,65.40367860652611
9.96,0.9999999999999999,65.30163491006216
9.968,0.9999999999999999,65.1995723444201
9.975999999999999,1.0,65.09749091637275
9.984,1.0,64.99539063275884
9.992,1.0,64.89327150048318
10.0,1.0,64.79113352651656
10.008,1.0,64.68897671789577
