freq,mag,phase
6.0,0.9999947537564214,141.4841643769168
6.008,0.9999943825611853,141.43002704489518
6.016,0.9999940172607121,141.37587736926818
6.024,0.9999936578180825,141.32171534181114
6.032,0.9999933041963831,141.26754095426537
6.04,0.9999929563587072,141.21335419833815
6.048,0.9999926142681577,141.15915506570275
6.056,0.9999922778878448,141.10494354799854
6.064,0.999991947180891,141.05071963683082
6.072,0.9999916221104288,140.99648332377114
6.08,0.999991302639604,140.9422346003571
6.088,0.9999909887315763,140.88797345809238
6.096,0.999990680349519,140.83369988844697
6.104,0.9999903774566218,140.77941388285697
6.112,0.9999900800160915,140.72511543272478
6.12,0.9999897879911519,140.67080452941906
6.128,0.9999895013450469,140.6164811642748
6.136,0.9999892200410392,140.5621453285933
6.144,0.9999889440424131,140.50779701364223
6.152,0.9999886733124747,140.45343621065572
6.16,0.9999884078145538,140.3990629108343
6.168,0.9999881475120038,140.34467710534494
6.176,0.9999878923682034,140.29027878532122
6.184,0.9999876423465571,140.23586794186315
6.192,0.9999873974104977,140.1814445660374
6.2,0.9999871575234858,140.1270086488772
6.208,0.9999869226490107,140.0725601813825
6.216,0.9999866927505927,140.0180991545198
6.224,0.9999864677917839,139.96362555922246
6.232,0.999986247736168,139.9091393863906
6.24,0.999986032547362,139.85464062689098
6.248,0.9999858221890175,139.80012927155738
6.256,0.9999856166248227,139.74560531119033
6.264,0.9999854158185002,139.69106873655733
6.272,0.9999852197338114,139.63651953839278
6.28,0.999985028334556,139.5819577073981
6.288,0.9999848415845728,139.52738323424165
6.296,0.999984659447741,139.47279610955903
6.304,0.9999844818879817,139.41819632395283
6.312,0.9999843088692576,139.36358386799267
6.32,0.9999841403555753,139.30895873221564
6.328,0.9999839763109861,139.2543209071258
6.336,0.9999838166995861,139.19967038319461
6.344,0.999983661485518,139.1450071508607
6.352,0.9999835106329713,139.09033120053033
6.36,0.9999833641061843,139.0356425225768
6.368,0.9999832218694451,138.9809411073411
6.376,0.9999830838870896,138.9262269451316
6.384,0.9999829501235084,138.87150002622414
6.392,0.9999828205431408,138.81676034086226
6.4,0.9999826951104815,138.76200787925697
6.408,0.9999825737900784,138.70724263158706
6.416,0.9999824565465337,138.65246458799885
6.424,0.9999823433445064,138.5976737386066
6.432,0.999982234148712,138.54287007349217
6.44,0.9999821289239238,138.48805358270536
6.448,0.9999820276349731,138.43322425626386
6.456,0.9999819302467526,138.37838208415323
6.464,0.9999818367242136,138.32352705632692
6.472,0.9999817470323692,138.26865916270665
6.48,0.9999816611362965,138.21377839318194
6.4879999999999995,0.9999815790011338,138.1588847376106
6.496,0.9999815005920847,138.10397818581836
6.504,0.9999814258744176,138.04905872759946
6.5120000000000005,0.9999813548134674,137.9941263527162
6.52,0.9999812873746347,137.93918105089924
6.5280000000000005,0.9999812235233895,137.8842228118476
6.536,0.9999811632252688,137.82925162522866
6.5440000000000005,0.9999811064458809,137.77426748067828
6.552,0.9999810531509034,137.71927036780082
6.5600000000000005,0.999981003306085,137.66426027616922
6.568,0.9999809568772474,137.60923719532494
6.5760000000000005,0.9999809138302853,137.55420111477818
6.584,0.9999808741311672,137.4991520240078
6.592,0.9999808377459363,137.4440899124614
6.6,0.9999808046407115,137.38901476955544
6.608,0.9999807747816883,137.33392658467508
6.616,0.9999807481351397,137.27882534717466
6.624,0.9999807246674172,137.2237110463773
6.632,0.9999807043449501,137.1685836715751
6.64,0.9999806871342496,137.11344321202938
6.648,0.9999806730019061,137.05828965697052
6.656,0.999980661914592,137.003122995598
6.664,0.9999806538390625,136.9479432170806
6.672,0.9999806487421563,136.89275031055635
6.68,0.999980646590795,136.83754426513278
6.688,0.9999806473519862,136.78232506988653
6.696,0.9999806509928226,136.7270927138639
6.704,0.9999806574804838,136.6718471860807
6.712,0.9999806667822372,136.61658847552215
6.72,0.999980678865437,136.56131657114327
6.728,0.9999806936975274,136.50603146186856
6.736,0.9999807112460423,136.4507331365924
6.744,0.9999807314786053,136.39542158417896
6.752,0.9999807543629327,136.34009679346218
6.76,0.9999807798668313,136.2847587532459
6.768,0.9999808079582023,136.22940745230403
6.776,0.9999808386050394,136.17404287938035
6.784,0.9999808717754317,136.11866502318887
6.792,0.9999809074375622,136.0632738724136
6.8,0.9999809455597108,136.00786941570883
6.808,0.9999809861102548,135.95245164169907
6.816,0.9999810290576676,135.89702053897918
6.824,0.9999810743705209,135.84157609611438
6.832,0.9999811220174866,135.78611830164033
6.84,0.999981171967335,135.73064714406306
6.848,0.9999812241889378,135.67516261185946
6.856,0.9999812786512672,135.6196646934767
6.864,0.999981335323398,135.56415337733284
6.872,0.9999813941745069,135.5086286518166
6.88,0.9999814551738745,135.4530905052876
6.888,0.999981518290885,135.39753892607615
6.896,0.9999815834950287,135.34197390248357
6.904,0.9999816507558992,135.2863954227823
6.912,0.9999817200431984,135.23080347521562
6.92,0.9999817913267339,135.17519804799804
6.928,0.9999818645764216,135.11957912931524
6.936,0.9999819397622851,135.06394670732413
6.944,0.9999820168544576,135.0083007701529
6.952,0.9999820958231815,134.95264130590124
6.96,0.99998217663881,134.8969683026401
6.968,0.9999822592718066,134.84128174841197
6.976,0.9999823436927473,134.785581631231
6.984,0.9999824298723207,134.7298679390829
6.992,0.999982517781327,134.67414065992511
7.0,0.9999826073906816,134.6183997816868
7.008,0.9999826986714138,134.562645292269
7.016,0.9999827915946674,134.50687717954455
7.024,0.9999828861317022,134.45109543135837
7.032,0.9999829822538949,134.39530003552733
7.04,0.9999830799327378,134.3394909798405
7.048,0.9999831791398427,134.28366825205887
7.056,0.9999832798469375,134.22783183991598
7.064,0.9999833820258701,134.17198173111743
7.072,0.9999834856486073,134.11611791334124
7.08,0.9999835906872366,134.060240374238
7.088,0.9999836971139662,134.00434910143053
7.096,0.9999838049011244,133.94844408251456
7.104,0.9999839140211626,133.89252530505811
7.112,0.9999840244466545,133.83659275660224
7.12,0.9999841361502958,133.7806464246605
7.128,0.9999842491049074,133.72468629671954
7.136,0.9999843632834333,133.6687123602387
7.144,0.9999844786589429,133.61272460265042
7.152,0.9999845952046307,133.5567230113603
7.16,0.9999847128938177,133.50070757374695
7.168,0.9999848316999507,133.4446782771621
7.176,0.9999849515966039,133.38863510893094
7.184,0.9999850725574795,133.33257805635188
7.192,0.9999851945564076,133.27650710669678
7.2,0.9999853175673468,133.22042224721105
7.208,0.9999854415643855,133.16432346511354
7.216,0.9999855665217415,133.10821074759676
7.224,0.9999856924137634,133.05208408182702
7.232,0.9999858192149308,132.99594345494432
7.24,0.9999859468998544,132.93978885406253
7.248,0.9999860754432767,132.88362026626945
7.256,0.9999862048200732,132.8274376786268
7.264,0.9999863350052519,132.7712410781706
7.272,0.999986465973955,132.71503045191068
7.28,0.9999865977014585,132.65880578683135
7.288,0.9999867301631719,132.60256706989114
7.296,0.999986863334641,132.5463142880229
7.304,0.9999869971915468,132.49004742813395
7.312,0.9999871317097057,132.43376647710613
7.32,0.9999872668650713,132.3774714217959
7.328,0.999987402633734,132.3211622490343
7.336,0.999987538991921,132.26483894562725
7.344,0.9999876759159985,132.20850149835536
7.352,0.9999878133824698,132.15214989397418
7.36,0.9999879513679785,132.09578411921424
7.368,0.9999880898493061,132.03940416078112
7.376,0.9999882288033743,131.9830100053555
7.384,0.9999883682072451,131.9266016395933
7.392,0.9999885080381218,131.87017905012564
7.4,0.999988648273347,131.81374222355913
7.4079999999999995,0.9999887888904065,131.75729114647564
7.416,0.9999889298669272,131.70082580543266
7.4239999999999995,0.9999890711806783,131.64434618696328
7.432,0.9999892128095722,131.58785227757613
7.4399999999999995,0.9999893547316642,131.53134406375577
7.448,0.9999894969251532,131.47482153196242
7.4559999999999995,0.9999896393683818,131.41828466863228
7.464,0.9999897820398379,131.3617334601775
7.4719999999999995,0.9999899249181531,131.30516789298633
7.48,0.9999900679821049,131.24858795342308
7.4879999999999995,0.9999902112106162,131.19199362782837
7.496,0.9999903545827558,131.13538490251898
7.504,0.9999904980777382,131.0787617637882
7.5120000000000005,0.9999906416749266,131.02212419790573
7.52,0.9999907853538286,130.96547219111784
7.5280000000000005,0.9999909290941016,130.90880572964727
7.536,0.9999910728755489,130.8521247996936
7.5440000000000005,0.9999912166781237,130.79542938743316
7.552,0.9999913604819262,130.73871947901915
7.5600000000000005,0.9999915042672063,130.6819950605816
7.568,0.9999916480143631,130.62525611822772
7.5760000000000005,0.999991791703945,130.56850263804165
7.584,0.99999193531665,130.51173460608487
7.5920000000000005,0.999992078833327,130.45495200839596
7.6,0.9999922222349752,130.39815483099107
7.6080000000000005,0.9999923655027438,130.34134305986345
7.616,0.9999925086179347,130.2845166809842
7.6240000000000006,0.9999926515619999,130.22767568030181
7.632,0.9999927943165441,130.17082004374245
7.640000000000001,0.9999929368633232,130.11394975721012
7.648,0.9999930791842467,130.05706480658662
7.656000000000001,0.9999932212613756,130.00016517773165
7.664,0.9999933630769241,129.94325085648296
7.672,0.9999935046132603,129.88632182865635
7.68,0.9999936458529053,129.82937808004579
7.688,0.999993786778534,129.77241959642348
7.696,0.9999939273729754,129.71544636354005
7.704,0.9999940676192133,129.6584583671245
7.712,0.9999942075003848,129.60145559288426
7.72,0.9999943469997835,129.54443802650545
7.728,0.9999944861008572,129.48740565365281
7.736,0.9999946247872089,129.43035845996988
7.744,0.9999947630425978,129.373296431079
7.752,0.9999949008509386,129.31621955258143
7.76,0.9999950381963018,129.25912781005752
7.768,0.9999951750629147,129.20202118906656
7.776,0.9999953114351606,129.14489967514717
7.784,0.9999954472975805,129.0877632538172
7.792,0.9999955826348715,129.03061191057378
7.8,0.9999957174318874,128.97344563089356
7.808,0.9999958516736408,128.91626440023268
7.816,0.999995985345301,128.85906820402687
7.824,0.9999961184321949,128.80185702769157
7.832,0.9999962509198079,128.744630856622
7.84,0.9999963827937834,128.68738967619325
7.848,0.9999965140399233,128.63013347176033
7.856,0.9999966446441874,128.57286222865832
7.864,0.9999967745926949,128.5155759322024
7.872,0.9999969038717234,128.45827456768802
7.88,0.9999970324677102,128.4009581203908
7.888,0.999997160367251,128.3436265755669
7.896,0.9999972875571016,128.28627991845283
7.904,0.9999974140241764,128.22891813426568
7.912,0.9999975397555506,128.17154120820322
7.92,0.9999976647384583,128.1141491254439
7.928,0.9999977889602938,128.05674187114707
7.936,0.9999979124086118,127.9993194304529
7.944,0.999998035071127,127.94188178848258
7.952,0.9999981569357145,127.88442893033839
7.96,0.9999982779904094,127.82696084110374
7.968,0.9999983982234085,127.76947750584341
7.976,0.9999985176230685,127.71197890960335
7.984,0.9999986361779066,127.65446503741107
7.992,0.9999987538766015,127.59693587427557
8.0,0.9999988707079932,127.53939140518739
8.008,0.9999989866610817,127.48183161511886
8.016,0.9999991017250298,127.42425648902405
8.024000000000001,0.9999992158891599,127.36666601183886
8.032,0.9999993291429572,127.30906016848122
8.04,0.9999994414760675,127.25143894385111
8.048,0.9999995528782984,127.19380232283055
8.056000000000001,0.9999996633396191,127.13615029028385
8.064,0.9999997728501606,127.07848283105766
8.072,0.9999998814002153,127.020799929981
8.08,0.9999999889802378,126.96310157186535
8.088000000000001,1.0,126.90538774150477
8.096,1.0,126.84765842367612
8.104,1.0,126.78991360313886
8.112,0.9999999999999999,126.7321532646353
8.120000000000001,0.9999999999999999,126.67437739289075
8.128,1.0,126.61658597261359
8.136,0.9999999999999999,126.55877898849519
8.144,0.9999999999999999,126.50095642521018
8.152000000000001,1.0,126.4431182674165
8.16,1.0,126.38526449975542
8.168,0.9999999999999999,126.32739510685174
8.176,1.0,126.26951007331375
8.184000000000001,1.0,126.21160938373343
8.192,1.0,126.15369302268653
8.2,0.9999999999999999,126.09576097473253
8.208,0.9999999999999999,126.0378132244149
8.216000000000001,1.0,125.97984975626109
8.224,0.9999999999999999,125.92187055478267
8.232,0.9999999999999999,125.86387560447537
8.24,0.9999999999999999,125.80586488981915
8.248000000000001,1.0,125.74783839527841
8.256,1.0,125.68979610530195
8.264,1.0,125.63173800432317
8.272,1.0,125.57366407676
8.280000000000001,0.9999999999999998,125.51557430701519
8.288,0.9999999999999998,125.45746867947625
8.296,1.0,125.39934717851558
8.304,1.0,125.34120978849059
8.312,1.0,125.28305649374376
8.32,0.9999999999999999,125.22488727860271
8.328,0.9999999999999999,125.16670212738039
8.336,1.0,125.10850102437502
8.344,1.0,125.05028395387023
8.352,1.0,124.99205090013534
8.36,1.0,124.93380184742506
8.368,1.0,124.87553677997994
8.376,0.9999999999999999,124.81725568202633
8.384,1.0,124.75895853777635
8.392,1.0,124.70064533142818
8.4,0.9999999999999999,124.64231604716605
8.408,1.0,124.5839706691603
8.416,1.0,124.52560918156755
8.424,0.9999999999999999,124.46723156853065
8.432,1.0,124.408837814179
8.44,0.9999999999999999,124.3504279026284
8.448,0.9999999999999999,124.29200181798126
8.456,1.0,124.23355954432672
8.464,0.9999999999999999,124.17510106574062
8.472,1.0,124.11662636628566
8.48,1.0,124.0581354300115
8.488,0.9999999999999999,123.99962824095488
8.496,1.0,123.94110478313955
8.504,1.0,123.88256504057657
8.512,1.0,123.8240089972642
8.52,0.9999999999999999,123.76543663718816
8.528,1.0,123.70684794432161
8.536,1.0,123.64824290262527
8.544,1.0,123.58962149604746
8.552,1.0,123.5309837085243
8.56,1.0,123.47232952397967
8.568,1.0,123.41365892632543
8.576,1.0,123.35497189946129
8.584,1.0,123.2962684272752
8.592,1.0,123.23754849364317
8.6,0.9999999999999998,123.17881208242947
8.608,1.0,123.12005917748674
8.616,0.9999999999999999,123.06128976265603
8.624,0.9999999999999999,123.00250382176684
8.632,0.9999999999999998,122.94370133863737
8.64,1.0,122.88488229707434
8.648,1.0000000000000002,122.82604668087343
8.656,1.0,122.76719447381898
8.664,1.0,122.70832565968439
8.672,0.9999999999999999,122.64944022223197
8.68,1.0,122.59053814521323
8.688,1.0,122.53161941236878
8.696,1.0,122.47268400742857
8.704,1.0,122.41373191411178
8.712,0.9999999999999999,122.35476311612717
8.72,0.9999999999999999,122.29577759717287
8.728,1.0,122.23677534093679
8.736,0.9999999999999999,122.17775633109626
8.744,1.0,122.1187205513186
8.752,1.0,122.05966798526093
8.76,0.9999999999999999,122.00059861657013
8.768,1.0,121.94151242888329
8.776,1.0,121.88240940582749
8.784,0.9999999999999998,121.82328953101992
8.792,1.0,121.76415278806816
8.8,1.0,121.70499916056995
8.808,0.9999999999999999,121.64582863211358
8.815999999999999,1.0,121.5866411862777
8.824,1.0,121.5274368066316
8.832,1.0,121.46821547673517
8.84,1.0,121.40897718013899
8.847999999999999,1.0000000000000002,121.34972190038452
8.856,0.9999999999999998,121.29044962100402
8.864,1.0,121.2311603255207
8.872,1.0,121.17185399744878
8.879999999999999,0.9999999999999999,121.11253062029365
8.888,1.0,121.05319017755178
8.896,1.0,120.99383265271095
8.904,1.0,120.93445802925022
8.911999999999999,0.9999999999999999,120.87506629064008
8.92,1.0,120.8156574203424
8.928,1.0,120.75623140181072
8.936,0.9999999999999999,120.69678821849011
8.943999999999999,0.9999999999999999,120.63732785381733
8.952,0.9999999999999999,120.57785029122088
8.96,1.0,120.51835551412111
8.968,1.0,120.45884350593029
8.975999999999999,1.0,120.39931425005258
8.984,1.0,120.33976772988422
8.992,1.0,120.2802039288135
9.0,1.0,120.22062283022098
9.008,1.0,120.16102441747934
9.016,1.0,120.10140867395359
9.024000000000001,1.0,120.0417755830011
9.032,0.9999999999999999,119.98212512797173
9.04,1.0,119.92245729220778
9.048,0.9999999999999999,119.86277205904403
9.056000000000001,1.0,119.80306941180804
9.064,0.9999999999999999,119.74334933381992
9.072,1.0,119.68361180839258
9.08,1.0,119.62385681883171
9.088000000000001,0.9999999999999999,119.56408434843583
9.096,1.0,119.50429438049645
9.104,1.0,119.44448689829801
9.112,1.0,119.38466188511792
9.120000000000001,1.0,119.32481932422682
9.128,1.0,119.2649591988884
9.136,1.0,119.20508149235954
9.144,1.0,119.14518618789039
9.152000000000001,0.9999999999999999,119.0852732687244
9.16,1.0,119.02534271809844
9.168,1.0,118.96539451924266
9.176,1.0,118.90542865538075
9.184000000000001,1.0,118.84544510972987
9.192,1.0,118.78544386550072
9.2,1.0,118.72542490589767
9.208,1.0,118.66538821411864
9.216000000000001,1.0,118.60533377335523
9.224,0.9999999999999999,118.5452615667929
9.232,1.0,118.48517157761071
9.24,1.0,118.42506378898163
9.248000000000001,0.9999999999999999,118.36493818407247
9.256,1.0,118.3047947460439
9.264,1.0,118.24463345805056
9.272,1.0,118.18445430324098
9.280000000000001,1.0,118.12425726475776
9.288,1.0,118.06404232573749
9.296,1.0,118.00380946931082
9.304,1.0,117.94355867860253
9.312000000000001,0.9999999999999999,117.88328993673144
9.32,1.0,117.82300322681061
9.328,0.9999999999999999,117.76269853194722
9.336,1.0,117.7023758352427
9.344,0.9999999999999999,117.64203511979261
9.352,1.0,117.58167636868684
9.36,1.0,117.52129956500957
9.368,1.0,117.46090469183915
9.376,0.9999999999999999,117.40049173224835
9.384,1.0,117.34006066930418
9.392,1.0,117.27961148606803
9.4,1.0,117.21914416559562
9.408,1.0,117.15865869093703
9.416,1.0,117.0981550451367
9.424,1.0,117.03763321123344
9.432,1.0,116.97709317226048
9.44,0.9999999999999999,116.91653491124534
9.448,1.0,116.85595841121005
9.456,1.0,116.79536365517096
9.464,0.9999999999999999,116.73475062613875
9.472,0.9999999999999999,116.6741193071186
9.48,1.0,116.61346968110999
9.488,1.0,116.55280173110681
9.496,0.9999999999999999,116.49211544009724
9.504,1.0,116.43141079106391
9.512,1.0,116.37068776698372
9.52,0.9999999999999999,116.30994635082791
9.528,0.9999999999999999,116.24918652556201
9.536,1.0,116.18840827414589
9.544,1.0,116.12761157953359
9.552,1.0,116.0667964246735
9.56,1.0,116.00596279250811
9.568,0.9999999999999999,115.94511066597423
9.576,1.0,115.88424002800271
9.584,1.0,115.82335086151862
9.592,1.0,115.762443149441
9.6,1.0,115.70151687468311
9.608,1.0,115.6405720201521
9.616,1.0,115.57960856874917
9.624,1.0000000000000002,115.51862650336938
9.632,1.0,115.45762580690173
9.64,1.0,115.39660646222909
9.648,1.0,115.33556845222802
9.656,0.9999999999999999,115.27451175976893
9.664,1.0,115.21343636771584
9.672,0.9999999999999999,115.15234225892642
9.68,0.9999999389353141,115.09122941625193
9.688,0.9999998709740219,115.03009782253709
9.696,0.9999998031664257,114.96894746062007
9.704,0.9999997355291161,114.90777831333241
9.712,0.9999996680786915,114.84659036349903
9.72,0.9999996008317512,114.785383593938
9.728,0.9999995338048949,114.72415798746059
9.736,0.9999994670147174,114.66291352687111
9.744,0.999999400477804,114.60165019496696
9.752,0.9999993342107266,114.5403679745384
9.76,0.9999992682300397,114.47906684836856
9.768,0.999999202552276,114.41774679923336
9.776,0.9999991371939405,114.35640780990134
9.784,0.9999990721715082,114.29504986313368
9.792,0.9999990075014161,114.23367294168405
9.8,0.9999989432000612,114.17227702829847
9.808,0.999998879283793,114.11086210571536
9.816,0.9999988157689101,114.04942815666526
9.824,0.9999987526716528,113.98797516387093
9.832,0.9999986900081994,113.92650311004705
9.84,0.9999986277946586,113.86501197790028
9.847999999999999,0.9999985660470648,113.8035017501291
9.856,0.9999985047813715,113.74197240942361
9.864,0.9999984440134454,113.68042393846561
9.872,0.999998383759059,113.61885631992835
9.879999999999999,0.999998324033884,113.55726953647654
9.888,0.9999982648534858,113.49566357076604
9.896,0.9999982062333147,113.43403840544399
9.904,0.9999981481886995,113.3723940231486
9.911999999999999,0.9999980907348399,113.31073040650894
9.92,0.9999980338867982,113.24904753814496
9.928,0.999997977659492,113.18734540066743
