freq,mag,phase
6.0,1.0010983956305188,2.12571943278095
6.011510784,1.0012207678414389,1.7540704802625715
6.023021568,1.0012845128678751,1.3811594653356418
6.034532352,1.0012855639563367,1.0077185877851873
6.046043136,1.0012238211235989,0.6345977885250401
6.05755392,1.0011022248605892,0.26249519477528704
6.069064704,1.000926716849809,-0.10781147893121484
6.080575488,1.000705757793717,-0.4757010008483074
6.092086272,1.0004500519270283,-0.8406536165678602
6.103597056,1.0001722724244917,-1.2022962280778278
6.11510784,0.9998855008405187,-1.5604392585213784
6.126618624,0.9996044016192854,-1.9150634310946402
6.138129408,0.9993423334722709,-2.2663111289656954
6.149640192,0.9991120960642552,-2.6144877066804653
6.161150976,0.998925384405295,-2.9600872040278112
6.17266176,0.9987911167773371,-3.303753943039791
6.184172544,0.9987160321492168,-3.646162943522496
6.195683328,0.9987039225173309,-3.988067295838624
6.207194112,0.9987554061216364,-4.330326520845193
6.218704896,0.9988681053934153,-4.673702994802682
6.23021568,0.9990363429446925,-5.019012607553082
6.241726464,0.999252244331045,-5.366834042428223
6.253237248,0.9995049861400541,-5.717735498455042
6.264748032,0.9997823349032402,-6.07214191697908
6.276258816,1.0000707915976705,-6.430236642005903
6.2877696,1.0003561253993518,-6.792083009670997
6.299280384,1.000624413087214,-7.157556998493402
6.310791168,1.0008625033380485,-7.526362083225088
6.322301952,1.0010588574189614,-7.898046316052583
6.333812736,1.0012037387957788,-8.271994238122314
6.34532352,1.0012898883362251,-8.647534882889445
6.356834304,1.0013132779123735,-9.023831509445587
6.368345088,1.0012726189903358,-9.400137007383464
6.379855872,1.0011697542902969,-9.775640868052802
6.391366656,1.0010096922447735,-10.14960124685568
6.402877952,1.000800157756847,-10.521317518913804
6.414388736,1.0005513774098445,-10.890232526160077
6.42589952,1.0002752862122257,-11.25591868954132
6.437410304,0.9999854846920255,-11.618057279735726
6.448921088,0.9996960337978658,-11.976651153948739
6.460431872,0.9994213021993301,-12.331696641366019
6.471942656,0.999174579319044,-12.683545647486167
6.48345344,0.9989680490268739,-13.032565689141181
6.494964224,0.9988119046350611,-13.37936972878714
6.506475008,0.9987138798752466,-13.724621605981383
6.517985792,0.9986787781691759,-14.069179724583943
6.529496576,0.9987085380778085,-14.413750349384829
6.54100736,0.998801689482294,-14.759193807154332
6.552518144,0.9989538159228012,-15.106295793898182
6.564028928,0.9991572785149383,-15.455761147304457
6.575539712,0.9994024297384769,-15.808209899386624
6.587050496,0.9996773049681921,-16.16405484279277
6.59856128,0.9999682689468287,-16.52366450152994
6.610072064,1.0002611574546372,-16.887034280931655
6.621582848,1.0005417525510456,-17.254191095791565
6.633093632,1.0007962774852432,-17.624841478670245
6.644604416,1.0010121359664457,-17.99862350089777
6.6561152,1.0011790450021836,-18.374908091995515
6.667625984,1.0012884947232903,-18.75309217616524
6.679136768,1.0013352771361135,-19.13235711543094
6.690647552,1.0013169564025657,-19.51194499982803
6.702158336,1.0012342346014742,-19.89099507935421
6.71366912,1.0010913385397147,-20.268763849227412
6.725179904,1.000895100264449,-20.644409236718392
6.736690688,1.0006547583282666,-21.017467157261713
6.748201472,1.0003821019924686,-21.38732992765413
6.759712256,1.00009059495321,-21.75376152708282
6.77122304,0.9997942603244075,-22.11650762668347
6.782733824,0.9995077319130018,-22.475659741287817
6.794244608,0.9992450365586206,-22.83138321895732
6.805755392,0.9990188629563774,-23.18410162323136
6.817266176,0.9988406793350435,-23.5343083118682
6.82877696,0.9987189878613134,-23.882743273247712
6.840287744,0.9986599826327035,-24.230107408364265
6.851798528,0.9986667687036638,-24.577176695328514
6.863309312,0.9987388189436844,-24.924881379221688
6.874820096,0.9988728768456981,-25.274059143528113
6.88633088,0.9990624038585598,-25.625320155517578
6.897841664,0.9992981521627435,-25.979438626044423
6.909352448,0.9995686233595225,-26.33687627466548
6.920863232,0.9998606435768066,-26.6980085731204
6.932374016,1.0001597197199616,-27.063061029807564
6.9438848,1.0004517075719315,-27.431935395787296
6.955395584,1.0007219209866718,-27.804499579265222
6.966906368,1.0009572640578532,-28.180451404568352
6.978417152,1.0011463077360132,-28.559157123939094
6.989927936,1.0012795999997066,-28.94006118740917
7.00143872,1.0013506248328248,-29.32233752533915
7.012949504,1.0013560745087589,-29.705271701291295
7.024460288,1.0012952742807566,-30.08798722817766
7.035971072,1.0011710344355875,-30.469619440005893
7.047481856,1.0009897716974325,-30.849425228959895
7.05899264,1.000759909847542,-31.226735842655426
7.070503424,1.000492644841791,-31.600999596772684
7.082014208,1.0002008765687544,-31.97184563975792
7.093524992,0.9998991767044405,-32.33902968763631
7.105035776,0.9996018803868799,-32.702500529321085
7.11654656,0.9993237530318402,-33.062368333869266
7.128057344,0.9990784852111371,-33.41905112234687
7.139568128,0.9988778311130442,-33.773004497427905
7.151078912,0.9987321458333349,-34.124750881338315
7.162589696,0.9986483676924214,-34.47521205438114
7.17410048,0.9986305992288932,-34.82510481295744
7.185611264,0.9986800622890881,-35.17530720471331
7.197122048,0.9987942507447285,-35.52664107753819
7.208633344,0.998967996490984,-35.87993014602672
7.220144128,0.999192282706046,-36.23587665984694
7.231654912,0.9994565353028946,-36.595015137960516
7.243165696,0.9997477987884873,-36.95785854979771
7.25467648,1.00005191221049,-37.324597975418776
7.266187264,1.0003538799148595,-37.69525850997446
7.277698048,1.0006392296354545,-38.06983586268214
7.289208832,1.0008936962344526,-38.44793468948892
7.300719616,1.0011049071130838,-38.829166891368786
7.3122304,1.0012627112657226,-39.21276708792246
7.323741184,1.001359008387593,-39.59819205935227
7.335251968,1.0013891883337505,-39.98453211256318
7.346762752,1.0013517290570588,-40.370928825609624
7.358273536,1.0012482878961584,-40.7565828911719
7.36978432,1.0010841074724754,-41.14064695809331
7.381295104,1.0008665091800435,-41.52242059422032
7.392805888,1.0006065511073334,-41.9012974346899
7.404316672,1.0003165010357384,-42.27677735861609
7.415827456,1.00001070766212,-42.6485845688694
7.42733824,0.9997040383599868,-43.016614916041235
7.438849024,0.9994113028470278,-43.380949010246724
7.450359808,0.9991471598771413,-43.741831091760034
7.461870592,0.9989243024133353,-44.09971426121296
7.473381376,0.9987538779875179,-44.45520920085227
7.48489216,0.998644316359674,-44.80897583614898
7.496402944,0.9986009866914584,-45.16192904050052
7.507913728,0.9986262246972961,-45.514811118008424
7.519424512,0.99871871419797,-45.86859648489959
7.530935296,0.9988743346551108,-46.22405432377061
7.54244608,0.9990851904857996,-46.58197500465175
7.553956864,0.9993412267056658,-46.94295850182787
7.565467648,0.9996300243054306,-47.30757133295618
7.576978432,0.9999372818633905,-47.67608164440164
7.588489216,1.000248249990429,-48.04864266982054
7.6,1.0005476026951328,-48.42523662687576
7.611510784,1.0008207192392213,-48.80556026623136
7.623021568,1.00105413551289,-49.18924925828711
7.634532352,1.001236685494656,-49.57572813997475
7.646043136,1.001359149910356,-49.9642313942257
7.65755392,1.0014155801275553,-50.35406293579779
7.669064704,1.001403309801256,-50.744240157013415
7.680575488,1.0013225316711658,-51.13400970669212
7.692086272,1.0011770812840641,-51.52246524560509
7.703597056,1.0009741377194428,-51.908881077409106
7.71510784,1.0007234471283823,-52.292497453694395
7.726618624,1.0004371720558511,-52.672835237357205
7.738129408,1.0001290079544956,-53.04952195504631
7.749640192,0.9998142501558301,-53.42236979518842
7.761150976,0.9995079477202493,-53.79140529525039
7.77266176,0.9992255445974543,-54.15679488675863
7.784172544,0.9989806008355974,-54.518899515636036
7.795683328,0.9987850875969557,-54.87831130166039
7.807194112,0.9986488082201344,-55.23574139393796
7.818704896,0.9985785728809242,-55.59193521301719
7.83021568,0.9985779393791554,-55.94779908356438
7.841726464,0.9986468219473285,-56.304206619458405
7.853237248,0.9987822735270675,-56.66204737847433
7.864748032,0.998977426203703,-57.02209406676205
7.876258816,0.9992231425262452,-57.38508461037896
7.8877696,0.9995072670017028,-57.75156255286817
7.899280384,0.9998159508678026,-58.121926160407796
7.910791168,1.0001342467316936,-58.496428053962944
7.922301952,1.0004465095887165,-58.87507937027453
7.933812736,1.0007375130435507,-59.25769118349958
7.94532352,1.0009931687446494,-59.64390691951378
7.956834304,1.0012007725034409,-60.03319285314879
7.968345088,1.001350331059869,-60.42487674163833
7.979855872,1.0014343205414218,-60.81819240078375
7.991366656,1.0014486146603137,-61.21226280664431
8.002877952,1.001392401929018,-61.60625126964839
8.014388736,1.0012681497859794,-61.9991783599567
8.02589952,1.001082128929847,-62.39030411184802
8.037410304,1.0008429922435895,-62.77889903655423
8.048921088,1.000562478716025,-63.16428182331687
8.060431872,1.0002539285007395,-63.54607282079113
8.071942656,0.9999327581602593,-63.92397888803573
8.08345344,0.9996143769716973,-64.29795067667658
8.094964224,0.9993142525111348,-64.66810562239063
8.106475008,0.9990472591437142,-65.03477268620877
8.117985792,0.9988265026755997,-65.39844327033418
8.129496576,0.9986628510210735,-65.75975492645928
8.14100736,0.9985643801190843,-66.11951890124153
8.152518144,0.9985361800712531,-66.47855764513922
8.164028928,0.9985794120081398,-66.83783738361716
8.175539712,0.998692415209397,-67.19822883091035
8.187050496,0.9988696006490423,-67.56059617901631
8.19856128,0.9991025125859926,-67.92569041941161
8.210072064,0.999379692993478,-68.29416587963871
8.221582848,0.9996878129534436,-68.66648793236729
8.233093632,1.0000117846516463,-69.04296218951016
8.244604416,1.0003356605418552,-69.42369445803979
8.2561152,1.0006439652601449,-69.80859498643
8.267625984,1.0009212363325972,-70.19735171592086
8.279136768,1.001154432183047,-70.58947894534852
8.290647552,1.0013316287308425,-70.98436360490251
8.302158336,1.001444383704833,-71.38120960956225
8.31366912,1.0014869943705358,-71.77921461595507
8.325179904,1.0014573977435564,-72.17745699315768
8.336690688,1.0013567455751986,-72.57498503777319
8.348201472,1.0011899105399258,-72.97097920102514
8.359712256,1.0009648708198091,-73.36463925444279
8.37122304,1.0006924793515326,-73.75531188920222
8.382733824,1.0003859128339152,-74.14241566056927
8.394244608,1.0000599600957019,-74.5256333407687
8.405755392,0.9997307240106159,-74.90482435366705
8.417266176,0.9994140423161846,-75.28005583275312
8.42877696,0.999125534935611,-75.6515252371923
8.440287744,0.998879276108501,-76.01971587343137
8.451798528,0.998687398551329,-76.38521336441623
8.463309312,0.9985595636859784,-76.74880799560012
8.474820096,0.998501881821795,-77.11132324259748
8.48633088,0.9985175383353591,-77.4737017104007
8.497841664,0.9986057925090572,-77.83685614584041
8.509352448,0.9987624521580555,-78.20169263908753
8.520863232,0.9989799908307673,-78.56903174149433
8.532374016,0.999247851540051,-78.93960199288027
8.5438848,0.9995529826258716,-79.31396089700208
8.555395584,0.9998805862078305,-79.69246398120036
8.566906368,1.0002147622620683,-80.07533740692114
8.578417152,1.0005390814809467,-80.46252123300003
8.589927936,1.0008377995188438,-80.85382195146975
8.601439232,1.0010964047021516,-81.24878734070096
8.612950016,1.0013019625762807,-81.64685735164946
8.6244608,1.0014446526039924,-82.04726644381113
8.635971584,1.0015173584188752,-82.44923207344621
8.647482368,1.0015163982793813,-82.85177009507422
8.658993152,1.0014416993936146,-83.25400362673155
8.670503936,1.001296669953289,-83.65500587989291
8.68201472,1.001088394721581,-84.0538993158805
8.693525504,1.0008267614790625,-84.44999531722881
8.705036288,1.0005244104040423,-84.8426330561115
8.716547072,1.0001959262660238,-85.23141953162812
8.728057856,0.9998574656371803,-85.61609664299507
8.73956864,0.9995253584833247,-85.99663254374498
8.751079424,0.9992158740862427,-86.37323713195268
8.762590208,0.9989441192605241,-86.74623561042918
8.774100992,0.9987234637435742,-87.1162610852685
8.785611776,0.9985649221742968,-87.48396937640891
8.79712256,0.9984764083612221,-87.85020006938683
8.808633344,0.9984621730970219,-88.21588833725595
8.820144128,0.9985232368526659,-88.58202214667078
8.831654912,0.9986565615480084,-88.94953908945756
8.843165696,0.9988559920205662,-89.31927485790165
8.85467648,0.9991118392764096,-89.6920355665482
8.866187264,0.9994115220278982,-90.06848521045168
8.877698048,0.9997406709159046,-90.44907056170473
8.889208832,1.0000831447408018,-90.83410683711382
8.900719616,1.000422301896401,-91.22356297865771
8.9122304,1.0007416619157237,-91.61738134321102
8.923741184,1.001025586149542,-92.01516995832536
8.935251968,1.0012601147907143,-92.41641359738652
8.946762752,1.0014339309110503,-92.82037716409751
8.958273536,1.0015383712197896,-93.2263236836718
8.96978432,1.0015682398026622,-93.63323135681311
8.981295104,1.0015218834922552,-94.04019121720081
8.992805888,1.0014015025312193,-94.44627170322131
9.004316672,1.001212810362866,-94.85057223748294
9.015827456,1.000964660063413,-95.2522285218847
9.02733824,1.000669196474542,-95.65061393333029
9.038849024,1.0003405442505249,-96.0451871898344
9.050359808,0.9999948098792328,-96.43560919419491
9.061870592,0.9996485815086411,-96.82176254151832
9.073381376,0.9993188992552853,-97.20378285130978
9.08489216,0.9990219492411312,-97.58194768927875
9.096402944,0.9987721548916451,-97.9567151110859
9.107913728,0.9985817675022047,-98.32883272545665
9.119424512,0.9984605619439163,-98.69907607576731
9.130935296,0.998414332600431,-99.06837983479798
9.14244608,0.9984456507322211,-99.43767915972958
9.153956864,0.9985528808889166,-99.80803012727986
9.165467648,0.9987312736343499,-100.18032430414598
9.176978432,0.9989719835363189,-100.55543010849856
9.188489216,0.999263607526873,-100.93404675677526
9.2,0.9995916920339672,-101.31673427068077
9.211510784,0.9999404980404691,-101.70390782860014
9.223021568,1.000293071569242,-102.09567093920107
9.234532352,1.0006321230374657,-102.49196920773274
9.246043136,1.000941232392166,-102.89255226699588
9.25755392,1.0012051753275,-103.2969353627991
9.269064704,1.0014111635128264,-103.70443785210735
9.280575488,1.001548934361134,-104.11428593462531
9.292086272,1.0016118829178897,-104.52558748268159
9.303597056,1.0015965652164296,-104.93734150064114
9.31510784,1.001503712337123,-105.34860610170051
9.326618624,1.0013376254295354,-105.75835902355621
9.338129408,1.0011061362165148,-106.16578461644617
9.349640192,1.0008204875621087,-106.57008503941245
9.361150976,1.0004942737530604,-106.97067902422599
9.37266176,1.0001434313820652,-107.36712304469177
9.384172544,0.9997849309861536,-107.75920276631145
9.395683328,0.9994361643261762,-108.1469192015761
9.407194112,0.9991142718693091,-108.53052249790335
9.418704896,0.998834971015278,-108.91041846438969
9.43021568,0.9986120083683977,-109.28724299651583
9.441726464,0.9984563965760946,-109.66176317346523
9.453237248,0.9983759292710859,-110.03491441183799
9.464748032,0.9983747204175402,-110.40768145347974
9.476258816,0.9984529158081895,-110.78105699115503
9.4877696,0.9986069779527643,-111.1560425623281
9.499280384,0.9988295021282234,-111.5335804875347
9.510791168,0.9991096266840248,-111.91444046476437
9.522301952,0.9994339778487004,-112.2992907853382
9.533812736,0.9997867114709488,-112.6886107700463
9.54532352,1.0001507286102387,-113.0826309217305
9.556834304,1.0005082777446754,-113.48140181968004
9.568345088,1.000842034500591,-113.8846899422271
9.579855872,1.0011356225043535,-114.29213397862928
9.591366656,1.0013747384458265,-114.7031421600727
9.60287744,1.0015475920360324,-115.11688939101893
9.614388224,1.0016457065656887,-115.53255393710634
9.625899008,1.00166419657091,-115.94911783931325
9.637409792,1.0016018467489847,-116.36557501665125
9.648920576,1.0014616750702214,-116.78093285159508
9.66043136,1.0012501632071955,-117.19424224302644
9.671942144,1.0009775460743455,-117.60463940806297
9.683452928,1.0006567513079914,-118.01147795768955
9.694963712,1.0003033709212101,-118.41417540236297
9.706474496,0.9999345362736924,-118.8124535642191
9.71798528,0.999568076670555,-119.20618767353001
9.729496064,0.9992218700364858,-119.59554442199261
9.741006848,0.998912832772909,-119.98086464062857
9.752517632,0.998656329709495,-120.3627331971844
9.764028416,0.9984647738716154,-120.74184052914633
9.7755392,0.9983477974003017,-121.11914471817543
9.787049984,0.9983112627576094,-121.49558002631201
9.798560768,0.9983573103550258,-121.8721925417843
9.810071552,0.9984836267709234,-122.250042209805
9.821582336,0.9986842756218348,-122.63013205398843
9.83309312,0.9989498228095046,-123.01331542813733
9.844603904,0.9992672521882502,-123.40033992863438
9.856114688,0.9996212132965507,-123.79180070085334
9.867625472,0.9999945483412833,-124.18805188116414
9.879136256,1.0003691998232513,-124.58919075465455
9.89064704,1.000726747679048,-124.99515392414658
9.902157824,1.0010499975998692,-125.40557916540325
9.913668608,1.0013230300081175,-125.81995797664354
9.925179392,1.0015325085996916,-126.23758258509697
9.936690176,1.0016681550987359,-126.65756541852056
9.94820096,1.0017231607075812,-127.07892420315702
9.959711744,1.0016946888065335,-127.50065582403221
9.971222528,1.0015839680691816,-127.92167402180577
9.982733312,1.0013961170048364,-128.34098310977058
9.994244096,1.0011401033459937,-128.75765573688344
10.005755904,1.0008280095819695,-129.17090900300423
10.017266688,1.0004750816459649,-129.5801311625608
10.028777472,1.000098133083386,-129.98486413640342
10.040288256,0.999715640525597,-130.38493160757278
10.05179904,0.9993460513159552,-130.7803851858629
10.063309824,0.9990075613214805,-131.17146062861036
10.074820608,0.9987166056156915,-131.55868044167647
10.086331392,0.998487576738344,-131.9427116714767
10.097842176,0.998331924606812,-132.32444047363867
10.10935296,0.9982572728869672,-132.70479414328102
10.120863744,0.9982676135604125,-133.084889022501
10.132374528,0.9983625255579496,-133.46577915932457
10.143885312,0.9985376666715673,-133.84853026563985
10.155396096,0.998784602214871,-134.2341082445567
10.16690688,0.9990915998660462,-134.62335358098613
10.178417664,0.9994436882296435,-135.0169519239628
10.189928448,0.9998238617305193,-135.415327253288
10.201439232,1.0002136806485655,-135.81880850281516
10.212950016,1.0005941426234313,-136.22730668003274
10.2244608,1.0009468388297875,-136.64063426383964
10.235971584,1.0012544761207998,-137.05831318370807
10.247482368,1.0015020787926168,-137.47969805764663
10.258993152,1.0016774056673967,-137.90391700492629
10.270503936,1.0017719124582911,-138.33005995596335
10.28201472,1.0017807142630724,-138.7570249639609
10.293525504,1.0017032537923063,-139.1837741399394
10.305036288,1.001542973608493,-139.609184305102
10.316547072,1.0013074186598443,-140.03227584553142
10.328057856,1.0010077991227397,-140.4521597229235
10.33956864,1.0006585539607473,-140.8681241443027
10.351079424,1.0002763621086215,-141.27962012237893
10.362590208,0.9998798323774982,-141.686337873765
10.374100992,0.9994881096059648,-142.08819053686582
10.385611776,0.999120389389735,-142.4853897470714
10.39712256,0.998794555854323,-142.87831524532146
10.408633344,0.9985267540403062,-143.26759389615097
10.420144128,0.9983299159437635,-143.65402276248736
10.431654912,0.9982141462340854,-144.03861729337515
10.443165696,0.9981852786088274,-144.42241354668516
10.45467648,0.9982448655555891,-144.80652545267986
10.466187264,0.998390270221514,-145.1920710195209
10.477698048,0.99861463224069,-145.58014105324597
10.489208832,0.998907208396662,-145.9716185338367
10.500719616,0.9992539195999427,-146.36731453828332
10.5122304,0.9996379210041049,-146.76782254733163
10.523741184,1.0000407712648447,-147.173491904541
10.535251968,1.000442761897668,-147.58443393917472
10.546762752,1.0008243871005529,-148.00049986064812
10.558273536,1.00116714520696,-148.42136040049965
10.56978432,1.0014542335017498,-148.84637403127448
10.581295104,1.0016716716214666,-149.2747886025314
