freq,mag,phase
6.0,0.9999969310483944,108.89591941007986
6.008,0.9999970055749166,108.79198049889082
6.016,0.9999970756018943,108.68800531655229
6.024,0.9999971412159012,108.58399380899989
6.032,0.9999972025027393,108.47994592220317
6.04,0.9999972595474425,108.37586160216567
6.048,0.9999973124342804,108.27174079492526
6.056,0.9999973612467594,108.1675834465543
6.064,0.9999974060676281,108.06338950315997
6.072,0.9999974469788777,107.95915891088437
6.08,0.9999974840617467,107.85489161590485
6.088,0.999997517396724,107.75058756443421
6.096,0.9999975470635499,107.64624670272093
6.104,0.999997573141222,107.54186897704938
6.112,0.9999975957079957,107.43745433374002
6.12,0.9999976148413882,107.3330027191498
6.128,0.9999976306181816,107.22851407967217
6.136,0.9999976431144256,107.1239883617374
6.144,0.9999976524054411,107.01942551181287
6.152,0.9999976585658222,106.91482547640322
6.16,0.9999976616694394,106.81018820205055
6.168,0.9999976617894436,106.7055136353348
6.176,0.999997658998268,106.60080172287378
6.184,0.9999976533676318,106.49605241132356
6.192,0.9999976449685424,106.39126564737862
6.2,0.9999976338712991,106.28644137777209
6.208,0.9999976201454964,106.18157954927598
6.216,0.9999976038600258,106.07668010870142
6.224,0.99999758508308,105.97174300289888
6.232,0.9999975638821552,105.86676817875838
6.24,0.9999975403240543,105.76175558320975
6.248,0.9999975144748907,105.65670516322284
6.256,0.9999974864000895,105.55161686580773
6.264,0.9999974561643925,105.44649063801502
6.272,0.9999974238318599,105.34132642693596
6.28,0.9999973894658737,105.23612417970276
6.288,0.9999973531291408,105.13088384348882
6.296,0.9999973148836964,105.02560536550882
6.304,0.999997274790906,104.9202886930192
6.312,0.9999972329114699,104.81493377331809
6.32,0.9999971893054246,104.7095405537458
6.328,0.9999971440321467,104.60410898168485
6.336,0.9999970971503567,104.49863900456033
6.344,0.9999970487181196,104.39313056984005
6.352,0.9999969987928508,104.28758362503481
6.36,0.9999969474313176,104.18199811769854
6.368,0.9999968946896421,104.07637399542868
6.376,0.9999968406233051,103.97071120586625
6.384,0.9999967852871483,103.86500969669619
6.392,0.9999967287353777,103.75926941564748
6.4,0.9999966710215666,103.6534903104935
6.408,0.999996612198659,103.54767232905208
6.416,0.9999965523189723,103.44181541918589
6.424,0.9999964914341997,103.3359195288026
6.432,0.9999964295954143,103.22998460585507
6.44,0.9999963668530718,103.12401059834161
6.448,0.999996303257014,103.01799745430621
6.456,0.9999962388564703,102.91194512183877
6.464,0.999996173700062,102.80585354907528
6.472,0.9999961078358057,102.69972268419811
6.48,0.9999960413111151,102.59355247543613
6.4879999999999995,0.9999959741728054,102.48734287106508
6.496,0.9999959064670951,102.38109381940765
6.504,0.9999958382396095,102.27480526883384
6.5120000000000005,0.9999957695353845,102.16847716776103
6.52,0.9999957003988682,102.06210946465436
6.5280000000000005,0.9999956308739254,101.95570210802678
6.536,0.9999955610038399,101.84925504643951
6.5440000000000005,0.9999954908313171,101.74276822850199
6.552,0.9999954203984882,101.63624160287235
6.5600000000000005,0.9999953497469123,101.5296751182574
6.568,0.9999952789175801,101.42306872341307
6.5760000000000005,0.9999952079509162,101.31642236714448
6.584,0.999995136886783,101.20973599830629
6.592,0.999995065764483,101.10300956580272
6.6,0.9999949946227626,100.99624301858803
6.608,0.9999949234998144,100.88943630566654
6.616,0.9999948524332809,100.78258937609293
6.624,0.9999947814602566,100.67570217897247
6.632,0.9999947106172924,100.56877466346126
6.64,0.9999946399403976,100.46180677876633
6.648,0.9999945694650434,100.35479847414604
6.656,0.9999944992261657,100.24774969891016
6.664,0.9999944292581683,100.14066040242015
6.672,0.9999943595949263,100.0335305340894
6.68,0.9999942902697883,99.92636004338337
6.688,0.9999942213155797,99.8191488798199
6.696,0.9999941527646071,99.71189699296941
6.704,0.9999940846486589,99.60460433245505
6.712,0.9999940169990106,99.49727084795305
6.72,0.9999939498464265,99.38989648919275
6.728,0.9999938832211627,99.28248120595707
6.736,0.9999938171529718,99.17502494808248
6.744,0.9999937516711037,99.06752766545941
6.752,0.9999936868043099,98.95998930803233
6.76,0.9999936225808465,98.85240982580008
6.768,0.9999935590284774,98.74478916881601
6.776,0.9999934961744756,98.63712728718826
6.784,0.9999934340456295,98.52942413107994
6.792,0.9999933726682431,98.42167965070931
6.8,0.9999933120681395,98.3138937963501
6.808,0.9999932522706655,98.20606651833167
6.816,0.9999931933006933,98.0981977670392
6.824,0.9999931351826229,97.99028749291395
6.832,0.9999930779403873,97.8823356464535
6.84,0.9999930215974537,97.77434217821191
6.848,0.9999929661768271,97.66630703879996
6.856,0.9999929117010533,97.55823017888535
6.864,0.9999928581922216,97.45011154919301
6.872,0.9999928056719694,97.34195110050517
6.88,0.9999927541614824,97.23374878366167
6.888,0.9999927036815006,97.1255045495602
6.896,0.9999926542523188,97.01721834915645
6.904,0.9999926058937916,96.90889013346433
6.912,0.9999925586253352,96.80051985355622
6.92,0.999992512465931,96.69210746056321
6.928,0.9999924674341281,96.58365290567525
6.936,0.9999924235480467,96.4751561401414
6.944,0.9999923808253816,96.36661711527002
6.952,0.9999923392834033,96.25803578242908
6.96,0.999992298938964,96.14941209304622
6.968,0.9999922598084975,96.04074599860913
6.976,0.9999922219080242,95.9320374506656
6.984,0.9999921852531544,95.82328640082389
6.992,0.9999921498590887,95.71449280075285
7.0,0.9999921157406243,95.60565660218215
7.008,0.9999920829121555,95.4967777569025
7.016,0.9999920513876778,95.38785621676591
7.024,0.9999920211807909,95.27889193368581
7.032,0.9999919923047016,95.16988485963736
7.04,0.9999919647722262,95.0608349466576
7.048,0.9999919385957946,94.95174214684565
7.056,0.9999919137874517,94.84260641236304
7.064,0.9999918903588626,94.73342769543378
7.072,0.9999918683213126,94.62420594834464
7.08,0.9999918476857138,94.51494112344537
7.088,0.9999918284626044,94.40563317314891
7.096,0.9999918106621543,94.29628204993159
7.104,0.9999917942941672,94.18688770633332
7.112,0.9999917793680829,94.07745009495785
7.12,0.9999917658929816,93.96796916847296
7.128,0.9999917538775851,93.8584448796107
7.136,0.9999917433302625,93.7488771811675
7.144,0.9999917342590293,93.63926602600452
7.152,0.999991726671554,93.5296113670478
7.16,0.9999917205751591,93.41991315728843
7.168,0.9999917159768238,93.31017134978283
7.176,0.9999917128831884,93.20038589765292
7.184,0.9999917113005562,93.09055675408635
7.192,0.9999917112348964,92.98068387233671
7.2,0.9999917126918474,92.8707672057237
7.208,0.9999917156767195,92.7608067076334
7.216,0.9999917201944981,92.65080233151846
7.224,0.9999917262498462,92.54075403089833
7.232,0.9999917338471078,92.43066175935935
7.24,0.9999917429903099,92.32052547055517
7.248,0.9999917536831666,92.21034511820676
7.256,0.9999917659290813,92.10012065610273
7.264,0.9999917797311498,91.98985203809953
7.272,0.9999917950921626,91.87953921812161
7.28,0.9999918120146093,91.76918215016167
7.288,0.9999918305006799,91.65878078828088
7.296,0.9999918505522669,91.54833508660903
7.304,0.9999918721709727,91.4378449993448
7.312,0.9999918953581064,91.32731048075594
7.32,0.999991920114691,91.21673148517947
7.328,0.9999919464414643,91.1061079670219
7.336,0.9999919743388825,90.99543988075942
7.344,0.9999920038071234,90.88472718093819
7.352,0.9999920348460873,90.77396982217437
7.36,0.9999920674554028,90.6631677591545
7.368,0.9999921016344269,90.55232094663569
7.376,0.9999921373822498,90.44142933944569
7.384,0.9999921746976961,90.33049289248324
7.392,0.9999922135793297,90.21951156071817
7.4,0.9999922540254539,90.10848529919173
7.4079999999999995,0.9999922960341173,89.99741406301668
7.416,0.999992339603114,89.8862978073775
7.4239999999999995,0.9999923847299873,89.77513648753074
7.432,0.9999924314120333,89.66393005880501
7.4399999999999995,0.9999924796463027,89.55267847660137
7.448,0.9999925294296038,89.44138169639339
7.4559999999999995,0.9999925807585057,89.33003967372748
7.464,0.9999926336293408,89.21865236422302
7.4719999999999995,0.9999926880382071,89.1072197235726
7.48,0.9999927439809714,88.99574170754212
7.4879999999999995,0.9999928014532732,88.8842182719712
7.496,0.9999928604505249,88.77264937277317
7.504,0.9999929209679168,88.66103496593543
7.5120000000000005,0.9999929830004194,88.5493750075195
7.52,0.999993046542785,88.43766945366143
7.5280000000000005,0.9999931115895514,88.32591826057177
7.536,0.9999931781350448,88.21412138453596
7.5440000000000005,0.9999932461733823,88.1022787819144
7.552,0.9999933156984737,87.99039040914282
7.5600000000000005,0.9999933867040258,87.87845622273218
7.568,0.9999934591835444,87.76647617926928
7.5760000000000005,0.9999935331303359,87.65445023541656
7.584,0.9999936085375127,87.54237834791263
7.5920000000000005,0.9999936853979928,87.4302604735722
7.6,0.9999937637045043,87.31809656928654
7.6080000000000005,0.9999938434495877,87.20588659202338
7.616,0.9999939246255988,87.09363049882745
7.6240000000000006,0.9999940072247108,86.98132824682038
7.632,0.9999940912389171,86.86897979320112
7.640000000000001,0.999994176660035,86.75658509524597
7.648,0.9999942634797064,86.64414411030889
7.656000000000001,0.9999943516894018,86.53165679582165
7.664,0.9999944412804234,86.41912310929408
7.672,0.9999945322439057,86.30654300831416
7.68,0.9999946245708203,86.19391645054839
7.688,0.999994718251977,86.0812433937418
7.696,0.9999948132780276,85.96852379571828
7.704,0.9999949096394672,85.8557576143807
7.712,0.999995007326638,85.74294480771121
7.72,0.9999951063297311,85.63008533377129
7.728,0.999995206638789,85.51717915070203
7.736,0.9999953082437091,85.40422621672442
7.744,0.9999954111342456,85.29122649013932
7.752,0.9999955153000117,85.17817992932784
7.76,0.9999956207304826,85.06508649275153
7.768,0.999995727414998,84.95194613895242
7.776,0.9999958353427649,84.83875882655342
7.784,0.9999959445028597,84.72552451425835
7.792,0.9999960548842306,84.61224316085226
7.8,0.9999961664757004,84.4989147252015
7.808,0.9999962792659695,84.38553916625403
7.816,0.999996393243617,84.27211644303956
7.824,0.9999965083971046,84.15864651466971
7.832,0.9999966247147783,84.04512934033829
7.84,0.9999967421848712,83.93156487932144
7.848,0.9999968607955055,83.81795309097778
7.856,0.9999969805346952,83.70429393474873
7.864,0.9999971013903497,83.59058737015857
7.872,0.9999972233502735,83.47683335681471
7.88,0.9999973464021714,83.36303185440784
7.888,0.9999974705336495,83.24918282271217
7.896,0.9999975957322178,83.13528622158555
7.904,0.9999977219852927,83.02134201096978
7.912,0.9999978492801993,82.90735015089062
7.92,0.9999979776041741,82.7933106014582
7.928,0.9999981069443672,82.67922332286703
7.936,0.9999982372878438,82.56508827539623
7.944,0.9999983686215883,82.45090541940985
7.952,0.9999985009325053,82.33667471535686
7.96,0.9999986342074224,82.2223961237715
7.968,0.9999987684330923,82.10806960527336
7.976,0.9999989035961954,81.99369512056764
7.984,0.9999990396833418,81.87927263044531
7.992,0.9999991766810741,81.76480209578331
8.0,0.9999993145758691,81.65028347754473
8.008,0.9999994533541406,81.53571673677901
8.016,0.9999995930022411,81.42110183462204
8.024000000000001,0.9999997335064642,81.30643873229653
8.032,0.9999998748530479,81.19172739111205
8.04,1.0,81.07696777246525
8.048,1.0,80.96215983784003
8.056000000000001,0.9999999999999999,80.8473035488078
8.064,1.0,80.73239886702761
8.072,0.9999999999999999,80.61744575424632
8.08,1.0,80.50244417229877
8.088000000000001,0.9999999999999999,80.38739408310808
8.096,1.0,80.27229544868574
8.104,0.9999999999999999,80.15714823113179
8.112,1.0,80.04195239263498
8.120000000000001,1.0,79.9267078954731
8.128,0.9999999999999999,79.81141470201302
8.136,1.0,79.6960727747109
8.144,1.0,79.5806820761124
8.152000000000001,1.0,79.46524256885283
8.16,0.9999999999999999,79.34975421565743
8.168,1.0,79.2342169793414
8.176,1.0,79.11863082281016
8.184000000000001,1.0,79.00299570905959
8.192,0.9999999999999999,78.88731160117611
8.2,0.9999999999999999,78.77157846233693
8.208,0.9999999999999999,78.65579625581015
8.216000000000001,1.0,78.539964944955
8.224,0.9999999999999999,78.42408449322214
8.232,1.0,78.30815486415354
8.24,1.0,78.19217602138289
8.248000000000001,1.0,78.07614792863578
8.256,0.9999999999999999,77.96007054972979
8.264,1.0,77.84394384857465
8.272,1.0,77.7277677891725
8.280000000000001,0.9999999999999999,77.61154233561807
8.288,0.9999999999999999,77.4952674520988
8.296,0.9999999999999998,77.37894310289501
8.304,1.0,77.2625692523801
8.312,1.0,77.14614586502081
8.32,1.0,77.02967290537721
8.328,0.9999999999999999,76.91315033810311
8.336,1.0,76.79657812794599
8.344,1.0,76.6799562397474
8.352,1.0,76.5632846384429
8.36,1.0,76.44656328906254
8.368,1.0,76.32979215673068
8.376,0.9999999999999999,76.21297120666647
8.384,1.0,76.09610040418384
8.392,0.9999999999999999,75.97917971469177
8.4,1.0,75.86220910369435
8.408,0.9999999999999999,75.7451885367911
8.416,1.0,75.62811797967703
8.424,1.0,75.51099739814288
8.432,0.9999999999999999,75.39382675807516
8.44,0.9999999999999999,75.2766060254566
8.448,1.0,75.15933516636596
8.456,1.0,75.04201414697853
8.464,0.9999999999999999,74.92464293356605
8.472,1.0,74.80722149249704
8.48,1.0,74.68974979023686
8.488,1.0,74.57222779334802
8.496,1.0,74.45465546849016
8.504,1.0,74.3370327824204
8.512,1.0,74.21935970199335
8.52,1.0,74.10163619416146
8.528,1.0,73.98386222597493
8.536,0.9999999999999999,73.86603776458219
8.544,0.9999999999999998,73.7481627772298
8.552,0.9999999999999999,73.63023723126278
8.56,1.0,73.51226109412464
8.568,0.9999999999999999,73.39423433335773
8.576,1.0,73.27615691660318
8.584,1.0,73.15802881160133
8.592,1.0,73.03984998619156
8.6,1.0,72.92162040831283
8.608,0.9999999999999999,72.8033400460035
8.616,1.0,72.68500886740175
8.624,1.0,72.56662684074558
8.632,1.0,72.44819393437311
8.64,0.9999999999999999,72.32971011672252
8.648,1.0,72.21117535633256
8.656,1.0,72.09258962184232
8.664,0.9999999999999999,71.97395288199172
8.672,1.0,71.85526510562141
8.68,1.0,71.73652626167316
8.688,0.9999999999999999,71.6177363191898
8.696,1.0,71.49889524731563
8.704,1.0,71.38000301529628
8.712,0.9999999999999999,71.26105959247917
8.72,0.9999999999999999,71.14206494831339
8.728,1.0,71.02301905235015
8.736,0.9999999999999999,70.9039218742426
8.744,1.0,70.78477338374637
8.752,0.9999999999999999,70.66557355071932
8.76,0.9999999999999999,70.54632234512208
8.768,1.0,70.42701973701789
8.776,0.9999999999999999,70.30766569657298
8.784,0.9999999999999999,70.18826019405657
8.792,1.0,70.06880319984117
8.8,1.0,69.94929468440257
8.808,0.9999999999999999,69.82973461832022
8.815999999999999,1.0,69.71012297227705
8.824,1.0,69.5904597170599
8.832,1.0,69.47074482355968
8.84,0.9999999999999999,69.35097826277133
8.847999999999999,1.0,69.2311600057941
8.856,0.9999999999999999,69.11129002383166
8.864,1.0,68.99136828819225
8.872,0.9999999999999999,68.87139477028894
8.879999999999999,1.0,68.7513694416396
8.888,1.0,68.63129227386712
8.896,1.0,68.51116323869964
8.904,1.0,68.3909823079706
8.911999999999999,1.0,68.27074945361895
8.92,1.0,68.1504646476892
8.928,1.0,68.0301278623317
8.936,1.0,67.90973906980273
8.943999999999999,1.0,67.78929824246461
8.952,1.0,67.66880535278584
8.96,1.0,67.54826037334136
8.968,0.9999999999999999,67.42766327681264
8.975999999999999,1.0,67.3070140359877
8.984,1.0,67.1863126237614
8.992,1.0,67.06555901313554
9.0,1.0,66.94475317721907
9.008,1.0,66.82389508922807
9.016,1.0,66.70298472248601
9.024000000000001,0.9999999999999998,66.58202205042392
9.032,1.0,66.46100704658048
9.04,0.9999999999999998,66.33993968460214
9.048,1.0,66.21881993824323
9.056000000000001,1.0000000000000002,66.09764778136628
9.064,0.9999999999999999,65.97642318794198
9.072,0.9999999999999999,65.85514613204931
9.08,1.0,65.73381658787584
9.088000000000001,0.9999999999999999,65.61243452971772
9.096,1.0,65.49099993197991
9.104,1.0000000000000002,65.36951276917624
9.112,0.9999999999999999,65.24797301592957
9.120000000000001,1.0000000000000002,65.12638064697201
9.128,1.0,65.00473563714495
9.136,1.0,64.88303796139921
9.144,0.9999999999999998,64.76128759479522
9.152000000000001,1.0,64.63948451250313
9.16,0.9999999999999999,64.51762868980298
9.168,1.0,64.39572010208474
9.176,1.0,64.2737587248485
9.184000000000001,1.0,64.15174453370469
9.192,1.0,64.02967750437408
9.2,0.9999999999999999,63.90755761268794
9.208,1.0,63.78538483458815
9.216000000000001,1.0,63.66315914612749
9.224,1.0,63.54088052346958
9.232,1.0,63.418548942889096
9.24,0.9999999999999999,63.29616438077181
9.248000000000001,1.0,63.17372681361492
9.256,1.0,63.05123621802697
9.264,0.9999999999999999,62.928692570728096
9.272,1.0,62.80609584855004
9.280000000000001,1.0,62.68344602843641
9.288,0.9999999999999999,62.5607430874428
9.296,1.0,62.437987002736755
9.304,1.0,62.315177751598014
9.312000000000001,1.0,62.19231531141871
9.32,1.0,62.06939965970336
9.328,1.0000000000000002,61.94643077406901
9.336,0.9999999999999998,61.82340863224537
9.344,1.0,61.70033321207503
9.352,0.9999999999999999,61.57720449151339
9.36,1.0,61.45402244862904
9.368,1.0,61.33078706160354
9.376,1.0,61.207498308731914
9.384,0.9999999999999999,61.08415616842243
9.392,1.0,60.96076061919704
9.4,0.9999999999999998,60.83731163969116
9.408,0.9999999999999999,60.71380920865409
9.416,1.0,60.590253304948945
9.424,1.0,60.46664390755286
9.432,1.0,60.342980995557
9.44,1.0,60.219264548166876
9.448,1.0000000000000002,60.09549454470221
9.456,0.9999999999999999,59.97167096459726
9.464,1.0,59.847793787400754
9.472,1.0,59.72386299277624
9.48,0.9999999999999999,59.59987856050187
9.488,1.0,59.475840470470885
9.496,1.0,59.35174870269133
9.504,0.9999999999999999,59.2276032372866
9.512,1.0,59.1034040544951
9.52,1.0,58.97915113467075
9.528,1.0,58.8548444582828
9.536,1.0,58.73048400591614
9.544,1.0,58.60606975827125
9.552,1.0,58.48160169616445
9.56,1.0,58.35707980052789
9.568,1.0,58.23250405240972
9.576,0.9999999999999999,58.10787443297414
9.584,0.9999999999999999,57.98319092350166
9.592,0.9999999999999999,57.85845350538892
9.6,1.0,57.73366216014908
9.608,1.0,57.60881686941176
9.616,0.9999999999999999,57.48391761492318
9.624,1.0,57.358964378546254
9.632,1.0,57.233957142260735
9.64,1.0,57.10889588816325
9.648,1.0,56.98378059846743
9.656,1.0,56.858611255504
9.664,0.9999999999999999,56.73338784172092
9.672,1.0,56.60811033968341
9.68,1.0,56.48277873207412
9.688,0.9999999999999998,56.35739300169307
9.696,0.9999999999999999,56.231953131458056
9.704,1.0,56.10645910440439
9.712,1.0,55.98091090368522
9.72,0.9999999999999999,55.855308512571526
9.728,1.0000000000000002,55.7296519144523
9.736,0.9999999999999999,55.603941092834496
9.744,1.0,55.47817603134329
9.752,1.0,55.35235671372199
9.76,1.0,55.22648312383231
9.768,1.0,55.100555245654306
9.776,1.0,54.974573063286584
9.784,1.0,54.8485365609462
9.792,1.0,54.72244572296906
9.8,1.0,54.59630053380967
9.808,0.9999999999999999,54.47010097804146
9.816,1.0,54.34384704035668
9.824,0.9999999999999999,54.217538705566696
9.832,1.0,54.091175958601845
9.84,1.0,53.964758784511744
9.847999999999999,1.0,53.83828716846515
9.856,1.0,53.71176109575016
9.864,1.0,53.58518055177434
9.872,0.9999999999999999,53.458545522064746
9.879999999999999,0.9999999999999999,53.33185599226786
9.888,1.0,53.205111948149906
9.896,1.0,53.0783133755968
9.904,1.0,52.95146026061428
9.911999999999999,1.0,52.82455258932789
9.92,1.0,52.697590347983066
9.928,1.0,52.570573522945345
9.936,1.0,52.443502100700336
9.943999999999999,1.0,52.316376067853746
9.952,1.0,52.18919541113145
9.96,1.0,52.06196011737974
9.968,0.9999999999999999,51.93467017356521
9.975999999999999,0.9999999999999999,51.80732556677484
9.984,1.0,51.67992628421607
9.992,0.9999999999999999,51.55247231321699
10.0,1.0,51.42496364122628
10.008,1.0,51.29740025581326
10.016,1.0,51.16978214466796
10.024000000000001,1.0,51.042109295601314
10.032,1.0,50.9143816965451
10.04,1.0,50.78659933555195
10.048,1.0,50.65876220079549
10.056000000000001,1.0,50.53087028057048
10.064,1.0,50.402923563292696
10.072,1.0,50.27492203749911
10.08,1.0,50.14686569184779
