freq,mag,phase
6.0,0.9999920586295045,-119.65121933670957
6.008,0.9999933284121795,-120.04697998443753
6.016,0.9999945633655917,-120.44248212126675
6.024,0.9999957639643444,-120.83772646474235
6.032,0.9999969306803179,-121.23271374427102
6.04,0.9999980639826435,-121.62744470101782
6.048,0.9999991643376837,-122.02192008780357
6.056,1.0,-122.41614066900219
6.064,1.0,-122.81010722043855
6.072,1.0,-123.20382052928647
6.08,1.0,-123.59728139396695
6.088,1.0,-123.99049062404687
6.096,1.0,-124.38344904013789
6.104,1.0,-124.77615747379537
6.112,0.9999999999999999,-125.16861676741826
6.12,1.0,-125.56082777414855
6.128,1.0,-125.95279135777166
6.136,1.0,-126.34450839261687
6.144,0.9999999999999999,-126.73597976345796
6.152,1.0,-127.12720636541464
6.16,1.0,-127.51818910385391
6.168,1.0,-127.90892889429192
6.176,1.0,-128.29942666229638
6.184,1.0,-128.68968334338894
6.192,0.9999999999999999,-129.07969988294857
6.2,1.0,-129.4694772361145
6.208,1.0,-129.85901636769032
6.216,1.0,-130.24831825204814
6.224,1.0,-130.63738387303306
6.232,1.0,-131.02621422386815
6.24,1.0,-131.41481030706007
6.248,1.0,-131.8031731343047
6.256,1.0,-132.19130372639333
6.264,0.9999999999999999,-132.57920311311963
6.272,1.0,-132.96687233318644
6.28,0.9999999999999999,-133.3543124341136
6.288,1.0,-133.74152447214564
6.296,0.9999999999999999,-134.1285095121604
6.304,1.0,-134.515268627578
6.312,0.9999999999999999,-134.90180290026964
6.32,0.9999999999999998,-135.28811342046825
6.328,0.9999999999999998,-135.67420128667777
6.336,0.9999999999999999,-136.06006760558472
6.344,1.0,-136.44571349196866
6.352,0.9999999999999999,-136.83114006861425
6.36,1.0,-137.21634846622302
6.368,0.9999999999999999,-137.60133982332633
6.376,1.0,-137.9861152861979
6.384,1.0,-138.3706760087679
6.392,1.0,-138.75502315253638
6.4,1.0000000000000002,-139.1391578864881
6.408,0.9999999999999999,-139.52308138700738
6.416,1.0,-139.90679483779343
6.424,1.0,-140.29029942977635
6.432,0.9999999999999999,-140.67359636103347
6.44,1.0,-141.05668683670643
6.448,0.9999999999999999,-141.43957206891824
6.456,1.0,-141.8222532766913
6.464,1.0,-142.20473168586574
6.472,1.0,-142.58700852901828
6.48,0.9999999999999999,-142.96908504538155
6.4879999999999995,0.9999999999999999,-143.35096248076354
6.496,0.9999999999999999,-143.73264208746883
6.504,0.9999999999999999,-144.11412512421825
6.5120000000000005,1.0,-144.49541285607097
6.52,1.0,-144.87650655434584
6.5280000000000005,0.9999999999999999,-145.25740749654406
6.536,1.0,-145.63811696627138
6.5440000000000005,1.0,-146.0186362531621
6.552,1.0,-146.39896665280187
6.5600000000000005,1.0,-146.77910946665293
6.568,1.0,-147.15906600197786
6.5760000000000005,1.0,-147.53883757176573
6.584,1.0,-147.9184254946568
6.592,1.0,-148.29783109486957
6.6,1.0,-148.67705570212692
6.608,1.0,-149.05610065158348
6.616,0.9999999999999999,-149.43496728375314
6.624,1.0,-149.8136569444372
6.632,0.9999999999999999,-150.19217098465302
6.64,1.0,-150.57051076056297
6.648,0.9999999999999998,-150.9486776334041
6.656,1.0,-151.32667296941807
6.664,1.0,-151.70449813978166
6.672,0.9999999999999999,-152.08215452053778
6.68,1.0,-152.45964349252688
6.688,1.0,-152.8369664413188
6.696,1.0,-153.21412475714524
6.704,1.0000000000000002,-153.5911198348325
6.712,1.0,-153.96795307373483
6.72,1.0,-154.34462587766822
6.728,1.0,-154.72113965484448
6.736,1.0,-155.097495817806
6.744,0.9999999999999999,-155.4736957833609
6.752,1.0,-155.84974097251853
6.76,0.9999999999999999,-156.22563281042548
6.768,1.0,-156.60137272630212
6.776,1.0,-156.9769621533794
6.784,1.0,-157.35240252883622
6.792,1.0,-157.7276952937373
6.8,1.0,-158.10284189297127
6.808,0.9999999999999999,-158.4778437751893
6.816,1.0,-158.8527023927443
6.824,1.0,-159.2274192016303
6.832,1.0,-159.60199566142242
6.84,0.9999999999999999,-159.97643323521714
6.848,1.0,-160.35073338957312
6.856,0.9999999999999999,-160.72489759445224
6.864,0.9999999999999998,-161.09892732316138
6.872,1.0,-161.47282405229407
6.88,0.9999999999999999,-161.8465892616733
6.888,1.0,-162.22022443429387
6.896,1.0,-162.59373105626574
6.904,0.9999999999999999,-162.9671106167576
6.912,1.0,-163.34036460794087
6.92,1.0,-163.71349452493385
6.928,1.0,-164.0865018657466
6.936,1.0,-164.45938813122592
6.944,1.0,-164.83215482500088
6.952,1.0,-165.2048034534286
6.96,0.9999999999999999,-165.57733552554058
6.968,0.9999999999999999,-165.94975255298897
6.976,1.0,-166.3220560499938
6.984,0.9999999999999999,-166.69424753329005
6.992,1.0,-167.06632852207542
7.0,1.0,-167.43830053795816
7.008,1.0,-167.81016510490545
7.016,1.0,-168.181923749192
7.024,0.9999999999999999,-168.55357799934922
7.032,1.0,-168.9251293861142
7.04,1.0,-169.29657944237968
7.048,0.9999999999999999,-169.6679297031438
7.056,0.9999999999999999,-170.03918170546052
7.064,0.9999997378502049,-170.41033698839007
7.072,0.9999993876546769,-170.7813970929501
7.08,0.9999990394928633,-171.15236356206657
7.088,0.9999986934576153,-171.52323794052552
7.096,0.999998349639603,-171.89402177492482
7.104,0.9999980081273327,-172.26471661362618
7.112,0.9999976690071627,-172.63532400670766
7.12,0.9999973323633186,-173.0058455059164
7.128,0.999996998277912,-173.3762826646213
7.136,0.999996666830954,-173.74663703776665
7.144,0.9999963381003745,-174.1169101818254
7.152,0.9999960121620369,-174.48710365475287
7.16,0.9999956890897548,-174.85721901594104
7.168,0.99999536895531,-175.2272578261727
7.176,0.9999950518284669,-175.59722164757594
7.184,0.9999947377769899,-175.96711204357916
7.192,0.9999944268666608,-176.336930578866
7.2,0.9999941191612938,-176.7066788193306
7.208,0.9999938147227536,-177.07635833203315
7.216,0.99999351361097,-177.44597068515583
7.224,0.9999932158839568,-177.8155174479585
7.232,0.9999929215978272,-178.18500019073522
7.24,0.9999926308068098,-178.5544204847705
7.248,0.9999923435632664,-178.92377990229602
7.256,0.9999920599177072,-179.2930800164475
7.264,0.9999917799188092,-179.6623224012217
7.272,0.9999915036134304,179.96849136856613
7.28,0.9999912310466286,179.5993597173249
7.288,0.9999909622616765,179.23028106873005
7.296,0.9999906973000786,178.86125384576562
7.304,0.999990436201589,178.49227647076617
7.312,0.999990179004225,178.12334736545873
7.32,0.9999899257442867,177.75446495100414
7.328,0.9999896764563719,177.38562764803874
7.336,0.9999894311733919,177.01683387671545
7.344,0.99998918992659,176.64808205674498
7.352,0.9999889527455574,176.2793706074367
7.36,0.9999887196582476,175.9106979477395
7.368,0.999988490690994,175.54206249628237
7.376,0.9999882658685301,175.17346267141488
7.384,0.9999880452139971,174.8048968912477
7.392,0.9999878287489704,174.43636357369257
7.4,0.9999876164934688,174.06786113650253
7.4079999999999995,0.9999874084659724,173.699387997312
7.416,0.9999872046834415,173.33094257367614
7.4239999999999995,0.9999870051613301,172.96252328311138
7.432,0.9999868099136024,172.5941285431342
7.4399999999999995,0.9999866189527505,172.22575677130115
7.448,0.99998643228981,171.85740638524794
7.4559999999999995,0.9999862499343749,171.48907580272916
7.464,0.9999860718946152,171.12076344165672
7.4719999999999995,0.9999858981772929,170.75246772013992
7.48,0.9999857287877768,170.38418705652347
7.4879999999999995,0.9999855637300613,170.0159198694274
7.496,0.9999854030067783,169.64766457778495
7.504,0.9999852466192165,169.27941960088228
7.5120000000000005,0.9999850945673378,168.91118335839624
7.52,0.9999849468497896,168.542954270434
7.5280000000000005,0.9999848034639238,168.17473075757064
7.536,0.9999846644058117,167.80651124088857
7.5440000000000005,0.9999845296702611,167.43829414201525
7.552,0.9999843992508284,167.0700778831622
7.5600000000000005,0.9999842731398391,166.70186088716292
7.568,0.9999841513284001,166.33364157751166
7.5760000000000005,0.9999840338064174,165.9654183784012
7.584,0.99998392056261,165.59718971476173
7.5920000000000005,0.9999838115845278,165.22895401229837
7.6,0.9999837068585642,164.86070969753024
7.6080000000000005,0.9999836063699746,164.4924551978278
7.616,0.9999835101028907,164.1241889414518
7.6240000000000006,0.999983418040335,163.75590935759064
7.632,0.9999833301642378,163.38761487639948
7.640000000000001,0.9999832464554518,163.0193039290374
7.648,0.9999831668937679,162.65097494770654
7.656000000000001,0.9999830914579302,162.28262636568937
7.664,0.9999830201256503,161.91425661738762
7.672,0.9999829528736255,161.5458641383599
7.68,0.9999828896775506,161.17744736536025
7.688,0.999982830512135,160.80900473637624
7.696,0.9999827753511178,160.4405346906673
7.704,0.9999827241672817,160.0720356688029
7.712,0.9999826769324698,159.7035061127009
7.72,0.999982633617599,159.33494446566598
7.728,0.9999825941926754,158.96634917242793
7.736,0.9999825586268107,158.59771867918022
7.744,0.999982526888234,158.22905143361828
7.752,0.9999824989443103,157.86034588497836
7.76,0.9999824747615521,157.49160048407575
7.768,0.999982454305636,157.12281368334376
7.776,0.9999824375414172,156.75398393687226
7.784,0.9999824244329437,156.3851097004465
7.792,0.9999824149434714,156.0161894315861
7.8,0.999982409035478,155.64722158958378
7.808,0.9999824066706781,155.27820463554454
7.816,0.9999824078100383,154.90913703242475
7.824,0.99998241241379,154.5400172450711
7.832,0.999982420441446,154.17084374026035
7.84,0.9999824318518119,153.80161498673817
7.848,0.9999824466030037,153.43232945525898
7.856,0.9999824646524603,153.06298561862528
7.864,0.9999824859569577,152.69358195172757
7.872,0.9999825104726238,152.3241169315839
7.88,0.999982538154952,151.9545890373798
7.888,0.999982568958816,151.58499675050842
7.896,0.9999826028384837,151.21533855461055
7.904,0.9999826397476299,150.84561293561478
7.912,0.9999826796393528,150.47581838177803
7.92,0.9999827224661857,150.10595338372596
7.928,0.9999827681801121,149.7360164344936
7.936,0.9999828167325788,149.36600602956602
7.944,0.9999828680745104,148.99592066691957
7.952,0.9999829221563229,148.62575884706231
7.96,0.9999829789279369,148.25551907307582
7.968,0.999983038338792,147.88519985065616
7.976,0.9999831003378598,147.51479968815536
7.984,0.9999831648736575,147.14431709662327
7.992,0.9999832318942627,146.77375058984904
8.0,0.9999833013473249,146.40309868440337
8.008,0.9999833731800803,146.0323598996804
8.016,0.999983447339365,145.66153275793988
8.024000000000001,0.9999835237716275,145.29061578435005
8.032,0.9999836024229437,144.91960750702995
8.04,0.9999836832390286,144.54850645709197
8.048,0.99998376616525,144.17731116868512
8.056000000000001,0.9999838511466419,143.80602017903826
8.064,0.9999839381279179,143.4346320285032
8.072,0.9999840270534832,143.06314526059816
8.08,0.9999841178674483,142.69155842205146
8.088000000000001,0.9999842105136427,142.31987006284567
8.096,0.9999843049356266,141.94807873626144
8.104,0.9999844010767045,141.5761829989217
8.112,0.9999844988799377,141.20418141083613
8.120000000000001,0.9999845982881576,140.8320725354461
8.128,0.9999846992439777,140.4598549396692
8.136,0.9999848016898073,140.0875271939444
8.144,0.9999849055678632,139.71508787227717
8.152000000000001,0.9999850108201828,139.3425355522853
8.16,0.9999851173886367,138.96986881524438
8.168,0.9999852252149413,138.59708624613344
8.176,0.9999853342406703,138.22418643368135
8.184000000000001,0.9999854444072686,137.85116797041314
8.192,0.9999855556560642,137.47802945269655
8.2,0.9999856679282794,137.10476948078846
8.208,0.9999857811650452,136.73138665888214
8.216000000000001,0.9999858953074111,136.3578795951545
8.224,0.9999860102963594,135.98424690181338
8.232,0.9999861260728156,135.6104871951451
8.24,0.9999862425776623,135.2365990955626
8.248000000000001,0.9999863597517495,134.86258122765332
8.256,0.9999864775359076,134.48843222022776
8.264,0.9999865958709584,134.11415070636764
8.272,0.9999867146977292,133.73973532347503
8.280000000000001,0.9999868339570619,133.3651847133215
8.288,0.9999869535898259,132.99049752209712
8.296,0.9999870735369305,132.6156724004599
8.304,0.9999871937393352,132.24070800358578
8.312,0.9999873141380629,131.86560299121862
8.32,0.9999874346742099,131.4903560277202
8.328,0.9999875552889588,131.1149657821209
8.336,0.9999876759235896,130.73943092817024
8.344,0.9999877965194898,130.36375014438806
8.352,0.9999879170181672,129.98792211411538
8.36,0.9999880373612624,129.6119455255663
8.368,0.9999881574905555,129.2358190718792
8.376,0.9999882773479835,128.8595414511691
8.384,0.9999883968756458,128.48311136657938
8.392,0.9999885160158192,128.10652752633484
8.4,0.9999886347109668,127.7297886437937
8.408,0.9999887529037502,127.35289343750105
8.416,0.9999888705370391,126.97584063124157
8.424,0.9999889875539241,126.59862895409344
8.432,0.9999891038977253,126.22125714048151
8.44,0.9999892195120046,125.84372393023173
8.448,0.9999893343405758,125.46602806862472
8.456,0.9999894483275157,125.08816830645084
8.464,0.9999895614171741,124.71014340006414
8.472,0.9999896735541843,124.331952111438
8.48,0.9999897846834744,123.95359320821957
8.488,0.9999898947502766,123.57506546378586
8.496,0.9999900037001384,123.19636765729871
8.504,0.9999901114789322,122.81749857376133
8.512,0.9999902180328666,122.43845700407378
8.52,0.999990323308495,122.05924174509006
8.528,0.9999904272527265,121.67985159967402
8.536,0.9999905298128366,121.3002853767569
8.544,0.9999906309364761,120.92054189139374
8.552,0.999990730571681,120.54061996482146
8.56,0.9999908286668835,120.16051842451576
8.568,0.9999909251709207,119.78023610424954
8.576,0.9999910200330444,119.39977184415042
8.584,0.9999911132029303,119.01912449075958
8.592,0.9999912046306901,118.63829289708974
8.6,0.999991294266877,118.25727592268441
8.608,0.9999913820624984,117.87607243367646
8.616,0.9999914679690238,117.49468130284774
8.624,0.9999915519383938,117.11310140968808
8.632,0.9999916339230308,116.73133164045554
8.64,0.9999917138758466,116.34937088823555
8.648,0.9999917917502522,115.96721805300186
8.656,0.9999918675001669,115.58487204167605
8.664,0.9999919410800263,115.20233176818883
8.672,0.999992012444793,114.81959615354012
8.68,0.9999920815499626,114.43666412586063
8.688,0.9999921483515757,114.05353462047248
8.696,0.9999922128062237,113.67020657995113
8.704,0.9999922748710589,113.28667895418634
8.712,0.9999923345038026,112.90295070044469
8.72,0.9999923916627531,112.51902078343079
8.728,0.9999924463067941,112.13488817535016
8.736,0.9999924983954036,111.75055185597094
8.744,0.9999925478886617,111.3660108126871
8.752,0.9999925947472579,110.9812640405805
8.76,0.9999926389324998,110.59631054248446
8.768,0.9999926804063212,110.21114932904617
8.776,0.9999927191312891,109.82577941879072
8.784,0.9999927550706121,109.44019983818366
8.792,0.9999927881881481,109.05440962169546
8.8,0.9999928184484107,108.66840781186447
8.808,0.9999928458165781,108.28219345936154
8.815999999999999,0.9999928702584996,107.89576562305352
8.824,0.9999928917407027,107.50912337006763
8.832,0.9999929102304012,107.12226577585606
8.84,0.9999929256955016,106.73519192426029
8.847999999999999,0.9999929381046094,106.34790090757546
8.856,0.9999929474270378,105.96039182661535
8.864,0.9999929536328129,105.57266379077744
8.872,0.9999929566926807,105.18471591810763
8.879999999999999,0.9999929565781147,104.7965473353653
8.888,0.9999929532613205,104.40815717808857
8.896,0.999992946715244,104.0195445906599
8.904,0.9999929369135769,103.63070872637121
8.911999999999999,0.9999929238307628,103.24164874748931
8.92,0.9999929074420034,102.85236382532155
8.928,0.9999928877232643,102.46285314028174
8.936,0.9999928646512816,102.07311588195569
8.943999999999999,0.9999928382035669,101.68315124916684
8.952,0.9999928083584126,101.29295845004228
8.96,0.9999927750948985,100.90253670207888
8.968,0.9999927383928972,100.51188523220897
8.975999999999999,0.9999926982330778,100.12100327686636
8.984,0.9999926545969131,99.72989008205242
8.992,0.9999926074666833,99.33854490340235
9.0,0.999992556825482,98.94696700625109
9.008,0.99999250265722,98.55515566569927
9.016,0.999992444946631,98.16311016667953
9.024000000000001,0.9999923836792757,97.77082980402272
9.032,0.9999923188415466,97.37831388252384
9.04,0.999992250420671,96.98556171700807
9.048,0.9999921784047184,96.59257263239681
9.056000000000001,0.999992102782601,96.19934596377406
9.064,0.9999920235440801,95.80588105645215
9.072,0.9999919406797695,95.4121772660375
9.08,0.9999918541811378,95.01823395849672
9.088000000000001,0.9999917640405146,94.6240505102226
9.096,0.9999916702510916,94.2296263080997
9.104,0.999991572806928,93.83496074956979
9.112,0.9999914717029516,93.44005324269767
9.120000000000001,0.9999913669349636,93.04490320623684
9.128,0.9999912584996404,92.64951006969457
9.136,0.999991146394538,92.25387327339722
9.144,0.9999910306180929,91.85799226855528
9.152000000000001,0.9999909111696255,91.4618665173288
9.16,0.9999907880493425,91.06549549289188
9.168,0.999990661258339,90.66887867949733
9.176,0.9999905307986011,90.2720155725413
9.184000000000001,0.9999903966730074,89.8749056786279
9.192,0.9999902588853304,89.47754851563313
9.2,0.9999901174402395,89.07994361276882
9.208,0.999989972343301,88.68209051064649
9.216000000000001,0.9999898236009818,88.28398876134116
9.224,0.999989671220648,87.88563792845454
9.232,0.9999895152105666,87.48703758717795
9.24,0.9999893555799088,87.08818732435546
9.248000000000001,0.9999891923387477,86.68908673854658
9.256,0.999989025498061,86.28973544008858
9.264,0.9999888550697301,85.8901330511583
9.272,0.9999886810665418,85.49027920583423
9.280000000000001,0.9999885035021878,85.0901735501581
9.288,0.9999883223912645,84.68981574219599
9.296,0.9999881377492728,84.28920545209905
9.304,0.9999879495926188,83.8883423621641
9.312000000000001,0.9999877579386127,83.48722616689419
9.32,0.9999875628054676,83.08585657305815
9.328,0.9999873642122995,82.68423329975003
9.336,0.9999871621791265,82.28235607844827
9.344,0.9999869567268672,81.88022465307479
9.352,0.9999867478773395,81.4778387800527
9.36,0.9999865356532599,81.07519822836484
9.368,0.9999863200782397,80.6723027796107
9.376,0.9999861011767867,80.26915222806406
9.384,0.9999858789743004,79.86574638072902
9.392,0.999985653497071,79.46208505739673
9.4,0.999985424772277,79.05816809070053
9.408,0.9999851928279827,78.65399532617165
9.416,0.9999849576931359,78.24956662229337
9.424,0.9999847193975646,77.84488185055584
9.432,0.999984477971974,77.43994089550905
9.44,0.9999842334479445,77.0347436548167
9.448,0.9999839858579267,76.62929003930799
9.456,0.9999837352352393,76.22357997303047
9.464,0.999983481614064,75.81761339330066
9.472,0.9999832250294437,75.41139025075572
9.48,0.9999829655172765,75.00491050940292
9.488,0.9999827031143123,74.59817414667008
9.496,0.9999824378581486,74.1911811534538
9.504,0.9999821697872258,73.78393153416862
9.512,0.9999818989408227,73.37642530679399
9.52,0.9999816253590501,72.96866250292213
9.528,0.9999813490828486,72.56064316780355
9.536,0.9999810701539805,72.15236736039365
9.544,0.9999807886150253,71.74383515339686
9.552,0.9999805045093747,71.33504663331163
9.56,0.9999802178812266,70.92600190047334
9.568,0.9999799287755777,70.51670106909772
9.576,0.9999796372382195,70.10714426732221
9.584,0.9999793433157299,69.69733163724793
9.592,0.9999790470554683,69.2872633349794
9.6,0.9999787485055672,68.87693953066496
9.608,0.9999784477149274,68.46636040853495
9.616,0.9999781447332085,68.0555261669404
9.624,0.9999778396108229,67.64443701838947
9.632,0.9999775323989291,67.23309318958462
9.64,0.9999772231494223,66.82149492145724
9.648,0.9999769119149277,66.40964246920308
9.656,0.9999765987487926,65.99753610231504
9.664,0.9999762837050764,65.58517610461688
9.672,0.9999759668385454,65.1725627742942
9.68,0.9999756482046611,64.7596964239262
9.688,0.9999753278595733,64.34657738051482
9.696,0.9999750058601107,63.93320598551454
9.704,0.9999746822637712,63.519582594859756
9.712,0.9999743571287135,63.1057075789924
9.72,0.9999740305137476,62.69158132288738
9.728,0.9999737024783242,62.27720422607831
9.736,0.9999733730825258,61.86257670268073
9.744,0.9999730423870561,61.44769918141581
9.752,0.9999727104532302,61.03257210563159
9.76,0.9999723773429643,60.617195933324446
9.768,0.9999720431187649,60.20157113715815
9.776,0.9999717078437174,59.78569820448326
9.784,0.9999713715814773,59.36957763735393
9.792,0.9999710343962569,58.95320995254501
