freq,mag,phase
6.0,0.9999957614200404,-14.381614982166896
6.014109184,1.0000077592019547,-14.845915684208627
6.02821888,1.0000200923532847,-15.310483340342905
6.042328064,1.0000315687112658,-15.77519443434327
6.056437248,1.000041639273383,-16.24011768475295
6.070546944,1.0000500346531533,-16.705179615860988
6.084656128,1.000056478851047,-17.170326309220332
6.098765312,1.0000601615846756,-17.635617429860392
6.112875008,1.0000612929521955,-18.10100220429218
6.126984192,1.0000598883650267,-18.566423620842798
6.141093376,1.0000557798741234,-19.031852854790884
6.155203072,1.0000492337977005,-19.497243111122046
6.169312256,1.0000406775286068,-19.962617575018967
6.18342144,1.0000301767481723,-20.42790264785533
6.197530624,1.0000184831564485,-20.893096312110686
6.21164032,1.0000058400106997,-21.358224702957546
6.225749504,0.9999931639752481,-21.82321547318644
6.239858688,0.9999805334950578,-22.28809989937032
6.253968384,0.999969004048561,-22.752872938518298
6.268077568,0.9999586654257242,-23.217590122616954
6.282186752,0.9999502052176924,-23.682219717239338
6.296296448,0.9999441165770313,-24.146781782063012
6.310405632,0.9999403560230601,-24.611358549777716
6.324514816,0.9999392679376597,-25.07597780992833
6.338624512,0.9999409815308945,-25.540583992553223
6.352733696,0.9999452020046453,-26.00529369697428
6.36684288,0.9999522068265712,-26.470121766174582
6.380952576,0.9999610764415902,-26.935060101952722
6.39506176,0.9999719279109607,-27.4002252208335
6.409170944,0.9999838119077333,-27.865508816686127
6.42328064,0.9999966368317144,-28.33103203435006
6.437389824,1.0000096939077556,-28.79671751764467
6.451499008,1.0000224312009334,-29.262656975351963
6.465608704,1.0000342421334916,-29.72875385816902
6.479717888,1.000044514454423,-30.195033569732864
6.493827072,1.0000529513464573,-30.661478595814916
6.507936256,1.0000592449341115,-31.128045996987627
6.522045952,1.0000626633096628,-31.594741470316585
6.536155136,1.0000635712146486,-32.06152465383213
6.55026432,1.0000617869229476,-32.52827628670649
6.564374016,1.0000570410410823,-32.99510197692565
6.5784832,1.00005015986872,-33.46187600511445
6.592592384,1.000040810742497,-33.928599278992266
6.60670208,1.000029697088613,-34.395269734196766
6.620811264,1.00001736786796,-34.8617941505721
6.634920448,1.0000042761860062,-35.32823468183559
6.649030144,0.9999908177269544,-35.79459304750212
6.663139328,0.9999780379823042,-36.260817316344855
6.677248512,0.9999661938098948,-36.72693270695576
6.691358208,0.9999556946884111,-37.19295771292308
6.705467392,0.9999473232585552,-37.65889812019715
6.719576576,0.9999411848715974,-38.124797332634905
6.733686272,0.9999376474010981,-38.590726808548695
6.747795456,0.9999370361465257,-39.0566378495367
6.76190464,0.9999390867541476,-39.522587275469
6.776014336,0.9999439469914712,-39.98865855340201
6.79012352,0.999951290106266,-40.454821078932355
6.804232704,0.9999609491968834,-40.92117154502722
6.8183424,0.9999722452506346,-41.38766701517847
6.832451584,0.9999849025073416,-41.85434465470258
6.846560768,0.9999983534479158,-42.32120752434117
6.860669952,1.000011989526773,-42.788317732932796
6.874779648,1.0000250449901624,-43.2556174696205
6.888888832,1.0000371064262157,-43.723133089405614
6.902998016,1.0000476142308157,-44.19084337220474
6.917107712,1.0000560823316444,-44.658670319306694
6.931216896,1.0000620634429747,-45.12663834581577
6.94532608,1.0000654926440213,-45.59474113986377
6.959435776,1.0000660150254153,-46.062885931643486
6.97354496,1.0000636291906286,-46.53105010918642
6.987654144,1.0000584754093607,-46.99926633985142
7.00176384,1.0000507665109593,-47.46742187350926
7.015873024,1.0000408591034482,-47.935548044836985
7.029982208,1.000029264009157,-48.40352745253127
7.044091904,1.0000161712075943,-48.87146053232685
7.058201088,1.0000024209465974,-49.339260644570224
7.072310272,0.9999886426881338,-49.806934833031555
7.086419968,0.9999752972495605,-50.2744898006382
7.100529152,0.9999630378017481,-50.74194479065775
7.114638336,0.9999525258730873,-51.209274042126104
7.128748032,0.9999440435966799,-51.67656478934697
7.142857216,0.9999381224120958,-52.143821904594
7.1569664,0.9999348192683786,-52.6110285152846
7.171075584,0.9999344147385206,-53.078280352155204
7.18518528,0.9999369212913269,-53.54559963453354
7.199294464,0.9999424440400128,-54.01300781878406
7.213403648,0.9999504802644148,-54.48050515976609
7.227513344,0.9999606880229729,-54.948216286054326
7.241622528,0.9999728890566502,-55.41609605050307
7.255731712,0.9999862741305905,-55.8841506291586
7.269841408,1.0000001335945825,-56.352416194064915
7.283950592,1.0000142965163072,-56.820884581910526
7.298059776,1.0000278634779576,-57.289574322912806
7.312169472,1.0000402013051464,-57.758494919229314
7.326278656,1.0000509506785082,-58.22758650471366
7.34038784,1.0000594014443334,-58.69683908811944
7.354497536,1.0000652826554501,-59.16624754499071
7.36860672,1.000068365995305,-59.635694267545475
7.382715904,1.0000685850983324,-60.10526487369719
7.3968256,1.000065727813072,-60.57484885319568
7.410934784,1.00005996465031,-61.04443048319222
7.425043968,1.0000515874021454,-61.51394356818513
7.439153664,1.000040922993421,-61.98341467838411
7.453262848,1.000028567454492,-62.45280431751564
7.467372032,1.0000147455448951,-62.92205030113299
7.481481728,1.0000004662125332,-63.391193888078206
7.495590912,0.9999861208721667,-63.86020134332334
7.509700096,0.9999722893107126,-64.3290837965969
7.52380928,0.9999597592888143,-64.79786623385695
7.537918976,0.9999490902996176,-65.26650378478631
7.55202816,0.9999404882593391,-65.73511633188973
7.566137344,0.9999346339426328,-66.20367689757559
7.58024704,0.9999315966866364,-66.67219279999198
7.594356224,0.9999317174547153,-67.14079265038978
7.608465408,0.9999348664396237,-67.60941062543255
7.622575104,0.9999408902620914,-68.07811596175938
7.636684288,0.999949576679091,-68.54702007351102
7.650793472,0.9999607150795748,-69.01604329316385
7.664903168,0.9999734794902657,-69.4852711514917
7.679012352,0.9999876161345792,-69.9546781720572
7.693121536,1.0000022912533066,-70.42430955538703
7.707231232,1.0000170062528022,-70.89420208621144
7.721340416,1.0000309668891514,-71.36426500200258
7.7354496,1.0000437018028854,-71.8345510691327
7.749559296,1.000054598317893,-72.30504285208991
7.76366848,1.0000630257564385,-72.77569014992429
7.777777664,1.0000689270767924,-73.24647057594926
7.79188736,1.0000716656571318,-73.71732585223742
7.805996544,1.0000713297727626,-74.18825750104307
7.820105728,1.0000680645336752,-74.65920237780644
7.834214912,1.0000615131187853,-75.13014311162084
7.848324608,1.000052490438551,-75.60104522482685
7.862433792,1.0000410622304605,-76.07185539567315
7.876542976,1.0000279368612222,-76.54257775880278
7.890652672,1.0000134250138073,-77.01314590763373
7.904761856,0.9999983407338633,-77.48360384890097
7.91887104,0.9999834147951513,-77.95390717602777
7.932980736,0.9999691624377254,-78.42409591932189
7.94708992,0.9999562453741067,-78.89415396082474
7.961199104,0.9999453554690488,-79.36410606681038
7.9753088,0.999936773484334,-79.83397479333858
7.989417984,0.9999310439890843,-80.30381840229009
8.003527168,0.9999283470208046,-80.77366274499347
8.017636864,0.9999289284623573,-81.24351307064936
8.031746048,0.9999326593424882,-81.71345042439678
8.045855232,0.999939416317375,-82.18347133088956
8.059964928,0.9999488707673712,-82.65366149942908
8.074074112,0.9999607092851428,-83.1240077371977
8.088183296,0.9999743267751757,-83.59454897584223
8.102292992,0.9999892194122713,-84.06531295950266
8.116402176,1.0000046261354962,-84.5362746638127
8.13051136,1.0000198884558542,-85.00748833339198
8.144621056,1.000034367585537,-85.47892813776446
8.15873024,1.0000474990913861,-85.95059048604824
8.172839424,1.0000585462982523,-86.42240563964492
8.186948608,1.000066980212471,-86.89441665233004
8.201058304,1.0000726759352483,-87.36656011810288
8.215167488,1.000075182577608,-87.83875120718928
8.229276672,1.000074460896805,-88.31104313514888
8.243386368,1.000070427740109,-88.7833527163066
8.257495552,1.0000633080033678,-89.25557857197934
8.271604736,1.0000533662508435,-89.72780234262264
8.285714432,1.000041135669035,-90.199926866369
8.299823616,1.0000271633724442,-90.67193237799759
8.3139328,1.0000118614993498,-91.1438015934407
8.328042496,0.9999961063436549,-91.61552134265976
8.34215168,0.9999805372961115,-92.08709953777628
8.356260864,0.9999656861535214,-92.55855827066765
8.37037056,0.9999525045061477,-93.02984732126917
8.384479744,0.9999413057398474,-93.5010751149867
8.398588928,0.9999327719274637,-93.97216180652197
8.412698624,0.9999272425002433,-94.44325107965768
8.426807808,0.9999248939130482,-94.91432470070403
8.440916992,0.9999259616023101,-95.38544476159589
8.455026688,0.9999302769800191,-95.85659649789145
8.469135872,0.9999378296948674,-96.3278842462005
8.483245056,0.9999480399824703,-96.79934225902923
8.497354752,0.9999608189344037,-97.27094910020928
8.511463936,0.9999752995835147,-97.74276792550609
8.52557312,0.9999910006059499,-98.21481235312982
8.539682304,1.0000072225622065,-98.68710412451567
8.553792,1.0000231512446185,-99.15962256571099
8.567901184,1.0000381988682745,-99.63234889231013
8.582010368,1.0000516114727713,-100.10533384726779
8.596119552,1.0000628636078595,-100.57848767485022
8.610229248,1.000071411642365,-101.05178654952917
8.624338944,1.0000768810453393,-101.52522646820118
8.638447616,1.00007901916948,-101.99874065755681
8.652557312,1.0000776603786432,-102.47232855734585
8.666667008,1.000072943210069,-102.94591491557787
8.68077568,1.0000651364912,-103.41946744406454
8.694885376,1.0000542785536646,-103.89294835374922
8.708995072,1.0000411735712456,-104.36630460531292
8.723103744,1.0000261950139164,-104.83956973519592
8.73721344,1.000010087145378,-105.31264433732153
8.751323136,0.9999934998360326,-105.78557181343707
8.765431808,0.9999772410668667,-106.25838483129074
8.779541504,0.999961914887112,-106.73102550095287
8.7936512,0.9999483085134246,-107.20349875815683
8.807759872,0.9999370223059643,-107.67587588985069
8.821869568,0.9999284430179417,-108.14818316386216
8.835979264,0.9999231096968098,-108.62043795239613
8.850087936,0.9999211529255951,-109.09270275961947
8.864197632,0.9999227298773503,-109.56496744712773
8.878307328,0.9999278325024044,-110.03732664179027
8.892416,0.9999361562558745,-110.50980220560197
8.906525696,0.999947399177726,-110.98244419759905
8.920635392,0.999961087714983,-111.45528387636756
8.934744064,0.9999764739884756,-111.9283214705256
8.94885376,0.9999930696795206,-112.4016042126258
8.962963456,1.000010016010219,-112.87512684482057
8.977072128,1.0000267326408452,-113.34888064280315
8.991181824,1.0000422906404522,-113.82286480257656
9.005290496,1.0000561257789664,-114.29708580812039
9.019400192,1.000067581043825,-114.7714992023875
9.033509888,1.000076111368943,-115.24607124380707
9.04761856,1.0000813265442183,-115.72074350730477
9.061728256,1.0000831914149049,-116.1955043532477
9.075837952,1.0000811910716076,-116.67032703740382
9.089946624,1.0000757506809355,-117.14512113886667
9.10405632,1.0000670183865692,-117.61990414888116
9.118166016,1.0000553489193817,-118.09458448905282
9.132274688,1.0000411228991422,-118.56912170103497
9.146384384,1.0000252673750492,-119.04354804367368
9.16049408,1.0000081885975005,-119.51780530582678
9.174602752,0.9999907315206791,-119.99189555776086
9.188712448,0.9999736916619002,-120.46578110523188
9.202822144,0.9999578676062695,-120.93954509632879
9.216930816,0.9999438150918599,-121.41315703889502
9.231040512,0.9999323310997595,-121.88664836737136
9.245150208,0.9999237197369901,-122.36003500577155
9.25925888,0.999918583200769,-122.83341492609473
9.273368576,0.9999170971694394,-123.30674358086611
9.287478272,0.9999193133389941,-123.78012766570585
9.301586944,0.9999252148374804,-124.25360845271408
9.31569664,0.9999343907615164,-124.72722295692508
9.329806336,0.9999466119691629,-125.20096896210791
9.343915008,0.999961232561605,-125.67492896690536
9.358024704,0.9999777363105742,-126.14912395184881
9.3721344,0.99999530782126,-126.62354651695314
9.386243072,1.0000131863868462,-127.0982352934618
9.400352768,1.0000305677038581,-127.57316423578797
9.414462464,1.0000468076210884,-128.0483442593933
9.428571136,1.0000610055025227,-128.52372517587727
9.442680832,1.0000726503205144,-128.9993048867704
9.456790528,1.0000811891740176,-129.47505305285011
9.4708992,1.0000861521241575,-129.9509264777935
9.485008896,1.0000875054208633,-130.42685117378775
9.499118592,1.0000849317857112,-130.90280558372592
9.513227264,1.0000786053099675,-131.37876579566196
9.52733696,1.0000689341632003,-131.85466243985704
9.541446656,1.0000562768705104,-132.33048097335745
9.555555328,1.0000411164187883,-132.80612429280797
9.569665024,1.000024022180708,-133.28161298575932
9.58377472,1.0000059552377456,-133.75695005595392
9.597883392,0.9999876750232195,-134.23208091865794
9.611993088,0.9999697697361217,-134.70703880209732
9.626102784,0.9999532615178274,-135.1818218462879
9.640211456,0.9999388334523661,-135.65644572185832
9.654321152,0.9999270925152579,-136.13093448642965
9.668429824,0.9999185926541302,-136.60535457070387
9.68253952,0.9999137295901387,-137.0797330306335
9.696649216,0.9999127680388772,-137.55407475217447
9.710757888,0.9999156050779797,-138.02848920991516
9.724867584,0.9999222872885729,-138.50297201276825
9.73897728,0.9999324504388193,-138.977602636273
9.753085952,0.9999457203424128,-139.45239125278366
9.767195648,0.999961476467667,-139.92740820940853
9.781305344,0.9999790688301252,-140.40263327243872
9.795414016,0.999997698420774,-140.87813815566403
9.809523712,1.0000166128758206,-141.35389163285137
9.823633408,1.0000348567022797,-141.82989932712084
9.83774208,1.000051608316746,-142.30615319088395
9.851851776,1.0000662871807837,-142.78264489552697
9.865961472,1.0000781224016613,-143.259329792551
9.880070144,1.0000865968898476,-143.73615986671413
9.89417984,1.0000913048582503,-144.2130941781608
9.908289536,1.0000920396297646,-144.69009774557273
9.922398208,1.0000888805882928,-145.167140185059
9.936507904,1.000081727300054,-145.64414353922172
9.9506176,1.0000709535611796,-146.12108320991632
9.964726272,1.0000571568324712,-146.5978940256889
9.978835968,1.000040816501374,-147.07454760226577
9.992945664,1.000022572539308,-147.55106173281087
10.007054336,1.0000034094141361,-148.0273443150109
10.021164032,0.9999840183184384,-148.50342126769795
10.035273728,0.9999653760180609,-148.97933058447853
10.0493824,0.999948209501323,-149.45501998092345
10.063492096,0.9999332190357336,-149.9305780676231
10.077601792,0.9999213312303057,-150.40597020944716
10.091710464,0.9999129542139007,-150.88128101299085
10.10582016,0.9999083374039828,-151.35655865726883
10.119929856,0.9999078119118923,-151.83181575833245
10.134038528,0.9999114669789314,-152.30712053832173
10.148148224,0.9999191375271533,-152.7825286235716
10.16225792,0.999930302942427,-153.25806382296548
10.176366592,0.9999447907877229,-153.733796696266
10.190476288,0.9999617743709528,-154.20974677344032
10.204585984,0.9999806193475913,-154.68592889672507
10.218694656,1.0000003584236892,-155.16240104571068
10.232804352,1.0000203379330357,-155.63912927484347
10.246914048,1.0000393847442426,-156.11611139724383
10.26102272,1.0000569143733375,-156.5933548769805
10.275132416,1.0000720481494922,-157.0708205079124
10.289242112,1.0000840960598802,-157.5484944934195
10.303350784,1.0000925672494458,-158.0263159884631
10.31746048,1.0000969202306238,-158.5042451715339
10.331570176,1.0000971232188565,-158.9822295938006
10.345678848,1.00009313178827,-159.46022292251246
10.359788544,1.0000850106080705,-159.93817647664886
10.373897216,1.0000731338915467,-160.41602674003883
10.388006912,1.0000580660056588,-160.8937647083775
10.402116608,1.0000404008599757,-161.37131979163976
10.41622528,1.0000209924151877,-161.84868709337997
10.430334976,1.0000005877864684,-162.32584388541628
10.444444672,0.9999801213171615,-162.80276244202645
10.458553344,0.9999604941787482,-163.2794628926639
10.47266304,0.999942627594891,-163.75599756678253
10.486772736,0.9999272344588529,-164.2323262107797
10.500881408,0.9999150303164103,-164.70851738636483
10.514991104,0.9999066623666306,-165.1846207266959
10.5291008,0.9999023853637466,-165.66066788014572
10.543209472,0.999902462802344,-166.13670571357576
10.557319168,0.9999069869259011,-166.6127980890132
10.571428864,0.9999156459020297,-167.08899591813633
10.585537536,0.9999280344957395,-167.5653343409318
10.599647232,0.999943807064962,-168.0418873485003
10.613756928,0.9999621763431282,-168.51865956033504
10.6278656,0.999982237927694,-168.995691548883
10.641975296,1.0000033894729854,-169.4729948328443
10.656084992,1.0000243416214727,-169.95058992704793
10.670193664,1.0000444515702642,-170.42844722119375
10.68430336,1.000062774374185,-170.90657394261262
10.698413056,1.0000783549556425,-171.3849144033486
10.712521728,1.000090583860653,-171.86345423819367
10.726631424,1.000098962006051,-172.3421528865101
10.74074112,1.0001029902973546,-172.82095729294986
10.754849792,1.0001025805876438,-173.29980169853295
10.768959488,1.0000977160852145,-173.77865393412353
10.783069184,1.0000885405359214,-174.25741003146928
10.797177856,1.0000753543509073,-174.7360869732568
10.811287552,1.000058951137239,-175.21461138196008
10.825397248,1.0000398486335353,-175.69294417270933
10.83950592,1.000018982945478,-176.171071311335
10.853615616,0.9999972560385503,-176.64893791452772
10.867725312,0.9999755741829266,-177.12657567848203
10.881833984,0.9999549481302518,-177.60397109550675
10.89594368,0.9999362807400245,-178.0811693225731
10.910053376,0.999920332559228,-178.55818003911608
10.924162048,0.999908039667406,-179.03502789495658
10.938271744,0.9998996861039946,-179.51178205266055
10.95238144,0.9998958909814284,-179.98845579921326
10.966490112,0.9998966359120475,179.53484209037256
10.980599808,0.9999019969392274,179.0580915722754
10.994709504,0.9999117778640446,178.58123307929839
11.008818176,0.9999255747518583,178.10420831971504
11.022927872,0.9999427610371201,177.6269789582817
11.037036544,0.9999625502117816,177.14950563815157
11.05114624,0.9999842376560355,176.6717449566287
11.065255936,1.000006639342869,176.19372353190172
11.079364608,1.0000289840241798,175.71540943825988
11.093474304,1.0000501357561575,175.23678299121448
11.107584,1.0000692339331083,174.75791620411053
11.121692672,1.000085356898009,174.27881871813253
11.135802368,1.0000978040334456,173.79950231544763
11.149912064,1.0001060296093238,173.32004205344884
11.164020736,1.0001096761495625,172.8405126818097
11.178130432,1.0001085996405508,172.36092690205487
11.192240128,1.0001025988744248,171.88136271721558
11.2063488,1.0000922466033013,171.40185867222078
11.220458496,1.000077716646396,170.92252192239465
11.234568192,1.000059764217235,170.44332080416908
11.248676864,1.0000391267068618,169.9643523231826
11.26278656,1.000016723214522,169.4856394009939
11.276896256,0.9999934295956048,169.00714219049053
11.291004928,0.9999704756982618,168.52893369914997
11.305114624,0.9999487568225471,168.05098553245776
11.31922432,0.9999291667013851,167.5732587182588
11.333332992,0.9999127317328431,167.09573336887686
11.347442688,0.9999001833780679,166.61836119284493
11.361552384,0.9998919854294147,166.14110619945205
11.375661056,0.9998885125139364,165.6639159180556
11.389770752,0.999890077173113,165.18670460817208
11.403880448,0.999896506343641,164.7094469797188
11.41798912,0.9999075620612821,164.23205760326996
11.432098816,0.9999228854283558,163.75449581219024
11.446208512,0.9999415989267669,163.27671626865995
11.460317184,0.9999631508865384,162.7986736822803
11.47442688,0.9999864161163478,162.3203501577549
11.488536576,1.0000103813535368,161.84174008848464
11.502645248,1.0000341388166314,161.36279641104386
11.516754944,1.000056463070393,160.88356825099754
11.53086464,1.0000764113557679,160.40406154787854
11.544973312,1.0000931123419856,159.92432742499867
11.559083008,1.000105812596859,159.44438202155163
11.573192704,1.0001140020856216,158.96430598942888
11.587301376,1.000117135766675,158.48413893281685
11.601411072,1.0001151478001178,158.0039200709303
