freq,mag,phase
6.0,0.9999956625361914,74.87751623210686
6.008,0.9999964245295768,74.72315432803218
6.016,0.9999971627140251,74.56874153273692
6.024,0.9999978774393795,74.41427783815057
6.032,0.9999985690531331,74.25976323638677
6.04,0.9999992379004308,74.10519771974447
6.048,0.9999998843240695,73.95058128070862
6.056,1.0,73.79591391195142
6.064,1.0,73.64119560633314
6.072,1.0,73.48642635690312
6.08,0.9999999999999999,73.33160615690082
6.088,1.0,73.17673499975662
6.096,1.0,73.02181287909296
6.104,0.9999999999999999,72.86683978872523
6.112,1.0,72.7118157226627
6.12,1.0,72.55674067510958
6.128,1.0,72.40161464046587
6.136,1.0,72.2464376133284
6.144,1.0,72.09120958849176
6.152,1.0,71.93593056094929
6.16,0.9999999999999999,71.78060052589392
6.168,1.0,71.6252194787193
6.176,1.0,71.46978741502062
6.184,1.0,71.31430433059558
6.192,1.0,71.1587702214454
6.2,0.9999999999999999,71.00318508377568
6.208,1.0,70.84754891399743
6.216,1.0,70.69186170872793
6.224,1.0,70.53612346479176
6.232,1.0,70.38033417922165
6.24,1.0000000000000002,70.22449384925949
6.248,1.0,70.06860247235718
6.256,1.0,69.9126600461777
6.264,1.0,69.75666656859592
6.272,1.0,69.60062203769957
6.28,0.9999999999999999,69.44452645179013
6.288,1.0,69.28837980938384
6.296,0.9999999999999999,69.1321821092126
6.304,1.0,68.97593335022479
6.312,0.9999999999999999,68.81963353158636
6.32,0.9999999999999999,68.66328265268157
6.328,1.0,68.50688071311407
6.336,1.0,68.35042771270766
6.344,1.0,68.19392365150732
6.352,1.0,68.03736852978007
6.36,0.9999999999999999,67.88076234801588
6.368,0.9999999999999999,67.72410510692855
6.376,1.0,67.5673968074567
6.384,0.9999999999999999,67.41063745076454
6.392,0.9999999999999999,67.25382703824289
6.4,0.9999999999999998,67.09696557150998
6.408,1.0,66.94005305241242
6.416,1.0,66.78308948302602
6.424,1.0,66.62607486565676
6.432,1.0,66.46900920284156
6.44,0.9999999999999999,66.31189249734932
6.448,0.9999999999999999,66.15472475218166
6.456,1.0,65.99750597057385
6.464,1.0,65.84023615599571
6.472,1.0,65.68291531215249
6.48,1.0,65.52554344298562
6.4879999999999995,1.0,65.36812055267382
6.496,0.9999999999999999,65.21064664563363
6.504,1.0,65.05312172652067
6.5120000000000005,1.0,64.89554580023011
6.52,1.0,64.73791887189783
6.5280000000000005,0.9999999999999999,64.5802409469011
6.536,0.9999999999999999,64.42251203085954
6.5440000000000005,1.0,64.26473212963582
6.552,1.0,64.10690124933676
6.5600000000000005,1.0,63.94901939631382
6.568,1.0,63.79108657716438
6.5760000000000005,1.0,63.6331027987321
6.584,1.0,63.47506806810821
6.592,0.9999999999999998,63.31698239263195
6.6,0.9999999999999999,63.15884577989172
6.608,1.0000000000000002,63.000658237725666
6.616,1.0,62.8424197742227
6.624,1.0,62.68413039772314
6.632,0.9999999999999999,62.52579011681967
6.64,1.0,62.36739894035808
6.648,1.0,62.2089568774381
6.656,0.9999999999999999,62.05046393741423
6.664,1.0,61.8919201298965
6.672,0.9999999999999999,61.73332546475131
6.68,0.9999999999999998,61.574679952102215
6.688,0.9999999999999999,61.415983602330726
6.696,0.9999999999999999,61.2572364260771
6.704,0.9999999999999999,61.09843843424114
6.712,0.9999999999999999,60.93958963798296
6.72,0.9999999999999999,60.780690048723834
6.728,1.0,60.62173967814685
6.736,0.9999999999999999,60.46273853819783
6.744,0.9999999999999999,60.303686641085996
6.752,1.0,60.14458399928482
6.76,0.9999999999999999,59.985430625532736
6.768,1.0,59.82622653283391
6.776,1.0,59.666971734459025
6.784,0.9999999999999999,59.50766624394607
6.792,0.9999999999999999,59.34831007510098
6.8,1.0,59.18890324199849
6.808,0.9999999999999999,59.02944575898284
6.816,1.0000000000000002,58.86993764066857
6.824,1.0,58.71037890194113
6.832,0.9999999999999999,58.55076955795781
6.84,1.0,58.39110962414828
6.848,0.9999999999999999,58.23139911621541
6.856,0.9999997908997148,58.071638050136066
6.864,0.9999995385555402,57.91182644216165
6.872,0.9999992871647209,57.75196430881901
6.88,0.9999990368468199,57.59205166691102
6.888,0.9999987877195385,57.432088533517316
6.896,0.9999985398987243,57.27207492599509
6.904,0.9999982934983767,57.112010861979684
6.912,0.9999980486306544,56.95189635938533
6.92,0.9999978054058839,56.79173143640585
6.928,0.999997563932564,56.63151611151535
6.936,0.9999973243173755,56.471250403468886
6.944,0.9999970866651869,56.31093433130319
6.952,0.9999968510790619,56.15056791433729
6.96,0.9999966176602667,55.99015117217324
6.968,0.9999963865082783,55.82968412469675
6.976,0.9999961577207896,55.66916679207788
6.984,0.9999959313937192,55.5085991947717
6.992,0.9999957076212173,55.34798135351894
7.0,0.9999954864956737,55.18731328934664
7.008,0.9999952681077254,55.02659502356883
7.016,0.9999950525462634,54.86582657778715
7.024,0.999994839898442,54.70500797389149
7.032,0.9999946302496838,54.54413923406066
7.04,0.9999944236836901,54.38322038076299
7.048,0.9999942202824466,54.222251436756984
7.056,0.9999940201262318,54.0612324250919
7.064,0.9999938232936254,53.90016336910848
7.072,0.9999936298615149,53.73904429243943
7.08,0.999993439905104,53.577875219010124
7.088,0.9999932534979211,53.41665617303918
7.096,0.9999930707118259,53.25538717903911
7.104,0.9999928916170188,53.09406826181682
7.112,0.9999927162820472,52.93269944647431
7.12,0.9999925447738154,52.77128075840919
7.128,0.9999923771575908,52.60981222331535
7.136,0.9999922134970137,52.44829386718344
7.144,0.9999920538541043,52.28672571630153
7.152,0.9999918982892708,52.12510779725563
7.16,0.9999917468613185,51.96344013693031
7.168,0.9999915996274571,51.80172276250922
7.176,0.9999914566433095,51.639955701475635
7.184,0.9999913179629197,51.4781389816131
7.192,0.9999911836387615,51.31627263100587
7.2,0.9999910537217473,51.15435667803953
7.208,0.9999909282612348,50.992391151401485
7.216,0.999990807305037,50.830376080081535
7.224,0.9999906908994307,50.668311493372414
7.232,0.9999905790891634,50.50619742087028
7.24,0.9999904719174645,50.34403389247522
7.248,0.9999903694260504,50.18182093839186
7.256,0.9999902716551359,50.01955858912975
7.264,0.9999901786434423,49.857246875503996
7.272,0.999990090428205,49.69488582863567
7.28,0.9999900070451829,49.532475479952346
7.288,0.9999899285286671,49.37001586118858
7.296,0.9999898549114895,49.20750700438642
7.304,0.9999897862250315,49.04494894189589
7.312,0.9999897224992338,48.882341706375406
7.32,0.9999896637626033,48.719685330792295
7.328,0.999989610042224,48.55697984842333
7.336,0.999989561363764,48.39422529285505
7.344,0.9999895177514863,48.23142169798431
7.352,0.999989479228256,48.068569098018735
7.36,0.9999894458155513,47.905667527477135
7.368,0.9999894175334701,47.742717021189925
7.376,0.9999893944007415,47.57971761429966
7.384,0.9999893764347328,47.41666934226134
7.392,0.9999893636514599,47.25357224084296
7.4,0.9999893560655958,47.0904263461258
7.4079999999999995,0.99998935369048,46.92723169450497
7.416,0.9999893565381281,46.76398832268968
7.4239999999999995,0.9999893646192403,46.60069626770386
7.432,0.9999893779432104,46.437355566886275
7.4399999999999995,0.9999893965181368,46.273966257891225
7.448,0.9999894203508293,46.1105283786886
7.4559999999999995,0.999989449446821,45.947041967564616
7.464,0.9999894838103748,45.783507063121895
7.4719999999999995,0.9999895234444962,45.619923704280055
7.48,0.9999895683509391,45.45629193027593
7.4879999999999995,0.9999896185302183,45.292611780664004
7.496,0.9999896739816168,45.128883295316754
7.504,0.9999897347031965,44.96510651442504
7.5120000000000005,0.999989800691807,44.8012814784983
7.52,0.9999898719430961,44.637408228365146
7.5280000000000005,0.9999899484515179,44.4734868051734
7.536,0.9999900302103435,44.30951725039075
7.5440000000000005,0.9999901172116699,44.1454996058047
7.552,0.9999902094464308,43.98143391352329
7.5600000000000005,0.9999903069044048,43.817320215974995
7.568,0.9999904095742257,43.65315855590948
7.5760000000000005,0.9999905174433924,43.488948976397396
7.584,0.9999906304982783,43.324691520831195
7.5920000000000005,0.9999907487241408,43.16038623292495
7.6,0.9999908721051325,42.99603315671502
7.6080000000000005,0.9999910006243083,42.83163233656003
7.616,0.999991134263638,42.66718381714137
7.6240000000000006,0.9999912730040145,42.502687643463304
7.632,0.9999914168252636,42.33814386085332
7.640000000000001,0.9999915657061549,42.17355251496233
7.648,0.9999917196244109,42.008913651765
7.656000000000001,0.9999918785567172,41.84422731755983
7.664,0.999992042478732,41.67949355896963
7.672,0.9999922113650968,41.5147124229415
7.68,0.999992385189445,41.34988395674723
7.688,0.9999925639244139,41.18500820798343
7.696,0.9999927475416533,41.02008522457182
7.704,0.9999929360118354,40.85511505475935
7.712,0.9999931293046652,40.69009774711848
7.72,0.9999933273888915,40.52503335054725
7.728,0.9999935302323149,40.35992191426968
7.736,0.9999937378018001,40.1947634878357
7.744,0.9999939500632844,40.02955812112155
7.752,0.9999941669817879,39.864305864329815
7.76,0.9999943885214256,39.699006767989644
7.768,0.9999946146454146,39.533660882956845
7.776,0.9999948453160864,39.368268260414155
7.784,0.9999950804948965,39.20282895187126
7.792,0.9999953201424343,39.03734300916502
7.8,0.9999955642184335,38.87181048445957
7.808,0.999995812681783,38.70623143024645
7.816,0.9999960654905354,38.540605899344705
7.824,0.9999963226019195,38.37493394490105
7.832,0.9999965839723486,38.209215620389934
7.84,0.9999968495574325,38.04345097961367
7.848,0.9999971193119858,37.87764007670252
7.856,0.9999973931900403,37.711782966114754
7.864,0.9999976711448538,37.545879702636796
7.872,0.9999979531289211,37.37993034138326
7.88,0.9999982390939849,37.21393493779703
7.888,0.9999985289910446,37.04789354764931
7.896,0.9999988227703674,36.88180622703971
7.904,0.9999991203815001,36.715673032396275
7.912,0.999999421773277,36.54949402047555
7.92,0.9999997268938319,36.38326924836258
7.928,1.0,36.216998773471
7.936,0.9999999999999999,36.05068265354302
7.944,0.9999999999999999,35.884320946649424
7.952,1.0,35.71791371118966
7.96,1.0,35.551461005891774
7.968,0.9999999999999999,35.384962889812435
7.976,1.0,35.21841942233692
7.984,0.9999999999999999,35.05183066317913
7.992,1.0,34.88519667238154
8.0,1.0,34.71851751031519
8.008,0.9999999999999999,34.55179323767963
8.016,1.0,34.38502391550286
8.024000000000001,1.0,34.21820960514139
8.032,1.0,34.05135036828013
8.04,1.0,33.88444626693223
8.048,0.9999999999999999,33.7174973634391
8.056000000000001,1.0,33.550503720470424
8.064,0.9999999999999999,33.38346540102398
8.072,1.0,33.21638246842552
8.08,1.0,33.04925498632871
8.088000000000001,1.0,32.88208301871512
8.096,1.0,32.714866629894054
8.104,0.9999999999999999,32.54760588450234
8.112,1.0,32.38030084750434
8.120000000000001,0.9999999999999998,32.212951584191806
8.128,1.0,32.04555816018377
8.136,0.9999999999999999,31.87812064142628
8.144,0.9999999999999999,31.7106390941923
8.152000000000001,1.0,31.543113585081702
8.16,1.0,31.375544181021
8.168,1.0,31.207930949263076
8.176,1.0,31.040273957387132
8.184000000000001,1.0,30.872573273298553
8.192,1.0,30.704828965228685
8.2,0.9999999999999999,30.537041101734502
8.208,1.0,30.36920975169855
8.216000000000001,1.0,30.20133498432875
8.224,1.0,30.033416869158177
8.232,0.9999999999999999,29.865455476044687
8.24,0.9999999999999999,29.69745087517085
8.248000000000001,1.0,29.52940313704373
8.256,1.0,29.361312332494578
8.264,0.9999999999999999,29.193178532678534
8.272,1.0,29.02500180907442
8.280000000000001,0.9999999999999999,28.856782233484573
8.288,0.9999999999999998,28.688519878034473
8.296,0.9999999999999999,28.520214815172462
8.304,1.0,28.351867117669432
8.312,0.9999999999999999,28.183476858618747
8.32,1.0,28.01504411143561
8.328,1.0,27.846568949857136
8.336,1.0,27.67805144794166
8.344,1.0,27.509491680068773
8.352,0.9999999999999999,27.340889720938705
8.36,1.0,27.17224564557225
8.368,1.0,27.00355952931018
8.376,1.0,26.83483144781316
8.384,0.9999999999999999,26.666061477061124
8.392,0.9999999999999999,26.497249693353236
8.4,1.0,26.32839617330713
8.408,1.0,26.15950099385898
8.416,1.0,25.990564232262695
8.424,1.0,25.821585966089938
8.432,1.0,25.652566273229358
8.44,1.0,25.483505231886518
8.448,1.0,25.314402920583195
8.456,1.0,25.145259418157274
8.464,1.0,24.976074803762003
8.472,0.9999999999999999,24.806849156865905
8.48,1.0,24.63758255725199
8.488,0.9999999999999999,24.46827508501769
8.496,1.0,24.298926820574042
8.504,1.0,24.129537844645572
8.512,1.0,23.96010823826954
8.52,1.0,23.790638082795756
8.528,0.9999999999999999,23.621127459885795
8.536,1.0,23.451576451512857
8.544,0.9999999999999999,23.28198513996094
8.552,1.0,23.112353607824687
8.56,1.0,22.94268193800852
8.568,1.0,22.772970213726524
8.576,1.0,22.60321851850153
8.584,1.0000000000000002,22.433426936165002
8.592,0.9999999999999999,22.26359555085611
8.6,1.0,22.093724447021557
8.608,1.0,21.923813709414723
8.616,1.0,21.75386342309541
8.624,0.9999999999999999,21.583873673428997
8.632,1.0,21.413844546086167
8.64,0.9999999999999999,21.243776127042064
8.648,0.9999999999999999,21.073668502575966
8.656,0.9999999999999998,20.903521759270483
8.664,1.0,20.733335984011187
8.672,1.0,20.563111263985775
8.68,1.0,20.39284768668374
8.688,1.0,20.2225453398955
8.696,0.9999999999999999,20.052204311712
8.704,0.9999999999999999,19.881824690523892
8.712,0.9999999999999999,19.711406565021157
8.72,1.0,19.54095002419215
8.728,1.0,19.370455157323313
8.736,0.9999999999999999,19.19992205399819
8.744,0.9999999999999999,19.029350804097074
8.752,0.9999999999999999,18.85874149779609
8.76,0.9999999999999999,18.688094225566758
8.768,1.0,18.517409078175085
8.776,1.0,18.34668614668112
8.784,1.0,18.175925522438057
8.792,1.0,18.005127297091782
8.8,1.0,17.834291562579857
8.808,1.0,17.66341841113114
8.815999999999999,0.9999999999999999,17.492507935264882
8.824,1.0,17.321560227789973
8.832,1.0,17.15057538180442
8.84,1.0,16.979553490694496
8.847999999999999,1.0,16.808494648133898
8.856,1.0,16.637398948083153
8.864,1.0,16.466266484788868
8.872,1.0,16.29509735278299
8.879999999999999,1.0,16.123891646881823
8.888,0.9999999999999999,15.952649462185542
8.896,1.0,15.781370894077284
8.904,1.0,15.61005603822244
8.911999999999999,1.0,15.438704990567732
8.92,1.0,15.267317847340513
8.928,0.9999999999999999,15.095894705048057
8.936,1.0,14.924435660476634
8.943999999999999,0.9999999999999999,14.752940810690681
8.952,1.0,14.581410253032052
8.96,0.9999999999999999,14.409844085119223
8.968,1.0,14.238242404846458
8.975999999999999,0.9999999999999999,14.066605310382876
8.984,1.0,13.894932900171629
8.992,1.0,13.723225272929257
9.0,1.0,13.551482527644644
9.008,1.0,13.379704763578157
9.016,1.0,13.20789208026085
9.024000000000001,0.9999999999999999,13.036044577493632
9.032,1.0,12.864162355346375
9.04,1.0,12.69224551415693
9.048,0.9999999999999999,12.520294154530326
9.056000000000001,1.0,12.348308377337963
9.064,1.0,12.176288283716632
9.072,1.0,12.00423397506755
9.08,0.9999999999999999,11.832145553055502
9.088000000000001,1.0,11.660023119608077
9.096,0.9999999999999999,11.487866776914602
9.104,0.9999999999999999,11.31567662742518
9.112,1.0,11.143452773849825
9.120000000000001,1.0,10.971195319157676
9.128,0.9999999999999999,10.798904366575846
9.136,0.9999999999999999,10.626580019588543
9.144,1.0,10.454222381936127
9.152000000000001,1.0,10.281831557614275
9.16,1.0,10.10940765087291
9.168,1.0,9.93695076621519
9.176,1.0,9.764461008396614
9.184000000000001,1.0,9.591938482424153
9.192,0.9999999999999999,9.41938329355513
9.2,0.9999999999999998,9.246795547296246
9.208,1.0000000000000002,9.074175349402623
9.216000000000001,0.9999999999999999,8.901522805876917
9.224,1.0,8.72883802296825
9.232,0.9999999999999999,8.556121107171101
9.24,0.9999999999999999,8.38337216522443
9.248000000000001,0.9999999999999999,8.210591304110725
9.256,1.0,8.037778631054909
9.264,1.0,7.864934253523255
9.272,0.9999999999999999,7.692058279222497
9.280000000000001,1.0,7.519150816098767
9.288,1.0,7.346211972336612
9.296,1.0,7.1732418563578415
9.304,0.9999999999999999,7.000240576820541
9.312000000000001,1.0,6.827208242618177
9.32,1.0,6.6541449628784015
9.328,1.0,6.4810508469620025
9.336,1.0,6.307926004461895
9.344,1.0,6.134770545202207
9.352,0.9999999999999999,5.961584579236918
9.36,1.0,5.788368216849139
9.368,1.0,5.615121568549754
9.376,1.0,5.441844745076622
9.384,0.9999999999999998,5.2685378573932535
9.392,1.0,5.095201016687992
9.4,1.0,4.921834334372681
9.408,0.9999999999999999,4.748437922081877
9.416,1.0,4.57501189167144
9.424,0.9999999999999999,4.401556355217809
9.432,0.9999999999999999,4.228071425016553
9.44,0.9999999999999999,4.05455721358164
9.448,0.9999999999999999,3.881013833644014
9.456,1.0,3.7074413981508134
9.464,1.0,3.533840020263963
9.472,1.0,3.36020981335943
9.48,1.0,3.1865508910257336
9.488,1.0,3.012863367063248
9.496,1.0,2.839147355482706
9.504,1.0,2.66540297050447
9.512,1.0,2.4916303265570785
9.52,1.0,2.317829538276461
9.528,1.0,2.144000720504517
9.536,0.9999999999999999,1.9701439882883187
9.544,0.9999999999999999,1.796259456878693
9.552,1.0,1.6223472417293985
9.56,1.0,1.4484074584957318
9.568,1.0,1.274440223033693
9.576,0.9999999999999999,1.1004456513985963
9.584,1.0,0.926423859844211
9.592,0.9999999999999999,0.7523749648213914
9.6,1.0,0.5782990829772238
9.608,1.0,0.4041963311536311
9.616,1.0000000000000002,0.23006682638654108
9.624,0.9999999999999999,0.05591068590447049
9.632,0.9999999999999999,-0.11827197287228075
9.64,1.0,-0.29248103233307216
9.648,0.9999999999999999,-0.4667163746777184
9.656,0.9999999999999998,-0.6409778819179214
9.664,1.0,-0.8152654358780752
9.672,0.9999999999999999,-0.9895789181967014
9.68,1.0,-1.1639182103272425
9.688,0.9999999999999999,-1.3382831935395023
9.696,1.0,-1.5126737489204303
9.704,1.0,-1.6870897573755619
9.712,1.0,-1.8615310996298209
9.72,1.0,-2.0359976562289215
9.728,1.0,-2.2104893075401915
9.736,0.9999999999999999,-2.3850059337539635
9.744,1.0,-2.5595474148843995
9.752,0.9999999999999999,-2.7341136307708744
9.76,1.0,-2.908704461078797
9.768,1.0,-3.0833197853009886
9.776,1.0,-3.25795948275849
9.784,1.0,-3.4326234326019662
9.792,0.9999999999999999,-3.6073115138124727
9.8,1.0,-3.782023605202861
9.808,0.9999999999999999,-3.956759585418566
9.816,1.0,-4.131519332938974
9.824,1.0,-4.306302726078208
9.832,1.0,-4.481109642986505
9.84,1.0,-4.655939961650983
9.847999999999999,1.0,-4.830793559896977
9.856,0.9999999999999999,-5.005670315388979
9.864,1.0,-5.180570105631634
9.872,0.9999999999999999,-5.3554928079708475
9.879999999999999,1.0,-5.53043829959494
9.888,1.0000000000000002,-5.705406457535601
9.896,0.9999999999999999,-5.880397158668839
9.904,0.9999999999999999,-6.055410279716117
9.911999999999999,0.9999999999999999,-6.2304456972454485
9.92,0.9999999999999999,-6.405503287672334
9.928,1.0,-6.5805829272607195
9.936,1.0,-6.7556844921240655
9.943999999999999,1.0,-6.930807858226454
9.952,1.0,-7.105952901383484
9.96,0.9999999999999999,-7.281119497263207
9.968,1.0,-7.456307521387178
9.975999999999999,1.0,-7.631516849131528
9.984,0.9999999999999999,-7.80674735572783
9.992,1.0,-7.981998916264012
10.0,0.9999999999999999,-8.157271405685387
10.008,1.0,-8.332564698795663
10.016,1.0,-8.507878670257833
10.024000000000001,1.0,-8.683213194595002
10.032,1.0,-8.858568146191407
10.04,0.9999999999999999,-9.033943399293424
10.048,1.0,-9.209338828010347
10.056000000000001,1.0,-9.384754306315273
10.064,1.0,-9.560189708046023
10.072,0.9999999999999999,-9.735644906906108
10.08,1.0,-9.911119776465531
10.088000000000001,0.9999999999999999,-10.086614190161583
10.096,1.0,-10.262128021299727
10.104,0.9999999999999999,-10.437661143054553
10.112,0.9999999999999999,-10.61321342847052
10.120000000000001,1.0,-10.788784750462678
10.128,0.9999999999999999,-10.964374981817592
10.136,1.0,-11.139983995194175
10.144,0.9999999999999999,-11.315611663124429
10.152000000000001,0.9999999999999999,-11.49125785801412
10.16,1.0,-11.66692245214361
10.168,0.9999999999999998,-11.842605317668728
10.176,0.9999999999999998,-12.018306326621358
10.184000000000001,0.9999999999999999,-12.194025350910175
10.192,1.0,-12.36976226232136
10.2,1.0,-12.545516932519417
10.208,1.0,-12.721289233047766
10.216000000000001,0.9999999999999999,-12.89707903532935
10.224,0.9999999999999999,-13.072886210667384
