freq,mag,phase
6.0,0.9998781594664202,-120.46224111984363
6.004243968,1.00006899334165,-120.70150212164592
6.008487936,1.0002561939450787,-120.94344904564916
6.012731904,1.000428161234638,-121.18794758858012
6.016975872,1.000574592129688,-121.43474477015528
6.021220352,1.0006867115038907,-121.68338958401684
6.02546432,1.0007578724964232,-121.93335177273066
6.029708288,1.0007839272943093,-122.18403671170624
6.033952256,1.00076315361228,-122.43477153667331
6.038196224,1.0006967438307108,-122.68493665938601
6.042440192,1.00058875137735,-122.93392378950495
6.04668416,1.000445580706379,-123.18115542642091
6.050928128,1.000275695000344,-123.42620378265721
6.055172608,1.0000892629788865,-123.66880814512913
6.059416576,0.999897455868676,-123.90874624954238
6.063660544,0.9997115678542634,-124.14603743356295
6.067904512,0.9995428758470617,-124.38086920503665
6.07214848,0.99940128087281,-124.61354591099506
6.076392448,0.9992954561120295,-124.84451137772392
6.080636416,0.9992316778504676,-125.07428677685296
6.084880384,0.9992137726336594,-125.30351430665277
6.089124864,0.9992428127058538,-125.5328438731618
6.093368832,0.9993170976197113,-125.76292852053929
6.0976128,0.999432161054411,-125.99441034937763
6.101856768,0.9995812480275515,-126.22772982911837
6.106100736,0.9997553554146381,-126.46339580023208
6.110344704,0.9999440147464101,-126.70165769380462
6.114588672,1.0001361558365893,-126.94262039916015
6.11883264,1.0003202303451764,-127.18622491056931
6.12307712,1.000485175371003,-127.43239355300425
6.127321088,1.0006212348233448,-127.68067812112265
6.131565056,1.0007202241753093,-127.93063849341516
6.135809024,1.0007762106683409,-128.18169704052184
6.140052992,1.0007859952593507,-128.43328980036975
6.14429696,1.0007486670708265,-128.68472149663825
6.148540928,1.0006668310219493,-128.93531806649347
6.152784896,1.0005450904643667,-129.1845415029618
6.157029376,1.000390718086478,-129.4317989380176
6.161273344,1.0002129462275806,-129.6767869946252
6.165517312,1.000022344248857,-129.9191997531618
6.16976128,0.9998303093777265,-130.15893080633026
6.174005248,0.9996482440866866,-130.39608063637866
6.178249216,0.9994870755481761,-130.6308043967235
6.182493184,0.9993564504867619,-130.86349834211995
6.186737152,0.9992642808333956,-131.0946517847418
6.190981632,0.9992159544613033,-131.32479049150135
6.1952256,0.999214427406132,-131.55464447305064
6.199469568,0.9992598495987363,-131.78482967492624
6.203713536,0.999349451259094,-132.01597906931718
6.207957504,0.9994779433789096,-132.2487300032006
6.212201472,0.9996376807039496,-132.48351947459906
6.21644544,0.9998190343583102,-132.7207403956087
6.220689408,1.0000112575317763,-132.96061787917623
6.224933888,1.0002029200910427,-133.20323124198057
6.229177856,1.0003824144674085,-133.44848962093673
6.233421824,1.000539146406599,-133.69615363005389
6.237665792,1.0006637726940926,-133.94582754225442
6.24190976,1.0007487629778726,-134.19698497456332
6.246153728,1.0007890892513989,-134.44905386601482
6.250397696,1.0007823744086386,-134.7013986583767
6.254641664,1.0007289072527394,-134.95334313887398
6.258886144,1.0006319272574784,-135.20426070489992
6.263130112,1.0004972227853863,-135.45356563954155
6.26737408,1.0003326271047026,-135.7008283183004
6.271618048,1.0001481624308814,-135.94561560433254
6.275862016,0.9999547153489334,-136.1877796177615
6.280105984,0.9997638400875053,-136.42723766186216
6.284349952,0.9995868647452114,-136.66415213617796
6.28859392,0.9994345762999333,-136.89874107956138
6.2928384,0.9993159249617574,-137.1314608638279
6.297082368,0.9992380764879785,-137.3627885833281
6.301326336,0.9992056392497624,-137.59335924936678
6.305570304,0.9992206152032032,-137.82384797786978
6.309814272,0.9992822051212078,-138.0549298884389
6.31405824,0.9993866587284896,-138.28717472258805
6.318302208,0.9995277051274112,-138.5211695718186
6.322546176,0.9996970346269602,-138.75738199224566
6.326790656,0.999884475196967,-138.9961326743059
6.331034624,1.0000789028650432,-139.23762299303763
6.335278592,1.0002685832194496,-139.48181620171104
6.33952256,1.0004422836843458,-139.72862682843447
6.343766528,1.0005896408169006,-139.97770285843092
6.348010496,1.0007018053434311,-140.22862953283527
6.352254464,1.000772088169097,-140.48087532110472
6.356498432,1.0007963891535028,-140.73377181368727
6.360742912,1.0007731326414582,-140.98676011398334
6.36498688,1.0007036982837887,-141.23910321547288
6.369230848,1.000592218227271,-141.4901984556143
6.373474816,1.0004453319565136,-141.7394906704233
6.377718784,1.0002717555066327,-141.98653526013396
6.381962752,1.0000817599933982,-142.23106545463511
6.38620672,0.9998869030681291,-142.47289819219114
6.390450688,0.9996985560649123,-142.71206887446945
6.394695168,0.9995280764470672,-142.9487118093831
6.398939136,0.9993857377625919,-143.1831624942351
6.403183104,0.999279900216702,-143.415874067341
6.407427072,0.9992170163308447,-143.64742246399547
6.41167104,0.9992009302856099,-143.87843947067628
6.415915008,0.9992325323386432,-144.10959204577543
6.420158976,0.9993098716078206,-144.34150132684135
6.424402944,0.999428559665042,-144.57482992684606
6.428647424,0.9995812990042683,-144.8101227405705
6.432891392,0.9997590828200206,-145.04772672677348
6.43713536,0.9999513390974518,-145.28800948007841
6.441379328,1.0001464636580026,-145.5310340352149
6.445623296,1.0003328368429234,-145.77673276986482
6.449867264,1.0004994795922755,-146.0249516331652
6.454111232,1.0006363327319463,-146.27535505267244
6.4583552,1.0007352270079073,-146.5274522996554
6.46259968,1.000790219502399,-146.78062242957284
6.466843648,1.0007980718275713,-147.03427748616184
6.471087616,1.0007583447631987,-147.28769960411825
6.475331584,1.0006733296442787,-147.5402992999108
6.479575552,1.0005479517004405,-147.79143287477373
6.48381952,1.0003899569242571,-148.04059920299954
6.488063488,1.0002084102886268,-148.28737285807122
6.492307456,1.0000144109108875,-148.5315545500847
6.496551936,0.9998193658717489,-148.77297810478333
6.500795904,0.9996349121932667,-149.01175821248899
6.505039872,0.9994722121832162,-149.2481080231961
6.50928384,0.9993408972795095,-149.48242612824504
6.513527808,0.9992488478336963,-149.71515055514936
6.517771776,0.9992015473577655,-149.9469285827414
6.522015744,0.9992020210451664,-150.17836491669865
6.526259712,0.9992500142728638,-150.41017500160328
6.530504192,0.9993428359054404,-150.64298120858632
6.53474816,0.9994748704931622,-150.87740462140675
6.538992128,0.9996383539395146,-151.1139738342907
6.543236096,0.9998234634042757,-151.35297958667678
6.547480064,1.0000190168431957,-151.59469606373696
6.551724032,1.0002136581156258,-151.8391831033179
6.555968,1.0003955021995115,-152.08633853093113
6.560211968,1.0005536823279428,-152.33590717378996
6.564456448,1.0006789661483473,-152.5874866420705
6.568700416,1.0007638169617243,-152.84058658056827
6.572944384,1.0008030415009972,-153.0945641424133
6.577188352,1.0007943491489362,-153.34878566269438
6.58143232,1.0007381648272,-153.60259055456288
6.585676288,1.0006380320578685,-153.85529335913793
6.589920256,1.0004996902740333,-154.10633417906556
6.594164224,1.0003313691226015,-154.3552388079547
6.598408704,1.0001432646654262,-154.6016513334987
6.602652672,0.9999463676631113,-154.8453763431393
6.60689664,0.999752591198739,-155.0863460765776
6.611140608,0.9995734045099136,-155.32473092794672
6.615384576,0.9994196619811896,-155.56076669627177
6.619628544,0.9993004198623885,-155.79487626454574
6.623872512,0.9992228333633999,-156.0276096768967
6.62811648,0.9991916102684335,-156.25959605951888
6.63236096,0.9992086698496647,-156.49150923267229
6.636604928,0.9992729644094139,-156.72401015964908
6.640848896,0.9993806973217253,-156.95772032626456
6.645092864,0.9995253660065129,-157.19326136635993
6.649336832,0.999698522358792,-157.43104687553208
6.6535808,0.9998896481299894,-157.67140009587717
6.657824768,1.0000874000844928,-157.91451268804158
6.662068736,1.0002799606262158,-158.16040753306206
6.666313216,1.000455813493101,-158.4089203346809
6.670557184,1.0006045596748983,-158.65972879630456
6.674801152,1.0007172950388827,-158.9123997037372
6.67904512,1.0007871915100763,-159.1663789184057
6.683289088,1.0008102165643118,-159.42100703131496
6.687533056,1.0007848756170128,-159.67565653740198
6.691777024,1.0007126328249791,-159.92962413230364
6.696020992,1.0005979021663516,-160.1823246338585
6.700265472,1.0004473135320033,-160.43314783940974
6.70450944,1.0002699637459453,-160.68169217096113
6.708753408,1.0000762741548679,-160.92761995926037
6.712997376,0.9998780658048999,-161.17081745427987
6.717241344,0.9996869269699797,-161.4112793108129
6.721485312,0.9995142202705793,-161.6492021953109
6.72572928,0.9993705616092069,-161.88487007394866
6.729973248,0.9992642558716888,-162.11880543193016
6.734217728,0.9992019233083336,-162.35159558765505
6.738461696,0.9991871842821722,-162.58380791001034
6.742705664,0.9992209107443729,-162.81615339899665
6.746949632,0.9993012100305981,-163.04936164211495
6.7511936,0.9994231997663543,-163.28399070733923
6.755437568,0.9995796610685542,-163.52058167506922
6.759681536,0.9997612192230884,-163.75961290028766
6.763925504,0.9999570966878808,-164.00127388919975
6.768169984,1.0001556144773391,-164.2457594180176
6.772413952,1.0003448433465059,-164.4929836791318
6.77665792,1.0005134661833162,-164.7427149067115
6.780901888,1.0006516685105808,-164.9946885226343
6.785145856,1.0007508706202723,-165.24829815523304
6.789389824,1.0008053875808514,-165.5030279224289
6.793633792,1.0008117650095456,-165.75817521589727
6.79787776,1.0007697775828115,-166.0131230793276
6.80212224,1.0006817976041318,-166.26711733756727
6.806366208,1.000553109993162,-166.51965832472436
6.810610176,1.0003912882448331,-166.77015144745263
6.814854144,1.0002059467782576,-167.01820080615693
6.819098112,1.0000081660577624,-167.26358691594953
6.82334208,0.9998098216626354,-167.5061727051586
6.827586048,0.9996226445336217,-167.74604721846984
6.831830016,0.9994578818784292,-167.983459984068
6.836074496,0.99932536039107,-168.21879438825513
6.840318464,0.9992329690890365,-168.45254034119455
6.844562432,0.9991864304041588,-168.68532062549886
6.8488064,0.999188360279541,-168.91779088112733
6.853050368,0.9992386142875601,-169.1506336820465
6.857294336,0.9993346098332296,-169.38450317326385
6.861538304,0.9994701230992071,-169.62004126189512
6.865782272,0.9996373453813754,-169.8577267875341
6.870026752,0.9998263051186026,-170.09792959041067
6.87427072,1.0000255751210636,-170.3408661047068
6.878514688,1.0002234545553768,-170.58665401176316
6.882758656,1.0004079524919172,-170.8351126788386
6.887002624,1.0005682568053331,-171.08602281755404
6.891246592,1.0006946574483746,-171.33898840527277
6.89549056,1.0007796138415457,-171.59343739987676
6.899734528,1.0008180496682104,-171.84876072684455
6.903979008,1.000807817034601,-172.10430837726534
6.908222976,1.0007492570664778,-172.35935965809045
6.912466944,1.0006459539400865,-172.61330516200985
6.916710912,1.0005040063425845,-172.86552879665567
6.92095488,1.0003319155907042,-173.11554322557527
6.925198848,1.00013990449651,-173.363023588159
6.929442816,0.9999392892792817,-173.60773106780644
6.933686784,0.9997423327821648,-173.8496730320896
6.937931264,0.9995604339577977,-174.08892922897263
6.942175232,0.9994047496826945,-174.32582914675282
6.9464192,0.9992845079204843,-174.560761090464
6.950663168,0.9992068753289391,-174.7943085617167
6.954907136,0.999176503663126,-175.02712363735967
6.959151104,0.9991952716570577,-175.2598350011273
6.963395072,0.9992621675091318,-175.49317391746644
6.96763904,0.9993730005832099,-175.7277686324553
6.97188352,0.9995213634193633,-175.96421197750365
6.976127488,0.999698351177663,-176.20293626074886
6.980371456,0.9998933577700657,-176.44431192014886
6.984615424,1.0000948188618435,-176.6884845834488
6.988859392,1.0002906275450045,-176.9354817674398
6.99310336,1.0004691848481357,-177.18511886406324
6.997347328,1.000619737501178,-177.43707057346845
7.001591296,1.0007333770641689,-177.69089328890553
7.005835776,1.000803342583717,-177.94603019547844
7.010079744,1.000825442579173,-178.20182036047402
7.014323712,1.0007981986065282,-178.457603273776
7.01856768,1.0007233453545656,-178.71265190323683
7.022811648,1.0006053252680176,-178.96636667332868
7.027055616,1.0004510033464575,-179.21818437098972
7.031299584,1.0002696766795496,-179.46762570396973
7.035543552,1.0000721476158523,-179.71440607075533
7.039788032,0.9998702063896439,-179.95838584305855
7.044032,0.9996757969004978,179.8003965906709
7.048275968,0.9995006566541819,179.5618060884478
7.052519936,0.99935518964559,179.32547133973708
7.056763904,0.9992480940338283,179.09092807820295
7.061007872,0.9991858175200705,178.8575615960863
7.06525184,0.9991721338402606,178.6247440243133
7.069495808,0.9992077670108795,178.39175461279416
7.073740288,0.999290824769022,178.15791354580873
7.077984256,0.9994161044702327,177.92261826186515
7.082228224,0.9995764344908042,177.68526233852293
7.086472192,0.999762059897447,177.44549103333196
7.09071616,0.9999619134776874,177.20300189146138
7.094960128,1.0001640442724435,176.95764035812363
7.099204096,1.000356462231378,176.70951291471775
7.103448064,1.000527676915482,176.4588369086821
7.107692544,1.0006674502782178,176.2059216063897
7.111936512,1.000767397775766,175.95132780439374
7.11618048,1.0008217163822797,175.69564759450725
7.120424448,1.000826837355982,175.43953056984972
7.124668416,1.000782787605581,175.18367961562151
7.128912384,1.000692053341324,174.92876422653737
7.133156352,1.0005598094720207,174.67543894680537
7.13740032,1.0003940993645646,174.42417659577953
7.1416448,1.000204704317879,174.17540991737565
7.145888768,1.0000029447608239,173.92939329561435
7.150132736,0.9998009753878513,173.68623378562893
7.154376704,0.9996106513138099,173.44582797970028
7.158620672,0.9994434347214439,173.20794426491557
7.16286464,0.9993093482242296,172.97217204014714
7.167108608,0.999216314319705,172.738029398721
7.171352576,0.9991701973442763,172.50482193282994
7.175597056,0.9991733556761022,172.27195319068184
7.179841024,0.9992259344402109,172.0386971565303
7.184084992,0.999324784584369,171.8043570942701
7.18832896,0.999463967356098,171.56831977278867
7.192572928,0.9996350836453399,171.3300993892874
7.196816896,0.9998281701201884,171.08929970046094
7.201060864,1.000031416722424,170.8457228188733
7.205304832,1.0002329612511647,170.5992638826058
7.209549312,1.0004206604429597,170.35007744391473
7.21379328,1.000583277942598,170.09839190073433
7.218037248,1.0007110789119738,169.84469703958598
7.222281216,1.0007965965291472,169.58947381828466
7.226525184,1.0008345391797655,169.33337261699205
7.230769152,1.0008228724962454,169.07707259129825
7.23501312,1.000761992776782,168.8212753354285
7.239257088,1.0006554462822954,168.5666916600605
7.243501568,1.0005098810214739,168.3138398575945
7.247745536,1.0003338046125567,168.06324232915915
7.251989504,1.0001376276187894,167.81528793778838
7.256233472,0.9999330343707451,167.57014251568384
7.26047744,0.9997323098723958,167.32785050633322
7.264721408,0.9995474355705961,167.088267545313
7.268965376,0.9993894457285326,166.85114478322672
7.273209344,0.9992678183978195,166.6159437942016
7.277453824,0.9991897280182289,166.382195394857
7.281697792,0.9991601107560176,166.14919019386636
7.28594176,0.9991803752904594,165.91624791197722
7.290185728,0.999249769858138,165.68266660867033
7.294429696,0.9993639751312529,165.4478290670746
7.298673664,0.9995161227457137,165.21107850351382
7.302917632,0.9996972228520453,164.97198370794098
7.3071616,0.9998964264261587,164.73018664415181
7.31140608,1.000101834072908,164.4855469310016
7.315650048,1.0003013532582685,164.23807531840524
7.319894016,1.0004828368532763,163.9879059721162
7.324137984,1.000635662668097,163.73537828399867
7.328381952,1.0007505108645116,163.4809452865241
7.33262592,1.0008207611880198,163.2252197762517
7.336869888,1.0008419541018758,162.96884469569176
7.341113856,1.0008130591987359,162.71250125759238
7.345358336,1.0007355368337743,162.45695615793176
7.349602304,1.0006141526375476,162.2027689926997
7.353846272,1.0004558622285606,161.95052931631702
7.35809024,1.0002703646620497,161.70075162580503
7.362334208,1.0000685601656747,161.45366483495798
7.366578176,0.9998625949438888,161.20948988573298
7.370822144,0.9996645494955021,160.96812582386323
7.375066112,0.9994865025019256,160.72944839176935
7.379310592,0.9993389787781178,160.49304047868603
7.38355456,0.9992306366027901,160.25845902070597
7.387798528,0.9991683876751223,160.02509498511682
7.392042496,0.9991555405454685,159.7922419888008
7.396286464,0.9991931374748999,159.5592441188773
7.400530432,0.9992790591869929,159.3253557898799
7.4047744,0.9994079799305106,159.08997985607388
7.409018368,0.9995722590984372,158.8525052647728
7.413262848,0.9997621238974197,158.61255038057132
7.417506816,0.9999662447243115,158.3698188234676
7.421750784,1.0001724558567446,158.1241733483067
7.425994752,1.0003684626389722,157.87571661518302
7.43023872,1.0005425573597306,157.62465997652365
7.434482688,1.0006842936720173,157.37136688583828
7.438726656,1.0007852963750246,157.11635865387493
7.442970624,1.000839460182899,156.86026415561756
7.447215104,1.0008437137917632,156.60375007641855
7.451459072,1.0007973859069204,156.34753768745847
7.45570304,1.0007036761439885,156.092306184187
7.459947008,1.000567790394794,155.83869649404176
7.464190976,1.0003978484910965,155.5872267016611
7.468434944,1.0002043246888748,155.33832296951152
7.472678912,0.9999981337527898,155.0922553532768
7.47692288,0.9997920512877579,154.84906888980217
7.48116736,0.9995981408720568,154.60871532425554
7.485411328,0.9994281684290163,154.3709276644918
7.489655296,0.9992922130877641,154.13533042548735
7.493899264,0.9991982808716982,153.90135500836976
7.498143232,0.9991523012329926,153.66836096031028
7.5023872,0.9991568585875665,153.4356672487189
7.506631168,0.9992116852370895,153.20256242070656
7.510875136,0.9993137340199599,152.9683397565012
7.515119616,0.9994566842031112,152.73242376991206
7.519363584,0.9996321334232968,152.49423761888946
7.523607552,0.9998295739731601,152.25342362370796
7.52785152,1.0000373266172848,152.009782161242
7.532095488,1.000242917315621,151.76320172781405
7.536339456,1.0004340064025712,151.51383498878516
7.540583424,1.0005992753021609,151.26197367510082
7.544827392,1.0007289850116428,151.00802808347538
7.549071872,1.0008151832524688,150.75257238187135
7.55331584,1.0008527365223496,150.49623555859483
7.557559808,1.0008394226591328,150.23973474266447
7.561803776,1.0007760430178465,149.98377592492628
7.566047744,1.0006663945263141,149.7290276147456
7.570291712,1.000516930015428,149.47609919077402
7.57453568,1.0003363434374806,149.2255135977675
7.578779648,1.0001355942945884,148.97761215106812
7.583024128,0.9999266475336379,148.7326106172801
7.587268096,0.9997218939946462,148.4905218359886
7.591512064,0.9995336060496997,148.25119391059175
7.595756032,0.9993729633907594,148.01435306163967
7.6,0.999249690591271,147.77954280755543
7.604243968,0.9991710704197754,147.54614034879333
7.608487936,0.9991418963691838,147.31349597504803
7.612731904,0.9991639690264965,147.08093163070112
7.616975872,0.9992359390735481,146.8477273047391
7.621220352,0.9993537055463468,146.61314023856016
7.62546432,0.9995099359133873,146.376678651028
7.629708288,0.9996955327220924,146.13777492931115
7.633952256,0.9998993195231635,145.89615375378781
7.638196224,1.0001092330777093,145.6516233931748
7.642440192,1.000312713655862,145.40416546764908
7.64668416,1.0004976125411928,145.15398506209306
7.650928128,1.000652947318141,144.90139445676098
7.655172608,1.000769278161084,144.6469276844513
7.659416576,1.0008397088165917,144.3911436834013
7.663660544,1.0008602391266008,144.13469966972718
7.667904512,1.0008294732059098,143.87835741075241
7.67214848,1.0007490942409862,143.6227799884795
7.676392448,1.0006240555704173,143.36866176781444
7.680636416,1.00046170170372,143.11655478157806
7.684880384,1.0002715469393153,142.86694969075307
7.689124864,1.0000649573865061,142.62013013267088
7.693368832,0.9998545307953793,142.37627733497297
