freq,mag,phase
6.0,0.9999965138056595,-44.7439204899984
6.008,0.9999976822423924,-45.07769686578981
6.016,0.9999988029316982,-45.411356301823446
6.024,0.9999998769313576,-45.74489780116641
6.032,0.9999999999999999,-46.07832037345219
6.04,0.9999999999999999,-46.41162303490677
6.048,1.0,-46.74480480837406
6.056,1.0,-47.07786472334113
6.064,1.0,-47.41080181596251
6.072,0.9999999999999999,-47.743615129084425
6.08,1.0,-48.07630371226826
6.088,1.0,-48.408866621813566
6.096,0.9999999999999999,-48.7413029207806
6.104,1.0,-49.07361167901234
6.112,1.0,-49.40579197315603
6.12,0.9999999999999999,-49.73784288668415
6.128,1.0,-50.06976350991499
6.136,1.0,-50.401552940032595
6.144,1.0,-50.733210281106295
6.152,1.0,-51.06473464410977
6.16,1.0,-51.39612514693945
6.168,1.0,-51.72738091443266
6.176,1.0,-52.058501078385
6.184,0.9999999999999999,-52.38948477756743
6.192,0.9999999999999999,-52.72033115774284
6.2,1.0,-53.05103937168195
6.208,0.9999999999999999,-53.381608579178966
6.216,1.0,-53.71203794706654
6.224,1.0,-54.042326649230326
6.232,1.0,-54.37247386662313
6.24,1.0,-54.702478787278324
6.248,1.0,-55.03234060632302
6.256,1.0,-55.362058525990726
6.264,1.0,-55.691631755633296
6.272,1.0,-56.02105951173277
6.28,0.9999999999999999,-56.35034101791229
6.288,1.0,-56.67947550494704
6.296,0.9999999999999999,-57.008462210774105
6.304,0.9999999999999999,-57.33730038050255
6.312,1.0,-57.6659892664224
6.32,1.0,-57.99452812801354
6.328,0.9999999999999999,-58.32291623195399
6.336,0.9999999999999998,-58.65115285212772
6.344,1.0,-58.97923726963202
6.352,1.0,-59.30716877278452
6.36,1.0,-59.634946657129426
6.368,0.9999999999999999,-59.96257022544366
6.376,0.9999999999999999,-60.290038787742446
6.384,0.9999999999999999,-60.61735166128419
6.392,1.0,-60.94450817057525
6.4,1.0,-61.271507647374065
6.408,1.0,-61.598349430694924
6.416,1.0,-61.925032866811215
6.424,1.0,-62.2515573092582
6.432,0.9999999999999999,-62.57792211883557
6.44,1.0,-62.90412666360931
6.448,1.0,-63.23017031891321
6.456,1.0,-63.55605246735002
6.464,0.9999999999999999,-63.88177249879213
6.472,0.9999999999999999,-64.20732981038175
6.48,1.0,-64.53272380653078
6.4879999999999995,1.0,-64.85795389892016
6.496,1.0,-65.18301950649902
6.504,0.9999999999999999,-65.50792005548293
6.5120000000000005,0.9999999999999999,-65.83265497935247
6.52,1.0,-66.15722371885047
6.5280000000000005,0.9999999999999999,-66.48162572198
6.536,1.0000000000000002,-66.80586044400057
6.5440000000000005,1.0,-67.12992734742538
6.552,1.0,-67.45382590201685
6.5600000000000005,1.0,-67.77755558478293
6.568,1.0,-68.1011158799719
6.5760000000000005,1.0,-68.4245062790679
6.584,1.0,-68.74772628078496
6.592,1.0,-69.07077539106179
6.6,1.0,-69.3936531230551
6.608,0.9999999999999999,-69.71635899713334
6.616,0.9999999999999999,-70.03889254086974
6.624,0.9999999999999999,-70.36125328903496
6.632,0.9999999999999999,-70.6834407835895
6.64,1.0,-71.00545457367572
6.648,1.0,-71.32729421560937
6.656,1.0,-71.64895927287101
6.664,0.9999999999999999,-71.97044931609679
6.672,1.0,-72.29176392306918
6.68,1.0,-72.6129026787071
6.688,0.9999999999999999,-72.93386517505587
6.696,0.9999999999999999,-73.25465101127674
6.704,0.9999999999999999,-73.57525979363619
6.712,1.0,-73.89569113549472
6.72,0.9999999999999999,-74.2159446572955
6.728,1.0,-74.5360199865526
6.736,1.0,-74.8559167578389
6.744,0.9999999999999999,-75.17563461277372
6.752,1.0,-75.49517320001016
6.76,1.0,-75.81453217522196
6.768,0.9999999999999999,-76.13371120109035
6.776,1.0,-76.45270994729036
6.784,0.9999999999999999,-76.77152809047686
6.792,1.0,-77.09016531427042
6.8,0.9999998816207666,-77.40862130924282
6.808,0.99999959831787,-77.72689577290218
6.816,0.9999993182830491,-78.04498840967798
6.824,0.9999990416228348,-78.36289893090567
6.832,0.9999987684388534,-78.68062705481103
6.84,0.9999984988279099,-78.99817250649427
6.848,0.9999982328820722,-79.31553501791392
6.856,0.999997970688751,-79.63271432787032
6.864,0.9999977123307826,-79.94971018198893
6.872,0.9999974578865107,-80.26652233270347
6.88,0.9999972074298649,-80.58315053923856
6.888,0.9999969610304422,-80.89959456759235
6.896,0.9999967187535859,-81.21585419051881
6.904,0.9999964806604645,-81.53192918750976
6.912,0.9999962468081504,-81.84781934477664
6.92,0.9999960172496976,-82.16352445523214
6.928,0.9999957920342184,-82.47904431847148
6.936,0.9999955712069608,-82.79437874075356
6.944,0.9999953548093841,-83.10952753498181
6.952,0.9999951428792351,-83.42449052068484
6.96,0.9999949354506215,-83.73926752399686
6.968,0.9999947325540886,-84.05385837763802
6.976,0.9999945342166916,-84.36826292089425
6.984,0.9999943404620683,-84.68248099959715
6.992,0.9999941513105131,-84.99651246610358
7.0,0.9999939667790486,-85.31035717927506
7.008,0.9999937868814958,-85.6240150044569
7.016,0.9999936116285466,-85.9374858134573
7.024,0.9999934410278333,-86.25076948452612
7.032,0.9999932750839974,-86.56386590233343
7.04,0.99999311379876,-86.8767749579481
7.048,0.9999929571709888,-87.1894965488159
7.056,0.999992805196767,-87.50203057873766
7.064,0.9999926578694595,-87.81437695784719
7.072,0.9999925151797794,-88.12653560258899
7.08,0.9999923771158542,-88.43850643569581
7.088,0.9999922436632915,-88.75028938616609
7.096,0.9999921148052424,-89.06188438924114
7.104,0.9999919905224661,-89.37329138638233
7.112,0.9999918707933936,-89.68451032524793
7.12,0.9999917555941893,-89.99554115966993
7.128,0.9999916448988133,-90.30638384963069
7.136,0.9999915386790845,-90.61703836123948
7.144,0.9999914369047387,-90.92750466670869
7.152,0.9999913395434903,-91.23778274433018
7.16,0.9999912465610916,-91.54787257845132
7.168,0.9999911579213917,-91.85777415945095
7.176,0.9999910735863933,-92.16748748371519
7.184,0.9999909935163123,-92.47701255361315
7.192,0.9999909176696333,-92.78634937747252
7.2,0.9999908460031661,-93.09549796955503
7.208,0.9999907784721017,-93.40445835003173
7.216,0.9999907150300664,-93.71323054495835
7.224,0.9999906556291772,-94.02181458625037
7.232,0.9999906002200947,-94.33021051165798
7.24,0.9999905487520752,-94.63841836474109
7.248,0.9999905011730253,-94.9464381948441
7.256,0.9999904574295514,-95.25427005707066
7.264,0.9999904174670127,-95.56191401225823
7.272,0.9999903812295691,-95.86937012695272
7.28,0.9999903486602335,-96.17663847338287
7.288,0.9999903197009198,-96.48371912943459
7.296,0.9999902942924906,-96.79061217862535
7.304,0.9999902723748064,-97.09731771007836
7.312,0.9999902538867715,-97.40383581849653
7.32,0.9999902387663826,-97.7101666041368
7.328,0.9999902269507714,-98.01631017278395
7.336,0.9999902183762531,-98.32226663572456
7.344,0.999990212978369,-98.62803610972085
7.352,0.9999902106919318,-98.9336187169845
7.36,0.9999902114510677,-99.23901458515041
7.368,0.9999902151892596,-99.54422384725031
7.376,0.9999902218393899,-99.84924664168642
7.384,0.9999902313337816,-100.15408311220502
7.392,0.9999902436042375,-100.45873340786993
7.4,0.9999902585820836,-100.76319768303611
7.4079999999999995,0.9999902761982058,-101.06747609732291
7.416,0.9999902963830902,-101.3715688155877
7.4239999999999995,0.9999903190668616,-101.6754760078989
7.432,0.9999903441793206,-101.97919784950966
7.4399999999999995,0.999990371649981,-102.28273452083081
7.448,0.9999904014081066,-102.58608620740446
7.4559999999999995,0.9999904333827467,-102.88925309987683
7.464,0.9999904675027714,-103.19223539397184
7.4719999999999995,0.9999905036969066,-103.49503329046392
7.48,0.9999905418937685,-103.79764699515158
7.4879999999999995,0.999990582021895,-104.10007671883001
7.496,0.9999906240097819,-104.40232267726482
7.504,0.9999906677859127,-104.70438509116454
7.5120000000000005,0.9999907132787915,-105.00626418615421
7.52,0.9999907604169731,-105.30796019274803
7.5280000000000005,0.9999908091290949,-105.6094733463229
7.536,0.9999908593439063,-105.91080388709096
7.5440000000000005,0.9999909109902972,-106.21195206007317
7.552,0.9999909639973283,-106.51291811507195
7.5600000000000005,0.9999910182942592,-106.81370230664457
7.568,0.9999910738105752,-107.11430489407589
7.5760000000000005,0.9999911304760141,-107.41472614135185
7.584,0.9999911882205955,-107.71496631713205
7.5920000000000005,0.9999912469746428,-108.01502569472338
7.6,0.9999913066688123,-108.31490455205251
7.6080000000000005,0.9999913672341164,-108.61460317163964
7.616,0.9999914286019477,-108.91412184057107
7.6240000000000006,0.9999914907041033,-109.21346085047279
7.632,0.9999915534728091,-109.51262049748321
7.640000000000001,0.9999916168407406,-109.81160108222684
7.648,0.9999916807410469,-110.11040290978691
7.656000000000001,0.9999917451073714,-110.40902628967922
7.664,0.9999918098738734,-110.7074715358248
7.672,0.9999918749752484,-111.00573896652372
7.68,0.9999919403467491,-111.30382890442802
7.688,0.9999920059242045,-111.60174167651519
7.696,0.9999920716440381,-111.89947761406161
7.704,0.9999921374432884,-112.19703705261583
7.712,0.9999922032596261,-112.49442033197208
7.72,0.9999922690313717,-112.79162779614384
7.728,0.9999923346975128,-113.08865979333717
7.736,0.9999924001977204,-113.38551667592439
7.744,0.9999924654723656,-113.68219880041777
7.752,0.9999925304625358,-113.97870652744292
7.76,0.9999925951100485,-114.27504022171283
7.768,0.9999926593574673,-114.57120025200129
7.776,0.9999927231481159,-114.86718699111687
7.784,0.9999927864260914,-115.16300081587671
7.792,0.9999928491362785,-115.45864210708044
7.8,0.9999929112243622,-115.754111249484
7.808,0.9999929726368398,-116.04940863177389
7.816,0.9999930333210338,-116.34453464654086
7.824,0.9999930932251028,-116.63948969025442
7.832,0.9999931522980526,-116.93427416323671
7.84,0.9999932104897481,-117.22888846963677
7.848,0.9999932677509221,-117.52333301740505
7.856,0.9999933240331857,-117.81760821826742
7.864,0.9999933792890389,-118.11171448769989
7.872,0.9999934334718779,-118.40565224490278
7.88,0.9999934865360047,-118.69942191277563
7.888,0.9999935384366357,-118.99302391789146
7.896,0.9999935891299084,-119.28645869047158
7.904,0.9999936385728901,-119.57972666436036
7.912,0.9999936867235839,-119.87282827700011
7.92,0.9999937335409363,-120.16576396940573
7.928,0.999993778984843,-120.45853418613979
7.936,0.9999938230161545,-120.7511393752877
7.944,0.9999938655966819,-121.04357998843258
7.952,0.9999939066892032,-121.3358564806305
7.96,0.999993946257466,-121.62796931038578
7.968,0.9999939842661933,-121.91991893962634
7.976,0.9999940206810873,-122.2117058336789
7.984,0.9999940554688336,-122.50333046124476
7.992,0.9999940885971031,-122.79479329437514
8.0,0.9999941200345569,-123.08609480844683
8.008,0.9999941497508477,-123.37723548213803
8.016,0.999994177716623,-123.66821579740413
8.024000000000001,0.9999942039035261,-123.95903623945341
8.032,0.9999942282841995,-124.24969729672314
8.04,0.9999942508322838,-124.54019946085569
8.048,0.9999942715224208,-124.83054322667465
8.056000000000001,0.9999942903302548,-125.12072909216089
8.064,0.9999943072324301,-125.4107575584289
8.072,0.9999943222065935,-125.70062912970339
8.08,0.9999943352313939,-125.99034431329561
8.088000000000001,0.9999943462864818,-126.27990361957984
8.096,0.999994355352507,-126.56930756197006
8.104,0.9999943624111198,-126.85855665689692
8.112,0.9999943674449686,-127.14765142378438
8.120000000000001,0.999994370437698,-127.43659238502657
8.128,0.9999943713739474,-127.72538006596483
8.136,0.9999943702393488,-128.014014994865
8.144,0.9999943670205245,-128.30249770289447
8.152000000000001,0.9999943617050837,-128.5908287240994
8.16,0.9999943542816205,-128.87900859538203
8.168,0.9999943447397106,-129.1670378564786
8.176,0.9999943330699066,-129.4549170499364
8.184000000000001,0.999994319263736,-129.74264672109163
8.192,0.9999943033136968,-130.03022741804713
8.2,0.9999942852132517,-130.31765969165028
8.208,0.9999942649568261,-130.60494409547093
8.216000000000001,0.9999942425398025,-130.89208118577938
8.224,0.9999942179585145,-131.1790715215243
8.232,0.9999941912102444,-131.46591566431152
8.24,0.9999941622932139,-131.7526141783819
8.248000000000001,0.9999941312065833,-132.03916763058982
8.256,0.9999940979504414,-132.32557659038162
8.264,0.9999940625258029,-132.61184162977452
8.272,0.9999940249346001,-132.8979633233352
8.280000000000001,0.9999939851796772,-133.18394224815825
8.288,0.9999939432647846,-133.46977898384554
8.296,0.9999938991945709,-133.75547411248505
8.304,0.9999938529745765,-134.04102821862995
8.312,0.9999938046112269,-134.3264418892777
8.32,0.9999937541118245,-134.6117157138497
8.328,0.9999937014845419,-134.8968502841701
8.336,0.9999936467384145,-135.18184619444597
8.344,0.9999935898833315,-135.4667040412462
8.352,0.999993530930029,-135.75142442348192
8.36,0.9999934698900815,-136.03600794238554
8.368,0.9999934067758938,-136.3204552014913
8.376,0.9999933416006918,-136.60476680661466
8.384,0.999993274378515,-136.88894336583306
8.392,0.9999932051242074,-137.17298548946525
8.4,0.9999931338534082,-137.4568937900525
8.408,0.9999930605825424,-137.7406688823382
8.416,0.9999929853288135,-138.02431138324891
8.424,0.9999929081101921,-138.3078219118745
8.432,0.9999928289454071,-138.59120108944919
8.44,0.999992747853937,-138.87444953933198
8.448,0.9999926648559996,-139.15756788698798
8.456,0.9999925799725415,-139.44055675996876
8.464,0.9999924932252295,-139.72341678789417
8.472,0.9999924046364393,-140.00614860243275
8.48,0.9999923142292468,-140.28875283728374
8.488,0.9999922220274154,-140.57123012815774
8.496,0.9999921280553895,-140.8535811127588
8.504,0.9999920323382804,-141.1358064307655
8.512,0.9999919349018567,-141.41790672381305
8.52,0.999991835772535,-141.69988263547452
8.528,0.9999917349773684,-141.98173481124334
8.536,0.9999916325440343,-142.26346389851466
8.544,0.9999915285008258,-142.54507054656787
8.552,0.9999914228766391,-142.82655540654838
8.56,0.9999913157009633,-143.10791913145025
8.568,0.9999912070038679,-143.3891623760981
8.576,0.9999910968159935,-143.67028579713002
8.584,0.9999909851685391,-143.95129005297963
8.592,0.9999908720932515,-144.23217580385923
8.6,0.999990757622413,-144.512943711742
8.608,0.9999906417888301,-144.79359444034534
8.616,0.9999905246258235,-145.0741286551133
8.624,0.9999904061672142,-145.35454702320015
8.632,0.9999902864473136,-145.63485021345284
8.64,0.9999901655009105,-145.91503889639492
8.648,0.99999004336326,-146.19511374420915
8.656,0.999989920070072,-146.47507543072146
8.664,0.9999897956574987,-146.75492463138409
8.672,0.9999896701621231,-147.03466202325941
8.68,0.9999895436209466,-147.31428828500333
8.688,0.9999894160713779,-147.59380409684934
8.696,0.99998928755122,-147.8732101405922
8.704,0.999989158098659,-148.15250709957206
8.712,0.9999890277522516,-148.43169565865813
8.72,0.9999888965509135,-148.71077650423342
8.728,0.9999887645339063,-148.98975032417837
8.736,0.9999886317408262,-149.2686178078556
8.744,0.9999884982115927,-149.54737964609404
8.752,0.999988363986434,-149.82603653117368
8.76,0.9999882291058773,-150.10458915680982
8.768,0.9999880936107354,-150.38303821813818
8.776,0.9999879575420945,-150.6613844116992
8.784,0.9999878209413023,-150.93962843542343
8.792,0.9999876838499566,-151.2177709886158
8.8,0.9999875463098914,-151.49581277194144
8.808,0.9999874083631661,-151.77375448741
8.815999999999999,0.9999872700520525,-152.05159683836152
8.824,0.9999871314190233,-152.3293405294514
8.832,0.9999869925067397,-152.60698626663563
8.84,0.9999868533580393,-152.8845347571566
8.847999999999999,0.999986714015923,-153.16198670952843
8.856,0.9999865745235447,-153.43934283352274
8.864,0.9999864349241977,-153.7166038401542
8.872,0.9999862952613032,-153.9937704416663
8.879999999999999,0.9999861555783986,-154.27084335151756
8.888,0.9999860159191242,-154.54782328436715
8.896,0.9999858763272126,-154.8247109560611
8.904,0.999985736846476,-155.10150708361817
8.911999999999999,0.9999855975207941,-155.3782123852166
8.92,0.9999854583941022,-155.65482758017987
8.928,0.9999853195103808,-155.9313533889633
8.936,0.9999851809136407,-156.20779053314035
8.943999999999999,0.9999850426479141,-156.4841397353894
8.952,0.9999849047572413,-156.76040171948026
8.96,0.9999847672856593,-157.03657721026056
8.968,0.9999846302771896,-157.3126669336429
8.975999999999999,0.9999844937758278,-157.58867161659154
8.984,0.9999843578255306,-157.86459198710932
8.992,0.9999842224702055,-158.14042877422455
9.0,0.9999840877536978,-158.41618270797807
9.008,0.9999839537197804,-158.6918545194107
9.016,0.9999838204121418,-158.96744494055014
9.024000000000001,0.9999836878743752,-159.24295470439822
9.032,0.999983556149966,-159.5183845449184
9.04,0.9999834252822823,-159.7937351970233
9.048,0.999983295314563,-160.06900739656206
9.056000000000001,0.9999831662899049,-160.34420188030776
9.064,0.9999830382512548,-160.61931938594526
9.072,0.9999829112413966,-160.89436065205902
9.08,0.9999827853029404,-161.16932641812073
9.088000000000001,0.999982660478312,-161.44421742447705
9.096,0.999982536809742,-161.7190344123376
9.104,0.9999824143392552,-161.99377812376324
9.112,0.9999822931086595,-162.2684493016537
9.120000000000001,0.9999821731595366,-162.543048689736
9.128,0.9999820545332289,-162.81757703255226
9.136,0.9999819372708322,-163.0920350754486
9.144,0.9999818214131828,-163.3664235645628
9.152000000000001,0.9999817070008492,-163.64074324681306
9.16,0.99998159407412,-163.91499486988616
9.168,0.9999814826729951,-164.18917918222635
9.176,0.9999813728371755,-164.46329693302366
9.184000000000001,0.999981264606053,-164.7373488722025
9.192,0.9999811580186999,-165.0113357504104
9.2,0.9999810531138608,-165.2852583190069
9.208,0.9999809499299411,-165.5591173300523
9.216000000000001,0.9999808485049986,-165.83291353629625
9.224,0.9999807488767328,-166.10664769116704
9.232,0.9999806510824774,-166.38032054876055
9.24,0.9999805551591885,-166.65393286382906
9.248000000000001,0.999980461143438,-166.92748539177055
9.256,0.9999803690714014,-167.2009788886177
9.264,0.9999802789788521,-167.4744141110274
9.272,0.99998019090115,-167.74779181626963
9.280000000000001,0.9999801048732333,-168.0211127622171
9.288,0.9999800209296102,-168.29437770733423
9.296,0.9999799391043497,-168.5675874106672
9.304,0.9999798594310735,-168.84074263183285
9.312000000000001,0.999979781942947,-169.11384413100845
9.32,0.9999797066726711,-169.38689266892118
9.328,0.9999796336524744,-169.65988900683794
9.336,0.999979562914105,-169.932833906555
9.344,0.9999794944888215,-170.20572813038737
9.352,0.9999794284073865,-170.4785724411592
9.36,0.9999793647000577,-170.75136760219297
9.368,0.9999793033965801,-171.0241143772999
9.376,0.9999792445261796,-171.29681353076933
9.384,0.9999791881175545,-171.56946582735935
9.392,0.9999791341988681,-171.84207203228607
9.4,0.9999790827977418,-172.11463291121433
9.408,0.9999790339412478,-172.38714923024727
9.416,0.9999789876559023,-172.65962175591687
9.424,0.9999789439676581,-172.93205125517386
9.432,0.9999789029018985,-173.20443849537813
9.44,0.9999788644834288,-173.47678424428875
9.448,0.9999788287364727,-173.74908927005467
9.456,0.9999787956846633,-174.0213543412045
9.464,0.9999787653510381,-174.29358022663763
9.472,0.999978737758032,-174.56576769561383
9.48,0.9999787129274713,-174.83791751774442
9.488,0.9999786908805682,-175.1100304629822
9.496,0.9999786716379151,-175.38210730161245
9.504,0.9999786552194777,-175.65414880424316
9.512,0.9999786416445906,-175.92615574179584
9.52,0.9999786309319509,-176.19812888549592
9.528,0.9999786230996135,-176.4700690068638
9.536,0.9999786181649862,-176.74197687770507
9.544,0.9999786161448229,-177.01385327010178
9.552,0.9999786170552203,-177.28569895640248
9.56,0.9999786209116124,-177.557514709214
9.568,0.9999786277287658,-177.82930130139124
9.576,0.9999786375207744,-178.10105950602886
9.584,0.9999786503010571,-178.37279009645158
9.592,0.9999786660823505,-178.64449384620553
9.6,0.9999786848767067,-178.91617152904882
9.608,0.9999787066954888,-179.18782391894283
9.616,0.9999787315493658,-179.45945179004283
9.624,0.9999787594483113,-179.7310559166895
9.632,0.999978790401597,179.9973629266006
9.64,0.9999788244177904,179.72580396514337
9.648,0.9999788615047521,179.45426642409677
9.656,0.999978901669631,179.18274952846895
9.664,0.9999789449188617,178.9112525031277
9.672,0.9999789912581623,178.63977457280902
