freq,mag,phase
6.0,0.9997867733281902,-106.76872835994946
6.00288,0.9998601476690602,-106.92947972637889
6.005759488,0.9999419742734674,-107.09138401552413
6.008639488,1.0000277772280277,-107.25446716662346
6.011518976,1.0001121195819163,-107.41880944259245
6.014398976,1.0001899122145779,-107.5843848418113
6.017278464,1.0002559913090348,-107.75092298877546
6.020158464,1.0003064718523011,-107.9183710680497
6.023037952,1.0003381090459924,-108.08640825198773
6.025917952,1.0003489750275913,-108.25476003121554
6.028797952,1.0003383193322786,-108.42316032186412
6.03167744,1.0003067920403779,-108.59124887811029
6.03455744,1.0002565794483889,-108.75875620878084
6.037436928,1.0001903000120997,-108.92546120662065
6.040316928,1.000112538160279,-109.09116059870253
6.043196416,1.0000280157932828,-109.25564613424545
6.046076416,0.9999418287571918,-109.41892784827463
6.048955904,0.9998593654492582,-109.58105902727903
6.051835904,0.9997859899999327,-109.7420230318758
6.054715392,0.9997262083375935,-109.90203550496035
6.057595392,0.9996835979643803,-110.06134597490063
6.060475392,0.9996610131924669,-110.22021989083372
6.06335488,0.9996596851958734,-110.37887825302259
6.06623488,0.9996798728268363,-110.53770720582138
6.069114368,0.9997203053172852,-110.6969941472582
6.071994368,0.9997785274496189,-110.85703236880629
6.074873856,0.9998506627774474,-111.01796257939249
6.077753856,0.9999324807813026,-111.18002248127156
6.080633344,1.0000188208291243,-111.34332766457412
6.083513344,1.000104200810708,-111.50790944968958
6.086393344,1.0001833743217676,-111.67364147156714
6.089272832,1.0002513815503917,-111.84047292686945
6.092152832,1.0003040958212666,-112.00820254328686
6.09503232,1.0003380475371844,-112.17654012815426
6.09791232,1.0003512079294474,-112.3452364789973
6.100791808,1.000342762043074,-112.51396022521507
6.103671808,1.0003130881553957,-112.6824650608549
6.106551296,1.0002640996055714,-112.85041235980529
6.109431296,1.0001989866936276,-113.01751276857756
6.112310784,1.0001215604644205,-113.18361766627365
6.115190784,1.0000367372022179,-113.34858857026578
6.118070784,0.9999497836888973,-113.51230769822433
6.120950272,0.9998661514749764,-113.67484241447873
6.123830272,0.9997910910891478,-113.83619474665949
6.12670976,0.9997291491792998,-113.99660006923786
6.12958976,0.9996842986798818,-114.15622824485354
6.132469248,0.9996593748545739,-114.3153800994969
6.135349248,0.9996558636998589,-114.47432576963982
6.138228736,0.9996740458841944,-114.63336565780348
6.141108736,0.999712771235349,-114.79286761859468
6.143988736,0.9997696671391858,-114.95304064353859
6.146868224,0.9998411575125487,-115.11416821186968
6.149748224,0.9999227908119118,-115.27639879903043
6.152627712,1.0000096112557955,-115.43985100997423
6.155507712,1.000095973463011,-115.60458487140897
6.1583872,1.000176669712883,-115.77051025139336
6.1612672,1.0002466304579039,-115.93756665240925
6.164146688,1.0003014296657042,-116.10549433160567
6.167026688,1.0003376729924582,-116.27413169079975
6.169906176,1.00035311328058,-116.44311055155258
6.172786176,1.000346827974433,-116.61218644899948
6.175666176,1.000319063377206,-116.78102676296764
6.178545664,1.0002716927144224,-116.94933160512842
6.181425664,1.0002074685653373,-117.11685263689718
6.184305152,1.0001306314305982,-117.28336895272668
6.187185152,1.0000456419293957,-117.44870070110505
6.19006464,0.9999580169190204,-117.6128287432961
6.19294464,0.9998731951563986,-117.77570739402444
6.195824128,0.9997964670894632,-117.9374617447644
6.198704128,0.9997324020646672,-118.09818406311605
6.201584128,0.9996853525706237,-118.25812612983866
6.204463616,0.9996580562171264,-118.41754010048902
6.207343616,0.9996523112350965,-118.57667231622865
6.210223104,0.9996683829959775,-118.73595795472261
6.213103104,0.9997054285386291,-118.89561611406936
6.215982592,0.999760961003136,-119.0559103272439
6.218862592,0.9998317301870722,-119.21716894689973
6.22174208,0.9999131822030294,-119.37954109085445
6.22462208,1.0000003250911815,-119.54311744878676
6.227501568,1.000087684659689,-119.70794152461026
6.230381568,1.000169891267827,-119.87400814248892
6.233261568,1.0002416174020061,-120.04120396718591
6.236141056,1.000298636328197,-120.20936020998049
6.239021056,1.0003372652693288,-120.37816506309512
6.241900544,1.0003550799422989,-120.54739746594761
6.244780544,1.000351034865355,-120.71678167162716
6.247660032,1.0003252145104045,-120.88595027980442
6.250540032,1.0002794168765847,-121.05459360165362
6.25341952,1.0002162572936453,-121.22243786983172
6.25629952,1.0001398415090454,-121.38931331748303
6.25917952,1.0000548571738588,-121.55506564513026
6.262059008,0.9999665620758377,-121.71952804098837
6.264939008,0.9998805081646228,-121.88274771294692
6.267818496,0.9998019806718483,-122.04482650169552
6.270698496,0.9997360844838068,-122.2058701122452
6.273577984,0.9996866779867197,-122.36605134732004
6.276457984,0.9996570347742497,-122.5256564462927
6.279337472,0.9996488297081166,-122.68503050109473
6.282217472,0.9996628262847349,-122.84446840096706
6.28509696,0.9996980523381884,-123.00422538829356
6.28797696,0.9997521967926127,-123.1646664336143
6.29085696,0.999822195019908,-123.32600502913537
6.293736448,0.9999034412165054,-123.48841832073035
6.296616448,0.9999908047387907,-123.65205033765952
6.299495936,1.000079150934242,-123.81700863845349
6.302375936,1.0001627191809674,-123.98316570681975
6.305255424,1.0002363620714163,-124.15046398120364
6.308135424,1.0002955497123769,-124.31876291165422
6.311014912,1.0003365659528751,-124.48778435162701
6.313894912,1.0003567988056474,-124.65721100735131
6.316774912,1.000355006102995,-124.82681581962258
6.3196544,1.0003312207998456,-124.9962487230092
6.3225344,1.0002869427315992,-125.16520185220175
6.325413888,1.0002250543497488,-125.33338279250312
6.328293888,1.0001491803103617,-125.5005732658399
6.331173376,1.0000641505298034,-125.66662288504135
6.334053376,0.9999753042122981,-125.83144402836545
6.336932864,0.9998880073899553,-125.9949604944924
6.339812864,0.9998079322710922,-126.15732021842821
6.342692352,0.9997398313438308,-126.31857607539965
6.345572352,0.9996881528596042,-126.47902921273534
6.348452352,0.9996561025269647,-126.63885471804234
6.35133184,0.9996456194495528,-126.7983369642788
6.35421184,0.9996573313862679,-126.95788222496479
6.357091328,0.999690696093555,-127.11776205289945
6.359971328,0.999743475395208,-127.27826880606636
6.362850816,0.9998124498155994,-127.43961272698297
6.365730816,0.9998933896828391,-127.60209560593306
6.368610304,0.99998118890937,-127.7657740245932
6.371490304,1.0000703418676282,-127.93072198140385
6.374370304,1.0001553202418882,-128.0969754959295
6.377249792,1.0002308551548498,-128.26434993824668
6.380129792,1.0002922614424448,-128.43271464487003
6.38300928,1.000335573371915,-128.60188633628792
6.38588928,1.0003581404904527,-128.77150849524023
6.388768768,1.0003586882873368,-128.941313047485
6.391648768,1.0003370678769057,-129.11096460059525
6.394528256,1.000294510734323,-129.28017013563056
6.397408256,1.0002336998407075,-129.4486174454758
6.400287744,1.0001584980445517,-129.61611062519174
6.403167744,1.0000735215147296,-129.78245758114113
6.406047744,0.9999840377484599,-129.94753676467016
6.408927232,0.999895631761501,-130.11136283832167
6.411807232,0.9998139380981107,-130.2739445313509
6.41468672,0.9997438353341551,-130.4354675701751
6.41756672,0.999689890956437,-130.59605974174957
6.420446208,0.999655407824514,-130.7560269844004
6.423326208,0.9996424613608177,-130.9156558125757
6.426205696,0.9996520154590767,-131.07528981067898
6.429085696,0.9996834184574308,-131.23519295380675
6.431965696,0.9997347638741008,-131.39570472226862
6.434845184,0.9998028289590297,-131.55707623769376
6.437725184,0.9998833274485227,-131.71953514478852
6.440604672,0.9999713096871801,-131.88321521822104
6.443484672,1.0000613747408016,-132.04817704041247
6.44636416,1.0001477239072254,-132.2144231840199
6.44924416,1.000225118186841,-132.38184319008207
6.452123648,1.0002886737876346,-132.55027802309243
6.455003648,1.0003344012402413,-132.71951383214434
6.457883136,1.0003595334349344,-132.88927226790477
6.460763136,1.0003624180893673,-133.05921889908086
6.463643136,1.0003428231379776,-133.2290714360366
6.466522624,1.0003020521814499,-133.39847542797347
6.469402624,1.0002425110341728,-133.56718097349673
6.472282112,1.0001679896330251,-133.73492855490272
6.475162112,1.0000831734756974,-133.90151733825323
6.4780416,0.9999931387977594,-134.06685709238673
6.4809216,0.9999036882599871,-134.2309174582258
6.483801088,0.9998203613471753,-134.3936930130792
6.486681088,0.9997482470120269,-134.5553918903472
6.489561088,0.9996919767122933,-134.7161512099936
6.492440576,0.9996550671167268,-134.87623789374493
6.495320576,0.9996396555228543,-135.03595055432191
6.498200064,0.9996470134431892,-135.19562531085498
6.501080064,0.9996764070347688,-135.35553780205046
6.503959552,0.9997262429040826,-135.51604668030882
6.506839552,0.999793161413084,-135.6773895503374
6.50971904,0.9998732574329905,-135.8397920708787
6.51259904,0.9999615573884111,-136.00342063812914
6.515478528,1.0000522835468832,-136.16833712121334
6.518358528,1.0001399821775294,-136.33453916682592
6.521238528,1.000219197644801,-136.5019291053294
6.524118016,1.0002849178861135,-136.67040987783093
6.526998016,1.0003331286579054,-136.83967113889474
6.529877504,1.0003606739914228,-137.00953404760435
6.532757504,1.000365934869921,-137.17958912380985
6.535636992,1.0003485330332889,-137.34957233838497
6.538516992,1.0003094876201262,-137.51918967498918
6.54139648,1.000251336418808,-137.68806717212195
6.54427648,1.0001776082460274,-137.855990311597
6.54715648,1.0000928334497412,-138.02282348450422
6.550035968,1.0000023797435595,-138.18836224441296
6.552915968,0.9999118704295359,-138.35260546681639
6.555795456,0.9998269419434008,-138.51559902458143
6.558675456,0.9997528244914275,-138.67742777507962
6.561554944,0.9996942121485682,-138.83827702976248
6.564434944,0.9996547614413372,-138.99845211362245
6.567314432,0.999637014979331,-139.158229494693
6.570194432,0.9996418756650765,-139.31791319571613
6.57307392,0.9996692849287566,-139.47780155196966
6.57595392,0.9997174562829259,-139.6382448113105
6.57883392,0.999783443094394,-139.79947655038455
6.581713408,0.9998630588502343,-139.9618039863845
6.584593408,0.9999514128535836,-140.1253444459902
6.587472896,1.0000428750375192,-140.2901642478765
6.590352896,1.0001319941925244,-140.45627916293176
6.593232384,1.0002129732897742,-140.6236524003312
6.596112384,1.0002808394178178,-140.79207406621228
6.598991872,1.000331419482966,-140.96138132362032
6.601871872,1.0003614864325647,-141.13123593632196
6.604751872,1.0003691657562375,-141.30140231667218
6.60763136,1.0003539871051936,-141.4714594462462
6.61051136,1.0003168992978253,-141.64118558755678
6.613390848,1.0002600838597062,-141.8102595751811
6.616270848,1.000187124498913,-141.97835074770316
6.619150336,1.0001025991721488,-142.1453201697369
6.622030336,1.0000117394841606,-142.31106448019966
6.624909824,0.999920236298476,-142.4754633505583
6.627789824,0.9998337518002689,-142.63859001609953
6.630669312,0.9997575940530268,-142.80051934119794
6.633549312,0.9996967581389335,-142.96146687828957
6.636429312,0.999654828346933,-143.12169353782923
6.6393088,0.9996344628662248,-143.2814417592258
6.6421888,0.9996370437699523,-143.44106616881623
6.645068288,0.9996624269117014,-143.6009294613903
6.647948288,0.9997089211046473,-143.76128401023342
6.650827776,0.9997736317212471,-143.92242380293013
6.653707776,0.9998527312092316,-144.0845949467061
6.656587264,0.9999411634124721,-144.24800155570904
6.659467264,1.0000334461104752,-144.41268895474417
6.662347264,1.0001237261066453,-144.57867794105985
6.665226752,1.0002065346858358,-144.74596258385225
6.668106752,1.0002765807065765,-144.9143183789645
6.67098624,1.0003296372481938,-145.08356478254217
6.67386624,1.0003621546147818,-145.25341141161718
6.676745728,1.0003723702944856,-145.4235853579478
6.679625728,1.0003594537579366,-145.59375038614158
6.682505216,1.0003241775328298,-145.76354524675847
6.685385216,1.000268860461332,-145.93273274892468
6.688264704,1.0001968368069114,-146.10095868869183
6.691144704,1.000112522258715,-146.26807480638115
6.694024704,1.0000213272412082,-146.43392768513678
6.696904192,0.9999288225343356,-146.59846144746277
6.699784192,0.9998408059868363,-146.76165801753166
6.70266368,0.999762760524956,-146.92367948101037
6.70554368,0.9996995078817054,-147.08468305374066
6.708423168,0.9996550635868758,-147.24489760869818
6.711303168,0.9996322187725725,-147.40465705591063
6.714182656,0.9996323985700323,-147.56418069729287
6.717062656,0.9996555492478472,-147.72391466937248
6.719942656,0.9997003392178394,-147.8841470449803
6.722822144,0.9997640091853892,-148.04514174249096
6.725702144,0.9998424629971157,-148.20716317749398
6.728581632,0.9999309092958929,-148.3703916737151
6.731461632,1.0000237819052284,-148.53491002650586
6.73434112,1.000115355635876,-148.70074253776988
6.73722112,1.000199885363623,-148.8678406425868
6.740100608,1.0002721287266936,-149.0360976723132
6.742980608,1.0003275311317144,-149.20527587439727
6.745860096,1.0003626168735746,-149.3750719018641
6.748740096,1.0003753069323134,-149.5452380674904
6.751620096,1.000364680995772,-149.71540267062966
6.754499584,1.0003314171568303,-149.88527404742064
6.757379584,1.0002776057596119,-150.0545160556204
6.760259072,1.0002064640056838,-150.22283613309926
6.763139072,1.00012249105559,-150.39004590194085
6.76601856,1.0000310020461198,-150.5559990563221
6.76889856,0.9999375761065781,-150.72057849432315
6.771778048,0.9998479888724815,-150.88387945675845
6.774658048,0.9997679797643058,-151.04594279845415
6.777538048,0.9997024341567828,-151.2069382756075
6.780417536,0.9996555200106473,-151.3671257934197
6.783297536,0.9996300595680822,-151.52678140275495
6.786177024,0.9996278618346167,-151.68625702861843
6.789057024,0.999648868154295,-151.84582853892468
6.791936512,0.9996918847980087,-152.00587096386917
6.794816512,0.9997542169557333,-152.16669686617945
6.797696,0.9998320405998357,-152.32847852191523
6.800576,0.999920414866126,-152.49145822777797
6.803455488,1.0000139668304127,-152.65577866635732
6.806335488,1.0001066770399725,-152.8214298111427
6.809215488,1.0001929435342618,-152.98837380325074
6.812094976,1.0002673525052457,-153.15648660791643
6.814974976,1.0003251640858213,-153.3254923517053
6.817854464,1.0003629567384809,-153.4952284222243
6.820734464,1.0003781136212626,-153.66532991929682
6.823613952,1.0003698241551828,-153.83546210693765
6.826493952,1.0003386405859327,-154.00533276864783
6.82937344,1.0002863497697059,-154.1746055471012
6.83225344,1.0002161874879822,-154.3429902237813
6.83513344,1.000132689732376,-154.5102370347344
6.838012928,1.0000409479478973,-154.67625107864984
6.840892928,0.9999465641955445,-154.8408934426895
6.843772416,0.999855597399264,-155.00419634554797
6.846652416,0.9997735841749382,-155.16626992039943
6.849531904,0.9997057938965567,-155.32724879599758
6.852411904,0.9996562986572156,-155.48735239436326
6.855291392,0.999628285918832,-155.64692351557628
6.858171392,0.9996235130321998,-155.8062606745047
6.86105088,0.9996423257852894,-155.96565736480358
6.86393088,0.9996835683702794,-156.1254737348074
6.86681088,0.9997444963967188,-156.2860493039601
6.869690368,0.9998215843240772,-156.4476145730724
6.872570368,0.9999099047345043,-156.610353253298
6.875449856,1.0000039467907815,-156.7744052811946
6.878329856,1.0000978612761713,-156.93980681863863
6.881209344,1.0001858102145493,-157.106492346854
6.884089344,1.0002623429294941,-157.27439882797736
6.886968832,1.0003226605145616,-157.443277653569
6.889848832,1.0003628698684568,-157.61285824173314
6.892728832,1.0003806728377393,-157.78285799239313
6.89560832,1.0003747887595864,-157.95295283573085
6.89848832,1.00034559630146,-158.12277474192913
6.901367808,1.0002950144187712,-158.29201798501884
6.904247808,1.0002259192018814,-158.46041318178774
6.907127296,1.000142849041144,-158.6277090122556
6.910007296,1.0000508566530228,-158.79371842284357
6.912886784,0.9999556719709396,-158.9583726733427
6.915766784,0.9998632794890973,-159.12168355581366
6.918646272,0.9997793436840784,-159.28371761317925
6.921526272,0.999709219381067,-159.44461648723123
6.924406272,0.9996572403480862,-159.60465094978818
6.92728576,0.9996266054176222,-159.76405668157582
6.93016576,0.9996193850397934,-159.92321190985845
6.933045248,0.9996358426996546,-160.08238000621918
6.935925248,0.999675103801716,-160.24199384896156
6.938804736,0.999734815698058,-160.40226993010103
6.941684736,0.9998110725709166,-160.56353149273414
6.944564224,0.9998992174601021,-160.7259792298184
6.947444224,0.9999938262638476,-160.88976273667026
6.950324224,1.0000888926008862,-161.05486416084202
6.953203712,1.0001785648419652,-161.22130697507143
6.956083712,1.0002571575859722,-161.38895239012058
6.9589632,1.0003199291994092,-161.55759598313233
6.9618432,1.0003627840472618,-161.7270263685803
6.964722688,1.0003830775009392,-161.89690507991162
6.967602688,1.0003797087537942,-162.06685375996315
6.970482176,1.0003526297257348,-162.23663930383543
6.973362176,1.000303652491525,-162.4058304923652
6.976241664,1.0002356928792207,-162.57419870432417
6.979121664,1.0001531249764009,-162.74145416510274
6.982001664,1.0000609609351139,-162.9074644946871
6.984881152,0.9999649935858765,-163.07210608859367
6.987761152,0.9998712924103167,-163.23536000677868
6.99064064,0.9997854342223198,-163.39732143031776
6.99352064,0.9997129834213361,-163.55813658777063
6.996400128,0.9996584598989819,-163.71804942100786
6.999280128,0.99962519760463,-163.877275275226
7.002159616,0.9996153690614219,-164.03619425151314
7.005039616,0.9996295902181214,-164.19513911013203
7.007919616,0.9996669950611009,-164.35444218780768
7.010799104,0.9997252119151306,-164.51444146538955
7.013679104,0.9998006552406655,-164.6753694092947
7.016558592,0.9998884802479912,-164.83747575882867
7.019438592,0.9999835234751827,-165.00089443752415
7.02231808,1.0000797531371521,-165.16567665011507
7.02519808,1.0001710550454288,-165.33184440730955
7.028077568,1.0002517666548802,-165.49918889260388
7.030957568,1.000316880558157,-165.66759740131687
7.033837056,1.0003623491224916,-165.83679365584533
7.036717056,1.0003853687251094,-166.0065017833202
7.039597056,1.0003844071952626,-166.1763243121874
7.042476544,1.000359436698834,-166.34596777198774
7.045356544,1.0003121072090204,-166.51510377207777
7.048236032,1.0002454543206385,-166.68337679528864
7.051116032,1.000163362599328,-166.85059307991608
7.05399552,1.0000711220959146,-167.01653134675064
7.05687552,0.9999745320810891,-167.1811042724191
7.059755008,0.9998793429134719,-167.34430679028182
7.062635008,0.9997916356747087,-167.50618667931084
7.065515008,0.9997169143981421,-167.66684596698386
7.068394496,0.9996598041431628,-167.82657388194147
7.071274496,0.9996239433744022,-167.98559341118764
7.074153984,0.9996115736860949,-168.14426941437281
7.077033984,0.9996233539797321,-168.30291782732039
7.079913472,0.9996587698209289,-168.46192773474405
7.082793472,0.9997154869197529,-168.62153591063276
7.08567296,0.9997900157455176,-168.78213486491964
7.08855296,0.9998777093833484,-168.94385823293928
7.091432448,0.9999731267640942,-169.106924784191
7.094312448,1.000070361431333,-169.2713443866759
7.097192448,1.000163271219887,-169.4371299979904
7.100071936,1.00024612666668,-169.60419020315467
7.102951936,1.0003137270899087,-169.7723027202102
7.105831424,1.0003617842402877,-169.941252640209
7.108711424,1.0003873757470194,-170.11072267667066
7.111590912,1.0003888087949915,-170.28036883460842
7.114470912,1.0003662253184022,-170.4498987412986
7.1173504,1.0003207399795848,-170.61884976799658
7.1202304,1.0002552901625776,-170.7870615776281
7.1231104,1.000173829087332,-170.95416777356724
7.125989888,1.0000815574331445,-171.12004419789707
7.128869888,0.9999840924998211,-171.28451078501988
7.131749376,0.9998876444679289,-171.4475806900877
7.134629376,0.999798153087207,-171.60932277150494
7.137508864,0.9997211084420998,-171.7698430559388
7.140388864,0.9996615292275405,-171.92932202432888
