freq,mag,phase
6.0,0.9999978037635837,110.09599335047977
6.008,0.9999980566149826,109.99719268867685
6.016,0.999998304690209,109.89837077945302
6.024,0.9999985480383798,109.79952760442725
6.032,0.9999987867083067,109.70066314525874
6.04,0.999999020748498,109.60177738364693
6.048,0.9999992502071601,109.50287030133178
6.056,0.9999994751321959,109.40394188009385
6.064,0.9999996955712087,109.30499210175451
6.072,0.999999911571501,109.206020948176
6.08,1.0,109.10702840126167
6.088,0.9999999999999999,109.0080144429561
6.096,0.9999999999999999,108.90897905524518
6.104,1.0,108.80992222015641
6.112,1.0,108.7108439197589
6.12,1.0,108.61174413616364
6.128,0.9999999999999999,108.51262285152357
6.136,1.0,108.4134800480337
6.144,1.0,108.31431570793144
6.152,0.9999999999999999,108.21512981349653
6.16,1.0,108.11592234705128
6.168,1.0,108.01669329096082
6.176,1.0,107.91744262763308
6.184,0.9999999999999999,107.81817033951904
6.192,0.9999999999999999,107.71887640911287
6.2,1.0,107.61956081895205
6.208,1.0,107.5202235516176
6.216,0.9999999999999999,107.42086458973408
6.224,0.9999999999999999,107.3214839159699
6.232,1.0,107.22208151303738
6.24,1.0,107.12265736369294
6.248,0.9999999999999999,107.02321145073721
6.256,0.9999999999999999,106.92374375701523
6.264,0.9999999999999999,106.82425426541654
6.272,1.0,106.72474295887538
6.28,1.0,106.62520982037087
6.288,0.9999999999999998,106.52565483292707
6.296,1.0,106.42607797961318
6.304,1.0,106.3264792435437
6.312,1.0,106.22685860787858
6.32,0.9999999999999999,106.12721605582333
6.328,0.9999999999999999,106.02755157062921
6.336,1.0,105.92786513559341
6.344,0.9999999999999999,105.82815673405909
6.352,1.0,105.72842634941566
6.36,0.9999999999999999,105.62867396509887
6.368,0.9999999999999999,105.5288995645909
6.376,0.9999999999999999,105.42910313142066
6.384,1.0,105.32928464916378
6.392,0.9999999999999999,105.22944410144288
6.4,1.0,105.12958147192768
6.408,0.9999999999999999,105.02969674433508
6.416,0.9999999999999999,104.92978990242949
6.424,0.9999999999999998,104.82986093002272
6.432,0.9999999999999998,104.72990981097442
6.44,1.0,104.629936529192
6.448,1.0,104.52994106863086
6.456,1.0,104.42992341329462
6.464,0.9999999999999999,104.32988354723514
6.472,0.9999999999999999,104.22982145455273
6.48,0.9999999999999999,104.12973711939634
6.4879999999999995,0.9999999999999999,104.02963052596365
6.496,1.0,103.92950165850118
6.504,1.0,103.82935050130462
6.5120000000000005,1.0,103.72917703871875
6.52,0.9999999999999999,103.62898125513776
6.5280000000000005,1.0,103.5287631350053
6.536,1.0,103.42852266281474
6.5440000000000005,1.0,103.32825982310916
6.552,0.9999999999999998,103.22797460048169
6.5600000000000005,1.0,103.12766697957545
6.568,0.9999999999999999,103.02733694508393
6.5760000000000005,0.9999999999999999,102.9269844817509
6.584,1.0,102.82660957437082
6.592,1.0,102.72621220778875
6.6,0.9999999999999998,102.62579236690058
6.608,1.0,102.52535003665331
6.616,0.9999999999999999,102.42488520204499
6.624,1.0000000000000002,102.32439784812506
6.632,1.0,102.22388795999433
6.64,0.9999999999999999,102.12335552280527
6.648,1.0,102.02280052176206
6.656,1.0,101.92222294212081
6.664,1.0,101.82162276918967
6.672,1.0,101.72099998832901
6.68,0.9999999999999999,101.62035458495151
6.688,1.0,101.51968654452236
6.696,0.9999999999999999,101.41899585255946
6.704,1.0,101.31828249463341
6.712,1.0,101.21754645636784
6.72,0.9999999999999999,101.11678772343944
6.728,1.0,101.01600628157816
6.736,0.9999999999999999,100.91520211656733
6.744,1.0,100.81437521424385
6.752,1.0,100.71352556049831
6.76,0.9999999999999999,100.61265314127515
6.768,0.9999999999999999,100.51175794257277
6.776,1.0,100.41083995044376
6.784,0.9999999999999998,100.30989915099497
6.792,0.9999999999999999,100.20893553038769
6.8,1.0,100.10794907483786
6.808,1.0,100.00693977061607
6.816,1.0,99.90590760404787
6.824,1.0,99.80485256151381
6.832,1.0,99.70377462944964
6.84,0.9999999999999999,99.60267379434646
6.848,1.0,99.50155004275081
6.856,1.0,99.4004033612649
6.864,1.0,99.29923373654674
6.872,1.0,99.19804115531021
6.88,1.0,99.0968256043253
6.888,1.0,98.99558707041827
6.896,0.9999999999999999,98.89432554047168
6.904,1.0,98.79304100142465
6.912,1.0,98.69173344027298
6.92,1.0,98.5904028440693
6.928,0.9999999999999999,98.48904919992316
6.936,0.9999999999999999,98.38767249500128
6.944,1.0,98.2862727165276
6.952,1.0,98.18484985178353
6.96,1.0,98.08340388810797
6.968,1.0,97.98193481289758
6.976,0.9999999999999999,97.88044261360686
6.984,1.0,97.77892727774832
6.992,1.0,97.67738879289263
7.0,1.0,97.57582714666871
7.008,1.0,97.47424232676399
7.016,0.9999999999999999,97.37263432092448
7.024,0.9999999999999998,97.27100311695489
7.032,1.0,97.16934870271886
7.04,0.9999999999999999,97.06767106613907
7.048,1.0,96.96597019519734
7.056,0.9999999999999999,96.86424607793488
7.064,0.9999999999999999,96.7624987024523
7.072,0.9999999999999999,96.66072805690995
7.08,1.0000000000000002,96.5589341295278
7.088,1.0,96.45711690858589
7.096,1.0,96.3552763824242
7.104,1.0,96.25341253944299
7.112,1.0,96.15152536810288
7.12,0.9999999999999999,96.04961485692495
7.128,1.0,95.94768099449097
7.136,1.0,95.84572376944348
7.144,0.9999999999999998,95.74374317048598
7.152,1.0,95.64173918638305
7.16,1.0,95.53971180596051
7.168,1.0,95.43766101810554
7.176,1.0,95.33558681176689
7.184,1.0,95.23348917595493
7.192,1.0,95.13136809974189
7.2,0.9999999999999998,95.02922357226194
7.208,1.0,94.92705558271133
7.216,1.0,94.82486412034865
7.224,0.9999999999999999,94.7226491744948
7.232,1.0,94.62041073453327
7.24,0.9999999999999999,94.51814878991021
7.248,1.0,94.41586333013464
7.256,0.9999999999999998,94.31355434477851
7.264,0.9999999999999999,94.21122182347695
7.272,0.9999999999999999,94.1088657559283
7.28,0.9999999999999999,94.00648613189438
7.288,0.9999999999999999,93.90408294120049
7.296,1.0,93.80165617373568
7.304,1.0,93.69920581945283
7.312,1.0,93.59673186836879
7.32,0.9999999999999999,93.49423431056461
7.328,0.9999999999999999,93.39171313618552
7.336,1.0,93.28916833544126
7.344,1.0,93.18659989860605
7.352,0.9999999999999999,93.08400781601888
7.36,1.0,92.98139207808359
7.368,1.0,92.87875267526896
7.376,1.0,92.77608959810894
7.384,0.9999999999999999,92.67340283720277
7.392,1.0,92.5706923832151
7.4,1.0,92.46795822687615
7.4079999999999995,0.9999999999999999,92.36520035898184
7.416,0.9999999999999999,92.26241877039392
7.4239999999999995,1.0,92.1596134520402
7.432,0.9999999999999999,92.05678439491453
7.4399999999999995,0.9999999999999999,91.95393159007713
7.448,1.0,91.85105502865457
7.4559999999999995,1.0,91.74815470184002
7.464,0.9999999999999998,91.64523060089331
7.4719999999999995,1.0,91.54228271714119
7.48,1.0,91.43931104197728
7.4879999999999995,1.0,91.33631556686245
7.496,1.0,91.23329628332475
7.504,1.0,91.13025318295969
7.5120000000000005,1.0,91.02718625743027
7.52,0.9999999999999999,90.92409549846725
7.5280000000000005,1.0,90.82098089786916
7.536,1.0,90.71784244750258
7.5440000000000005,1.0,90.61468013930208
7.552,1.0,90.51149396527059
7.5600000000000005,0.9999999999999999,90.40828391747937
7.568,1.0,90.30504998806826
7.5760000000000005,1.0,90.2017921692457
7.584,0.9999999999999999,90.09851045328905
7.5920000000000005,1.0,89.99520483254446
7.6,1.0,89.89187529942734
7.6080000000000005,1.0,89.7885218464222
7.616,0.9999999999999999,89.685144466083
7.6240000000000006,1.0,89.58174315103314
7.632,1.0,89.47831789396571
7.640000000000001,1.0,89.37486868764356
7.648,1.0,89.27139552489949
7.656000000000001,0.9999999396124946,89.16789839863627
7.664,0.9999998739025795,89.06437730182702
7.672,0.9999998083995356,88.96083222751504
7.68,0.9999997431086365,88.8572631688142
7.688,0.9999996780350381,88.75367011890894
7.696,0.9999996131837775,88.65005307105444
7.704,0.999999548559776,88.54641201857679
7.712,0.999999484167838,88.4427469548731
7.72,0.9999994200126529,88.3390578734116
7.728,0.9999993560987958,88.23534476773186
7.736,0.9999992924307283,88.13160763144485
7.744,0.9999992290127997,88.02784645823313
7.752,0.9999991658492465,87.92406124185092
7.76,0.9999991029441955,87.82025197612433
7.768,0.9999990403016624,87.7164186549514
7.776,0.9999989779255541,87.61256127230232
7.784,0.9999989158196693,87.50867982221949
7.792,0.9999988539876985,87.40477429881773
7.8,0.999998792433226,87.3008446962843
7.808,0.9999987311597299,87.19689100887919
7.816,0.9999986701705836,87.09291323093515
7.824,0.999998609469056,86.98891135685783
7.832,0.9999985490583129,86.88488538112594
7.84,0.9999984889414174,86.78083529829138
7.848,0.9999984291213311,86.67676110297936
7.856,0.9999983696009144,86.57266278988857
7.864,0.999998310382928,86.46854035379125
7.872,0.9999982514700331,86.3643937895334
7.88,0.9999981928647932,86.26022309203483
7.888,0.9999981345696732,86.15602825628939
7.896,0.9999980765870427,86.051809277365
7.904,0.9999980189191744,85.94756615040384
7.912,0.9999979615682459,85.8432988706225
7.92,0.9999979045363415,85.73900743331204
7.928,0.999997847825451,85.63469183383823
7.936,0.9999977914374726,85.53035206764154
7.944,0.9999977353742122,85.42598813023743
7.952,0.9999976796373847,85.32160001721631
7.96,0.9999976242286149,85.21718772424389
7.968,0.9999975691494393,85.11275124706103
7.976,0.9999975144013042,85.00829058148412
7.984,0.9999974599855698,84.90380572340511
7.992,0.9999974059035083,84.7992966687916
8.0,0.9999973521563063,84.69476341368706
8.008,0.9999972987450654,84.59020595421087
8.016,0.9999972456708024,84.48562428655849
8.024000000000001,0.9999971929344509,84.38101840700162
8.032,0.999997140536861,84.27638831188833
8.04,0.9999970884788011,84.17173399764307
8.048,0.999997036760959,84.06705546076694
8.056000000000001,0.999996985383941,83.96235269783776
8.064,0.9999969343482746,83.85762570551024
8.072,0.9999968836544079,83.75287448051598
8.08,0.9999968333027113,83.64809901966375
8.088000000000001,0.9999967832934782,83.54329931983955
8.096,0.9999967336269252,83.43847537800674
8.104,0.999996684303193,83.33362719120616
8.112,0.9999966353223477,83.22875475655626
8.120000000000001,0.9999965866843816,83.12385807125327
8.128,0.9999965383892134,83.01893713257122
8.136,0.9999964904366896,82.91399193786224
8.144,0.9999964428265841,82.80902248455641
8.152000000000001,0.9999963955586006,82.70402877016222
8.16,0.9999963486323724,82.5990107922665
8.168,0.9999963020474639,82.49396854853448
8.176,0.9999962558033703,82.38890203671006
8.184000000000001,0.9999962098995187,82.28381125461594
8.192,0.9999961643352697,82.17869620015361
8.2,0.9999961191099176,82.07355687130361
8.208,0.9999960742226902,81.96839326612549
8.216000000000001,0.9999960296727521,81.86320538275818
8.224,0.9999959854592028,81.7579932194199
8.232,0.9999959415810783,81.65275677440832
8.24,0.9999958980373529,81.54749604610075
8.248000000000001,0.999995854826939,81.44221103295423
8.256,0.9999958119486876,81.33690173350571
8.264,0.9999957694013897,81.23156814637198
8.272,0.9999957271837768,81.12621027025
8.280000000000001,0.9999956852945221,81.02082810391693
8.288,0.9999956437322399,80.91542164623031
8.296,0.999995602495488,80.80999089612808
8.304,0.9999955615827677,80.70453585262875
8.312,0.999995520992524,80.59905651483157
8.32,0.9999954807231475,80.49355288191654
8.328,0.9999954407729743,80.38802495314471
8.336,0.9999954011402866,80.28247272785804
8.344,0.9999953618233147,80.17689620547979
8.352,0.999995322820236,80.0712953855144
8.36,0.9999952841291765,79.96567026754782
8.368,0.9999952457482125,79.86002085124744
8.376,0.9999952076753696,79.7543471363624
8.384,0.9999951699086248,79.64864912272347
8.392,0.9999951324459062,79.54292681024343
8.4,0.9999950952850944,79.43718019891693
8.408,0.9999950584240225,79.33140928882086
8.416,0.9999950218604785,79.22561408011424
8.424,0.9999949855922039,79.11979457303853
8.432,0.9999949496168953,79.01395076791752
8.44,0.9999949139322059,78.90808266515772
8.448,0.9999948785357442,78.80219026524821
8.456,0.9999948434250776,78.69627356876099
8.464,0.99999480859773,78.59033257635086
8.472,0.9999947740511848,78.48436728875576
8.48,0.9999947397828848,78.3783777067967
8.488,0.9999947057902321,78.27236383137802
8.496,0.9999946720705902,78.16632566348738
8.504,0.999994638621284,78.06026320419598
8.512,0.9999946054396005,77.95417645465854
8.52,0.9999945725227891,77.84806541611358
8.528,0.9999945398680633,77.7419300898834
8.536,0.9999945074726003,77.63577047737427
8.544,0.9999944753335426,77.52958658007643
8.552,0.9999944434479983,77.4233783995644
8.56,0.9999944118130406,77.31714593749683
8.568,0.999994380425711,77.21088919561689
8.576,0.999994349283018,77.1046081757521
8.584,0.9999943183819381,76.99830287981473
8.592,0.999994287719417,76.8919733098016
8.6,0.9999942572923697,76.7856194677945
8.608,0.9999942270976816,76.67924135596002
8.616,0.9999941971322089,76.57283897654987
8.624,0.9999941673927794,76.46641233190083
8.632,0.9999941378761926,76.35996142443503
8.64,0.999994108579222,76.25348625665984
8.648,0.9999940794986129,76.1469868311682
8.656,0.999994050631086,76.04046315063856
8.664,0.9999940219733363,75.93391521783505
8.672,0.9999939935220346,75.8273430356076
8.68,0.9999939652738267,75.72074660689205
8.688,0.9999939372253359,75.61412593471016
8.696,0.9999939093731632,75.5074810221699
8.704,0.9999938817138863,75.40081187246534
8.712,0.9999938542440623,75.29411848887692
8.72,0.9999938269602273,75.18740087477144
8.728,0.9999937998588971,75.0806590336023
8.736,0.999993772936568,74.97389296890945
8.744,0.9999937461897171,74.86710268431956
8.752,0.9999937196148037,74.76028818354615
8.76,0.9999936932082684,74.65344947038966
8.768,0.9999936669665359,74.54658654873757
8.776,0.9999936408860131,74.43969942256449
8.784,0.9999936149630919,74.33278809593217
8.792,0.9999935891941485,74.22585257298985
8.8,0.999993563575544,74.11889285797406
8.808,0.9999935381036259,74.01190895520897
8.815999999999999,0.9999935127747279,73.9049008691063
8.824,0.9999934875851707,73.79786860416549
8.832,0.9999934625312628,73.69081216497389
8.84,0.9999934376093004,73.58373155620674
8.847999999999999,0.9999934128155692,73.4766267826273
8.856,0.9999933881463433,73.36949784908693
8.864,0.9999933635978877,73.26234476052521
8.872,0.9999933391664568,73.1551675219701
8.879999999999999,0.9999933148482973,73.04796613853792
8.888,0.9999932906396465,72.94074061543347
8.896,0.9999932665367339,72.83349095795022
8.904,0.9999932425357826,72.72621717147034
8.911999999999999,0.9999932186330082,72.61891926146475
8.92,0.99999319482462,72.51159723349326
8.928,0.9999931711068224,72.40425109320468
8.936,0.9999931474758144,72.29688084633698
8.943999999999999,0.9999931239277896,72.18948649871713
8.952,0.9999931004589391,72.08206805626149
8.96,0.9999930770654494,71.97462552497576
8.968,0.9999930537435048,71.8671589109551
8.975999999999999,0.9999930304892862,71.75966822038416
8.984,0.9999930072989738,71.6521534595372
8.992,0.9999929841687457,71.54461463477833
9.0,0.9999929610947794,71.43705175256137
9.008,0.9999929380732518,71.3294648194301
9.016,0.9999929151003403,71.22185384201823
9.024000000000001,0.9999928921722225,71.1142188270496
9.032,0.9999928692850781,71.00655978133827
9.04,0.9999928464350877,70.89887671178847
9.048,0.9999928236184343,70.7911696253948
9.056000000000001,0.9999928008313036,70.68343852924235
9.064,0.9999927780698845,70.57568343050674
9.072,0.9999927553303697,70.46790433645414
9.08,0.9999927326089557,70.36010125444142
9.088000000000001,0.9999927099018439,70.25227419191626
9.096,0.9999926872052408,70.14442315641732
9.104,0.9999926645153583,70.03654815557402
9.112,0.9999926418284146,69.92864919710695
9.120000000000001,0.9999926191406345,69.82072628882779
9.128,0.9999925964482492,69.71277943863949
9.136,0.9999925737474981,69.60480865453616
9.144,0.9999925510346276,69.4968139446034
9.152000000000001,0.9999925283058935,69.38879531701826
9.16,0.9999925055575595,69.28075278004935
9.168,0.999992482785899,69.17268634205683
9.176,0.9999924599871957,69.06459601149263
9.184000000000001,0.9999924371577416,68.95648179690042
9.192,0.999992414293841,68.84834370691584
9.2,0.9999923913918083,68.74018175026637
9.208,0.9999923684479698,68.63199593577157
9.216000000000001,0.9999923454586634,68.5237862723431
9.224,0.9999923224202393,68.41555276898487
9.232,0.9999922993290601,68.30729543479298
9.24,0.999992276181502,68.19901427895584
9.248000000000001,0.9999922529739541,68.09070931075442
9.256,0.9999922297028198,67.98238053956213
9.264,0.9999922063645168,67.87402797484494
9.272,0.9999921829554776,67.76565162616143
9.280000000000001,0.9999921594721489,67.65725150316302
9.288,0.999992135910994,67.54882761559395
9.296,0.9999921122684915,67.4403799732912
9.304,0.9999920885411359,67.3319085861848
9.312000000000001,0.9999920647254391,67.22341346429783
9.32,0.9999920408179289,67.11489461774649
9.328,0.9999920168151518,67.0063520567401
9.336,0.9999919927136709,66.89778579158124
9.344,0.999991968510068,66.78919583266588
9.352,0.9999919442009425,66.68058219048334
9.36,0.9999919197829135,66.57194487561642
9.368,0.9999918952526187,66.46328389874147
9.376,0.9999918706067156,66.35459927062848
9.384,0.9999918458418806,66.24589100214106
9.392,0.9999918209548115,66.13715910423669
9.4,0.9999917959422254,66.02840358796652
9.408,0.9999917708008611,65.91962446447576
9.416,0.9999917455274778,65.81082174500344
9.424,0.9999917201188562,65.70199544088275
9.432,0.999991694571799,65.59314556354089
9.44,0.9999916688831312,65.4842721244993
9.448,0.9999916430496988,65.37537513537356
9.456,0.9999916170683723,65.2664546078737
9.464,0.9999915909360436,65.15751055380397
9.472,0.9999915646496284,65.04854298506318
9.48,0.9999915382060656,64.93955191364451
9.488,0.9999915116023187,64.8305373516359
9.496,0.9999914848353739,64.72149931121969
9.504,0.999991457902243,64.61243780467314
9.512,0.9999914307999616,64.50335284436811
9.52,0.9999914035255902,64.3942444427714
9.528,0.9999913760762145,64.28511261244456
9.536,0.9999913484489455,64.17595736604429
9.544,0.99999132064092,64.06677871632209
9.552,0.9999912926493002,63.9575766761247
9.56,0.9999912644712748,63.848351258393926
9.568,0.9999912361040584,63.7391024761668
9.576,0.9999912075448922,63.62983034257554
9.584,0.9999911787910443,63.52053487084781
9.592,0.9999911498398095,63.411216074306544
9.6,0.99999112068851,63.301873966370216
9.608,0.9999910913344952,63.19250856055265
9.616,0.999991061775142,63.08311987046343
9.624,0.9999910320078553,62.97370790980758
9.632,0.9999910020300676,62.86427269238591
9.64,0.9999909718392399,62.75481423209489
9.648,0.999990941432861,62.64533254292685
9.656,0.9999909108084489,62.53582763896989
9.664,0.9999908799635494,62.42629953440809
9.672,0.9999908488957375,62.31674824352143
9.68,0.9999908176026178,62.20717378068596
9.688,0.9999907860818226,62.09757616037375
9.696,0.9999907543310146,61.987955397153044
9.704,0.9999907223478854,61.87831150568819
9.712,0.9999906901301564,61.76864450073991
9.72,0.9999906576755784,61.658954397165054
9.728,0.999990624981932,61.54924120991696
9.736,0.999990592047028,61.43950495404524
9.744,0.999990558868707,61.32974564469607
9.752,0.9999905254448395,61.219963297112024
9.76,0.9999904917733264,61.11015792663233
9.768,0.9999904578520994,61.00032954869274
9.776,0.9999904236791194,60.89047817882573
9.784,0.9999903892523787,60.78060383266042
9.792,0.9999903545699004,60.67070652592279
9.8,0.9999903196297371,60.560786274435515
9.808,0.999990284429973,60.45084309411824
9.816,0.9999902489687226,60.34087700098744
9.824,0.9999902132441316,60.23088801115665
9.832,0.9999901772543762,60.12087614083633
9.84,0.9999901409976633,60.01084140633403
9.847999999999999,0.999990104472231,59.900783824054436
9.856,0.9999900676763485,59.79070341049936
9.864,0.9999900306083152,59.68060018226784
9.872,0.9999899932664621,59.57047415605626
9.879999999999999,0.9999899556491509,59.460325348658145
9.888,0.9999899177547745,59.35015377696446
9.896,0.9999898795817564,59.239959457963614
9.904,0.9999898411285513,59.12974240874145
9.911999999999999,0.9999898023936445,59.01950264648126
9.92,0.9999897633755525,58.90924018846389
9.928,0.9999897240728217,58.798955052067825
9.936,0.9999896844840311,58.68864725476921
9.943999999999999,0.9999896446077886,58.578316814141786
