freq,mag,phase
6.0,0.9999501561697488,65.86365240551746
6.002285568,1.0000268855133183,65.7086923060504
6.004571648,1.000102292031668,65.55260943311843
6.006857216,1.00017131266635,65.39547366318806
6.009142784,1.00022962159188,65.23740523598741
6.011428352,1.0002734454060307,65.07860459253635
6.013714432,1.0003000827362585,64.9192786769109
6.016,1.0003077486693603,64.75972448800223
6.018285568,1.0002959234553235,64.60017365715011
6.020571648,1.000265500240331,64.44092014338568
6.022857216,1.0002182689684749,64.28223939382397
6.025142784,1.0001573244906943,64.12434149850257
6.027428352,1.0000864084163157,63.96740467385685
6.029714432,1.00000994906882,63.811502446501684
6.032,0.9999330159217933,63.65673550482461
6.034285568,0.9998602969598575,63.50304282116057
6.036571648,0.9997964263486133,63.35035098508403
6.038857216,0.9997455275592733,63.198482340095204
6.041142784,0.9997107070444973,63.047244471352876
6.043428352,0.9996942810293561,62.89636690134527
6.045714432,0.9996972971937597,62.74557807920408
6.048,0.9997195878198409,62.59460602401254
6.050285568,0.999759625281405,62.443171185083706
6.052571648,0.9998150107570581,62.29104252984862
6.054857216,0.9998821332620942,62.13802881017524
6.057142784,0.9999568336935942,61.98396330709157
6.059428352,1.0000343789518018,61.828799584458
6.061714432,1.000109872385911,61.67251393325999
6.064,1.0001784557122035,61.51518349689415
6.066285568,1.0002358131796305,61.35690938670843
6.068571648,1.00027834033857,61.197912200513834
6.070857216,1.0003033688206682,61.038421610914185
6.073142784,1.0003091652941605,60.87872605495593
6.075428352,1.0002954151437013,60.71903884894269
6.077714432,1.0002631398961033,60.55969019707587
6.08,1.0002142092939201,60.40093274855837
6.082285568,1.0001517226926646,60.2429679511523
6.084571648,1.0000796723758933,60.08598870495416
6.086857216,1.0000026396382018,59.930067290199204
6.089142784,0.9999253425256446,59.77526419509343
6.091428352,0.9998528244648319,59.62154927467499
6.093714432,0.999789771578479,59.46880984074914
6.096,0.9997399068097707,59.31689062289816
6.098285568,0.9997066940647042,59.165572986482616
6.100571648,0.9996920135573387,59.01457644697775
6.102857216,0.999696927448646,58.86365135364334
6.105142784,0.9997210654193813,58.712517172321284
6.107428352,0.9997629652691183,58.56088913322874
6.109714432,0.9998199416883331,58.40852890185298
6.112,0.9998883873274892,58.25526673217309
6.114285568,0.9999640328483658,58.100930097726234
6.116571648,1.0000419775733076,57.945469117757014
6.118857216,1.0001174286025083,57.78889892772864
6.121142784,1.0001855425032133,57.63127429235098
6.123428352,1.0002419586369893,57.47272959720561
6.125714432,1.0002830764892894,57.31347792964244
6.128,1.0003064643079105,57.15374217539602
6.130285568,1.0003104462921955,56.99377330916474
6.132571648,1.0002948648996173,56.833908411529954
6.134857216,1.0002606918989845,56.67438649442569
6.137142784,1.0002099606333683,56.515468805734955
6.139428352,1.00014602453259,56.35736774519734
6.141714432,1.0000729080336315,56.20025543346888
6.144,0.9999951878327147,56.044226307628016
6.146285568,0.9999177462523215,55.889307809448255
6.148571648,0.9998456019547828,55.73548223688771
6.150857216,0.9997831915237115,55.58262087540099
6.153142784,0.999734541465805,55.43055561755516
6.155428352,0.9997028212848728,55.279056347471524
6.157714432,0.9996899250288813,55.12788378199216
6.16,0.9996967227625695,54.97674430917964
6.162285568,0.9997228447848928,54.82535525227931
6.164571648,0.999766519230746,54.673433276753805
6.166857216,0.9998250729355161,54.52077670691571
6.169142784,0.9998948467764115,54.36715284631861
6.171428352,0.9999713563441089,54.21247194094985
6.173714432,1.0000497459741198,54.05665483887797
6.176,1.0001251353344198,53.89969794059391
6.178285568,1.0001926299577553,53.741699704688024
6.180571648,1.0002480746234872,53.58280010453727
6.182857216,1.0002878402655124,53.42318533414438
6.185142784,1.0003095520178171,53.26311133643575
6.187428352,1.000311690437985,53.10285429318677
6.189714432,1.0002942316441832,52.942679401156944
6.192,1.0002580843903295,52.78289042859027
6.194285568,1.0002056676959679,52.62373591322537
6.196571648,1.0001403615654187,52.465424381589415
6.198857216,1.0000661507362896,52.30811321517664
6.201142784,0.99998774202712,52.1518791545412
6.203428352,0.9999101789964897,51.99678735327635
6.205714432,0.9998383129889296,51.842759024492956
6.208,0.9997767357252765,51.68966672283343
6.210285568,0.9997293567026229,51.5373928566749
6.212571648,0.9996990724679916,51.38563922415746
6.214857216,0.9996879581980935,51.23418285850008
6.217142784,0.9996966648322683,51.08274296111523
6.219428352,0.9997247476844388,50.93099012234445
6.221714432,0.9997701909513889,50.77872558503592
6.224,0.9998303480957815,50.625656134313566
6.226285568,0.9999013810857021,50.471627336643635
6.228571648,0.9999786283539188,50.31650400115431
6.230857216,1.0000574545916774,50.1602281083499
6.233142784,1.0001326991445267,50.002802024472906
6.235428352,1.0001995909225447,49.84437314110957
6.237714432,1.0002540543779779,49.68499993801674
6.24,1.000292431742238,49.5249566036709
6.242285568,1.0003124213542736,49.36449413965341
6.244571648,1.0003127092034196,49.20381402487752
6.246857216,1.0002932480574365,49.043285797062296
6.249142784,1.0002552835634242,48.88318413589903
6.251428352,1.0002012377658407,48.72367839428528
6.253714432,1.0001344477253185,48.565074086601754
6.256,1.0000591042103673,48.407460611020625
6.258285568,0.9999802211234063,48.25096851694929
6.260571648,0.9999025229636707,48.095584896863244
6.262857216,0.9998309728160133,47.941279789448366
6.265142784,0.999770241816386,47.78792315792521
6.267428352,0.9997240706351456,47.635300848214506
6.269714432,0.9996954132124584,47.48322233146278
6.272,0.9996860961792479,47.33140484043119
6.274285568,0.9996967293586961,47.179559795682394
6.276571648,0.9997266378202291,47.02741622639363
6.278857216,0.9997739934104318,46.87466156915087
6.281142784,0.9998356248692061,46.72112239358625
6.283428352,0.9999079092887432,46.566578264152284
6.285714432,0.9999860956774629,46.4109266209704
6.288,1.0000650979077503,46.254122811604304
6.290285568,1.0001402425383215,46.096188568191145
6.292571648,1.0002065672103275,45.93717425514526
6.294857216,1.00025989939442,45.77729535816102
6.297142784,1.0002969059767743,45.61674226014266
6.299428352,1.0003151510845645,45.45575575120586
6.301714432,1.0003135468872353,45.294630058839616
6.304,1.0002922111183106,45.13365366149527
6.306285568,1.0002523840761328,44.973110336159216
6.308571648,1.0001966439126277,44.81322464268271
6.310857216,1.0001284500678838,44.65423772184077
6.313142784,1.0000522047659353,44.496260757137094
6.315428352,0.9999727143551739,44.33938880329112
6.317714432,0.9998948687128525,44.18365249017297
6.32,0.9998237556805829,44.0289698009055
6.322285568,0.999763899601334,43.87523222072944
6.324571648,0.9997189999068408,43.72223384060535
6.326857216,0.9996918916216212,43.569716505186335
6.329142784,0.9996844265124181,43.41746560357033
6.331428352,0.999696921596164,43.26513681391492
6.333714432,0.999728776325269,43.11248085380464
6.336,0.9997778262147053,42.95919408953108
6.338285568,0.9998410479924762,42.80508083471795
6.340571648,0.9999144861251098,42.64994376828482
6.342857216,0.99999338486247,42.49368745568826
6.345142784,1.000072792805347,42.33627096216621
6.347428352,1.0001477347229302,42.17768879847912
6.349714432,1.0002133587686228,42.01807766604797
6.352,1.000265704025483,41.85758358250235
6.354285568,1.0003011592610669,41.696435759870596
6.356571648,1.000317671868923,41.534861662651714
6.358857216,1.0003142490389916,41.3731953508374
6.361142784,1.000290940811421,41.211687306729544
6.363428352,1.0002493548125668,41.05062104710212
6.365714432,1.0001919009980762,40.89027022457526
6.368,1.000122430816885,40.73080035374252
6.370285568,1.0000451512881627,40.57237400323734
6.372571648,0.9999650587284178,40.41505372260258
6.374857216,0.9998872430001872,40.258891259989674
6.377142784,0.9998165857723623,40.103763665317025
6.379428352,0.9997576349051223,39.94956373763692
6.381714432,0.9997139524311194,39.7960750662671
6.384,0.999688448154953,39.643067509906594
6.386285568,0.9996827302105822,39.49025668821065
6.388571648,0.9996972656770399,39.33738881080456
6.390857216,0.9997309332672379,39.18410615297683
6.393142784,0.999781756956618,39.030207570991294
6.395428352,0.9998464750716333,38.87545106688891
6.397714432,0.9999210827086459,38.71965091866408
6.4,1.0000006783319728,38.562705305864434
6.402285568,1.0000804151417177,38.40455576872972
6.404571648,1.0001551220890323,38.245303805412966
6.406857216,1.0002201435651885,38.0849758286477
6.409142784,1.0002712457591787,37.92377090674295
6.411428352,1.0003052830505954,37.761951815778254
6.413714432,1.0003201765418777,37.59971687467815
6.416,1.000314753236544,37.43742356934703
6.418285568,1.0002895531783877,37.27530358536237
6.420571648,1.0002461113255323,37.113650872547254
6.422857216,1.000187059657812,36.952740569004696
6.425142784,1.0001161589048198,36.79271793678191
6.427428352,1.00003799732099,36.63376240458018
6.429714432,0.9999574680859951,36.475910423653396
6.432,0.9998796218261353,36.31922015673218
6.434285568,0.9998094432304145,36.16356917280647
6.436571648,0.9997512973789605,36.008793160003805
6.438857216,0.9997089882710527,35.854759242806495
6.441142784,0.9996851663853452,35.701166667417745
6.443428352,0.9996812853410276,35.547750823277624
6.445714432,0.9996976867311238,35.39420730793162
6.448,0.9997333063054743,35.240249398689734
6.450285568,0.9997858228684924,35.085655118539165
6.452571648,0.9998521142472632,34.93015576330284
6.454857216,0.9999277409571959,34.77358934746987
6.457142784,1.0000081136912993,34.61584818771821
6.459428352,1.0000880158834045,34.45694252547854
6.461714432,1.0001624992183318,34.29690180553769
6.464,1.000226813248922,34.13578148315478
6.466285568,1.0002768399807018,33.973798410989815
6.468571648,1.000309412643327,33.81121477544009
6.470857216,1.0003225688635908,33.64827545986647
6.473142784,1.000315321778204,33.48522607782505
6.475428352,1.000288210608444,33.32241156850911
6.477714432,1.000242837437241,33.16012672521426
6.48,1.000182263017387,32.99852553034085
6.482285568,1.0001101152908567,32.83788013122364
6.484571648,1.000031084908405,32.67833084442093
6.486857216,0.9999499887910055,32.51986971179761
6.489142784,0.9998722288479174,32.36256374203403
6.491428352,0.9998024752559036,32.20628332112315
6.493714432,0.9997453734684563,32.05090354580925
6.496,0.9997043653977227,31.896189246969545
6.498285568,0.9996821152166372,31.741928473573218
6.500571648,0.9996801101817222,31.587797385798826
6.502857216,0.9996984129903731,31.43351710908188
6.505142784,0.9997359022299646,31.27880396208891
6.507428352,0.9997900408230633,31.123412547121838
6.509714432,0.99985778731086,30.96708310396435
6.512,0.9999344688280823,30.809679173971514
6.514285568,1.000015529578763,30.651090148666682
6.516571648,1.0000956549279942,30.491308191280993
6.518857216,1.0001699333936345,30.3303679543775
6.521142784,1.0002334538133644,30.168403318480188
6.523428352,1.000282302328337,30.00557802219337
6.525714432,1.0003134078516027,29.842140458185934
6.528,1.0003247727043116,29.67836700613653
6.530285568,1.0003155853115213,29.51453356304109
6.532571648,1.0002866289691734,29.35095825123775
6.534857216,1.00023952866193,29.187891648012272
6.537142784,1.0001772655855687,29.02557591631125
6.539428352,1.0001039262140723,28.86422666388712
6.541714432,1.0000239653628094,28.7039559653792
6.544,0.9999425171322952,28.544802608155425
6.546285568,0.999864728676147,28.38679647014423
6.548571648,0.999795559947978,28.229821267554332
6.550857216,0.9997393421032121,28.073708250956575
6.553142784,0.9996997561540749,27.91828308142222
6.555428352,0.999679142809702,27.763260694928444
6.557714432,0.9996789046057376,27.60833708135218
6.56,0.9996990721037999,27.45324398372734
6.562285568,0.999738387896127,27.297683629709617
6.564571648,0.9997943395735782,27.141398026971554
6.566857216,0.9998634452811204,26.984178555332356
6.569142784,0.9999412931025035,26.82583308844082
6.571428352,1.0000229413359574,26.66631499014306
6.573714432,1.00010329874799,26.50559431608416
6.576,1.0001771044547558,26.343694267800714
6.578285568,1.0002399191105842,26.180761595688605
6.580571648,1.00028768954603,26.017011992434742
6.582857216,1.0003172543311016,25.8526513606148
6.585142784,1.0003269634262728,25.687958043474364
6.587428352,1.0003159593866848,25.523263534150498
6.589714432,1.0002850137155963,25.35881679112378
6.592,1.0002361538711613,25.194930211143657
6.594285568,1.0001724346045076,25.031809325705545
6.596571648,1.0000977595847824,24.869641922015397
6.598857216,1.0000169531612528,24.70859886055746
6.601142784,0.9999351808233977,24.54867925473698
6.603428352,0.9998574461480864,24.389889825487984
6.605714432,0.9997888025492844,24.232113732344036
6.608,0.9997336606619652,24.075218820127553
6.610285568,0.9996952427954924,23.918943971180376
6.612571648,0.9996762929311649,23.763071366025798
6.614857216,0.9996779425996316,23.607295819941843
6.617142784,0.9996999280323948,23.451283841232893
6.619428352,0.9997411053748079,23.29479207509621
6.621714432,0.9997987273647625,23.13754637918184
6.624,0.9998692041247258,22.979333588277427
6.626285568,0.999948031146609,22.819992942471316
6.628571648,1.0000303456689932,22.659431299079312
6.630857216,1.0001107870805883,22.497668182693687
6.633142784,1.0001843942467628,22.33473966124341
6.635428352,1.000246411875315,22.17078965781527
6.637714432,1.0002928907923545,22.006022364510585
6.64,1.000321025371717,21.840643279324983
6.642285568,1.0003288928337428,21.674989155653332
6.644571648,1.0003160920151573,21.509309941943116
6.646857216,1.0002833423874038,21.34394269737646
6.649142784,1.000232687070395,21.17911904557915
6.651428352,1.0001674524030622,21.01510862392784
6.653714432,1.0000915814480609,20.852082894475288
6.656,1.000009964615409,20.690161953887653
6.658285568,0.9999278151177784,20.52937606907861
6.660571648,0.9998501686844288,20.369722527132872
6.662857216,0.9997821469667911,20.211096347411075
6.665142784,0.9997278777543933,20.0533061035542
6.667428352,0.9996908856587639,19.896141702793965
6.669714432,0.9996735096730026,19.739320633303016
6.672,0.9996769144035371,19.58257781384261
6.674285568,0.9997008184331435,19.425590417057265
6.676571648,0.9997437509597962,19.268078671736966
6.678857216,0.9998030471446853,19.109784958931638
6.681142784,0.9998748933258668,18.95049174807302
6.683428352,0.9999547450801961,18.79005020047077
6.685714432,1.0000375766971463,18.628414016881504
6.688,1.0001181845229883,18.465501254656417
6.690285568,1.0001914293087584,18.30147381452032
6.692571648,1.000252686150393,18.136399004160843
6.694857216,1.0002980253771128,17.97053236775386
6.697142784,1.0003246505294998,17.80409232240167
6.699428352,1.0003307813184699,17.637351199138838
6.701714432,1.0003161420771567,17.470625290205813
6.704,1.0002815453578615,17.304247652573093
6.706285568,1.0002292368311334,17.138425382826938
6.708571648,1.000162407115845,16.97343558882639
6.710857216,1.000085457474906,16.809455460927396
6.713142784,1.0000031178494382,16.646568103363336
6.715428352,0.9999205255369108,16.484845519183043
6.717714432,0.9998429799246542,16.324251626674844
6.72,0.9997755114218424,16.164649903558168
6.722285568,0.9997223100290878,16.005894625336445
6.724571648,0.9996866728065107,15.847744046728376
6.726857216,0.9996709737095838,15.689911980833264
6.729142784,0.9996761430641368,15.532123411552575
6.731428352,0.9997018955600627,15.374058378492302
6.733714432,0.9997465493827572,15.215440785018306
6.736,0.9998074222830237,15.05601866616591
6.738285568,0.999880549513544,14.895583513950813
6.740571648,0.9999614533905813,14.733964528033201
6.742857216,1.0000447818127398,14.571126894788318
6.745142784,1.0001254667867379,14.40703882396909
6.747428352,1.0001984094408545,14.241795166928174
6.749714432,1.0002588658097666,14.075530316923558
6.752,1.0003030410209515,13.908473183951067
6.754285568,1.0003281877005459,13.740861884813459
6.756571648,1.0003326212827424,13.572992691495383
6.758857216,1.0003161281334987,13.405160802278811
6.761142784,1.0002797129766527,13.237659802769713
6.763428352,1.0002257339392555,13.070755568733452
6.765714432,1.0001575284646138,12.904714360266091
6.768,1.0000793960650958,12.739675248740367
6.770285568,0.9999962352410254,12.575768780600818
6.772571648,0.9999134237190472,12.413021938764805
6.774857216,0.999836057807211,12.251376103582281
6.777142784,0.9997690570561892,12.09074161025256
6.779428352,0.9997167906708424,11.930943680460548
6.781714432,0.9996825341524184,11.771700749321466
6.784,0.9996684151443647,11.612770995899002
6.786285568,0.999675350356904,11.453867541237422
6.788571648,0.9997029308616906,11.2946563462556
6.790857216,0.9997493965379962,11.13485049573244
6.793142784,0.9998118005772139,10.974207185488916
6.795428352,0.9998862361564557,10.812525036351495
6.797714432,0.9999680327124393,10.64965061746258
6.8,1.0000519504786725,10.485541556331913
6.802285568,1.0001327467963341,10.320186003775119
6.804571648,1.0002052635415233,10.153671811489218
6.806857216,1.0002648719927492,9.98614275449428
6.809142784,1.0003077742365218,9.817803580797095
6.811428352,1.000331490349328,9.648947821923102
6.813714432,1.000334285264479,9.479832661822924
6.816,1.0003159509058543,9.310802112103914
6.818285568,1.0002777997760934,9.142122254995751
6.820571648,1.00022212120239,8.97408449047682
6.822857216,1.0001524176317274,8.8068729770438
6.825142784,1.0000732620229604,8.640728614913927
6.827428352,0.9999893197754693,8.475694914872829
6.829714432,0.9999061865917782,8.311832293394824
6.832,0.9998289805921964,8.149090563761721
6.834285568,0.9997627233333597,7.987329756821065
6.836571648,0.9997114251568185,7.826355793781269
6.838857216,0.999678467880478,7.6659745160277675
6.841142784,0.999665880864312,7.505885512037689
6.843428352,0.99967460317237,7.345759387735744
6.845714432,0.9997038947458714,7.185293748136582
6.848,0.9997521419585219,7.024226371990413
6.850285568,0.9998160587747661,6.862301693266821
6.852571648,0.9998917920250121,6.699282206367008
6.854857216,0.9999745246694792,6.535081607657429
6.857142784,1.0000589496333496,6.369626177636358
6.859428352,1.000139724337673,6.202905979638587
6.861714432,1.0002119046557785,6.0350239313461245
6.864,1.0002706940331478,5.866139421053161
6.866285568,1.0003125801186836,5.696476383863642
6.868571648,1.0003347707196595,5.526284534850668
6.870857216,1.0003358485839768,5.355878896450487
6.873142784,1.0003158545784714,5.185553528295657
6.875428352,1.0002759841827438,5.015615683528756
6.877714432,1.0002186705465115,4.846323923016292
6.88,1.0001475655192398,4.677908641701347
6.882285568,1.0000672136418498,4.51054765660203
6.884571648,0.9999826381993304,4.344314430097126
6.886857216,0.9998991619099092,4.179250750303474
6.889142784,0.9998222266979142,4.015310318783632
6.891428352,0.9997564920419334,3.852334935190765
6.893714432,0.9997062763366257,3.6901558009795594
6.896,0.9996746170795103,3.5285499052169587
6.898285568,0.9996636903762519,3.3671693764440485
6.900571648,0.9996739732426558,3.205751885239076
6.902857216,0.9997051603117649,3.043971907972836
6.905142784,0.9997550276672578,2.8815554815934856
6.907428352,0.9998204609762869,2.7182379975588673
6.909714432,0.9998973319581368,2.553837076385807
6.912,0.9999810019768304,2.3882335446783958
6.914285568,1.0000658572017473,2.221324300507027
6.916571648,1.0001467745889325,2.0531783510022263
6.918857216,1.0002184964727003,1.883856257249096
6.921142784,1.000276418557068,1.7135457829256624
6.923428352,1.0003171656579748,1.5424639954041757
6.925714432,1.0003379284391982,1.3708612466267633
6.928,1.000337429277759,1.1990804977280896
6.930285568,1.0003156651935694,1.0273882180347975
6.932571648,1.0002740215827806,0.8561071598767597
6.934857216,1.0002151125664418,0.6854933728452219
6.937142784,1.0001426858162454,0.5157762597851525
6.939428352,1.0000612670269498,0.34710665212946157
6.941714432,0.9999759451376831,0.17960407852252092
6.944,0.9998923808420966,0.013273207332717151
