freq,mag,phase
6.0,0.9999917610764787,69.23477446014397
6.008,0.9999921250668607,69.04155113045684
6.016,0.9999924728326711,68.84815807247853
6.024,0.999992804631502,68.65459532176932
6.032,0.9999931207193336,68.46086291595431
6.04,0.9999934213505316,68.26696089473307
6.048,0.9999937067778455,68.07288929988948
6.056,0.9999939772524049,67.87864817530125
6.064,0.9999942330237194,67.68423756694978
6.072,0.9999944743396736,67.48965752292973
6.08,0.9999947014465276,67.2949080934587
6.088,0.9999949145889127,67.09998933088681
6.096,0.99999511400983,66.90490128970637
6.104,0.9999952999506493,66.70964402656139
6.112,0.9999954726511061,66.51421760025721
6.12,0.9999956323492993,66.31862207176998
6.128,0.99999577928169,66.12285750425625
6.136,0.9999959136830999,65.92692396306235
6.144,0.9999960357867087,65.73082151573398
6.152,0.9999961458240525,65.53455023202555
6.16,0.9999962440250225,65.33811018390972
6.168,0.9999963306178627,65.14150144558661
6.176,0.9999964058291696,64.94472409349332
6.184,0.9999964698838885,64.74777820631319
6.192,0.9999965230053145,64.55066386498513
6.2,0.9999965654150887,64.35338115271286
6.208,0.9999965973331988,64.15593015497424
6.216,0.9999966189779754,63.95831095953034
6.224,0.999996630566094,63.76052365643474
6.232,0.9999966323125706,63.56256833804269
6.24,0.9999966244307621,63.36444509902008
6.248,0.9999966071323652,63.16615403635271
6.256,0.9999965806274147,62.96769524935518
6.264,0.9999965451242833,62.76906883968
6.272,0.9999965008296793,62.57027491132652
6.28,0.9999964479486475,62.37131357064987
6.288,0.9999963866845668,62.17218492636986
6.296,0.9999963172391506,61.97288908957984
6.304,0.9999962398124449,61.77342617375553
6.312,0.9999961546028285,61.573796294763795
6.32,0.9999960618070128,61.373999570871355
6.328,0.9999959616200391,61.17403612275355
6.336,0.9999958542352814,60.973906073502874
6.344,0.9999957398444432,60.77360954863772
6.352,0.9999956186375583,60.57314667611091
6.36,0.9999954908029899,60.37251758631807
6.368,0.9999953565274318,60.17172241210634
6.376,0.9999952159959064,59.97076128878264
6.384,0.9999950693917656,59.76963435412208
6.392,0.9999949168966913,59.56834174837631
6.4,0.9999947586906932,59.36688361428181
6.408,0.9999945949521114,59.16526009706807
6.416,0.9999944258576156,58.96347134446583
6.424,0.9999942515822043,58.76151750671519
6.432,0.9999940722992064,58.559398736573634
6.44,0.9999938881802819,58.35711518932416
6.448,0.9999936993954199,58.1546670227831
6.456,0.9999935061129421,57.95205439730821
6.464,0.999993308499501,57.74927747580637
6.472,0.9999931067200815,57.546336423741415
6.48,0.9999929009380021,57.343231409142
6.4879999999999995,0.9999926913149139,57.139962602609124
6.496,0.9999924780108034,56.936530177323746
6.504,0.9999922611839925,56.73293430905462
6.5120000000000005,0.9999920409911385,56.529175176165346
6.52,0.9999918175872365,56.32525295962231
6.5280000000000005,0.9999915911256204,56.12116784300158
6.536,0.999991361757963,55.916920012496604
6.5440000000000005,0.9999911296342782,55.712509656925214
6.552,0.9999908949029215,55.507936967736974
6.5600000000000005,0.9999906577105925,55.303202139020094
6.568,0.9999904182023349,55.09830536750879
6.5760000000000005,0.999990176521539,54.89324685258987
6.584,0.9999899328099435,54.688026796310034
6.592,0.9999896872076355,54.482645403382364
6.6,0.9999894398530537,54.2771028811934
6.608,0.9999891908829908,54.07139943980965
6.616,0.9999889404325937,53.86553529198427
6.624,0.9999886886353652,53.65951065316361
6.632,0.9999884356231684,53.45332574149373
6.64,0.9999881815262266,53.24698077782676
6.648,0.9999879264731263,53.04047598572723
6.656,0.9999876705908187,52.83381159147832
6.664,0.9999874140046239,52.62698782408809
6.672,0.9999871568382306,52.42000491529549
6.68,0.9999868992137005,52.21286309957643
6.688,0.9999866412514704,52.00556261414971
6.696,0.9999863830703546,51.798103698982786
6.704,0.9999861247875471,51.59048659679773
6.712,0.9999858665186253,51.38271155307669
6.72,0.9999856083775527,51.17477881606769
6.728,0.9999853504766807,50.96668863679001
6.736,0.9999850929267529,50.758441269039686
6.744,0.9999848358369077,50.55003696939483
6.752,0.9999845793146811,50.34147599722093
6.76,0.9999843234660106,50.13275861467595
6.768,0.9999840683952377,49.92388508671548
6.776,0.9999838142051118,49.71485568109767
6.784,0.9999835609967935,49.50567066838817
6.792,0.9999833088698579,49.29633032196492
6.8,0.9999830579222989,49.086834918022866
6.808,0.9999828082505322,48.877184735578595
6.816,0.9999825599493989,48.66738005647482
6.824,0.9999823131121702,48.457421165384865
6.832,0.9999820678305505,48.24730834981696
6.84,0.9999818241946817,48.03704190011852
6.848,0.9999815822931478,47.82662210948022
6.856,0.9999813422129775,47.616049273940085
6.864,0.9999811040396505,47.40532369238744
6.872,0.9999808678571002,47.19444566656676
6.88,0.9999806337477185,46.98341550108128
6.888,0.9999804017923611,46.77223350339685
6.896,0.9999801720703506,46.56089998384526
6.904,0.9999799446594826,46.34941525562782
6.912,0.9999797196360286,46.137779634818614
6.92,0.9999794970747435,45.92599344036773
6.928,0.9999792770488674,45.71405699410436
6.936,0.9999790596301322,45.50197062073988
6.944,0.9999788448887675,45.28973464787064
6.952,0.9999786328935032,45.077349405980826
6.96,0.999978423711577,44.864815228445075
6.968,0.9999782174087385,44.65213245153118
6.976,0.9999780140492545,44.439301414402365
6.984,0.999977813695915,44.22632245911977
6.992,0.9999776164100387,44.01319593064464
7.0,0.9999774222514775,43.799922176840404
7.008,0.9999772312786234,43.586501548474736
7.016,0.999977043548414,43.37293439922143
7.024,0.999976859116338,43.15922108566213
7.032,0.999976678036441,42.945361967288065
7.04,0.9999765003613313,42.73135740650151
7.048,0.9999763261421869,42.51720776861726
7.056,0.9999761554287613,42.30291342186389
7.064,0.9999759882693886,42.088474737385
7.072,0.9999758247109914,41.87389208924019
7.08,0.9999756647990861,41.65916585440602
7.088,0.9999755085777894,41.44429641277691
7.096,0.9999753560898255,41.22928414716574
7.104,0.9999752073765324,41.01412944330444
7.112,0.999975062477868,40.79883268984448
7.12,0.9999749214324176,40.58339427835711
7.128,0.9999747842774003,40.36781460333363
7.136,0.9999746510486762,40.15209406218545
7.144,0.9999745217807535,39.93623305524398
7.152,0.9999743965067948,39.720231985760506
7.16,0.9999742752586251,39.50409125990581
7.168,0.9999741580667387,39.28781128676981
7.176,0.9999740449603062,39.071392478360906
7.184,0.9999739359671823,38.85483524960529
7.192,0.999973831113913,38.63814001834618
7.2,0.9999737304257437,38.42130720534275
7.208,0.9999736339266253,38.20433723426912
7.216,0.9999735416392244,37.987230531713074
7.224,0.9999734535849276,37.769987527174685
7.232,0.9999733697838523,37.552608653064866
7.24,0.9999732902548539,37.33509434470367
7.248,0.9999732150155326,37.11744504031857
7.256,0.9999731440822426,36.89966118104253
7.264,0.9999730774700997,36.68174321091198
7.272,0.9999730151929892,36.46369157686458
7.28,0.9999729572635754,36.24550672873696
7.288,0.9999729036933084,36.027189119262296
7.296,0.9999728544924334,35.808739204067585
7.304,0.9999728096699992,35.59015744167101
7.312,0.9999727692338656,35.371444293479065
7.32,0.9999727331907137,35.15260022378351
7.328,0.9999727015460533,34.93362569975821
7.336,0.9999726743042323,34.714521191455866
7.344,0.999972651468445,34.495287171804534
7.352,0.9999726330407415,34.275924116604116
7.36,0.9999726190220363,34.05643250452256
7.368,0.9999726094121173,33.83681281709199
7.376,0.999972604209655,33.61706553870479
7.384,0.9999726034122116,33.39719115660934
7.392,0.99997260701625,33.17719016090577
7.4,0.9999726150171442,32.957063044541535
7.4079999999999995,0.9999726274091862,32.73681030330677
7.416,0.9999726441855982,32.51643243582953
7.4239999999999995,0.9999726653385397,32.29592994357111
7.432,0.9999726908591187,32.07530333082066
7.4399999999999995,0.999972720737401,31.854553104690442
7.448,0.9999727549624183,31.633679775110036
7.4559999999999995,0.9999727935221802,31.41268385482137
7.464,0.9999728364036822,31.191565859372623
7.4719999999999995,0.999972883592916,30.970326307112895
7.48,0.9999729350748804,30.748965719185886
7.4879999999999995,0.9999729908335893,30.527484619524234
7.496,0.9999730508520835,30.30588353484289
7.504,0.9999731151124395,30.084162994633186
7.5120000000000005,0.9999731835957802,29.86232353115591
7.52,0.9999732562822848,29.640365679435053
7.5280000000000005,0.9999733331511996,29.418289977250595
7.536,0.9999734141808471,29.196096965131943
7.5440000000000005,0.9999734993486377,28.97378718635043
7.552,0.9999735886310783,28.751361186912458
7.5600000000000005,0.9999736820037853,28.528819515551678
7.568,0.9999737794414919,28.306162723721837
7.5760000000000005,0.9999738809180612,28.083391365588678
7.584,0.9999739864064954,27.860505998022447
7.5920000000000005,0.999974095878947,27.637507180589513
7.6,0.9999742093067291,27.414395475544588
7.6080000000000005,0.9999743266603263,27.191171447822004
7.616,0.9999744479094049,26.96783566502769
7.6240000000000006,0.9999745730228249,26.744388697430075
7.632,0.9999747019686497,26.520831117951793
7.640000000000001,0.9999748347141567,26.297163502160334
7.648,0.9999749712258503,26.073386428259376
7.656000000000001,0.99997511146947,25.84950047707913
7.664,0.9999752554100033,25.62550623206744
7.672,0.9999754030116963,25.401404279279802
7.68,0.9999755542380647,25.177195207370005
7.688,0.999975709051904,24.952879607580183
7.696,0.9999758674153029,24.72845807373083
7.704,0.9999760292896519,24.503931202210698
7.712,0.9999761946356562,24.279299591966492
7.72,0.9999763634133464,24.054563844492456
7.728,0.9999765355820891,23.829724563819784
7.736,0.9999767111005997,23.604782356505886
7.744,0.9999768899269526,23.379737831623505
7.752,0.9999770720185919,23.15459160074969
7.76,0.9999772573323454,22.929344277954574
7.768,0.9999774458244332,22.7039964797901
7.776,0.9999776374504802,22.47854882527849
7.784,0.9999778321655277,22.253001935900652
7.792,0.999978029924045,22.027356435584345
7.8,0.9999782306799407,21.801612950692302
7.808,0.9999784343865739,21.575772110010114
7.816,0.9999786409967659,21.349834544734012
7.824,0.9999788504628125,21.123800888458526
7.832,0.9999790627364941,20.89767177716389
7.84,0.9999792777690889,20.67144784920344
7.848,0.9999794955113833,20.44512974529075
7.856,0.9999797159136843,20.218718108486712
7.864,0.9999799389258307,19.992213584186384
7.872,0.9999801644972045,19.765616820105755
7.88,0.9999803925767434,19.53892846626835
7.888,0.9999806231129521,19.312149174991678
7.896,0.999980856053913,19.085279600873527
7.904,0.9999810913472998,18.858320400778148
7.912,0.9999813289403874,18.631272233822283
7.92,0.9999815687800648,18.404135761361015
7.928,0.9999818108128461,18.176911646973554
7.936,0.9999820549848824,17.949600556448775
7.944,0.9999823012419736,17.722203157770707
7.952,0.99998254952958,17.494720121103857
7.96,0.9999827997928343,17.267152118778352
7.968,0.9999830519765529,17.03949982527498
7.976,0.9999833060252473,16.811763917210097
7.984,0.999983561883137,16.5839450733204
7.992,0.9999838194941597,16.35604397444747
8.0,0.9999840788019844,16.128061303522358
8.008,0.9999843397500218,15.89999774554987
8.016,0.9999846022814367,15.6718539875927
8.024000000000001,0.9999848663391597,15.443630718755703
8.032,0.9999851318658987,15.215328630169719
8.04,0.9999853988041498,14.986948414975288
8.048,0.9999856670962102,14.758490768306414
8.056000000000001,0.9999859366841889,14.529956387274204
8.064,0.9999862075100188,14.301345970950175
8.072,0.9999864795154679,14.072660220349452
8.08,0.9999867526421505,13.843899838414007
8.088000000000001,0.99998702683154,13.615065529995768
8.096,0.9999873020249787,13.386158001839432
8.104,0.9999875781636909,13.157177962565125
8.112,0.9999878551887934,12.928126122651125
8.120000000000001,0.9999881330413068,12.69900319441651
8.128,0.9999884116621678,12.469809892003406
8.136,0.9999886909922392,12.240546931359194
8.144,0.9999889709723231,12.011215030218718
8.152000000000001,0.9999892515431703,11.781814908086437
8.16,0.9999895326454927,11.552347286218204
8.168,0.9999898142199749,11.322812887602952
8.176,0.9999900962072839,11.093212436944462
8.184000000000001,0.9999903785480818,10.863546660643006
8.192,0.999990661183036,10.633816286776668
8.2,0.9999909440528307,10.404022045082566
8.208,0.9999912270981783,10.17416466693813
8.216000000000001,0.9999915102598294,9.944244885342314
8.224,0.9999917934785852,9.714263434896438
8.232,0.9999920766953064,9.484221051784974
8.24,0.9999923598509273,9.254118473756359
8.248000000000001,0.9999926428864623,9.023956440103781
8.256,0.9999929257430211,8.793735691645558
8.264,0.9999932083618167,8.563456970705507
8.272,0.9999934906841766,8.333121021093334
8.280000000000001,0.9999937726515541,8.102728588084965
8.288,0.9999940542055386,7.872280418402519
8.296,0.9999943352878657,7.641777260194279
8.304,0.9999946158404284,7.41121986301464
8.312,0.9999948958052869,7.18060897780409
8.32,0.9999951751246798,6.949945356868554
8.328,0.9999954537410334,6.719229753859429
8.336,0.999995731596973,6.488462923752663
8.344,0.999996008635332,6.257645622828598
8.352,0.9999962847991632,6.026778608650876
8.36,0.9999965600317479,5.7958626400461
8.368,0.999996834276607,5.564898477082529
8.376,0.9999971074775098,5.3338868810495725
8.384,0.9999973795784843,5.1028286144363255
8.392,0.9999976505238276,4.8717244409108496
8.4,0.9999979202581151,4.6405751252985645
8.408,0.9999981887262096,4.409381433561359
8.416,0.9999984558732729,4.178144132775784
8.424,0.9999987216447731,3.9468639911120262
8.432,0.999998985986495,3.715541777811948
8.44,0.9999992488445497,3.4841782631678666
8.448,0.9999995101653837,3.252774218500456
8.456,0.9999997698957889,3.0213304161373817
8.464,1.0,2.7898476293910357
8.472,1.0,2.558326632537036
8.48,0.9999999999999999,2.3267682007918014
8.488,1.0,2.0951731102909137
8.496,1.0,1.8635421380665607
8.504,1.0,1.6318760620257633
8.512,1.0,1.4001756609276717
8.52,1.0,1.1684417143616561
8.528,1.0,0.9366750027245
8.536,1.0,0.7048763071983564
8.544,1.0,0.47304640972780865
8.552,1.0,0.24118609299771218
8.56,1.0,0.009296140410144241
8.568,1.0,-0.2226226639378659
8.576,1.0,-0.45456953527750305
8.584,0.9999999999999999,-0.6865436881905373
8.592,0.9999999999999999,-0.9185443366325973
8.6,1.0,-1.1505706939556448
8.608,0.9999999999999999,-1.38262197293133
8.616,1.0,-1.6146973857735838
8.624,1.0000000000000002,-1.8467961441620455
8.632,1.0,-2.0789174592647455
8.64,1.0,-2.3110605417616297
8.648,1.0,-2.543224601867306
8.656,1.0,-2.775408849354663
8.664,0.9999999999999999,-3.007612493577686
8.672,1.0000000000000002,-3.239834743495137
8.68,1.0,-3.472074807693458
8.688,0.9999999999999999,-3.704331894410506
8.696,0.9999999999999999,-3.9366052115585166
8.704,0.9999999999999999,-4.1688939667479055
8.712,1.0,-4.4011973673102815
8.72,0.9999999999999999,-4.633514620322305
8.728,0.9999999999999999,-4.86584493262874
8.736,0.9999999999999999,-5.098187510866376
8.744,1.0,-5.330541561487112
8.752,1.0,-5.562906290781919
8.76,1.0,-5.795280904903962
8.768,0.9999999999999999,-6.027664609892583
8.776,1.0000000000000002,-6.260056611696477
8.784,1.0,-6.492456116197681
8.792,1.0,-6.724862329234778
8.8,0.9999999999999999,-6.957274456626922
8.808,1.0,-7.189691704197025
8.815999999999999,1.0,-7.422113277795771
8.824,1.0,-7.654538383325057
8.832,0.9999999999999999,-7.886966226761559
8.84,0.9999999999999998,-8.119396014180444
8.847999999999999,0.9999999999999999,-8.351826951779099
8.856,1.0,-8.58425824590067
8.864,0.9999999999999999,-8.81668910305759
8.872,1.0,-9.049118729955273
8.879999999999999,1.0,-9.28154633351586
8.888,1.0,-9.513971120901703
8.896,0.9999999999999999,-9.746392299538833
8.904,0.9999999999999999,-9.978809077140692
8.911999999999999,1.0,-10.211220661731746
8.92,1.0,-10.443626261670978
8.928,1.0,-10.67602508567528
8.936,0.9999999999999999,-10.908416342843083
8.943999999999999,1.0,-11.140799242677952
8.952,1.0000000000000002,-11.373172995111966
8.96,1.0,-11.605536810529035
8.968,1.0,-11.837889899788442
8.975999999999999,0.9999999999999999,-12.070231474248327
8.984,1.0,-12.302560745788957
8.992,1.0,-12.534876926835965
9.0,1.0,-12.767179230383723
9.008,1.0,-12.999466870018756
9.016,1.0,-13.231739059942832
9.024000000000001,1.0,-13.463995014996092
9.032,1.0,-13.696233950680286
9.04,1.0,-13.92845508318199
9.048,1.0,-14.160657629395617
9.056000000000001,1.0,-14.3928408069463
9.064,1.0,-14.625003834213002
9.072,1.0,-14.857145930351594
9.08,1.0,-15.089266315317579
9.088000000000001,0.9999999999999999,-15.321364209888904
9.096,1.0,-15.553438835688812
9.104,0.9999999999999999,-15.785489415208689
9.112,1.0,-16.01751517183067
9.120000000000001,1.0,-16.24951532985019
9.128,1.0,-16.481489114498586
9.136,1.0,-16.71343575196578
9.144,1.0,-16.94535446942263
9.152000000000001,1.0,-17.177244495043176
9.16,0.9999999999999999,-17.409105058027144
9.168,1.0,-17.64093538862226
9.176,0.9999999999999999,-17.872734718146365
9.184000000000001,1.0,-18.10450227900947
9.192,1.0,-18.336237304735885
9.2,0.9999999999999999,-18.567939029986363
9.208,1.0,-18.79960669057988
9.216000000000001,1.0,-19.031239523515406
9.224,0.9999999999999999,-19.262836766993765
9.232,1.0,-19.494397660439475
9.24,0.9999999999999999,-19.72592144452223
9.248000000000001,1.0,-19.957407361178365
9.256,1.0,-20.188854653632383
9.264,0.9999999999999999,-20.42026256641852
9.272,1.0,-20.651630345401855
9.280000000000001,1.0,-20.88295723779949
9.288,1.0,-21.114242492201736
9.296,1.0,-21.345485358593283
9.304,0.9999999999999999,-21.57668508837404
9.312000000000001,1.0,-21.807840934379943
9.32,0.9999999999999999,-22.03895215090375
9.328,0.9999999999999999,-22.270017993715893
9.336,1.0,-22.501037720084977
9.344,1.0,-22.732010588798047
9.352,0.9999999999999999,-22.96293586018142
9.36,0.9999999999999999,-23.19381279612054
9.368,0.9999999999999999,-23.424640660080623
9.376,1.0,-23.655418717126313
9.384,0.9999999999999999,-23.886146233942128
9.392,1.0,-24.11682247885196
9.4,1.0,-24.34744672183926
9.408,1.0,-24.57801823456633
9.416,0.9999999999999999,-24.808536290394365
9.424,1.0,-25.039000164402438
9.432,0.9999999999999999,-25.269409133407414
9.44,0.9999999999999999,-25.499762475982717
9.448,0.9999999999999998,-25.7300594724779
9.456,1.0,-25.96029940503736
9.464,0.9999999999999999,-26.190481557619602
9.472,1.0,-26.420605216015726
9.48,1.0,-26.650669667868478
9.488,1.0,-26.880674202690525
9.496,0.9999999999999999,-27.110618111883234
9.504,1.0,-27.340500688754744
9.512,1.0,-27.57032122853856
9.52,1.0000000000000002,-27.800079028411268
9.528,1.0,-28.029773387510954
9.536,1.0,-28.25940360695474
9.544,0.9999999999999999,-28.488968989856904
9.552,0.9999999999999999,-28.71846884134612
9.56,1.0000000000000002,-28.947902468583386
9.568,0.9999999999999999,-29.177269180779085
9.576,1.0,-29.406568289210554
9.584,1.0,-29.635799107238913
9.592,0.9999999999999999,-29.86496095032643
9.6,0.9999999999999999,-30.094053136053095
9.608,1.0,-30.32307498413367
9.616,1.0,-30.552025816434025
9.624,0.9999999999999999,-30.780904956987996
9.632,0.9999999999999998,-31.0097117320134
9.64,1.0,-31.23844546992863
9.648,1.0,-31.4671055013684
9.656,1.0,-31.695691159200123
9.664,1.0,-31.924201778539363
9.672,1.0,-32.15263669676595
9.68,0.9999999999999999,-32.38099525353914
9.688,1.0,-32.60927679081346
9.696,1.0,-32.837480652853685
9.704,1.0,-33.0656061862503
9.712,1.0,-33.2936527399342
9.72,1.0,-33.52161966519203
9.728,0.9999999999999999,-33.74950631568041
9.736,0.9999997362729645,-33.977312047441124
9.744,0.999999464369377,-34.205036218915055
9.752,0.9999991904654746,-34.43267819095702
9.76,0.9999989146112106,-34.66023732684955
9.768,0.9999986368569572,-34.887712992317326
9.776,0.999998357253494,-35.115104555540704
9.784,0.9999980758520018,-35.34241138716996
9.792,0.9999977927040546,-35.56963286033838
9.8,0.9999975078616111,-35.79676835067636
9.808,0.9999972213770052,-36.02381723632414
9.816,0.9999969333029392,-36.250778897945594
9.824,0.9999966436924753,-36.47765271874078
9.832,0.9999963525990262,-36.704438084459284
9.84,0.9999960600763467,-36.93113438341263
