freq,mag,phase
6.0,1.0,134.89815311154095
6.008,1.0,134.83286712607062
6.016,0.9999997087849836,134.76756046549457
6.024,0.9999993360385511,134.70223309160144
6.032,0.9999989739007605,134.63688496620057
6.04,0.9999986222481156,134.57151605112162
6.048,0.9999982809576855,134.50612630821465
6.056,0.9999979499071018,134.44071569934974
6.064,0.9999976289745605,134.375284186417
6.072,0.9999973180388207,134.30983173132628
6.08,0.9999970169792053,134.24435829600716
6.088,0.9999967256756009,134.17886384240867
6.096,0.9999964440084566,134.11334833249904
6.104,0.9999961718587845,134.04781172826588
6.112,0.999995909108161,133.98225399171562
6.12,0.9999956556387245,133.91667508487365
6.128,0.9999954113331767,133.851074969784
6.136,0.999995176074782,133.7854536085093
6.144,0.9999949497473682,133.71981096313056
6.152,0.9999947322353251,133.6541469957469
6.16,0.9999945234236053,133.58846166847567
6.168,0.9999943231977245,133.5227549434521
6.176,0.9999941314437607,133.45702678282913
6.184,0.9999939480483545,133.39127714877736
6.192,0.9999937728987088,133.32550600348492
6.2,0.9999936058825889,133.2597133091571
6.208,0.9999934468883233,133.19389902801652
6.216,0.9999932958048015,133.12806312230273
6.224,0.9999931525214766,133.0622055542721
6.232,0.9999930169283633,132.9963262861979
6.24,0.9999928889160391,132.93042528036975
6.248,0.9999927683756434,132.86450249909382
6.256,0.999992655198878,132.79855790469247
6.264,0.9999925492780072,132.73259145950433
6.272,0.9999924505058572,132.66660312588382
6.28,0.9999923587758167,132.60059286620137
6.288,0.9999922739818365,132.534560642843
6.296,0.9999921960184301,132.46850641821027
6.304,0.999992124780673,132.4024301547202
6.312,0.9999920601642031,132.33633181480505
6.32,0.9999920020652202,132.27021136091213
6.328,0.9999919503804874,132.20406875550387
6.336,0.9999919050073299,132.13790396105733
6.344,0.9999918658436349,132.0717169400645
6.352,0.9999918327878524,132.00550765503172
6.36,0.9999918057389954,131.9392760684799
6.368,0.9999917845966388,131.87302214294402
6.376,0.999991769260921,131.8067458409734
6.384,0.999991759632542,131.7404471251313
6.392,0.9999917556127663,131.67412595799473
6.4,0.9999917571034197,131.6077823021546
6.408,0.9999917640068917,131.54141612021525
6.416,0.999991776226135,131.47502737479454
6.424,0.9999917936646654,131.40861602852365
6.432,0.999991816226562,131.342182044047
6.44,0.9999918438164668,131.27572538402188
6.448,0.9999918763395861,131.2092460111187
6.456,0.9999919137016893,131.14274388802048
6.464,0.9999919558091099,131.07621897742305
6.472,0.9999920025687452,131.00967124203464
6.48,0.9999920538880561,130.9431006445759
6.4879999999999995,0.999992109675068,130.8765071477798
6.496,0.9999921698383716,130.80989071439134
6.504,0.9999922342871199,130.74325130716764
6.5120000000000005,0.9999923029310327,130.67658888887755
6.52,0.9999923756803935,130.6099034223018
6.5280000000000005,0.9999924524460507,130.5431948702327
6.536,0.9999925331394193,130.476463195474
6.5440000000000005,0.9999926176724776,130.40970836084088
6.552,0.9999927059577709,130.34293032915977
6.5600000000000005,0.9999927979084099,130.27612906326814
6.568,0.9999928934380715,130.2093045260146
6.5760000000000005,0.9999929924609988,130.14245668025848
6.584,0.9999930948920012,130.07558548887
6.592,0.9999932006464547,130.00869091472987
6.6,0.9999933096403023,129.94177292072942
6.608,0.9999934217900549,129.8748314697704
6.616,0.9999935370127901,129.80786652476476
6.624,0.999993655226153,129.74087804863456
6.632,0.999993776348358,129.67386600431203
6.64,0.999993900298186,129.60683035473923
6.648,0.9999940269949885,129.53977106286808
6.656,0.999994156358684,129.47268809166013
6.664,0.9999942883097617,129.4055814040866
6.672,0.9999944227692793,129.33845096312803
6.68,0.9999945596588647,129.27129673177444
6.688,0.9999946989007162,129.20411867302508
6.696,0.9999948404176028,129.13691674988823
6.704,0.9999949841328634,129.0696909253813
6.712,0.9999951299704094,129.0024411625305
6.72,0.999995277854723,128.93516742437095
6.728,0.9999954277108586,128.8678696739464
6.736,0.9999955794644435,128.8005478743091
6.744,0.9999957330416768,128.73320198852002
6.752,0.9999958883693316,128.66583197964826
6.76,0.9999960453747546,128.5984378107713
6.768,0.9999962039858662,128.53101944497476
6.776,0.9999963641311616,128.46357684535235
6.784,0.9999965257397107,128.39610997500566
6.792,0.999996688741159,128.3286187970443
6.8,0.9999968530657279,128.26110327458542
6.808,0.9999970186442149,128.19356337075405
6.816,0.9999971854079949,128.12599904868262
6.824,0.9999973532890195,128.0584102715111
6.832,0.9999975222198186,127.99079700238684
6.84,0.9999976921335004,127.92315920446443
6.848,0.9999978629637516,127.85549684090567
6.856,0.9999980346448393,127.78780987487943
6.864,0.99999820711161,127.7200982695616
6.872,0.9999983802994905,127.6523619881349
6.88,0.9999985541444895,127.584600993789
6.888,0.9999987285831966,127.51681524972017
6.896,0.999998903552785,127.44900471913137
6.904,0.9999990789910095,127.38116936523214
6.912,0.9999992548362093,127.31330915123846
6.92,0.9999994310273076,127.24542404037268
6.928,0.9999996075038128,127.17751399586352
6.936,0.9999997842058181,127.1095789809458
6.944,0.9999999610740038,127.04161895886054
6.952,0.9999999999999999,126.9736338928549
6.96,1.0,126.90562374618189
6.968,0.9999999999999999,126.83758848210049
6.976,1.0,126.76952806387546
6.984,1.0,126.70144245477739
6.992,1.0,126.63333161808254
7.0,0.9999999999999999,126.56519551707267
7.008,1.0,126.49703411503522
7.016,0.9999999999999999,126.42884737526298
7.024,1.0,126.36063526105424
7.032,0.9999999999999999,126.29239773571257
7.04,1.0,126.22413476254681
7.048,1.0,126.15584630487103
7.056,0.9999999999999999,126.08753232600442
7.064,1.0,126.0191927892713
7.072,0.9999999999999999,125.9508276580009
7.08,1.0,125.88243689552758
7.088,1.0,125.81402046519052
7.096,1.0,125.74557833033374
7.104,1.0,125.67711045430615
7.112,1.0,125.6086168004613
7.12,1.0,125.54009733215752
7.128,1.0,125.4715520127578
7.136,1.0,125.40298080562972
7.144,1.0,125.33438367414546
7.152,1.0,125.26576058168166
7.16,1.0,125.19711149161951
7.168,1.0,125.1284363673446
7.176,1.0,125.05973517224696
7.184,0.9999999999999999,124.99100786972102
7.192,1.0,124.9222544231655
7.2,1.0,124.85347479598342
7.208,1.0,124.78466895158218
7.216,0.9999999999999999,124.7158368533733
7.224,1.0,124.64697846477269
7.232,0.9999999999999999,124.57809374920032
7.24,1.0,124.50918267008042
7.248,0.9999999999999999,124.44024519084142
7.256,0.9999999999999999,124.37128127491583
7.264,1.0,124.30229088574036
7.272,0.9999999999999999,124.23327398675582
7.28,1.0,124.16423054140716
7.288,1.0,124.09516051314343
7.296,1.0,124.02606386541778
7.304,0.9999999999999999,123.95694056168752
7.312,1.0,123.887790565414
7.32,1.0,123.81861384006268
7.328,1.0,123.7494103491032
7.336,1.0,123.68018005600933
7.344,1.0,123.61092292425892
7.352,1.0,123.54163891733397
7.36,1.0,123.4723279987207
7.368,0.9999999999999999,123.4029901319095
7.376,0.9999999999999999,123.33362528039495
7.384,1.0,123.26423340767585
7.392,1.0,123.19481447725536
7.4,1.0,123.12536845264083
7.4079999999999995,1.0,123.05589529734398
7.416,1.0,122.98639497488087
7.4239999999999995,0.9999999999999998,122.91686744877205
7.432,0.9999999999999999,122.84731268254241
7.4399999999999995,0.9999999999999999,122.77773063972145
7.448,1.0,122.70812128384311
7.4559999999999995,1.0,122.63848457844607
7.464,1.0,122.56882048707348
7.4719999999999995,1.0,122.49912897327344
7.48,1.0,122.42941000059865
7.4879999999999995,1.0000000000000002,122.35966353260677
7.496,1.0,122.28988953286036
7.504,0.9999999999999999,122.22008796492698
7.5120000000000005,1.0,122.15025879237923
7.52,1.0,122.08040197879498
7.5280000000000005,1.0,122.01051748775724
7.536,1.0,121.94060528285449
7.5440000000000005,1.0,121.87066532768053
7.552,1.0,121.80069758583475
7.5600000000000005,0.9999999999999999,121.73070202092218
7.568,1.0,121.66067859655361
7.5760000000000005,0.9999999999999999,121.59062727634573
7.584,1.0,121.52054802392114
7.5920000000000005,1.0,121.45044080290855
7.6,0.9999999999999999,121.38030557694299
7.6080000000000005,0.9999999999999999,121.31014230966571
7.616,1.0,121.2399509647246
7.6240000000000006,1.0,121.16973150577404
7.632,0.9999999999999999,121.09948389647536
7.640000000000001,0.9999999999999999,121.02920810049662
7.648,1.0,120.95890408151314
7.656000000000001,0.9999999999999999,120.88857180320737
7.664,0.9999999999999999,120.81821122926925
7.672,1.0,120.74782232339624
7.68,0.9999999999999999,120.67740504929358
7.688,1.0000000000000002,120.60695937067443
7.696,1.0,120.5364852512601
7.704,1.0,120.46598265478023
7.712,0.9999999999999999,120.39545154497293
7.72,1.0,120.32489188558502
7.728,1.0,120.25430364037229
7.736,0.9999999999999999,120.18368677309964
7.744,1.0,120.11304124754135
7.752,1.0,120.04236702748125
7.76,1.0,119.97166407671308
7.768,1.0,119.90093235904055
7.776,1.0,119.83017183827769
7.784,1.0,119.75938247824912
7.792,1.0,119.68856424279032
7.8,1.0,119.61771709574775
7.808,1.0,119.54684100097927
7.816,1.0,119.47593592235442
7.824,1.0,119.40500182375459
7.832,1.0,119.33403866907341
7.84,0.9999999999999999,119.26304642221703
7.848,1.0,119.19202504710435
7.856,1.0,119.12097450766753
7.864,0.9999999999999999,119.04989476785204
7.872,0.9999999999999999,118.9787857916172
7.88,1.0,118.90764754293643
7.888,0.9999999999999999,118.8364799857976
7.896,1.0,118.76528308420335
7.904,0.9999999999999999,118.69405680217157
7.912,1.0,118.62280110373555
7.92,0.9999999999999999,118.55151595294458
7.928,1.0,118.4802013138642
7.936,1.0,118.4088571505766
7.944,1.0,118.337483427181
7.952,1.0,118.26608010779421
7.96,0.9999999999999999,118.19464715655077
7.968,1.0,118.1231845376036
7.976,1.0,118.05169221512436
7.984,0.9999999999999999,117.98017015330386
7.992,0.9999999999999999,117.90861831635245
8.0,1.0,117.83703666850064
8.008,1.0,117.76542517399945
8.016,1.0,117.69378379712084
8.024000000000001,0.9999999999999999,117.62211250215827
8.032,1.0,117.55041125342724
8.04,1.0,117.47868001526557
8.048,1.0,117.40691875203409
8.056000000000001,0.9999999999999999,117.33512742811716
8.064,0.9999999999999999,117.26330600792306
8.072,0.9999999999999999,117.19145445588471
8.08,1.0,117.11957273645989
8.088000000000001,1.0,117.04766081413219
8.096,0.9999999999999999,116.97571865341129
8.104,0.9999999999999999,116.90374621883355
8.112,1.0000000000000002,116.83174347496272
8.120000000000001,0.9999999999999999,116.75971038639038
8.128,0.9999999999999998,116.68764691773666
8.136,0.9999999999999999,116.61555303365064
8.144,0.9999999999999999,116.54342869881117
8.152000000000001,1.0,116.47127387792739
8.16,1.0000000000000002,116.39908853573937
8.168,1.0,116.32687263701865
8.176,1.0,116.25462614656914
8.184000000000001,0.9999999999999999,116.18234902922737
8.192,0.9999999999999999,116.11004124986357
8.2,1.0,116.03770277338202
8.208,0.9999999999999999,115.96533356472192
8.216000000000001,0.9999999999999999,115.89293358885786
8.224,0.9999999999999998,115.82050281080083
8.232,1.0,115.74804119559856
8.24,1.0,115.67554870833644
8.248000000000001,1.0,115.60302531413821
8.256,0.9999999999999999,115.5304709781666
8.264,0.9999999999999999,115.45788566562422
8.272,1.0,115.38526934175398
8.280000000000001,0.9999999999999999,115.31262197184014
8.288,0.9999999999999999,115.23994352120896
8.296,1.0,115.16723395522936
8.304,1.0,115.09449323931373
8.312,1.0,115.0217213389188
8.32,1.0,114.94891821954616
8.328,1.0,114.87608384674328
8.336,1.0,114.80321818610416
8.344,0.9999999999999998,114.73032120327018
8.352,1.0,114.6573928639307
8.36,1.0,114.58443313382416
8.368,1.0,114.51144197873855
8.376,0.9999999999999999,114.43841936451244
8.384,1.0,114.3653652570356
8.392,0.9999999999999999,114.29227962224999
8.4,1.0,114.21916242615033
8.408,1.0,114.1460136347851
8.416,1.0,114.07283321425723
8.424,1.0,113.99962113072493
8.432,0.9999999999999999,113.92637735040243
8.44,0.9999999999999999,113.85310183956096
8.448,1.0,113.77979456452925
8.456,0.9999999999999999,113.70645549169467
8.464,1.0,113.63308458750372
8.472,1.0,113.55968181846295
8.48,1.0,113.48624715113975
8.488,1.0000000000000002,113.41278055216314
8.496,1.0,113.33928198822443
8.504,1.0,113.26575142607814
8.512,0.9999999999999999,113.1921888325426
8.52,1.0,113.11859417450084
8.528,1.0,113.0449674189012
8.536,0.9999999999999999,112.97130853275817
8.544,1.0,112.89761748315306
8.552,1.0,112.82389423723467
8.56,0.9999999999999999,112.75013876222002
8.568,0.9999999999999999,112.67635102539508
8.576,0.9999999999999999,112.6025309941153
8.584,1.0,112.52867863580643
8.592,1.0,112.45479391796499
8.6,1.0,112.38087680815899
8.608,1.0,112.30692727402847
8.616,1.0,112.23294528328616
8.624,0.9999999999999999,112.15893080371785
8.632,0.9999999999999998,112.08488380318317
8.64,0.9999999999999999,112.01080424961586
8.648,1.0,111.93669211102443
8.656,1.0,111.8625473554925
8.664,1.0,111.78836995117929
8.672,0.9999999141552728,111.71415986632
8.68,0.9999998286303577,111.63991706922619
8.688,0.9999997455931366,111.56564152828605
8.696,0.9999996651060669,111.49133321196484
8.704,0.9999995872311526,111.416992088805
8.712,0.9999995120299097,111.34261812742655
8.72,0.9999994395633307,111.26821129652711
8.728,0.9999993698918488,111.19377156488223
8.736,0.9999993030753002,111.11929890134533
8.744,0.9999992391728875,111.04479327484799
8.752,0.9999991782431418,110.97025465439971
8.76,0.9999991203438845,110.89568300908822
8.768,0.9999990655321883,110.8210783080791
8.776,0.9999990138643373,110.74644052061592
8.784,0.9999989653957878,110.67176961601992
8.792,0.9999989201811277,110.59706556368995
8.8,0.9999988782740356,110.52232833310204
8.808,0.9999988397272391,110.44755789380925
8.815999999999999,0.9999988045924741,110.37275421544118
8.824,0.9999987729204416,110.29791726770357
8.832,0.9999987447607648,110.22304702037789
8.84,0.9999987201619481,110.14814344332073
8.847999999999999,0.999998699171332,110.07320650646314
8.856,0.9999986818350498,109.99823617981001
8.864,0.9999986681979839,109.92323243343941
8.872,0.9999986583037221,109.84819523750167
8.879999999999999,0.9999986521945122,109.77312456221853
8.888,0.9999986499112178,109.69802037788222
8.896,0.9999986514932733,109.62288265485444
8.904,0.999998656978639,109.54771136356533
8.911999999999999,0.9999986664037559,109.47250647451219
8.92,0.9999986798035003,109.39726795825831
8.928,0.9999986972111389,109.32199578543168
8.936,0.9999987186582828,109.24668992672363
8.943999999999999,0.9999987441748428,109.17135035288722
8.952,0.9999987737889836,109.09597703473582
8.96,0.9999988075270796,109.02056994314142
8.968,0.9999988454136685,108.94512904903304
8.975999999999999,0.9999988874714075,108.86965432339468
8.984,0.9999989337210291,108.79414573726366
8.992,0.9999989841812948,108.71860326172863
9.0,0.9999990388689544,108.64302686792742
9.008,0.9999990977986982,108.56741652704497
9.016,0.9999991609831181,108.49177221031105
9.024000000000001,0.9999992284326613,108.41609388899806
9.032,0.999999300155591,108.34038153441855
9.04,0.9999993761579429,108.26463511792264
9.048,0.9999994564434844,108.18885461089562
9.056000000000001,0.9999995410136764,108.11303998475513
9.064,0.999999629867631,108.03719121094856
9.072,0.999999723002074,107.96130826095005
9.08,0.9999998204113076,107.88539110625754
9.088000000000001,0.9999999220871734,107.80943971838998
9.096,1.0,107.73345406888397
9.104,1.0,107.65743412929059
9.112,1.0,107.58137987117227
9.120000000000001,1.0,107.50529126609926
9.128,1.0,107.42916828564628
9.136,1.0,107.35301090138886
9.144,1.0,107.27681908489981
9.152000000000001,1.0,107.20059280774554
9.16,1.0,107.12433204148213
9.168,0.9999999999999999,107.04803675765164
9.176,1.0,106.97170692777802
9.184000000000001,1.0,106.89534252336323
9.192,0.9999999999999999,106.81894351588305
9.2,0.9999999999999999,106.74250987678295
9.208,0.9999999999999999,106.66604157747393
9.216000000000001,0.9999999999999999,106.58953858932814
9.224,1.0,106.51300088367466
9.232,0.9999999999999999,106.43642843179488
9.24,1.0,106.35982120491825
9.248000000000001,0.9999999999999999,106.28317917421766
9.256,0.9999999999999999,106.20650231080495
9.264,1.0,106.12979058572621
9.272,1.0,106.05304396995713
9.280000000000001,1.0,105.97626243439845
9.288,0.9999999999999999,105.89944594987112
9.296,1.0,105.82259448711154
9.304,1.0,105.74570801676681
9.312000000000001,0.9999999999999999,105.66878650939006
9.32,0.9999999999999998,105.59182993543546
9.328,0.9999999999999999,105.5148382652535
9.336,1.0,105.4378114690861
9.344,1.0,105.36074951706193
9.352,1.0,105.2836523791914
9.36,1.0,105.206520025362
9.368,0.9999999999999999,105.12935242533342
9.376,0.9999999999999999,105.05214954873286
9.384,1.0,104.97491136505019
9.392,0.9999999999999998,104.89763784363329
9.4,0.9999999999999999,104.82032895368343
9.408,0.9999999999999999,104.74298466425049
9.416,1.0,104.66560494422852
9.424,1.0,104.58818976235119
9.432,1.0,104.51073908718728
9.44,0.9999999999999999,104.43325288713629
9.448,0.9999999999999999,104.35573113042418
9.456,1.0,104.2781737850991
9.464,0.9999999999999999,104.20058081902717
9.472,1.0,104.12295219988853
9.48,1.0,104.04528789517329
9.488,1.0,103.96758787217772
9.496,1.0,103.8898520980004
9.504,0.9999999999999999,103.81208053953883
9.512,0.9999999999999999,103.73427316348554
9.52,1.0,103.65642993632503
9.528,0.9999999999999999,103.57855082433032
9.536,1.0,103.50063579356
9.544,1.0,103.422684809855
9.552,0.9999999999999999,103.34469783883605
9.56,1.0,103.26667484590075
9.568,1.0,103.18861579622126
9.576,0.9999999999999999,103.11052065474175
9.584,1.0,103.03238938617636
9.592,0.9999999999999998,102.95422195500714
9.6,1.0,102.87601832548216
9.608,1.0,102.79777846161385
9.616,0.9999999999999999,102.71950232717757
9.624,1.0,102.64118988571025
9.632,1.0,102.5628411005093
9.64,0.9999999999999999,102.48445593463171
9.648,1.0,102.40603435089331
9.656,1.0,102.32757631186816
9.664,0.9999999999999999,102.24908177988839
9.672,1.0,102.17055071704388
9.68,0.9999999999999999,102.09198308518248
9.688,1.0,102.01337884591013
9.696,1.0,101.93473796059145
9.704,0.9999999999999999,101.8560603903504
9.712,1.0,101.77734609607111
9.72,0.9999999999999999,101.69859503839895
9.728,0.9999999999999999,101.61980717774193
9.736,1.0,101.540982474272
9.744,1.0,101.46212088792696
9.752,1.0,101.38322237841213
9.76,1.0,101.30428690520263
9.768,0.9999999999999999,101.22531442754546
9.776,0.9999999999999999,101.14630490446223
9.784,1.0,101.06725829475154
9.792,0.9999999999999998,100.9881745569921
9.8,1.0,100.90905364954556
9.808,0.9999999999999999,100.82989553055987
9.816,0.9999999999999999,100.75070015797262
9.824,1.0,100.67146748951465
9.832,0.9999999999999999,100.59219748271374
9.84,0.9999999999999999,100.5128900948986
9.847999999999999,1.0,100.43354528320283
9.856,0.9999999999999999,100.35416300456924
9.864,1.0,100.27474321575426
9.872,1.0,100.19528587333231
9.879999999999999,0.9999999999999999,100.11579093370061
9.888,1.0,100.03625835308384
9.896,1.0,99.95668808753923
9.904,1.0,99.8770800929615
9.911999999999999,0.9999999999999998,99.797434325088
9.92,1.0,99.717750739504
9.928,1.0,99.63802929164811
9.936,1.0,99.55826993681772
9.943999999999999,1.0,99.47847263017455
9.952,1.0,99.3986373267502
9.96,1.0,99.31876398145208
9.968,1.0,99.23885254906901
9.975999999999999,1.0,99.15890298427708
9.984,0.9999999999999999,99.07891524164562
9.992,0.9999999999999999,98.99888927564312
10.0,1.0,98.91882504064327
10.008,1.0,98.8387224909308
10.016,1.0,98.75858158070776
10.024000000000001,1.0,98.67840226409939
10.032,0.9999999999999999,98.59818449516041
10.04,0.9999999999999998,98.5179282278809
10.048,1.0,98.43763341619245
10.056000000000001,1.0,98.35730001397435
10.064,1.0,98.27692797505956
10.072,1.0,98.19651725324074
10.08,0.9999999999999999,98.11606780227628
10.088000000000001,1.0,98.03557957589634
10.096,1.0,97.9550525278088
10.104,1.0,97.8744866117051
10.112,1.0,97.79388178126611
10.120000000000001,0.9999999999999999,97.71323799016798
10.128,1.0000000000000002,97.63255519208789
10.136,1.0,97.55183334070962
10.144,1.0,97.47107238972924
