freq,mag,phase
6.0,0.9999890632776113,-135.7016997054132
6.008,0.999990996177545,-136.09753804451807
6.016,0.9999928674761088,-136.4931696710789
6.024,0.9999946782491554,-136.88859576589712
6.032,0.9999964295616736,-137.28381752045988
6.04,0.9999981224678148,-137.67883613682235
6.048,0.9999997580109244,-138.07365282749055
6.056,1.0,-138.46826881530433
6.064,1.0,-138.86268533332145
6.072,1.0,-139.25690362470172
6.08,0.9999999999999999,-139.65092494259193
6.088,1.0,-140.04475055001132
6.096,0.9999999999999999,-140.43838171973738
6.104,1.0,-140.83181973419263
6.112,1.0,-141.22506588533165
6.12,1.0,-141.6181214745286
6.128,1.0,-142.01098781246574
6.136,1.0,-142.40366621902194
6.144,1.0,-142.79615802316232
6.152,1.0,-143.18846456282816
6.16,1.0,-143.58058718482738
6.168,1.0,-143.97252724472577
6.176,1.0,-144.36428610673877
6.184,1.0,-144.75586514362374
6.192,0.9999999999999999,-145.14726573657282
6.2,1.0,-145.53848927510663
6.208,1.0,-145.9295371569682
6.216,1.0,-146.3204107880177
6.224,0.9999999999999999,-146.71111158212807
6.232,0.9999999999999999,-147.10164096108045
6.24,1.0,-147.492000354461
6.248,1.0,-147.88219119955804
6.256,0.9999999999999999,-148.27221494125956
6.264,1.0,-148.66207303195176
6.272,0.9999999999999999,-149.05176693141792
6.28,0.9999999999999999,-149.4412981067378
6.288,0.9999999999999999,-149.83066803218802
6.296,1.0,-150.21987818914266
6.304,1.0,-150.6089300659746
6.312,1.0,-150.99782515795735
6.32,0.9999999999999999,-151.38656496716806
6.328,1.0,-151.7751510023901
6.336,0.9999999999999999,-152.16358477901704
6.344,1.0,-152.55186781895736
6.352,0.9999999999999999,-152.94000165053862
6.36,1.0,-153.32798780841387
6.368,1.0,-153.71582783346707
6.376,1.0,-154.10352327272028
6.384,1.0,-154.4910756792408
6.392,1.0,-154.8784866120492
6.4,1.0,-155.2657576360276
6.408,1.0,-155.652890321829
6.416,1.0,-156.03988624578696
6.424,1.0,-156.42674698982552
6.432,1.0,-156.8134741413704
6.44,1.0,-157.20006929326027
6.448,0.9999999999999999,-157.58653404365884
6.456,0.9999999999999999,-157.972869995967
6.464,1.0,-158.35907875873653
6.472,1.0,-158.74516194558328
6.48,0.9999999999999999,-159.13112117510178
6.4879999999999995,1.0,-159.5169580707798
6.496,1.0,-159.90267426091387
6.504,0.9999999999999999,-160.28827137852488
6.5120000000000005,1.0,-160.67375106127508
6.52,0.9999999999999999,-161.05911495138443
6.5280000000000005,1.0,-161.44436469554876
6.536,1.0,-161.82950194485716
6.5440000000000005,0.9999999999999999,-162.21452835471132
6.552,1.0,-162.5994455847441
6.5600000000000005,1.0,-162.9842552987395
6.568,0.9999999999999999,-163.36895916455262
6.5760000000000005,1.0,-163.7535588540306
6.584,0.9999999999999998,-164.13805604293347
6.592,0.9999999999999999,-164.52245241085635
6.6,1.0,-164.90674964115115
6.608,1.0000000000000002,-165.29094942084967
6.616,1.0,-165.6750534405867
6.624,0.9999999999999999,-166.05906339452352
6.632,1.0,-166.4429809802723
6.64,0.9999999999999999,-166.8268078988208
6.648,1.0,-167.21054585445722
6.656,0.9999999999999999,-167.59419655469617
6.664,1.0,-167.97776171020445
6.672,1.0,-168.36124303472772
6.68,1.0,-168.74464224501745
6.688,1.0,-169.1279610607584
6.696,1.0,-169.5112012044963
6.704,1.0,-169.8943644015666
6.712,1.0,-170.2774523800227
6.72,1.0,-170.6604668705655
6.728,1.0,-171.04340960647284
6.736,0.9999999999999999,-171.4262823235296
6.744,1.0,-171.8090867599581
6.752,0.9999999999999999,-172.19182465634896
6.76,1.0,-172.5744977555923
6.768,0.9999999999999999,-172.95710780280947
6.776,0.9999999999999999,-173.33965654528504
6.784,1.0,-173.7221457323991
6.792,1.0,-174.10457711556032
6.8,1.0,-174.48695244813888
6.808,0.9999999999999998,-174.8692734854001
6.816,1.0,-175.2515419844384
6.824,1.0,-175.6337597041114
6.832,1.0,-176.01592840497474
6.84,0.9999999999999999,-176.39804984921682
6.848,1.0,-176.78012580059425
6.856,1.0,-177.1621580243674
6.864,1.0000000000000002,-177.54414828723637
6.872,0.9999999999999999,-177.92609835727728
6.88,1.0,-178.3080100038789
6.888,1.0,-178.68988499767937
6.896,1.0,-179.07172511050365
6.904,1.0,-179.45353211530085
6.912,1.0,-179.83530778608207
6.92,1.0,179.78294610214152
6.928,0.9999999999999999,179.40122777342023
6.936,1.0,179.01953545092746
6.944,0.9999999999999999,178.63786735702053
6.952,1.0,178.25622171330167
6.96,1.0,177.8745967406786
6.968,0.9999999999999999,177.4929906594248
6.976,0.9999999999999999,177.11140168923964
6.984,1.0,176.7298280493083
6.992,1.0,176.3482679583613
7.0,1.0,175.9667196347338
7.008,0.9999997493684133,175.5851812964251
7.016,0.9999993189866405,175.2036511611573
7.024,0.9999988928295622,174.82212744643425
7.032,0.9999984710097187,174.44060836959991
7.04,0.9999980536356371,174.05909214789696
7.048,0.9999976408118825,173.67757699852484
7.056,0.9999972326391082,173.2960611386977
7.064,0.9999968292141088,172.91454278570234
7.072,0.9999964306298693,172.53302015695573
7.08,0.9999960369756162,172.1514914700627
7.088,0.9999956483368665,171.76995494287294
7.096,0.9999952647954805,171.38840879353856
7.104,0.999994886429708,171.0068512405708
7.112,0.9999945133142402,170.62528050289703
7.12,0.9999941455202579,170.24369479991762
7.128,0.9999937831154793,169.86209235156235
7.136,0.99999342616421,169.48047137834715
7.144,0.9999930747273917,169.09883010143028
7.152,0.9999927288626466,168.7171667426687
7.16,0.9999923886243306,168.33547952467427
7.168,0.999992054063575,167.9537666708699
7.176,0.9999917252283375,167.57202640554522
7.184,0.999991402163447,167.19025695391295
7.192,0.9999910849106513,166.8084565421643
7.2,0.9999907735086632,166.42662339752496
7.208,0.999990467993204,166.04475574831073
7.216,0.9999901683970539,165.66285182398303
7.224,0.9999898747500922,165.28090985520464
7.232,0.9999895870793462,164.89892807389506
7.24,0.999989305409033,164.51690471328598
7.248,0.9999890297606072,164.13483800797692
7.256,0.9999887601528019,163.75272619399027
7.264,0.9999884966016751,163.3705675088269
7.272,0.9999882391206512,162.98836019152142
7.28,0.9999879877205659,162.60610248269757
7.288,0.999987742409709,162.22379262462343
7.296,0.9999875031938655,161.84142886126682
7.304,0.9999872700763606,161.45900943835048
7.312,0.9999870430581006,161.07653260340763
7.32,0.9999868221376141,160.69399660583704
7.328,0.9999866073110947,160.31139969695846
7.336,0.9999863985724413,159.92874013006806
7.344,0.9999861959133003,159.5460161604937
7.352,0.9999859993231056,159.16322604565056
7.36,0.9999858087891181,158.78036804509625
7.368,0.999985624296469,158.3974404205867
7.376,0.999985445828195,158.0144414361315
7.384,0.9999852733652823,157.6313693580496
7.392,0.9999851068867033,157.24822245502494
7.4,0.9999849463694557,156.86499899816218
7.4079999999999995,0.9999847917886032,156.48169726104257
7.416,0.9999846431173115,156.09831551977967
7.4239999999999995,0.9999845003268878,155.7148520530757
7.432,0.9999843633868181,155.331305142277
7.4399999999999995,0.9999842322648057,154.9476730714307
7.448,0.9999841069268086,154.56395412734068
7.4559999999999995,0.9999839873370742,154.1801465996241
7.464,0.9999838734581783,153.7962487807674
7.4719999999999995,0.9999837652510617,153.4122589661836
7.48,0.9999836626750656,153.02817545426808
7.4879999999999995,0.9999835656879662,152.64399654645615
7.496,0.9999834742460142,152.2597205472794
7.504,0.9999833883039657,151.87534576442303
7.5120000000000005,0.9999833078151207,151.49087050878293
7.52,0.9999832327313563,151.1062930945231
7.5280000000000005,0.999983163003161,150.72161183913266
7.536,0.9999830985796706,150.33682506348424
7.5440000000000005,0.999983039408701,149.95193109189077
7.552,0.9999829854367807,149.56692825216436
7.5600000000000005,0.9999829366091878,149.18181487567338
7.568,0.99998289286998,148.79658929740162
7.5760000000000005,0.9999828541620284,148.4112498560058
7.584,0.9999828204270518,148.02579489387503
7.5920000000000005,0.9999827916056464,147.6402227571886
7.6,0.9999827676373201,147.25453179597585
7.6080000000000005,0.9999827484605227,146.86872036417432
7.616,0.9999827340126806,146.48278681969003
7.6240000000000006,0.999982724230223,146.09672952445595
7.632,0.9999827190486181,145.71054684449263
7.640000000000001,0.9999827184024015,145.32423714996725
7.648,0.999982722225206,144.93779881525438
7.656000000000001,0.9999827304497944,144.55123021899564
7.664,0.9999827430080871,144.16452974416086
7.672,0.9999827598311941,143.77769577810807
7.68,0.9999827808494421,143.39072671264503
7.688,0.9999828059924061,143.00362094409004
7.696,0.999982835188937,142.61637687333334
7.704,0.9999828683671914,142.22899290589882
7.712,0.9999829054546585,141.84146745200565
7.72,0.9999829463781909,141.45379892663055
7.728,0.9999829910640299,141.06598574956988
7.736,0.999983039437835,140.67802634550225
7.744,0.9999830914247109,140.28991914405125
7.752,0.9999831469492358,139.9016625798485
7.76,0.9999832059354863,139.51325509259692
7.768,0.9999832683070655,139.12469512713395
7.776,0.9999833339871307,138.7359811334958
7.784,0.9999834028984166,138.34711156698103
7.792,0.9999834749632646,137.95808488821484
7.8,0.9999835501036468,137.56889956321382
7.808,0.9999836282411922,137.1795540634505
7.816,0.9999837092972109,136.79004686591853
7.824,0.999983793192721,136.40037645319777
7.832,0.9999838798484725,136.01054131352015
7.84,0.9999839691849712,135.6205399408351
7.848,0.9999840611225047,135.23037083487603
7.856,0.9999841555811649,134.84003250122643
7.864,0.9999842524808734,134.44952345138668
7.872,0.9999843517414035,134.05884220284074
7.88,0.9999844532824048,133.6679872791235
7.888,0.9999845570234265,133.27695720988828
7.896,0.9999846628839394,132.88575053097435
7.904,0.9999847707833596,132.49436578447512
7.912,0.9999848806410699,132.1028015188063
7.92,0.999984992376443,131.71105628877459
7.928,0.9999851059088632,131.31912865564638
7.936,0.9999852211577483,130.92701718721696
7.944,0.9999853380425707,130.53472045787998
7.952,0.9999854564828792,130.14223704869696
7.96,0.99998557639832,129.74956554746734
7.968,0.9999856977086571,129.35670454879877
7.976,0.9999858203337936,128.96365265417765
7.984,0.9999859441937922,128.57040847203973
7.992,0.9999860692088944,128.17697061784153
8.0,0.9999861952995412,127.78333771413138
8.008,0.9999863223863931,127.38950839062127
8.016,0.9999864503903485,126.99548128425862
8.024000000000001,0.9999865792325638,126.60125503929872
8.032,0.9999867088344734,126.20682830737707
8.04,0.9999868391178062,125.81219974758197
8.048,0.9999869700046049,125.4173680265278
8.056000000000001,0.9999871014172466,125.02233181842823
8.064,0.9999872332784582,124.62708980517004
8.072,0.9999873655113357,124.23164067638643
8.08,0.9999874980393614,123.83598312953153
8.088000000000001,0.9999876307864214,123.44011586995494
8.096,0.9999877636768233,123.04403761097609
8.104,0.9999878966353131,122.64774707395917
8.112,0.999988029587091,122.25124298838838
8.120000000000001,0.9999881624578303,121.85452409194363
8.128,0.9999882951736909,121.45758913057595
8.136,0.9999884276613378,121.06043685858337
8.144,0.999988559847956,120.66306603868739
8.152000000000001,0.9999886916612656,120.26547544210943
8.16,0.9999888230295388,119.86766384864758
8.168,0.9999889538816145,119.46963004675317
8.176,0.9999890841469125,119.0713728336084
8.184000000000001,0.9999892137554495,118.67289101520369
8.192,0.9999893426378533,118.27418340641542
8.2,0.9999894707253769,117.87524883108355
8.208,0.9999895979499136,117.47608612208988
8.216000000000001,0.9999897242440091,117.07669412143673
8.224,0.999989849540878,116.67707168032521
8.232,0.9999899737744142,116.27721765923393
8.24,0.9999900968792069,115.8771309279982
8.248000000000001,0.9999902187905516,115.47681036588928
8.256,0.9999903394444647,115.0762548616938
8.264,0.999990458777695,114.6754633137931
8.272,0.999990576727736,114.27443463024326
8.280000000000001,0.9999906932328393,113.87316772885524
8.288,0.9999908082320256,113.47166153727487
8.296,0.999990921665096,113.06991499306315
8.304,0.999991033472645,112.6679270437768
8.312,0.999991143596071,112.26569664704928
8.32,0.9999912519775873,111.86322277067107
8.328,0.9999913585602331,111.46050439267135
8.336,0.9999914632878847,111.05754050139848
8.344,0.9999915661052644,110.65433009560192
8.352,0.9999916669579535,110.25087218451311
8.36,0.9999917657923987,109.84716578792758
8.368,0.9999918625559258,109.44320993628605
8.376,0.9999919571967455,109.0390036707569
8.384,0.9999920496639664,108.6345460433173
8.392,0.9999921399076003,108.22983611683608
8.4,0.9999922278785749,107.82487296515501
8.408,0.9999923135287396,107.41965567317169
8.416,0.9999923968108756,107.01418333692116
8.424,0.9999924776787038,106.60845506365897
8.432,0.9999925560868925,106.20246997194275
8.44,0.9999926319910649,105.79622719171547
8.448,0.9999927053478082,105.38972586438724
8.456,0.9999927761146793,104.98296514291849
8.464,0.9999928442502128,104.57594419190174
8.472,0.9999929097139282,104.16866218764514
8.48,0.9999929724663356,103.76111831825408
8.488,0.9999930324689431,103.35331178371462
8.496,0.9999930896842628,102.94524179597532
8.504,0.9999931440758164,102.53690757903051
8.512,0.9999931956081425,102.12830836900217
8.52,0.9999932442467999,101.719443414223
8.528,0.9999932899583753,101.31031197531821
8.536,0.9999933327104864,100.90091332528867
8.544,0.9999933724717885,100.49124674959239
8.552,0.9999934092119785,100.08131154622757
8.56,0.9999934429017995,99.67110702581398
8.568,0.9999934735130442,99.26063251167562
8.576,0.9999935010185617,98.84988733992213
8.584,0.9999935253922568,98.43887085953105
8.592,0.9999935466090981,98.02758243242899
8.6,0.9999935646451191,97.61602143357365
8.608,0.9999935794774214,97.20418725103463
8.616,0.999993591084178,96.7920792860752
8.624,0.9999935994446361,96.37969695323262
8.632,0.9999936045391196,95.96703968039968
8.64,0.9999936063490301,95.55410690890449
8.648,0.9999936048568522,95.14089809359162
8.656,0.9999936000461509,94.72741270290147
8.664,0.9999935919015771,94.31365021895095
8.672,0.9999935804088661,93.89961013761227
8.68,0.9999935655548402,93.48529196859305
8.688,0.9999935473274097,93.07069523551465
8.696,0.9999935257155733,92.65581947599169
8.704,0.9999935007094176,92.24066424170968
8.712,0.9999934723001191,91.82522909850391
8.72,0.9999934404799429,91.40951362643648
8.728,0.9999934052422431,90.99351741987442
8.736,0.9999933665814618,90.57724008756601
8.744,0.9999933244931286,90.16068125271818
8.752,0.9999932789738609,89.74384055307192
8.76,0.999993230021361,89.32671764097898
8.768,0.9999931776344154,88.90931218347644
8.776,0.999993121812894,88.49162386236246
8.784,0.9999930625577471,88.07365237426998
8.792,0.9999929998710043,87.65539743074147
8.8,0.9999929337557721,87.23685875830176
8.808,0.9999928642162307,86.81803609853173
8.815999999999999,0.9999927912576325,86.39892920814025
8.824,0.9999927148862982,85.9795378590362
8.832,0.9999926351096139,85.5598618384003
8.84,0.9999925519360285,85.13990094875557
8.847999999999999,0.9999924653750494,84.71965500803738
8.856,0.9999923754372382,84.29912384966337
8.864,0.9999922821342077,83.8783073226025
8.872,0.9999921854786176,83.45720529144334
8.879999999999999,0.9999920854841694,83.03581763646149
8.888,0.999991982165602,82.61414425368689
8.896,0.9999918755386868,82.19218505497025
8.904,0.9999917656202227,81.76993996804866
8.911999999999999,0.999991652428031,81.34740893661012
8.92,0.9999915359809486,80.92459192035807
8.928,0.999991416298824,80.50148889507486
8.936,0.9999912934025103,80.07809985268432
8.943999999999999,0.9999911673138586,79.65442480131334
8.952,0.9999910380557129,79.23046376535314
8.96,0.999990905651902,78.80621678551961
8.968,0.9999907701272339,78.38168391891256
8.975999999999999,0.9999906315074879,77.95686523907396
8.984,0.9999904898194073,77.53176083604578
8.992,0.9999903450906924,77.10637081642689
9.0,0.999990197349993,76.68069530342865
9.008,0.9999900466268993,76.2547344369296
9.016,0.9999898929519356,75.82848837352958
9.024000000000001,0.9999897363565502,75.40195728660284
9.032,0.9999895768731076,74.97514136634969
9.04,0.99998941453488,74.54804081984744
9.048,0.9999892493760387,74.12065587110035
9.056000000000001,0.9999890814316434,73.6929867610888
9.064,0.9999889107376349,73.26503374781673
9.072,0.9999887373308235,72.83679710635836
9.08,0.9999885612488807,72.40827712890385
9.088000000000001,0.9999883825303296,71.97947412480413
9.096,0.9999882012145332,71.55038842061388
9.104,0.9999880173416851,71.12102036013378
9.112,0.9999878309527988,70.6913703044516
9.120000000000001,0.9999876420896969,70.26143863198216
9.128,0.9999874507950008,69.83122573850598
9.136,0.9999872571121184,69.40073203720632
9.144,0.9999870610852342,68.9699579587056
9.152000000000001,0.9999868627592965,68.53890395110051
9.16,0.9999866621800069,68.10757047999536
9.168,0.9999864593938077,67.67595802853423
9.176,0.9999862544478708,67.24406709743222
9.184000000000001,0.9999860473900847,66.81189820500519
9.192,0.9999858382690422,66.37945188719796
9.2,0.9999856271340283,65.94672869761092
9.208,0.9999854140350068,65.51372920752597
9.216000000000001,0.9999851990226093,65.08045400593065
9.224,0.9999849821481194,64.64690369954073
9.232,0.9999847634634618,64.21307891282129
9.24,0.9999845430211878,63.77898028800671
9.248000000000001,0.9999843208744619,63.344608485119146
9.256,0.9999840970770489,62.90996418198526
9.264,0.9999838716832997,62.47504807425125
9.272,0.9999836447481365,62.039860875396904
9.280000000000001,0.9999834163270398,61.604403316747984
9.288,0.9999831864760335,61.16867614748678
9.296,0.9999829552516714,60.732680134660995
9.304,0.9999827227110203,60.296416063191415
9.312000000000001,0.9999824889116495,59.8598847358781
9.32,0.9999822539116118,59.42308697340432
9.328,0.9999820177694304,58.986023614339146
9.336,0.9999817805440842,58.548695515138576
9.344,0.9999815422949923,58.11110355014511
9.352,0.9999813030819975,57.67324861158464
9.36,0.9999810629653529,57.235131609563204
9.368,0.9999808220057047,56.796753472060416
9.376,0.9999805802640778,56.35811514492271
9.384,0.9999803378018588,55.919217591853176
9.392,0.9999800946807809,55.480061794401394
9.4,0.9999798509629073,55.04064875194983
9.408,0.9999796067106168,54.60097948169994
9.416,0.9999793619865845,54.16105501865508
9.424,0.9999791168537697,53.720876415602945
9.432,0.999978871375395,53.28044474309479
9.44,0.9999786256149334,52.839761089424385
9.448,0.9999783796360906,52.39882656060335
9.456,0.9999781335027877,51.95764228033645
9.464,0.9999778872791454,51.51620938999323
9.472,0.9999776410294665,51.074529048579485
9.48,0.9999773948182208,50.632602432705205
9.488,0.9999771487100255,50.19043073655211
9.496,0.9999769027696309,49.748015171837764
9.504,0.9999766570619016,49.305356967779524
9.512,0.9999764116518011,48.8624573710544
9.52,0.9999761666043723,48.4193176457593
9.528,0.9999759219847231,47.97593907336711
9.536,0.9999756778580076,47.532322952682755
9.544,0.999975434289409,47.08847059979546
9.552,0.9999751913441237,46.64438334803089
9.56,0.999974949087342,46.20006254789943
9.568,0.9999747075842317,45.75550956704421
9.576,0.999974466899922,45.310725790185444
9.584,0.9999742270994848,44.86571261906459
9.592,0.9999739882479179,44.42047147238443
9.6,0.9999737504101265,43.975003785749216
9.608,0.9999735136509086,43.5293110116009
9.616,0.9999732780349352,43.08339461915497
9.624,0.9999730436267337,42.63725609433269
9.632,0.9999728104906713,42.190896939692955
9.64,0.9999725786909374,41.744318674360265
9.648,0.9999723482915255,41.29752283395259
9.656,0.9999721193562172,40.85051097050523
9.664,0.9999718919485643,40.40328465239451
9.672,0.999971666131872,39.955845464257614
9.68,0.9999714419691815,39.50819500691206
9.688,0.9999712195232537,39.06033489727151
9.696,0.9999709988565514,38.61226676826103
9.704,0.9999707800312223,38.163992268728855
9.712,0.9999705631090822,37.71551306335748
9.72,0.9999703481515995,37.2668308325713
9.728,0.9999701352198763,36.81794727244362
9.736,0.9999699243746333,36.368864094600085
9.744,0.9999697156761925,35.91958302612169
9.752,0.9999695091844611,35.47010580944407
9.76,0.9999693049589151,35.0204342022563
9.768,0.9999691030585817,34.5705699773962
9.776,0.9999689035420253,34.12051492274503
9.784,0.9999687064673297,33.6702708411187
