freq,mag,phase
6.0,1.0,31.71792036900309
6.008,1.0,31.457422676439744
6.016,1.0,31.19674614734771
6.024,0.9999996874414931,30.935891288737068
6.032,0.9999988090199203,30.674858612052724
6.04,0.9999979207417786,30.413648633174883
6.048,0.9999970231774381,30.1522618724194
6.056,0.999996116889718,29.890698854537828
6.064,0.9999952024338995,29.628960108717262
6.072,0.9999942803577438,29.36704616857984
6.08,0.9999933512015081,29.104957572182098
6.088,0.9999924154979629,28.842694862013946
6.096,0.999991473772409,28.58025858499747
6.104,0.9999905265426969,28.317649292485456
6.112,0.9999895743192438,28.05486754025959
6.12,0.9999886176050535,27.79191388852848
6.128,0.9999876568957359,27.52878890192533
6.136,0.9999866926795268,27.265493149505446
6.144,0.9999857254373078,27.002027204743346
6.152,0.9999847556426285,26.738391645529692
6.16,0.9999837837617259,26.47458705416791
6.168,0.9999828102535481,26.210614017370585
6.176,0.9999818355697758,25.94647312625551
6.184,0.9999808601548448,25.682164976341518
6.192,0.9999798844459693,25.41769016754397
6.2,0.999978908873166,25.15304930417008
6.208,0.9999779338592779,24.888242994913853
6.216,0.9999769598199998,24.623271852850735
6.224,0.9999759871639008,24.35813649543213
6.232,0.9999750162924531,24.09283754447947
6.24,0.9999740476000559,23.827375626178036
6.248,0.9999730814740622,23.56175137107059
6.256,0.9999721182948067,23.29596541405063
6.264,0.9999711584356311,23.030018394355373
6.272,0.9999702022629148,22.763910955558462
6.28,0.9999692501360999,22.49764374556241
6.288,0.999968302407723,22.2312174165907
6.296,0.9999673594234417,21.964632625179675
6.304,0.9999664215220665,21.697890032170022
6.312,0.9999654890355888,21.430990302698117
6.32,0.9999645622892132,21.163934106186904
6.328,0.9999636416013868,20.896722116336665
6.336,0.9999627272838328,20.62935501111533
6.344,0.9999618196415795,20.361833472748607
6.352,0.9999609189729946,20.09415818770977
6.36,0.9999600255698176,19.826329846709168
6.368,0.9999591397171922,19.55834914468342
6.376,0.9999582616937007,19.29021678078435
6.384,0.9999573917713973,19.021933458367545
6.392,0.9999565302158429,18.753499884980783
6.4,0.9999556772861398,18.484916772351927
6.408,0.999954833234967,18.216184836376733
6.416,0.999953998308616,17.947304797106266
6.424,0.9999531727470268,17.678277378733977
6.432,0.9999523567838243,17.409103309582623
6.44,0.9999515506463548,17.139783322090704
6.448,0.9999507545557247,16.870318152798763
6.456,0.9999499687268364,16.600708542335294
6.464,0.9999491933684285,16.330955235402346
6.472,0.9999484286831121,16.061058980760937
6.48,0.9999476748674109,15.791020531216015
6.4879999999999995,0.9999469321118012,15.520840643601234
6.496,0.9999462006007497,15.250520078763286
6.504,0.9999454805127553,14.980059601546339
6.5120000000000005,0.999944772020389,14.709459980775408
6.52,0.999944075290334,14.438721989240399
6.5280000000000005,0.9999433904834284,14.167846403678865
6.536,0.999942717754705,13.896834004759413
6.5440000000000005,0.9999420572534349,13.625685577063887
6.552,0.9999414091231691,13.35440190907016
6.5600000000000005,0.9999407735017805,13.082983793133744
6.568,0.9999401505215078,12.81143202546997
6.5760000000000005,0.9999395403089989,12.539747406134993
6.584,0.9999389429853542,12.2679307390074
6.592,0.999938358666171,11.995982831768632
6.6,0.9999377874615869,11.723904495883877
6.608,0.9999372294763261,11.451696546582156
6.616,0.9999366848097437,11.179359802836352
6.624,0.9999361535558705,10.906895087342876
6.632,0.9999356358034596,10.634303226501029
6.64,0.9999351316360319,10.361585050392113
6.648,0.9999346411319227,10.088741392758214
6.656,0.999934164364328,9.815773090980697
6.664,0.9999337014013523,9.54268098605843
6.672,0.999933252306054,9.269465922585693
6.68,0.9999328171364955,8.996128748729816
6.688,0.9999323959457882,8.72267031620852
6.696,0.9999319887821432,8.449091480266956
6.704,0.9999315956889178,8.175393099654498
6.712,0.999931216704665,7.90157603660121
6.72,0.9999308518631816,7.6276411567940485
6.728,0.9999305011935593,7.353589329352754
6.736,0.9999301647202314,7.07942142680552
6.744,0.9999298424630242,6.805138325064302
6.752,0.9999295344372069,6.530740903399929
6.76,0.9999292406535412,6.256230044416843
6.768,0.9999289611183317,5.981606634027661
6.776,0.9999286958334767,5.706871561427373
6.784,0.9999284447965192,5.432025719067316
6.792,0.9999282080006977,5.1570700026288705
6.8,0.9999279854349972,4.882005310996862
6.808,0.9999277770842017,4.606832546232707
6.816,0.9999275829289437,4.331552613547286
6.824,0.9999274029457593,4.056166421273556
6.832,0.999927237107137,3.780674880838889
6.84,0.999927085381572,3.5050789067371393
6.848,0.9999269477336178,3.2293794165004632
6.856,0.9999268241239384,2.953577330670879
6.864,0.999926714509363,2.6776735727715315
6.872,0.9999266188429348,2.4016690692777622
6.88,0.9999265370739693,2.125564749587846
6.888,0.9999264691481029,1.8493615459935566
6.896,0.999926415007349,1.5730603936503955
6.904,0.9999263745901505,1.2966622305476643
6.912,0.9999263478314329,1.0201679974781803
6.92,0.9999263346626588,0.74357863800784
6.928,0.9999263350118814,0.46689509844488836
6.936,0.9999263488037978,0.19011832780895407
6.944,0.9999263759598045,-0.08675072220013935
6.952,0.9999264163980504,-0.3637110972338186
6.96,0.9999264700334893,-0.6407618403264586
6.968,0.9999265367779386,-0.9179019919272485
6.976,0.9999266165401292,-1.1951305899323745
6.984,0.9999267092257618,-1.4724466697173617
6.992,0.999926814737562,-1.7498492641696861
7.0,0.9999269329753327,-2.027337403721612
7.008,0.9999270638360113,-2.3049101163831867
7.016,0.9999272072137219,-2.5825664277755567
7.024,0.9999273629998309,-2.8603053611644293
7.032,0.9999275310830018,-3.138125937493763
7.04,0.9999277113492496,-3.4160271754197082
7.048,0.9999279036819958,-3.6940080913446875
7.056,0.999928107962122,-3.972067699451722
7.064,0.9999283240680257,-4.250205011739013
7.072,0.9999285518756744,-4.528419038054648
7.08,0.9999287912586607,-4.8067087861314945
7.088,0.9999290420882557,-5.085073261622394
7.096,0.9999293042334649,-5.36351146813548
7.104,0.9999295775610824,-5.642022407269643
7.112,0.999929861935744,-5.920605078650283
7.12,0.9999301572199847,-6.199258479965177
7.128,0.9999304632742896,-6.477981607000565
7.136,0.9999307799571499,-6.756773453677427
7.144,0.9999311071251179,-7.035633012087842
7.152,0.9999314446328588,-7.314559272531673
7.16,0.9999317923332074,-7.5935512235533125
7.168,0.9999321500772199,-7.872607851978598
7.176,0.9999325177142291,-8.151728142951965
7.184,0.999932895091898,-8.430911079973711
7.192,0.9999332820562714,-8.710155644937425
7.2,0.9999336784518333,-8.989460818167545
7.208,0.9999340841215569,-9.26882557845717
7.216,0.9999344989069592,-9.548248903105863
7.224,0.9999349226481533,-9.827729767957766
7.232,0.9999353551839034,-10.107267147439737
7.24,0.9999357963516742,-10.3868600145997
7.248,0.9999362459876868,-10.666507341145051
7.256,0.9999367039269689,-10.946208097481327
7.264,0.9999371700034084,-11.225961252750883
7.272,0.999937644049805,-11.505765774871744
7.28,0.999938125897922,-11.785620630576606
7.288,0.9999386153785373,-12.065524785451897
7.296,0.9999391123214969,-12.345477203977019
7.304,0.9999396165557635,-12.625476849563658
7.312,0.9999401279094702,-12.905522684595244
7.32,0.9999406462099686,-13.185613670466461
7.328,0.9999411712838824,-13.465748767622937
7.336,0.9999417029571552,-13.745926935600956
7.344,0.9999422410551014,-14.026147133067354
7.352,0.9999427854024567,-14.306408317859384
7.36,0.9999433358234273,-14.586709447024822
7.368,0.9999438921417381,-14.867049476862034
7.376,0.9999444541806839,-15.147427362960219
7.384,0.9999450217631763,-15.427842060239628
7.392,0.9999455947117933,-15.708292522991972
7.4,0.9999461728488266,-15.988777704920837
7.4079999999999995,0.9999467559963306,-16.269296559182127
7.416,0.9999473439761692,-16.549848038424802
7.4239999999999995,0.9999479366100625,-16.83043109483116
7.432,0.9999485337196357,-17.111044680157978
7.4399999999999995,0.9999491351264639,-17.391687745776732
7.448,0.999949740652119,-17.672359242714926
7.4559999999999995,0.999950350118216,-17.95305812169638
7.464,0.9999509633464584,-18.23378333318264
7.4719999999999995,0.9999515801586836,-18.514533827413388
7.48,0.9999522003769074,-18.795308554447875
7.4879999999999995,0.9999528238233693,-19.076106464205427
7.496,0.9999534503205761,-19.35692650650696
7.504,0.9999540796913463,-19.63776763111552
7.5120000000000005,0.9999547117588532,-19.918628787777845
7.52,0.9999553463466678,-20.19950892626494
7.5280000000000005,0.9999559832788025,-20.480406996413667
7.536,0.9999566223797525,-20.761321948167367
7.5440000000000005,0.9999572634745374,-21.04225273161748
7.552,0.9999579063887447,-21.32319829704413
7.5600000000000005,0.9999585509485684,-21.604157594957744
7.568,0.9999591969808513,-21.88512957613972
7.5760000000000005,0.9999598443131252,-22.166113191683955
7.584,0.9999604927736502,-22.447107393037474
7.5920000000000005,0.9999611421914545,-22.72811113204203
7.6,0.9999617923963735,-23.009123360974623
7.6080000000000005,0.9999624432190887,-23.29014303258907
7.616,0.9999630944911648,-23.571169100156464
7.6240000000000006,0.9999637460450883,-23.852200517506766
7.632,0.9999643977143053,-24.133236239069113
7.640000000000001,0.9999650493332568,-24.414275219913335
7.648,0.9999657007374155,-24.695316415790273
7.656000000000001,0.9999663517633238,-24.97635878317316
7.664,0.9999670022486258,-25.257401279297827
7.672,0.9999676520321046,-25.53844286220396
7.68,0.9999683009537166,-25.819482490775385
7.688,0.9999689488546246,-26.100519124780924
7.696,0.9999695955772318,-26.381551724914793
7.704,0.9999702409652158,-26.662579252837165
7.712,0.9999708848635592,-26.943600671214607
7.72,0.9999715271185836,-27.224614943760393
7.728,0.9999721675779802,-27.505621035274736
7.736,0.9999728060908408,-27.78661791168506
7.744,0.9999734425076894,-28.067604540086037
7.752,0.999974076680511,-28.348579888779657
7.76,0.9999747084627818,-28.62954292731513
7.768,0.9999753377094985,-28.910492626528697
7.776,0.999975964277207,-29.191427958583443
7.784,0.9999765880240296,-29.472347897008852
7.792,0.9999772088096929,-29.753251416740383
7.8,0.9999778264955552,-30.034137494158927
7.808,0.9999784409446332,-30.31500510713003
7.816,0.9999790520216268,-30.5958532350432
7.824,0.9999796595929462,-30.876680858850897
7.832,0.9999802635267345,-31.157486961107594
7.84,0.9999808636928952,-31.43827052600852
7.848,0.9999814599631128,-31.71903053942845
7.856,0.999982052210879,-31.999765988960192
7.864,0.9999826403115133,-32.28047586395316
7.872,0.9999832241421863,-32.56115915555157
7.88,0.9999838035819417,-32.84181485673267
7.888,0.9999843785117164,-33.12244196234478
7.896,0.9999849488143618,-33.40303946914508
7.904,0.9999855143746643,-33.68360637583747
7.912,0.9999860750793638,-33.96414168311003
7.92,0.9999866308171736,-34.24464439367253
7.928,0.9999871814787986,-34.525113512293615
7.936,0.9999877269569526,-34.80554804583795
7.944,0.9999882671463767,-35.0859470033032
7.952,0.9999888019438553,-35.366309395856646
7.96,0.9999893312482329,-35.64663423687196
7.968,0.9999898549604291,-35.92692054196554
7.976,0.9999903729834545,-36.20716732903272
7.984,0.9999908852224249,-36.48737361828391
7.992,0.9999913915845756,-36.76753843228041
8.0,0.9999918919792746,-37.04766079597021
8.008,0.9999923863180361,-37.327739736723345
8.016,0.9999928745145319,-37.607774284367466
8.024000000000001,0.9999933564846043,-37.88776347122262
8.032,0.9999938321462774,-38.16770633213641
8.04,0.9999943014197664,-38.447601904518756
8.048,0.9999947642274899,-38.72744922837638
8.056000000000001,0.9999952204940784,-39.007247346346965
8.064,0.999995670146383,-39.286995303733434
8.072,0.9999961131134848,-39.566692148537975
8.08,0.9999965493267029,-39.84633693149552
8.088000000000001,0.9999969787196016,-40.12592870610729
8.096,0.9999974012279966,-40.40546652867403
8.104,0.9999978167899638,-40.68494945832928
8.112,0.9999982253458417,-40.96437655707199
8.120000000000001,0.9999986268382397,-41.2437468897991
8.128,0.9999990212120413,-41.52305952433796
8.136,0.9999994084144088,-41.80231353147866
8.144,0.999999788394787,-42.0815079850058
8.152000000000001,1.0,-42.360641961730074
8.16,1.0,-42.639714541519815
8.168,0.9999999999999999,-42.91872480733237
8.176,0.9999999999999999,-43.197671845244955
8.184000000000001,1.0,-43.476554744485256
8.192,1.0,-43.75537259746202
8.2,0.9999999999999999,-44.0341244997955
8.208,0.9999999999999999,-44.312809550347254
8.216000000000001,1.0,-44.59142685124985
8.224,1.0,-44.86997550793648
8.232,0.9999999999999999,-45.148454629170274
8.24,1.0,-45.42686332707324
8.248000000000001,1.0,-45.70520071715488
8.256,0.9999999999999999,-45.98346591834076
8.264,1.0,-46.26165805300091
8.272,1.0,-46.53977624697762
8.280000000000001,1.0,-46.817819629613055
8.288,1.0,-47.0957873337768
8.296,1.0,-47.373678495893174
8.304,0.9999999999999999,-47.65149225596799
8.312,1.0,-47.929227757615
8.32,0.9999999999999999,-48.206884148082814
8.328,1.0,-48.484460578280306
8.336,1.0,-48.76195620280309
8.344,1.0,-49.039370179958524
8.352,0.9999999999999999,-49.3167016717915
8.36,1.0,-49.59394984410889
8.368,1.0,-49.871113866504864
8.376,1.0,-50.1481929123848
8.384,0.9999999999999999,-50.425186158989895
8.392,0.9999999999999999,-50.702092787420604
8.4,1.0,-50.9789119826608
8.408,0.9999999999999999,-51.25564293360043
8.416,1.0,-51.53228483305924
8.424,1.0,-51.80883687780892
8.432,1.0,-52.08529826859614
8.44,0.9999999999999999,-52.36166821016415
8.448,0.9999999999999999,-52.63794591127521
8.456,1.0,-52.91413058473178
8.464,0.9999999999999999,-53.19022144739823
8.472,1.0,-53.46621772022141
8.48,1.0,-53.742118628251944
8.488,1.0000000000000002,-54.017923400664095
8.496,1.0,-54.2936312707765
8.504,0.9999999999999999,-54.569241476071504
8.512,1.0,-54.84475325821528
8.52,0.9999999999999999,-55.12016586307652
8.528,0.9999999999999999,-55.39547854074608
8.536,0.9999999999999999,-55.67069054555506
8.544,1.0,-55.94580113609375
8.552,1.0,-56.22080957522926
8.56,1.0,-56.49571513012387
8.568,1.0,-56.77051707225198
8.576,1.0,-57.04521467741789
8.584,1.0,-57.319807225772294
8.592,0.9999999999999999,-57.594294001829326
8.6,0.9999999999999999,-57.86867429448247
8.608,1.0,-58.142947397021146
8.616,1.0,-58.4171126071459
8.624,0.9999999999999999,-58.691169226984435
8.632,1.0,-58.96511656310628
8.64,1.0,-59.238953926538095
8.648,1.0,-59.51268063277791
8.656,1.0,-59.78629600180978
8.664,0.9999999999999999,-60.05979935811735
8.672,0.9999999999999999,-60.33319003069807
8.68,0.9999999999999999,-60.60646735307607
8.688,0.9999999999999999,-60.879630663315815
8.696,0.9999999999999999,-61.15267930403442
8.704,0.9999999999999999,-61.42561262241472
8.712,1.0,-61.69842997021695
8.72,0.9999999999999999,-61.971130703791296
8.728,1.0,-62.243714184088965
8.736,1.0,-62.51617977667412
8.744,1.0,-62.78852685173447
8.752,1.0,-63.060754784092516
8.76,1.0,-63.33286295321562
8.768,1.0000000000000002,-63.60485074322669
8.776,0.9999999999999999,-63.87671754291365
8.784,1.0,-64.14846274573954
8.792,1.0,-64.42008574985141
8.8,1.0,-64.6915859580899
8.808,0.9999999999999999,-64.96296277799757
8.815999999999999,1.0,-65.23421562182777
8.824,1.0,-65.50534390655271
8.832,1.0000000000000002,-65.77634705387135
8.84,0.9999999999999999,-66.04722449021712
8.847999999999999,1.0,-66.31797564676546
8.856,1.0,-66.5885999594408
8.864,1.0,-66.85909686892327
8.872,1.0,-67.12946582065544
8.879999999999999,0.9999999999999999,-67.3997062648486
8.888,1.0,-67.66981765648879
8.896,0.9999999999999999,-67.93979945534225
8.904,1.0,-68.2096511259612
8.911999999999999,1.0,-68.47937213768897
8.92,1.0,-68.74896196466491
8.928,1.0,-69.01842008582892
8.936,1.0,-69.28774598492588
8.943999999999999,1.0,-69.55693915050998
8.952,0.9999999999999998,-69.82599907594842
8.96,0.9999999999999999,-70.09492525942485
8.968,1.0,-70.36371720394293
8.975999999999999,0.9999999999999999,-70.63237441732933
8.984,1.0,-70.90089641223663
8.992,1.0,-71.16928270614565
9.0,0.9999999999999998,-71.43753282136781
9.008,0.9999999999999999,-71.70564628504742
9.016,1.0,-71.97362262916326
9.024000000000001,0.9999998413636626,-72.24146139053
9.032,0.9999995913567965,-72.50916211079968
9.04,0.9999993406099194,-72.77672433646275
9.048,0.9999990892465067,-73.04414761884884
9.056000000000001,0.9999988373901718,-73.31143151412714
9.064,0.9999985851646361,-73.57857558330677
9.072,0.9999983326936988,-73.8455793922371
9.08,0.9999980801012059,-74.11244251160724
9.088000000000001,0.9999978275110221,-74.37916451694569
9.096,0.9999975750469978,-74.64574498861965
9.104,0.999997322832942,-74.91218351183434
9.112,0.9999970709925902,-75.17847967663165
9.120000000000001,0.9999968196495751,-75.44463307788878
9.128,0.9999965689273974,-75.71064331531663
9.136,0.9999963189493948,-75.97650999345818
9.144,0.999996069838712,-76.24223272168624
9.152000000000001,0.9999958217182736,-76.50781111420113
9.16,0.9999955747107505,-76.77324479002824
9.168,0.9999953289385335,-77.03853337301544
9.176,0.999995084523702,-77.30367649183
9.184000000000001,0.9999948415879959,-77.56867377995529
9.192,0.9999946002527855,-77.83352487568754
9.2,0.9999943606390423,-78.09822942213239
9.208,0.9999941228673102,-78.36278706720084
9.216000000000001,0.9999938870576754,-78.62719746360523
9.224,0.9999936533297403,-78.89146026885504
9.232,0.9999934218025918,-79.15557514525267
9.24,0.9999931925947738,-79.4195417598885
9.248000000000001,0.999992965824259,-79.68335978463612
9.256,0.9999927416084201,-79.94702889614723
9.264,0.9999925200640017,-80.21054877584659
9.272,0.9999923013070923,-80.47391910992641
9.280000000000001,0.9999920854530959,-80.73713958934064
9.288,0.9999918726167043,-81.00020990979914
9.296,0.9999916629118708,-81.26312977176191
9.304,0.9999914564517803,-81.52589888043258
9.312000000000001,0.9999912533488244,-81.78851694575202
9.32,0.9999910537145722,-82.05098368239175
9.328,0.9999908576597444,-82.31329880974735
9.336,0.9999906652941863,-82.57546205193132
9.344,0.9999904767268423,-82.83747313776581
9.352,0.9999902920657268,-83.09933180077566
9.36,0.9999901114179005,-83.3610377791804
9.368,0.9999899348894425,-83.62259081588718
9.376,0.9999897625854262,-83.88399065848226
9.384,0.9999895946098925,-84.1452370592236
9.392,0.9999894310658244,-84.40632977503213
9.4,0.9999892720551219,-84.66726856748394
9.408,0.9999891176785773,-84.9280532028012
9.416,0.9999889680358498,-85.188683451844
9.424,0.9999888232254414,-85.44915909010103
9.432,0.9999886833446723,-85.70947989768113
9.44,0.9999885484896573,-85.9696456593035
9.448,0.9999884187552804,-86.22965616428894
9.456,0.9999882942351733,-86.48951120655002
9.464,0.9999881750216898,-86.74921058458177
9.472,0.9999880612058838,-87.00875410145164
9.48,0.9999879528774874,-87.26814156478984
9.488,0.9999878501248856,-87.52737278677904
9.496,0.9999877530350957,-87.7864475841445
9.504,0.9999876616937446,-88.04536577814333
9.512,0.999987576185048,-88.3041271945546
9.52,0.9999874965917859,-88.562731663668
9.528,0.9999874229952844,-88.82117902027387
9.536,0.9999873554753932,-89.07946910365172
9.544,0.9999872941104638,-89.33760175755967
9.552,0.9999872389773309,-89.59557683022298
9.56,0.9999871901512903,-89.85339417432318
9.568,0.9999871477060808,-90.11105364698628
9.576,0.9999871117138625,-90.36855510977172
9.584,0.9999870822451983,-90.62589842866032
9.592,0.9999870593690351,-90.883083474043
9.6,0.9999870431526844,-91.14011012070854
9.608,0.999987033661804,-91.39697824783198
9.616,0.9999870309603792,-91.65368773896219
9.624,0.9999870351107067,-91.91023848201014
9.632,0.9999870461733739,-92.16663036923615
9.64,0.9999870642072438,-92.42286329723797
9.648,0.9999870892694384,-92.67893716693783
9.656,0.9999871214153199,-92.93485188357039
9.664,0.9999871606984756,-93.19060735666947
9.672,0.9999872071707021,-93.44620350005587
9.68,0.9999872608819886,-93.70164023182396
9.688,0.9999873218805027,-93.95691747432915
9.696,0.9999873902125737,-94.21203515417449
9.704,0.9999874659226794,-94.46699320219788
9.712,0.9999875490534302,-94.72179155345843
9.72,0.9999876396455566,-94.97643014722361
9.728,0.9999877377378942,-95.23090892695541
