freq,mag,phase
6.0,0.9999950650612985,-161.8346805976478
6.008,0.9999948675012605,-162.27428938802495
6.016,0.999994686378271,-162.71371766650466
6.024,0.9999945212021961,-163.15296709840158
6.032,0.9999943714900101,-163.59203936299508
6.04,0.9999942367657594,-164.0309361533364
6.048,0.9999941165605281,-164.4696591760567
6.056,0.9999940104124009,-164.90821015117612
6.064,0.999993917866426,-165.34659081191325
6.072,0.9999938384745785,-165.7848029044959
6.08,0.9999937717957202,-166.2228481879724
6.088,0.9999937173955649,-166.66072843402387
6.096,0.9999936748466325,-167.09844542677732
6.104,0.9999936437282174,-167.53600096261977
6.112,0.9999936236263414,-167.97339685001305
6.12,0.9999936141337168,-168.4106349093093
6.128,0.9999936148497017,-168.84771697256812
6.136,0.9999936253802636,-169.28464488337363
6.144,0.9999936453379307,-169.721420496653
6.152,0.9999936743417558,-170.1580456784958
6.16,0.9999937120172671,-170.5945223059742
6.168,0.9999937579964289,-171.03085226696408
6.176,0.999993811917596,-171.4670374599669
6.184,0.9999938734254711,-171.9030797939328
6.192,0.9999939421710565,-172.3389811880843
6.2,0.9999940178116152,-172.7747435717411
6.208,0.9999941000106203,-173.2103688841456
6.216,0.9999941884377106,-173.64585907428958
6.224,0.9999942827686472,-174.08121610074153
6.232,0.9999943826852634,-174.51644193147524
6.24,0.999994487875425,-174.95153854369877
6.248,0.9999945980329735,-175.3865079236849
6.256,0.9999947128576886,-175.82135206660212
6.264,0.9999948320552365,-176.25607297634667
6.272,0.9999949553371228,-176.6906726653754
6.28,0.9999950824206439,-177.12515315453973
6.288,0.9999952130288439,-177.55951647292025
6.296,0.9999953468904618,-177.99376465766235
6.304,0.999995483739883,-178.4278997538128
6.312,0.9999956233170963,-178.8619238141571
6.32,0.9999957653676398,-179.295838899058
6.328,0.9999959096425555,-179.7296470762944
6.336,0.9999960558983383,179.83664957909843
6.344,0.9999962038968905,179.4030489849878
6.352,0.9999963534054677,178.96954905230186
6.36,0.9999965041966365,178.53614768518688
6.368,0.9999966560482177,178.1028427811636
6.376,0.9999968087432424,177.6696322312828
6.384,0.9999969620699031,177.2365139202801
6.392,0.9999971158214989,176.80348572672963
6.4,0.9999972697963924,176.37054552319722
6.408,0.9999974237979561,175.93769117639226
6.416,0.9999975776345246,175.50492054731944
6.424,0.9999977311193441,175.07223149142874
6.432,0.9999978840705233,174.63962185876554
6.44,0.9999980363109842,174.2070894941192
6.448,0.9999981876684135,173.77463223717112
6.456,0.9999983379752097,173.34224792264212
6.464,0.9999984870684363,172.90993438043864
6.472,0.9999986347897731,172.47768943579868
6.48,0.9999987809854625,172.0455109094363
6.4879999999999995,0.9999989255062656,171.6133966176861
6.496,0.9999990682074077,171.18134437264615
6.504,0.9999992089485327,170.74935198232095
6.5120000000000005,0.999999347593651,170.31741725076276
6.52,0.9999994840110933,169.8855379782132
6.5280000000000005,0.9999996180734576,169.453711961243
6.536,0.9999997496575641,169.02193699289228
6.5440000000000005,0.9999998786444035,168.59021086280865
6.552,1.0,168.15853135738607
6.5600000000000005,1.0,167.7268962599018
6.568,0.9999999999999999,167.29530335065357
6.5760000000000005,0.9999999999999999,166.86375040709524
6.584,1.0,166.43223520397277
6.592,0.9999999999999999,166.00075551345827
6.6,1.0,165.56930910528467
6.608,0.9999999999999999,165.13789374687886
6.616,0.9999999999999999,164.7065072034945
6.624,1.0,164.27514723834437
6.632,1.0,163.84381161273154
6.64,1.0,163.41249808618062
6.648,0.9999999999999999,162.98120441656795
6.656,0.9999999999999999,162.54992836025136
6.664,1.0,162.11866767219928
6.672,0.9999999999999999,161.68742010611933
6.68,1.0,161.25618341458625
6.688,1.0,160.8249553491695
6.696,1.0,160.39373366056006
6.704,1.0,159.96251609869674
6.712,0.9999999999999999,159.5313004128921
6.72,0.9999999999999999,159.10008435195786
6.728,0.9999999999999999,158.66886566432947
6.736,0.9999999999999999,158.23764209819063
6.744,1.0000000000000002,157.80641140159713
6.752,1.0,157.3751713226
6.76,1.0,156.9439196093687
6.768,0.9999999999999999,156.5126540103132
6.776,1.0,156.0813722742064
6.784,1.0,155.6500721503051
6.792,0.9999999999999998,155.21875138847176
6.8,0.9999999999999999,154.78740773929476
6.808,1.0,154.3560389542088
6.816,1.0,153.92464278561482
6.824,1.0,153.49321698699958
6.832,1.0,153.06175931305464
6.84,1.0,152.63026751979527
6.848,1.0,152.19873936467872
6.856,1.0,151.7671726067223
6.864,1.0,151.33556500662127
6.872,1.0,150.90391432686604
6.88,0.9999999999999999,150.47221833185915
6.888,1.0,150.04047478803233
6.896,1.0,149.60868146396277
6.904,0.9999999999999999,149.17683613048914
6.912,1.0,148.74493656082785
6.92,0.9999999999999999,148.31298053068832
6.928,1.0,147.8809658183885
6.936,1.0,147.44889020496987
6.944,1.0,147.01675147431249
6.952,1.0,146.58454741324923
6.96,1.0,146.15227581168065
6.968,0.9999999999999999,145.71993446268874
6.976,1.0,145.2875211626512
6.984,0.9999999999999999,144.855033711355
6.992,1.0,144.42246991211007
7.0,1.0,143.98982757186272
7.008,0.9999999999999999,143.5571045013087
7.016,0.9999999999999998,143.12429851500642
7.024,1.0,142.6914074314898
7.032,0.9999999999999999,142.2584290733811
7.04,0.9999999999999999,141.82536126750338
7.048,1.0,141.39220184499308
7.056,0.9999999874019473,140.9589486414125
7.064,0.999999853723992,140.52559949686182
7.072,0.9999997164846371,140.09215225609142
7.08,0.9999995757407902,139.65860476861383
7.088,0.9999994315505988,139.22495488881583
7.096,0.9999992839734103,138.7912004760701
7.104,0.9999991330697416,138.35733939484717
7.112,0.9999989789012389,137.92336951482727
7.12,0.9999988215306455,137.48928871101157
7.128,0.999998661021768,137.05509486383434
7.136,0.9999984974394396,136.6207858592741
7.144,0.9999983308494879,136.18635958896533
7.152,0.9999981613187007,135.75181395030992
7.16,0.9999979889147903,135.31714684658866
7.168,0.9999978137063635,134.8823561870727
7.176,0.9999976357628875,134.4474398871349
7.184,0.9999974551546533,134.01239586836138
7.192,0.9999972719527492,133.57722205866284
7.2,0.9999970862290232,133.14191639238592
7.208,0.9999968980560546,132.70647681042502
7.216,0.999996707507117,132.27090126033318
7.224,0.9999965146561544,131.83518769643402
7.232,0.9999963195777419,131.39933407993308
7.24,0.9999961223470595,130.9633383790292
7.248,0.999995923039859,130.52719856902647
7.256,0.9999957217324328,130.09091263244534
7.264,0.9999955185015874,129.6544785591349
7.272,0.9999953134246082,129.21789434638399
7.28,0.9999951065792302,128.78115799903316
7.288,0.999994898043612,128.3442675295868
7.296,0.9999946878963036,127.90722095832467
7.304,0.999994476216216,127.47001631341392
7.312,0.9999942630825952,127.03265163102122
7.32,0.9999940485749914,126.59512495542488
7.328,0.9999938327732304,126.15743433912684
7.336,0.9999936157573862,125.71957784296511
7.344,0.9999933976077529,125.2815535362261
7.352,0.9999931784048165,124.84335949675693
7.36,0.9999929582292284,124.40499381107826
7.368,0.9999927371617751,123.96645457449631
7.376,0.9999925152833551,123.52773989121627
7.384,0.9999922926749493,123.08884787445466
7.392,0.9999920694175963,122.64977664655238
7.4,0.9999918455923636,122.21052433908763
7.4079999999999995,0.9999916212803248,121.77108909298916
7.416,0.999991396562531,121.33146905864913
7.4239999999999995,0.9999911715199863,120.89166239603722
7.432,0.999990946233623,120.45166727481286
7.4399999999999995,0.9999907207842741,120.0114818744399
7.448,0.9999904952526524,119.5711043842993
7.4559999999999995,0.999990269719323,119.13053300380375
7.464,0.9999900442646791,118.68976594251055
7.4719999999999995,0.9999898189689189,118.2488014202364
7.48,0.9999895939120208,117.80763766717075
7.4879999999999995,0.9999893691737204,117.36627292399069
7.496,0.9999891448334872,116.92470544197431
7.504,0.9999889209705012,116.4829334831159
7.5120000000000005,0.9999886976636301,116.04095532023969
7.52,0.9999884749914052,115.59876923711506
7.5280000000000005,0.9999882530320024,115.15637352857053
7.536,0.9999880318632174,114.7137665006091
7.5440000000000005,0.9999878115624438,114.27094647052249
7.552,0.9999875922066521,113.8279117670067
7.5600000000000005,0.9999873738723694,113.38466073027637
7.568,0.9999871566356557,112.94119171218045
7.5760000000000005,0.9999869405720865,112.49750307631685
7.584,0.9999867257567278,112.0535931981482
7.5920000000000005,0.9999865122641197,111.60946046511661
7.6,0.9999863001682536,111.16510327675965
7.6080000000000005,0.9999860895425549,110.72052004482522
7.616,0.9999858804598601,110.27570919338767
7.6240000000000006,0.9999856729923995,109.8306691589626
7.632,0.9999854672117782,109.38539839062344
7.640000000000001,0.9999852631889568,108.93989535011605
7.648,0.9999850609942318,108.49415851197543
7.656000000000001,0.9999848606972195,108.0481863636406
7.664,0.9999846623668355,107.60197740557102
7.672,0.9999844660712786,107.15553015136187
7.68,0.9999842718780122,106.70884312786015
7.688,0.9999840798537472,106.26191487528038
7.696,0.9999838900644257,105.81474394732044
7.704,0.9999837025752031,105.36732891127721
7.712,0.9999835174504318,104.91966834816257
7.72,0.999983334753646,104.47176085281902
7.728,0.9999831545475443,104.02360503403534
7.736,0.9999829768939741,103.57519951466247
7.744,0.9999828018539173,103.12654293172895
7.752,0.999982629487474,102.67763393655657
7.76,0.9999824598538477,102.22847119487594
7.768,0.999982293011331,101.7790533869417
7.776,0.9999821290172907,101.32937920764816
7.784,0.9999819679281542,100.87944736664429
7.792,0.9999818097993949,100.42925658844901
7.8,0.9999816546855193,99.97880561256612
7.808,0.9999815026400534,99.52809319359923
7.816,0.9999813537155295,99.07711810136648
7.824,0.9999812079634736,98.62587912101516
7.832,0.9999810654343929,98.17437505313613
7.84,0.999980926177763,97.72260471387803
7.848,0.999980790242017,97.27056693506141
7.856,0.999980657674533,96.81826056429257
7.864,0.999980528521623,96.36568446507718
7.872,0.9999804028285215,95.9128375169337
7.88,0.999980280639375,95.45971861550662
7.888,0.9999801619972316,95.00632667267924
7.896,0.9999800469440298,94.55266061668652
7.904,0.9999799355205897,94.09871939222728
7.912,0.9999798277666023,93.64450196057639
7.92,0.9999797237206205,93.1900072996964
7.928,0.9999796234200503,92.73523440434911
7.936,0.9999795269011417,92.28018228620653
7.944,0.9999794341989792,91.82484997396168
7.952,0.9999793453474753,91.36923651343889
7.96,0.999979260379361,90.91334096770382
7.968,0.9999791793261791,90.45716241717297
7.976,0.9999791022182766,90.00069995972274
7.984,0.9999790290847964,89.54395271079824
7.992,0.9999789599536724,89.0869198035214
8.0,0.9999788948516216,88.62960038879876
8.008,0.9999788338041391,88.17199363542878
8.016,0.999978776835491,87.71409873020824
8.024000000000001,0.9999787239687089,87.25591487803901
8.032,0.9999786752255854,86.79744130203336
8.04,0.9999786306266683,86.33867724361887
8.048,0.9999785901912573,85.87962196264314
8.056000000000001,0.9999785539373968,85.42027473747784
8.064,0.9999785218818746,84.96063486512176
8.072,0.9999784940402163,84.50070166130328
8.08,0.9999784704266834,84.04047446058243
8.088000000000001,0.9999784510542691,83.5799526164524
8.096,0.9999784359346942,83.11913550143984
8.104,0.9999784250784068,82.65802250720455
8.112,0.9999784184945802,82.1966130446386
8.120000000000001,0.9999784161911075,81.73490654396497
8.128,0.999978418174604,81.27290245483476
8.136,0.9999784244504032,80.81060024642372
8.144,0.9999784350225576,80.34799940752822
8.152000000000001,0.9999784498938361,79.88509944666056
8.16,0.9999784690657252,79.42189989214275
8.168,0.9999784925384284,78.95840029219956
8.176,0.999978520310866,78.49460021505098
8.184000000000001,0.9999785523806761,78.03049924900381
8.192,0.9999785887442153,77.56609700254172
8.2,0.9999786293965597,77.10139310441441
8.208,0.999978674331507,76.63638720372624
8.216000000000001,0.9999787235415776,76.17107897002364
8.224,0.9999787770180172,75.70546809338109
8.232,0.9999788347507983,75.23955428448619
8.24,0.9999788967286254,74.77333727472374
8.248000000000001,0.9999789629389341,74.30681681625897
8.256,0.9999790333678987,73.83999268211886
8.264,0.9999791080004324,73.37286466627266
8.272,0.9999791868201938,72.90543258371125
8.280000000000001,0.9999792698095903,72.43769627052556
8.288,0.9999793569497825,71.9696555839831
8.296,0.9999794482206887,71.50131040260322
8.304,0.9999795436009926,71.03266062623169
8.312,0.9999796430681454,70.56370617611377
8.32,0.9999797465983744,70.09444699496504
8.328,0.9999798541666889,69.62488304704233
8.336,0.9999799657468849,69.1550143182116
8.344,0.9999800813115542,68.68484081601615
8.352,0.99998020083209,68.21436256974138
8.36,0.999980324278696,67.74357963048018
8.368,0.9999804516203925,67.27249207119473
8.376,0.9999805828250247,66.80109998677865
8.384,0.9999807178592736,66.32940349411588
8.392,0.9999808566886605,65.85740273213955
8.4,0.9999809992775598,65.3850978618877
8.408,0.9999811455892071,64.91248906655892
8.416,0.9999812955857083,64.43957655156466
8.424,0.9999814492280491,63.96636054458149
8.432,0.9999816064761075,63.49284129560016
8.44,0.9999817672886624,63.019019076974296
8.448,0.9999819316234052,62.544894183465836
8.456,0.999982099436951,62.07046693229027
8.464,0.99998227068485,61.59573766315849
8.472,0.9999824453215989,61.12070673831822
8.48,0.9999826233006538,60.64537454259223
8.488,0.9999828045744421,60.16974148341606
8.496,0.9999829890943742,59.69380799087216
8.504,0.9999831768108595,59.217574517724046
8.512,0.9999833676733151,58.74104153944634
8.52,0.9999835616301842,58.264209554254876
8.528,0.9999837586289457,57.78707908313294
8.536,0.9999839586161308,57.30965066985713
8.544,0.9999841615373366,56.8319248810195
8.552,0.9999843673372414,56.35390230604931
8.56,0.999984575959618,55.875583557230875
8.568,0.9999847873473511,55.39696926972107
8.576,0.999985001442451,54.918060101562894
8.584,0.9999852181860697,54.43885673369855
8.592,0.999985437518518,53.95935986997868
8.6,0.9999856593792801,53.47957023717097
8.608,0.9999858837070313,52.999488584964766
8.616,0.9999861104396548,52.51911568597527
8.624,0.999986339514257,52.038452335743585
8.632,0.9999865708671881,51.55749935273611
8.64,0.9999868044340554,51.076257578340034
8.648,0.999987040149745,50.59472787685802
8.656,0.999987277948437,50.112911135498855
8.664,0.9999875177636249,49.63080826436738
8.672,0.9999877595281336,49.14842019645025
8.68,0.9999880031741396,48.6657478876011
8.688,0.9999882486331868,48.182792316521166
8.696,0.9999884958362086,47.6995544847396
8.704,0.9999887447135458,47.21603541658923
8.712,0.9999889951949664,46.73223615918152
8.72,0.9999892472096852,46.24815778237748
8.728,0.9999895006863836,45.76380137875752
8.736,0.9999897555532302,45.27916806358704
8.744,0.9999900117379008,44.7942589747812
8.752,0.9999902691675987,44.309075272865385
8.76,0.9999905277690755,43.8236181409345
8.768,0.999990787468653,43.33788878460836
8.776,0.9999910481922424,42.85188843198562
8.784,0.9999913098653659,42.36561833359372
8.792,0.99999157241318,41.87907976233757
8.8,0.9999918357604938,41.39227401344398
8.808,0.9999920998317936,40.905202404405074
8.815999999999999,0.9999923645512623,40.41786627491724
8.824,0.9999926298428032,39.93026698681854
8.832,0.9999928956300609,39.44240592402322
8.84,0.9999931618364443,38.954284492453006
8.847999999999999,0.9999934283851473,38.465904119965565
8.856,0.999993695199174,37.97726625628083
8.864,0.9999939622013577,37.48837237290416
8.872,0.999994229314387,36.99922396304672
8.879999999999999,0.9999944964608257,36.50982254154251
8.888,0.9999947635631377,36.020169644763634
8.896,0.999995030543708,35.53026683053216
8.904,0.9999952973248677,35.04011567802908
8.911999999999999,0.9999955638289149,34.54971778770024
8.92,0.9999958299781394,34.05907478116005
8.928,0.9999960956948457,33.56818830109208
8.936,0.9999963609013747,33.077060011146656
8.943999999999999,0.9999966255201292,32.585691595835385
8.952,0.9999968894735952,32.094084760423364
8.96,0.9999971526843665,31.602241230818514
8.968,0.9999974150751672,31.110162753457594
8.975999999999999,0.9999976765688756,30.6178510951894
8.984,0.9999979370885476,30.125308043155457
8.992,0.9999981965574395,29.63253540466795
9.0,0.9999984548990316,29.13953500708437
9.008,0.999998712037052,28.646308697679135
9.016,0.9999989678954992,28.152858343513046
9.024000000000001,0.9999992223986658,27.6591858312997
9.032,0.999999475471162,27.165293067268717
9.04,0.9999997270379376,26.67118197702611
9.048,0.9999999770243079,26.176854505412276
9.056000000000001,1.0,25.682312616357155
9.064,1.0,25.187558292732092
9.072,0.9999999999999999,24.69259353619903
9.08,0.9999999999999999,24.197420367057134
9.088000000000001,0.9999999999999999,23.702040824086865
9.096,0.9999999999999999,23.206456964390615
9.104,1.0,22.71067086323078
9.112,1.0,22.214684613865344
9.120000000000001,0.9999999999999999,21.71850032738085
9.128,0.9999999999999999,21.22212013252217
9.136,1.0,20.725546175519543
9.144,1.0,20.228780619913355
9.152000000000001,0.9999999999999999,19.731825646376286
9.16,1.0,19.23468345253233
9.168,0.9999999999999999,18.73735625277317
9.176,1.0,18.23984627807233
9.184000000000001,1.0,17.74215577579682
9.192,1.0,17.244287009515656
9.2,0.9999999999999999,16.746242258805893
9.208,1.0,16.248023819056463
9.216000000000001,1.0,15.749634001269586
9.224,0.9999999999999999,15.251075131859217
9.232,0.9999999999999998,14.752349552446969
9.24,1.0,14.253459619656104
9.248000000000001,1.0,13.754407704903029
9.256,1.0,13.255196194185983
9.264,1.0,12.755827487871414
9.272,0.9999999999999999,12.256304000478362
9.280000000000001,1.0,11.756628160460538
9.288,0.9999999999999999,11.256802409985735
9.296,1.0,10.75682920471295
9.304,0.9999999999999999,10.25671101356772
9.312000000000001,1.0000000000000002,9.75645031851524
9.32,1.0,9.256049614330955
9.328,1.0,8.755511408368928
9.336,1.0,8.254838220328619
9.344,0.9999999999999999,7.7540325820196925
9.352,1.0,7.253097037123667
9.36,0.9999999999999999,6.752034140955276
9.368,1.0,6.2508464602200915
9.376,1.0,5.749536572771941
9.384,0.9999999999999999,5.248107067366771
9.392,0.9999999999999999,4.7465605434163605
9.4,0.9999999999999999,4.244899610738471
9.408,1.0,3.743126889306997
9.416,1.0,3.2412450089986735
9.424,0.9999999999999999,2.739256609339795
9.432,0.9999999999999999,2.2371643392495146
9.44,0.9999999999999999,1.7349708567834259
9.448,0.9999999999999999,1.2326788288735815
9.456,1.0,0.7302909310690504
9.464,0.9999999999999998,0.22780984727297532
9.472,0.9999999999999999,-0.27476173051991276
9.48,1.0,-0.7774211024889356
9.488,0.9999999999999999,-1.2801655612527616
9.496,1.0,-1.7829923921376827
9.504,1.0,-2.2858988734454075
9.512,1.0,-2.7888822767239585
9.52,1.0,-3.2919398670377045
9.528,1.0,-3.795068903240555
9.536,0.9999999999999999,-4.29826663824828
9.544,0.9999999999999999,-4.801530319313708
9.552,1.0,-5.304857188301078
9.56,1.0,-5.808244481963156
9.568,1.0,-6.311689432217423
9.576,1.0,-6.815189266424828
9.584,1.0,-7.318741207667666
9.592,1.0,-7.822342475029859
9.6,1.0,-8.32599028387619
9.608,0.9999999999999999,-8.829681846133944
9.616,1.0,-9.33341437057338
9.624,1.0,-9.837185063090509
9.632,0.9999999999999999,-10.340991126988548
9.64,1.0,-10.844829763261622
9.648,0.9999999999999999,-11.348698170877054
9.656,0.9999999999999998,-11.852593547059831
9.664,1.0,-12.356513087575474
9.672,0.9999999999999999,-12.860453987015024
9.68,1.0,-13.364413439078328
9.688,0.9999999999999999,-13.868388636859331
9.696,1.0,-14.372376773129632
9.704,1.0,-14.876375040623849
9.712,1.0,-15.380380632323181
9.72,1.0,-15.884390741740662
9.728,0.9999999999999999,-16.388402563204583
9.736,1.0,-16.892413292143434
9.744,0.9999999999999999,-17.396420125368905
9.752,1.0,-17.900420261360356
9.76,1.0,-18.40441090054717
9.768,0.9999999999999999,-18.90838924559259
9.776,0.9999999999999999,-19.412352501675244
9.784,1.0,-19.916297876772038
9.792,0.9999999999999999,-20.420222581938763
9.8,0.9999999999999999,-20.924123831591793
9.808,1.0,-21.427998843787538
9.816,1.0,-21.931844840502844
9.824,1.0,-22.435659047912992
9.832,0.9999999999999999,-22.939438696670692
