freq,mag,phase
6.0,1.0009305921515292,1.2656220270310734
6.014134272,1.0011291641629545,0.8080244507564458
6.028268544,1.0012767318853115,0.3480861696187258
6.042402816,1.0013670280291194,-0.11343337469438887
6.056537088,1.0013958608211666,-0.5758947213847179
6.07067136,1.0013621801559012,-1.0385092561206928
6.084805632,1.0012671191730556,-1.5005620374507882
6.098939904,1.0011147914119496,-1.9612572062412135
6.113074176,1.0009120911025626,-2.4199978445093304
6.127208448,1.0006678922878325,-2.876252787938421
6.14134272,1.0003932395621422,-3.3294507985077373
6.155476992,1.0001002276973285,-3.779417017259602
6.169611264,0.9998019369126333,-4.225962344849856
6.183745536,0.9995119603263752,-4.669095420291773
6.197879808,0.9992432375967472,-5.108988484467805
6.21201408,0.9990079951000798,-5.545981091228684
6.226148352,0.9988165826793985,-5.980570628344201
6.240282624,0.9986779370460862,-6.413261461014623
6.254416896,0.9985984814617165,-6.844842409225666
6.268551168,0.9985815491213597,-7.275940235683288
6.28268544,0.9986283063338043,-7.707410969910592
6.296819712,0.9987365575591768,-8.140021270120648
6.310953984,0.9989016182979638,-8.574465022131802
6.325088256,0.999116272944969,-9.0114354897719
6.339222528,0.999370697167513,-9.451416147077824
6.3533568,0.9996535594113605,-9.894895795026336
6.367491072,0.9999522369865467,-10.34207768173768
6.381625344,1.0002534537572947,-10.793152479863895
6.395759616,1.0005434961099495,-11.248051583691973
6.409893888,1.000809354241207,-11.70646305362299
6.42402816,1.0010392985308671,-12.168112869021149
6.438162432,1.0012227303929966,-12.632502017424342
6.452296704,1.0013515439462886,-13.098965126376632
6.466430976,1.0014198314034604,-13.56687276845241
6.480565248,1.0014244369654977,-14.035411401360493
6.49469952,1.0013650342733038,-14.503801030479108
6.508833792,1.0012441702939086,-14.971332190745034
6.522968064,1.0010670122509024,-15.437231236103244
6.537102336,1.0008416382309908,-15.900944163958808
6.551236608,1.0005779930252257,-16.361845481679257
6.56537088,1.0002877631937435,-16.819559464670924
6.579505152,0.9999839282103556,-17.273885291117175
6.593639424,0.9996799597659471,-17.72470573620421
6.607773696,0.9993897153464344,-18.17204373056635
6.621907968,0.9991260552488166,-18.616258552373306
6.63604224,0.9989012340708088,-19.057635209901658
6.650176512,0.9987250697879321,-19.496752584633803
6.664310784,0.9986055654961101,-19.934234962733136
6.678445056,0.9985484977299196,-20.370835023860806
6.692579328,0.9985563225503054,-20.807318196323692
6.7067136,0.9986288592727172,-21.244484252576047
6.720847872,0.9987629755120501,-21.683096145287625
6.734982144,0.9989527098977696,-22.123888703015066
6.749116416,0.9991895788673851,-22.567485904451846
6.763250688,0.9994632060986074,-23.014387975798723
6.77738496,0.999761027585948,-23.465016913586126
6.791519232,1.0000701771270466,-23.919501015885135
6.805653504,1.0003762026052423,-24.377970835707906
6.819787776,1.000665886186626,-24.84026294177468
6.833922048,1.000926027313764,-25.306092453754413
6.84805632,1.0011449291877583,-25.775115817209326
6.862190592,1.0013128330740513,-26.24669123692852
6.876324864,1.001422010106628,-26.720153325952356
6.890459136,1.0014675769588917,-27.194767549904103
6.904593408,1.0014472339102385,-27.669796164792405
6.91872768,1.001361986450645,-28.144374016275854
6.932861952,1.0012153567963809,-28.6177758051985
6.946996224,1.0010138882203432,-29.089288983351675
6.961130496,1.0007665694939272,-29.55831912010585
6.975264768,1.000483942130681,-30.024347290039312
6.98939904,1.000179096847467,-30.4870235433446
7.003533824,0.9998653259266108,-30.946096955607523
7.017668096,0.9995568913016976,-31.401617640936603
7.031802368,0.9992675773179731,-31.853690874365213
7.04593664,0.9990103406363714,-32.30263470936607
7.060070912,0.9987968244291621,-32.748900380446514
7.074205184,0.9986367414973196,-33.19308207354549
7.088339456,0.9985373795738707,-33.63588268467225
7.102473728,0.9985032892135718,-34.07805598370321
7.116608,0.9985361729054877,-34.520418531592895
7.130742272,0.9986347935837254,-34.96380297157573
7.144876544,0.9987944717518517,-35.40899328745804
7.159010816,0.9990085777420932,-35.85663154413468
7.173145088,0.9992673282255383,-36.30736692247644
7.18727936,0.9995593010521643,-36.76170478388919
7.201413632,0.9998715042249441,-37.21990524850628
7.215547904,1.000189701534668,-37.682220401404415
7.229682176,1.0004998124970972,-38.1485696965135
7.243816448,1.0007880649759469,-38.618793564425445
7.25795072,1.0010413551918604,-39.092510356361814
7.272084992,1.0012482674389431,-39.56928908029693
7.286219264,1.0013996744903788,-40.04846713292039
7.300353536,1.0014885107762979,-40.52936223761046
7.314487808,1.0015108348878923,-41.011135809471945
7.32862208,1.0014653718539714,-41.49305640199197
7.342756352,1.0013541325119766,-41.974266823556356
7.356890624,1.0011819291345276,-42.453952798412864
7.371024896,1.0009562049224485,-42.93152786980356
7.385159168,1.0006871642610764,-43.406281169901014
7.39929344,1.0003866110248,-43.87782289513088
7.413427712,1.0000679011914506,-44.345848571965895
7.427561984,0.9997452968389626,-44.810181376000116
7.441696256,0.9994331921532758,-45.270874622256734
7.455830528,0.9991457134921982,-45.72810385212174
7.4699648,0.998895669422076,-46.1822710532217
7.484099072,0.9986945522528715,-46.63393849890992
7.498233344,0.9985513462877631,-47.08370189572639
7.512367616,0.9984726283503793,-47.532292988243746
7.526501888,0.9984621579511739,-47.98058661108231
7.54063616,0.9985205863709999,-48.42935392878367
7.554770432,0.9986452078628305,-48.87947374863904
7.568904704,0.9988306947267779,-49.33170190697586
7.583038976,0.9990687576921877,-49.78673205674443
7.597173248,0.9993490676865945,-50.2451952629629
7.61130752,0.9996587911355965,-50.70739817625113
7.625441792,0.9999844049500352,-51.17378375488665
7.639576064,1.000311122125329,-51.644354472855255
7.653710336,1.0006244517406775,-52.1190721209422
7.667844608,1.0009101755593242,-52.59768245717034
7.68197888,1.0011557629804828,-53.07975374265522
7.696113152,1.0013500450133783,-53.564750316525355
7.710247424,1.0014842129476726,-54.052007144389655
7.724381696,1.0015519857383435,-54.54076018627817
7.738515968,1.0015505740329373,-55.03016069867006
7.75265024,1.0014797065347203,-55.51937088339782
7.766784512,1.0013423080428572,-56.007603075257116
7.780918784,1.001144435934166,-56.49407013455933
7.795053056,1.0008948336309718,-56.9780291574612
7.809187328,1.000604506446908,-57.459000043087336
7.8233216,1.0002861537031744,-57.936502477660326
7.837455872,0.999954183327121,-58.41031242300327
7.851590144,0.9996233427950295,-58.88031649100684
7.865724416,0.9993083112561042,-59.34663376661506
7.879858688,0.9990234777480451,-59.809492793780784
7.89399296,0.998781526226245,-60.26940432722851
7.908127232,0.9985935099835854,-60.72688547592176
7.922261504,0.9984677494844252,-61.18272160150274
7.936395776,0.9984103768415687,-61.637639854184314
7.950530048,0.9984239863271513,-62.092522131637615
7.96466432,0.9985079080946414,-62.54820208549699
7.978798592,0.9986589365831178,-63.00558300679845
7.992932864,0.9988701938908278,-63.465359189015416
8.007067136,0.9991323510529536,-63.92831613011112
8.021201408,0.9994337619098027,-64.39492518154783
8.03533568,0.999760932526098,-64.86561958966615
8.049469952,1.0000995477834183,-65.34061882597595
8.063604224,1.0004341915607782,-65.8199305539384
8.077738496,1.000749890852196,-66.30350545300273
8.091872768,1.001032924045583,-66.79095743210901
8.10600704,1.0012700407581523,-67.28186174533896
8.120141312,1.0014509319958793,-67.7755641118618
8.134275584,1.0015672696769204,-68.27134864811754
8.148409856,1.0016136279285883,-68.76835359467492
8.162544128,1.0015880273328857,-69.26580917155036
8.1766784,1.0014913443872377,-69.7627741755536
8.190812672,1.0013276055950713,-70.25845344529313
8.204946944,1.0011041154861058,-70.75205184119424
8.219081216,1.0008305033570266,-71.24294826898726
8.233215488,1.0005188845341093,-71.73052261381571
8.24734976,1.0001832855499346,-72.21441096909955
8.261484032,0.9998383343952575,-72.69445812001162
8.275618304,0.9994997093233501,-73.17058055331208
8.289752576,0.9991823967665441,-73.64293541398901
8.303886848,0.9989006298938611,-74.11193501583708
8.31802112,0.9986672121139708,-74.57800521233423
8.332155392,0.9984928542543462,-75.04184088710345
8.346289664,0.9983852495120729,-75.50416771208457
8.360423936,0.9983496148874645,-75.96585637962556
8.374558208,0.9983875523243929,-76.42780115442238
8.38869248,0.998497695251249,-76.89089441569483
8.402826752,0.9986751260672909,-77.35602684438425
8.416961024,0.9989122675518654,-77.82387588824717
8.431095296,0.999198348059185,-78.29518805457238
8.445229568,0.9995207933060342,-78.77045274786539
8.45936384,0.9998655394075743,-79.25006871957967
8.473498112,1.0002168055424778,-79.73418822087264
8.487632384,1.000559099004174,-80.22277798129835
8.501766656,1.0008770987822004,-80.71567188088498
8.515900928,1.0011565726842457,-81.21245802602479
8.5300352,1.001384923158504,-81.71260889571865
8.544169472,1.001551993517855,-82.215473361588
8.558303744,1.0016500611722883,-82.72019633098103
8.572438016,1.00167463675153,-83.22599581425395
8.586572288,1.001624501772139,-83.73190742660752
8.600707072,1.00150159637115,-84.23709465913588
8.614841344,1.0013111737221907,-84.74065530185369
8.628975616,1.0010616417474285,-85.24185348121975
8.643109888,1.0007639202421637,-85.74002067531227
8.65724416,1.0004312984392696,-86.23462461543777
8.671378432,1.0000781781615005,-86.72538445410524
8.685512704,0.9997203970633319,-87.21205735884462
8.699646976,0.9993740234597301,-87.6947683716753
8.713781248,0.99905454345346,-88.17362264486371
8.72791552,0.9987762078696277,-88.64912572894075
8.742049792,0.9985517853591466,-89.12177034364328
8.756184064,0.9983911471874795,-89.59236194089259
8.770318336,0.9983022036321629,-90.06167560485389
8.784452608,0.9982886411815394,-90.53059459094905
8.79858688,0.9983514189079262,-91.00007059889589
8.812721152,0.99848799524776,-91.47101804731327
8.826855424,0.9986924065350302,-91.94429103014377
8.840989696,0.9989556922868937,-92.4206735992991
8.855123968,0.9992661797983109,-92.90085678565362
8.86925824,0.9996100713487407,-93.3852675745236
8.883392512,0.9999721755377573,-93.87425223391186
8.897526784,1.0003363199474002,-94.36794495076883
8.911661056,1.0006862317856489,-94.86625181051818
8.925795328,1.001006359386907,-95.36891851705418
8.9399296,1.0012823876233934,-95.87549331692713
8.954063872,1.0015017257117946,-96.38538506674722
8.968198144,1.0016545812654798,-96.89785919886832
8.982332416,1.0017340937565802,-97.41201402982551
8.996466688,1.0017364364756765,-97.92699798663595
9.01060096,1.0016613367587675,-98.44184162151406
9.024735232,1.0015117150555268,-98.9556582707974
9.038869504,1.001294303987016,-99.46755477576788
9.053003776,1.0010183981542624,-99.97676465889273
9.067138048,1.0006961536423695,-100.48264300670743
9.08127232,1.000341672106005,-100.98473272046685
9.095406592,0.9999707811436508,-101.48270397172492
9.109540864,0.9995999252351291,-101.97644807002186
9.123675136,0.9992456136552433,-102.46609215493001
9.137809408,0.9989237487382164,-102.9518465069362
9.15194368,0.9986488766663209,-103.43426599493887
9.166077952,0.9984333390037397,-103.91394062297974
9.180212224,0.9982870800145643,-104.39164418380896
9.194346496,0.9982167396729237,-104.86832795882445
9.208480768,0.9982256679741287,-105.34489729779543
9.22261504,0.9983138803544142,-105.82227927007413
9.236749312,0.9984774632454919,-106.30150499680799
9.250883584,0.998709367272553,-106.78338068600942
9.265017856,0.9989994729373799,-107.26871006490242
9.279152128,0.9993349102447099,-107.75813490598891
9.2932864,0.9997008658784096,-108.25211806802673
9.307420672,1.0000810103857194,-108.75091699409
9.321554944,1.0004584762368873,-109.25462042628439
9.335689216,1.0008165327569856,-109.76308910112216
9.349823488,1.0011390616128408,-110.2760008960669
9.36395776,1.0014117230396262,-110.79281958117345
9.378092032,1.001622080853568,-111.3129118913073
9.392226304,1.0017609095233462,-111.83542212747514
9.406360576,1.0018216023736213,-112.3594771613174
9.420494848,1.0018012542117427,-112.88409235065407
9.43462912,1.0017006470886027,-113.40833477453083
9.448763392,1.001523858925227,-113.9311978825204
9.462897664,1.0012785361681402,-114.45184688873911
9.477031936,1.0009754621825848,-114.96950504773557
9.491166208,1.0006277329302067,-115.48353679893961
9.50530048,1.0002508375129016,-115.99348262241561
9.519434752,0.9998612399138908,-116.49907892629047
9.533569024,0.9994765646474129,-117.00028060543646
9.547703296,0.9991136571979942,-117.49720294314884
9.561837568,0.9987890352484398,-117.99023881492528
9.57597184,0.9985171721688403,-118.479899046325
9.590106112,0.9983105026391405,-118.96691493307357
9.604240384,0.9981783413533827,-119.45215860898463
9.618374656,0.9981269455782442,-119.93651620765274
9.632508928,0.9981588858761279,-120.42104200318686
9.6466432,0.9982729428826324,-120.90673190657049
9.660777472,0.9984643260194616,-121.39454369615872
9.674911744,0.998724610117317,-121.88538912631144
9.689046016,0.9990425231753105,-122.38004464351457
9.703180288,0.9994039552524958,-122.87913084236396
9.71731456,0.9997929554834688,-123.38306226810893
9.731448832,1.0001922361392281,-123.89209791521482
9.745583104,1.0005841944242886,-124.40623074887908
9.759717376,1.000951129896359,-124.92529760842234
9.773851648,1.001276860260596,-125.44889244995541
9.78798592,1.0015466948539107,-125.97641886779418
9.802120192,1.0017484812240793,-126.50714088798343
9.816254464,1.0018731717299176,-127.04014998215479
9.830388736,1.001914845185348,-127.57453725117665
9.844523008,1.0018714929215176,-128.10926542821167
9.85865728,1.0017447174657998,-128.64329633574238
9.872791552,1.0015398012848524,-129.17568166330645
9.886925824,1.0012655332302303,-129.70552358335988
9.901060096,1.0009339695284711,-130.23201843836162
9.915194368,1.0005595754422125,-130.7545932632315
9.92932864,1.0001587688057327,-131.27277345465376
9.943462912,0.9997492188196283,-131.78634706587775
9.957597184,0.9993492969158674,-132.29532885708727
9.971731456,0.9989767446188016,-132.79990543605467
9.985865728,0.9986482861632566,-133.3004902895275
10.0,0.9983787122284045,-133.7977358149025
10.014134272,0.9981802983324165,-134.29239094221455
10.028268544,0.9980622432430307,-134.78540698784914
10.042402816,0.9980299669906694,-135.2777763790447
10.056537088,0.9980852317512697,-135.77055160360985
10.07067136,0.9982259608169042,-136.2648035746911
10.084805632,0.9984461574871085,-136.76152230350024
10.098939904,0.9987362037960757,-137.26165021560269
10.113074176,0.9990833419803651,-137.7659474039079
10.127208448,0.9994724794369231,-138.27501199383116
10.14134272,0.999886227246793,-138.78928191455992
10.155476992,1.0003063467211535,-139.30892176938724
10.169611264,1.000714149526686,-139.83390630791033
10.183745536,1.001091527785454,-140.36397804526752
10.197879808,1.0014215714457224,-140.89868111110584
10.21201408,1.001689621401893,-141.4373412867324
10.226148352,1.0018833640860036,-141.97916021137243
10.240282624,1.001994215453479,-142.52316316088084
10.254416896,1.0020168164888943,-143.06834401748657
10.268551168,1.0019498326070997,-143.61361835255178
10.28268544,1.0017959787030928,-144.1579366744625
10.296819712,1.0015616316704252,-144.70027555155286
10.310953984,1.0012569516833738,-145.23969604683487
10.325088256,1.0008950678874786,-145.77546226261805
10.339222528,1.0004919323494943,-146.3069380268083
10.3533568,1.0000652042610754,-146.83371712980392
10.367491072,0.9996336438180288,-147.35560973119743
10.381625344,0.9992165453186902,-147.8726776310623
10.395759616,0.9988325236612761,-148.3851716542502
10.409893888,0.9984986612710622,-148.89359141548513
10.42402816,0.9982302350528346,-149.39864250935548
10.438162432,0.9980394018518053,-149.90117697071975
10.452296704,0.9979349880042137,-150.4021654399642
10.466430976,0.9979220125309237,-150.90273644851752
10.480565248,0.9980013536511306,-151.40399811429415
10.49469952,0.9981698505353802,-151.90703634761286
10.508833792,0.998420483313504,-152.41291138325846
10.522968064,0.9987420833658515,-152.92256354157539
10.537102336,0.9991207534623244,-153.4367892823208
10.551236608,0.9995398821615232,-153.9561804745868
10.56537088,0.9999808295152036,-154.4811107649027
10.579505152,1.0004242949276236,-155.0117143873215
10.593639424,1.000850421295696,-155.54793356196384
10.607773696,1.0012403638640588,-156.08944840988556
10.621907968,1.001576656925269,-156.63570748405093
10.63604224,1.0018442589796723,-157.18599048641943
10.650176512,1.0020309415273492,-157.73936877949518
10.664310784,1.0021282536650684,-158.29485202520524
10.678445056,1.002131561848834,-158.8513405245809
10.692579328,1.0020402510244084,-159.40767229153934
10.7067136,1.001858018259001,-159.9627332608271
10.720847872,1.0015924805515097,-160.5154723938261
10.734982144,1.0012550406587015,-161.06494283005213
10.749116416,1.0008604173510622,-161.61038887627245
10.763250688,1.000425661290303,-162.15115388337327
10.77738496,0.9999699988504569,-162.68687121519244
10.791519232,0.9995134534120768,-163.21740404042353
10.805653504,0.9990763678171338,-163.7428204445257
10.819787776,0.9986782179157043,-164.26349617430643
10.833922048,0.9983369017224187,-164.77995798860488
10.84805632,0.9980679223732749,-165.29298791197357
10.862190592,0.9978835674259843,-165.80355634078376
10.876324864,0.9977923643755261,-166.31271981277573
10.890459136,0.9977989396992112,-166.82165250952963
10.904593408,0.9979031909310357,-167.33154854627503
10.91872768,0.9981011131589695,-167.84354929614065
10.932861952,0.998384042815618,-168.3587849909841
10.946996224,0.9987400146003158,-168.87820354785586
10.961130496,0.9991532835630075,-169.40261029250905
10.975264768,0.9996057734585222,-169.93260647912987
10.98939904,1.00007750475367,-170.4685190154047
11.003533312,1.0005477352654133,-171.01047985525244
11.017667584,1.0009955096204517,-171.55838369501026
11.031801856,1.0014009542785216,-172.111788118929
11.045936128,1.0017459948105736,-172.6701236576591
11.0600704,1.002015052504498,-173.23251875739342
11.074204672,1.0021959412871781,-173.79805191036434
11.088338944,1.0022803342729583,-174.36556780775126
11.102473216,1.0022640134994374,-174.93389829206413
11.116607488,1.0021472501952173,-175.50185631594218
11.13074176,1.0019348386931117,-176.06822278089098
11.144876032,1.0016355657750748,-176.6319328711215
11.159010304,1.0012623320625644,-177.1919511768595
11.173144576,1.0008310111738428,-177.74750869462574
11.187278848,1.000360700810929,-178.29797931649532
11.20141312,0.9998719076155005,-178.84302547341096
11.215547392,0.9993862961134206,-179.38249786974524
11.229681664,0.9989252549223006,-179.9165644550172
11.243815936,0.998509506390671,179.55438080921473
11.257950208,0.9981577002103962,179.02969117209935
11.27208448,0.997885831365191,178.50850143422588
11.286218752,0.9977064306740075,177.9897761524073
11.300353024,0.9976278896217246,177.47234935650397
11.314487296,0.9976542529693969,176.95493033732498
11.328621568,0.9977847690599064,176.43627177397295
11.34275584,0.9980142967071779,175.9151446669014
11.356890112,0.9983327990369304,175.3903849425503
11.371024384,0.9987267937890871,174.86099720635943
11.385158656,0.9991790197869462,174.32612517956343
11.399292928,0.9996696268005434,173.78520953760287
11.4134272,1.0001770243897028,173.23788539345955
11.427561472,1.000678906160126,172.68411302691425
11.441695744,1.0011527696218854,172.12403752288301
11.455830016,1.001577965669786,171.55817185009136
11.469964288,1.001935152708796,170.98716705820246
11.48409856,1.0022083427041917,170.411950665721
11.498232832,1.0023852021392439,169.8336097293271
11.512367104,1.0024572854512257,169.25333495052175
11.526501376,1.0024209611004837,168.67239628796378
11.540635648,1.0022771801919066,168.09211585600002
11.55476992,1.0020318910951287,167.51373191973215
11.568904192,1.0016952281686036,166.93842425411876
11.583038464,1.001281533535871,166.36722332792843
11.597172736,1.000808863003105,165.8009756589876
