freq,mag,phase
6.0,0.9999856790060911,-127.34167431417907
6.00459776,0.9999839548906531,-127.58289815046467
6.00919552,0.9999839117924457,-127.82413180459442
6.01379328,0.9999852033657368,-128.06540266377385
6.01839104,0.9999877592323717,-128.30666973981855
6.022988288,0.9999913073510884,-128.54798810081638
6.027586048,0.9999958040346227,-128.78936824518948
6.032183808,1.0000009745019258,-129.03080960454565
6.036781568,1.0000064722246746,-129.27232846073454
6.041379328,1.0000119011987825,-129.51394841636218
6.045977088,1.000017071623377,-129.75562176470254
6.050574848,1.0000215410045576,-129.99740160973803
6.055172608,1.0000251690587247,-130.23920231383187
6.059770368,1.0000276492646138,-130.48107098088283
6.064367616,1.0000289824379254,-130.72295941068225
6.068965376,1.0000288881878265,-130.9648643291744
6.073563136,1.0000274490474628,-131.20675991940735
6.078160896,1.000024744688897,-131.4486154670399
6.082758656,1.0000209948227332,-131.69046114638184
6.087356416,1.000016340444655,-131.93223958927993
6.091954176,1.0000110044902804,-132.17392500254633
6.096551936,1.0000055181033312,-132.41557195852167
6.101149184,1.0000000689982749,-132.65714665684234
6.105746944,0.9999949033873651,-132.89863942152306
6.110344704,0.9999904626317548,-133.1400624455129
6.114942464,0.999986851961394,-133.38143176902187
6.119540224,0.9999844790661763,-133.62275648698022
6.124137984,0.9999833706459839,-133.86405693632014
6.128735744,0.9999835565642722,-134.10536308144256
6.133333504,0.9999851644072685,-134.34668076227987
6.137931264,0.9999880249433221,-134.58804213727475
6.142528512,0.9999919389810397,-134.82942397920993
6.147126272,0.9999967440869161,-135.07087811611996
6.151724032,1.0000020791631106,-135.31242520563467
6.156321792,1.000007669206265,-135.5540620669108
6.160919552,1.0000132321826036,-135.79576164931515
6.165517312,1.0000184088024853,-136.0375455615942
6.170115072,1.0000228663344248,-136.27938018578755
6.174712832,1.0000263796307514,-136.52130452650783
6.179310592,1.0000286594435306,-136.76321782020784
6.18390784,1.000029666976457,-137.00520266952805
6.1885056,1.00002923119588,-137.24717531477185
6.19310336,1.0000274671351779,-137.4891843353228
6.19770112,1.0000245073926852,-137.73107994980205
6.20229888,1.0000204054482515,-137.97300010533405
6.20689664,1.0000154555183358,-138.21481357191533
6.2114944,1.0000099669135585,-138.45656041604974
6.21609216,1.0000042887992315,-138.69826818822568
6.220689408,0.9999987013839201,-138.9398651535017
6.225287168,0.9999935986345923,-139.18138527368365
6.229884928,0.9999891643411616,-139.42285582597717
6.234482688,0.9999857623874823,-139.66427644417462
6.239080448,0.9999835811161281,-139.90564241968627
6.243678208,0.9999826767921934,-140.14700044847484
6.248275968,0.9999832395746685,-140.38836740755048
6.252873728,0.999985199737588,-140.6297784697555
6.257471488,0.9999883746544286,-140.87115307501674
6.262068736,0.9999926175209742,-141.11262420446297
6.266666496,0.9999976709352476,-141.35418256779175
6.271264256,1.0000032438277953,-141.59578287384608
6.275862016,1.0000090515535132,-141.83745051869627
6.280459776,1.000014664708043,-142.07923902499962
6.285057536,1.0000198403666423,-142.3210890832019
6.289655296,1.0000241640245444,-142.5630037044603
6.294253056,1.0000274951528312,-142.80499390999307
6.298850816,1.00002957807477,-143.04702304432337
6.303448064,1.0000302649355148,-143.28905127586634
6.308045824,1.0000295332383031,-143.53109145924964
6.312643584,1.0000274465962926,-143.77309221135843
6.317241344,1.0000241460576618,-144.01508192867158
6.321839104,1.0000197146131176,-144.25703565591368
6.326436864,1.0000145318482592,-144.49888626452895
6.331034624,1.0000088210724893,-144.74067784988836
6.335632384,1.0000030041356154,-144.98240336537887
6.340229632,0.9999973276997877,-145.2240276895493
6.344827392,0.9999922389508237,-145.46559425921737
6.349425152,0.9999879088690087,-145.70709758455683
6.354022912,0.9999846720815772,-145.94853017021006
6.358620672,0.9999827426593347,-146.18994953382588
6.363218432,0.9999821662487561,-146.4313239635471
6.367816192,0.9999831051764015,-146.6727163788419
6.372413952,0.9999853489155747,-146.91413009533434
6.377011712,0.9999888297651353,-147.1556064051881
6.38160896,0.9999933992267388,-147.3971062417805
6.38620672,0.9999987640182706,-147.63871119146276
6.39080448,1.0000045206320762,-147.88036120300146
6.39540224,1.000010453879306,-148.12210049659717
6.4,1.0000161270829122,-148.36396924535572
6.40459776,1.0000212774354242,-148.6058617002274
6.40919552,1.0000255896834802,-148.84785921204457
6.41379328,1.0000286875169566,-149.0898653973413
6.41839104,1.000030434707074,-149.3319323492933
6.422988288,1.0000308478262412,-149.57401792177842
6.427586048,1.0000297891261123,-149.8160871001569
6.432183808,1.0000273807176348,-150.05815334801343
6.436781568,1.0000236958603863,-150.30018701767506
6.441379328,1.0000190105194715,-150.54212994965107
6.445977088,1.000013511299037,-150.7840290177855
6.450574848,1.0000076418898773,-151.02583518941663
6.455172608,1.0000016204674333,-151.267535222549
6.459770368,0.9999959536533106,-151.50918498489477
6.464367616,0.999990813863778,-151.75076896663512
6.468965376,0.9999866457828637,-151.9922779974217
6.473563136,0.9999836218290172,-152.23370978552234
6.478160896,0.9999819462968478,-152.475132162606
6.482758656,0.9999816909977356,-152.71657751301348
6.487356416,0.9999829537373273,-152.957963605831
6.491954176,0.999985528257331,-153.19939133333583
6.496551936,0.9999893843417204,-153.44090679269775
6.501149184,0.9999942839783198,-153.6824507830318
6.505746944,0.9999998901036944,-153.92404380697835
6.510344704,1.0000058495378599,-154.16578766257763
6.514942464,1.000011949664087,-154.4075735886504
6.519540224,1.0000176405872185,-154.6494415992941
6.524137984,1.0000226874358882,-154.89139513533658
6.528735744,1.000026802610528,-155.13341199035062
6.533333504,1.0000297581942976,-155.37547011795155
6.537931264,1.0000313049067036,-155.61756607243905
6.542528512,1.0000313439176864,-155.8596855859254
6.547126272,1.0000299524932972,-156.10177425780748
6.551724032,1.000027144619869,-156.34386033014601
6.556321792,1.0000231395554173,-156.58588574987056
6.560919552,1.000018147058633,-156.82782588335215
6.565517312,1.000012340719819,-157.06973862924232
6.570115072,1.0000062764302893,-157.31151649613852
6.574712832,1.000000190965448,-157.5532164789102
6.579310592,0.9999944940921158,-157.79488239082326
6.58390784,0.9999893822422953,-158.03642537786905
6.5885056,0.9999853620977037,-158.27794788911046
6.59310336,0.99998254396429,-158.519380775284
6.59770112,0.9999811878765856,-158.76080879782535
6.60229888,0.9999812222177584,-159.0022171658003
6.60689664,0.9999828131506128,-159.24362198430083
6.6114944,0.9999857867411321,-159.48509197156284
6.61609216,0.9999900392743218,-159.72658967146344
6.620689408,0.9999952306692966,-159.96815300317078
6.625287168,1.0000010710292992,-160.20979380214914
6.629884928,1.0000072574619372,-160.4515166111035
6.634482688,1.0000133797967898,-160.69334400007395
6.639080448,1.0000191516976331,-160.9352271979397
6.643678208,1.0000242222009266,-161.17722138047813
6.648275968,1.0000281295650784,-161.4192643368461
6.652873728,1.000030818454103,-161.6613293753106
6.657471488,1.0000320145308166,-161.9034487922478
6.662068736,1.0000318142240383,-162.14556854390625
6.666666496,1.0000300721016597,-162.38767518770734
6.671264256,1.0000268998281454,-162.62971896046753
6.675862016,1.0000225375532077,-162.87177402619892
6.680459776,1.000017170904796,-163.1136934997327
6.685057536,1.0000111257881754,-163.35558119731175
6.689655296,1.0000049490939167,-163.59734624422265
6.694253056,0.9999986346836357,-163.83905028322275
6.698850816,0.9999929303281424,-164.08065688754047
6.703448064,0.9999879646637982,-164.3222024803539
6.708045824,0.9999841207719189,-164.56365989378253
6.712643584,0.9999814930020824,-164.8050998469906
6.717241344,0.9999804350572533,-165.04648879720855
6.721839104,0.9999808760707739,-165.28791020602876
6.726436864,0.9999828235895145,-165.52928526767604
6.731034624,0.9999862136053143,-165.77074058487239
6.735632384,0.9999906917124083,-166.0122520779316
6.740229632,0.9999962613639917,-166.25379674145546
6.744827392,1.0000023206433881,-166.49545046164383
6.749425152,1.0000087035583523,-166.73717424465286
6.754022912,1.000014924501839,-166.97902070774938
6.758620672,1.0000207639195704,-167.22093326987167
6.763218432,1.0000256328068966,-167.46289919204776
6.767816192,1.0000294750900611,-167.7049575827096
6.772413952,1.0000318676518567,-167.9470364778353
6.777011712,1.0000327757082281,-168.18913553665885
6.78160896,1.0000322043663743,-168.43126015801047
6.78620672,1.0000301017594488,-168.67334541505483
6.79080448,1.0000265594633773,-168.91540308452028
6.79540224,1.0000218321416432,-169.15737880344187
6.8,1.0000161236555507,-169.39930271348427
6.80459776,1.000009826136988,-169.64112938891074
6.80919552,1.0000034422414656,-169.88288974184155
6.81379328,0.9999972103500029,-170.12454473517397
6.81839104,0.9999913748003414,-170.36608990747786
6.822988288,0.999986547511303,-170.60760193419344
6.827586048,0.9999828473032826,-170.8490180870769
6.832183808,0.999980560438123,-171.09040596155214
6.836781568,0.999979769035091,-171.3317583628727
6.841379328,0.9999806249959126,-171.5731333594395
6.845977088,0.9999829613492395,-171.81450674253156
6.850574848,0.9999866120941509,-172.05592522266312
6.855172608,0.9999915537890686,-172.29740651305752
6.859770368,0.999997378604738,-172.53898093022664
6.864367616,1.0000037002977473,-172.78061904088347
6.868965376,1.0000102025892208,-173.0223392268878
6.873563136,1.0000165361490374,-173.26414960672523
6.878160896,1.0000222785301758,-173.50606631771436
6.882758656,1.0000271066437738,-173.7480249193626
6.887356416,1.0000306764496574,-173.99006001332387
6.891954176,1.0000327847477524,-174.23213221325796
6.896551936,1.0000334593285116,-174.4742002564378
6.901149184,1.0000324566674574,-174.7163089422194
6.905746944,1.0000298847365001,-174.95836102980888
6.910344704,1.0000259910562688,-175.2003889341668
6.914942464,1.0000209236112583,-175.44233097322314
6.919540224,1.0000149950995936,-175.6842130157203
6.924137984,1.000008519230471,-175.9259694364691
6.928735744,1.0000019404227072,-176.16766109190894
6.933333504,0.9999955886040695,-176.4092508257144
6.937931264,0.9999899104482892,-176.65075118966763
6.942528512,0.9999851050282507,-176.8921871932256
6.947126272,0.9999816304333604,-177.13356855182047
6.951724032,0.9999795940460677,-177.37489868930393
6.956321792,0.9999792084666121,-177.61620146452552
6.960919552,0.9999803761075465,-177.85752932204798
6.965517312,0.9999830433386291,-178.0988853031722
6.970115072,0.9999871604605459,-178.34026620934375
6.974712832,0.9999924839984005,-178.58170085978864
6.979310592,0.9999985965866689,-178.82322770224135
6.98390784,1.0000051057807156,-179.06483725259432
6.9885056,1.000011789761729,-179.30654503091628
6.99310336,1.0000181354780533,-179.5483487167442
6.99770112,1.0000238686419154,-179.7902262036232
7.00229888,1.0000285293197393,179.96784238076717
7.00689664,1.0000318355606883,179.7258119526197
7.0114944,1.0000337318755146,179.48379513680203
7.01609216,1.0000339289167344,179.24173888257536
7.020689408,1.0000325976745459,178.99969407661348
7.025287168,1.0000297341266176,178.75766062350868
7.029884928,1.0000254152113666,178.51572208161016
7.034482688,1.000019992472328,178.27384574369856
7.039080448,1.000013621484677,178.03204295132272
7.043678208,1.0000069961921656,177.790317323873
7.048275968,1.0000003570506348,177.54871915840005
7.052873728,0.999993898060341,177.30719174690356
7.057471488,0.9999883420943878,177.06577284518355
7.062068736,0.9999837197989132,176.82440255073706
7.066666496,0.9999804575164515,176.58311638121282
7.071264256,0.9999787224057111,176.34185182822728
7.075862016,0.9999786309183172,176.10060447849503
7.080459776,0.9999802880014803,175.85933274379073
7.085057536,0.9999833041595478,175.61806099194828
7.089655296,0.9999879482332975,175.37672292888303
7.094253056,0.999993488638282,175.13533495144918
7.098850816,0.999999879350505,174.89385370363493
7.103448064,1.0000066360612003,174.6522552308198
7.108045824,1.0000133734669496,174.41060140281314
7.112643584,1.0000197728192257,174.16883877041553
7.117241344,1.0000254720026007,173.92700980378157
7.121839104,1.0000298867078579,173.68510975594552
7.126436864,1.000033080767884,173.44313971690755
7.131034624,1.0000346589317186,173.20114799710439
7.135632384,1.000034432781105,172.95913547869614
7.140229632,1.0000326863297961,172.71716011637707
7.144827392,1.0000294060129782,172.4752190271609
7.149425152,1.0000246953977407,172.2333360812401
7.154022912,1.0000188970056711,171.99153292851364
7.158620672,1.000012421340046,171.74980198403568
7.163218432,1.0000053872180956,171.5081793094285
7.167816192,0.9999986749432404,171.26666037954524
7.172413952,0.99999230587486,171.02522510658213
7.177011712,0.9999867410611272,170.78389206766383
7.18160896,0.9999823156685267,170.54261769238587
7.18620672,0.999979309176767,170.30142217324567
7.19080448,0.9999779817436609,170.06023136356214
7.19540224,0.9999782167066529,169.81907917928282
7.2,0.9999802296466278,169.57789278026888
7.20459776,0.999983785967427,169.33666917168247
7.20919552,0.9999885629705841,169.09539545329483
7.21379328,0.9999945858653967,168.85404663312056
7.21839104,1.0000012203381325,168.61261443221042
7.222988288,1.000008264052116,168.37108891673782
7.227586048,1.0000152380625134,168.12946967179946
7.232183808,1.0000216132746413,167.8877691654744
7.236781568,1.0000270272725134,167.6459866266845
7.241379328,1.0000313017662177,167.4041206590793
7.245977088,1.000034219435551,167.16224097650382
7.250574848,1.000035358592727,166.9202963034805
7.255172608,1.0000348576417817,166.67839940179618
7.259770368,1.000032750912617,166.43647599750386
7.264367616,1.0000289313760944,166.19460429506165
7.268965376,1.000023893852438,165.95281767168743
7.273563136,1.0000177942125097,165.7110993807896
7.278160896,1.0000109504491406,165.4694660462179
7.282758656,1.000003891852056,165.22796789993112
7.287356416,0.9999969550768851,164.98653540191233
7.291954176,0.9999906432772707,164.7452113750481
7.296551936,0.9999851367814363,164.5039881393014
7.301149184,0.9999808862495375,164.26282882446554
7.305746944,0.9999783366529351,164.02168785778537
7.310344704,0.9999772250578625,163.78062545666134
7.314942464,0.9999779566821572,163.5395565078452
7.319540224,0.9999803934804679,163.29844536583045
7.324137984,0.9999842759830796,163.0573396353064
7.328735744,0.9999896152324564,162.81611833395823
7.333333504,0.9999957837656012,162.5748291372065
7.337931264,1.000002745548895,162.3334889335552
7.342528512,1.000009945937295,162.0920279004884
7.347126272,1.0000169816394038,161.85047337626733
7.351724032,1.0000233370477818,161.60882692097854
7.356321792,1.0000287388023987,161.36712311144234
7.360919552,1.0000327246310778,161.12532057326865
7.365517312,1.0000352969728543,160.8835111670448
7.370115072,1.0000361237005164,160.64167197167262
7.374712832,1.000035240548173,160.39982337113722
7.379310592,1.0000326775974033,160.1580057653566
7.38390784,1.0000283923471243,159.91622923183155
7.3885056,1.0000231192553402,159.67454040282416
7.39310336,1.0000165078472358,159.43293625072909
7.39770112,1.000009505234264,159.19141974232323
7.40229888,1.0000022868083485,158.9500143741199
7.40689664,0.999995296948825,158.7087408264849
7.4114944,0.9999890324637919,158.46752793104847
7.41609216,0.9999836465102369,158.22642171207212
7.420689408,0.9999796283788333,157.98536409809472
7.425287168,0.9999771768801728,157.74435856227336
7.429884928,0.9999766339791731,157.50340665457136
7.434482688,0.9999776997134381,157.26243005864384
7.439080448,0.9999805245707852,157.02142362715043
7.443678208,0.9999849198277003,156.780401855209
7.448275968,0.9999905820415864,156.53929068195671
7.452873728,0.9999972187686463,156.29811059712108
7.457471488,1.0000043010878448,156.05682736272956
7.462068736,1.0000117382734743,155.81542660523004
7.466666496,1.0000188273866086,155.573971587665
7.471264256,1.0000250291963053,155.33237936356295
7.475862016,1.0000303534718369,155.0907611616773
7.480459776,1.0000341016009837,154.84905346939618
7.485057536,1.0000364008270552,154.6073255751249
7.489655296,1.0000367726855939,154.36555883078825
7.494253056,1.000035427729891,154.12381765573843
7.498850816,1.0000324416499489,153.88210257270066
7.503448064,1.0000278531283258,153.64047222309452
7.508045824,1.0000219775154515,153.39887533702108
7.512643584,1.0000151594024995,153.15740299960478
7.517241344,1.000007909416916,152.91601996419615
7.521839104,1.0000004745172888,152.67472183116936
7.526436864,0.9999935181241905,152.43358429610464
7.531034624,0.9999871282386892,152.19252413958873
7.535632384,0.9999820101319457,151.95153245983644
7.540229632,0.9999783022670953,151.71061839712476
7.544827392,0.9999762154646942,151.46975470241767
7.549425152,0.9999759448164358,151.22890970086019
7.554022912,0.999977546949846,150.98805307891394
7.558620672,0.9999808043733177,150.74714158795916
7.563218432,0.9999855929189748,150.50622070680365
7.567816192,0.9999916858654535,150.26522078157285
7.572413952,0.9999986952169767,150.02413099273267
7.577011712,1.0000060729965534,149.78294260386124
7.58160896,1.0000135364873755,149.5416274657611
7.58620672,1.000020651637667,149.30027286102208
7.59080448,1.000026844931222,149.05881043432984
7.59540224,1.0000318028890538,148.8172474653397
7.6,1.0000354356422057,148.5756548614496
7.60459776,1.0000373565104488,148.3340054219033
7.60919552,1.000037397377604,148.09235552968713
7.61379328,1.0000354883456204,147.85072521458366
7.61839104,1.0000321018726206,147.60914225157902
7.622988288,1.0000270531207045,147.36762324482763
7.627586048,1.0000207757898334,147.12616706529138
7.632183808,1.0000137945184138,146.88482126542505
7.636781568,1.0000061991994327,146.6435649064668
7.641379328,0.9999986500163498,146.40246423688475
7.645977088,0.9999915953948731,146.16144309718987
7.650574848,0.9999853953897764,145.9205204553561
7.655172608,0.9999804785257731,145.67967305462707
7.659770368,0.9999769876116981,145.43892043556207
7.664367616,0.9999753990747188,145.1981585539776
7.668965376,0.9999754211019288,144.957456142845
7.673563136,0.9999774637709146,144.71672266271688
7.678160896,0.9999812017575175,144.47595850651217
7.682758656,0.9999864218275902,144.23514313200326
7.687356416,0.9999929034741828,143.99425101941128
7.691954176,1.0000001002913008,143.75325937289364
7.696551936,1.0000077744078344,143.51217889955794
7.701149184,1.0000153972265646,143.27099073697173
7.705746944,1.000022468487945,143.02970214385283
7.710344704,1.0000285786698075,142.78834108887642
7.714942464,1.0000334355505398,142.54689763898972
7.719540224,1.000036751570427,142.30540050735743
7.724137984,1.0000381832770575,142.0638760189096
7.728735744,1.0000379180278745,141.8223440326202
7.733333504,1.0000355796262854,141.58084285188002
7.737931264,1.0000316923801222,141.33937788239797
7.742528512,1.0000261974627072,141.09800716608672
7.747126272,1.0000196183607313,140.85669777768746
7.751724032,1.0000121871922654,140.61551363272827
7.756321792,1.000004416586708,140.37441781666843
7.760919552,0.9999968738654599,140.13345613060667
7.765517312,0.999989791144972,139.8926013734016
7.770115072,0.9999836353699164,139.6518376370622
7.774712832,0.9999789619235262,139.41114910288732
7.779310592,0.9999757933374237,139.17053000477466
7.78390784,0.9999744945601613,138.92994179630338
7.7885056,0.9999751377447683,138.6893764521339
7.79310336,0.9999775884325274,138.44878803240468
7.79770112,0.999981753835397,138.20815940549824
7.80229888,0.9999873602568256,137.96745455620993
7.80689664,0.9999941324232933,137.72667350069722
7.8114944,1.0000017473229008,137.48580884937152
7.81609216,1.0000095874906305,137.2448511432536
7.820689408,1.0000171947414553,137.00377067570656
7.825287168,1.0000242755543776,136.7625925808029
7.829884928,1.0000302669635504,136.52132276762885
7.834482688,1.000035002924096,136.2800168021347
7.839080448,1.0000379298976625,136.03862419542753
