freq,mag,phase
6.0,1.0000068775494637,102.98993803694049
6.002285568,1.0000219466672478,102.81263982341484
6.004571648,1.0000365506819977,102.63513988536549
6.006857216,1.0000487022610007,102.45745049817502
6.009142784,1.0000575416916015,102.27963918543539
6.011428352,1.0000628364881468,102.1017326492964
6.013714432,1.0000640873024325,101.92376929676348
6.016,1.0000611569751547,101.74587256809158
6.018285568,1.0000543689643233,101.56801281148131
6.020571648,1.0000440276470026,101.39032636919039
6.022857216,1.0000307243131832,101.21281304490044
6.025142784,1.0000155978403318,101.03552697337223
6.027428352,0.9999992527080346,100.85847582425413
6.029714432,0.9999830524469252,100.68167773351784
6.032,0.9999677340115133,100.50512803812194
6.034285568,0.9999543629690755,100.32879228318961
6.036571648,0.9999439684807545,100.15266151310668
6.038857216,0.9999368358149114,99.97664226168177
6.041142784,0.9999336389619178,99.8007234045852
6.043428352,0.9999346638301158,99.62482361332412
6.045714432,0.9999396085505249,99.44892380158099
6.048,0.9999483243571705,99.27292974423449
6.050285568,0.999960242659713,99.09678401413892
6.052571648,0.9999745441576531,98.92046485730913
6.054857216,0.9999903962219159,98.74396564616931
6.057142784,1.0000068079140962,98.56721837250024
6.059428352,1.0000226772485907,98.3902693015329
6.061714432,1.000037012686231,98.21309217220387
6.064,1.0000490366051777,98.03574454438953
6.066285568,1.000057814241872,97.85827334657273
6.068571648,1.000062869073787,97.68071948542183
6.070857216,1.0000639238839986,97.50313572308976
6.073142784,1.0000608901125259,97.32555678759716
6.075428352,1.0000538280444513,97.1480889211436
6.077714432,1.00004336476401,96.97074912867956
6.08,1.0000301531886537,96.79359808485694
6.082285568,1.0000149409499868,96.61666141180265
6.084571648,0.9999986568098652,96.43996879243656
6.086857216,0.999982385269793,96.26354140131451
6.089142784,0.9999673231493174,96.08733522213831
6.091428352,0.9999540649595423,95.91136651798459
6.093714432,0.9999436645008215,95.73557423278925
6.096,0.9999368181668367,95.55992672120516
6.098285568,0.9999337969499258,95.38434842839236
6.100571648,0.9999349679371156,95.20881416439421
6.102857216,0.9999401345986548,95.03324015908493
6.105142784,0.9999490312419379,94.85756435755661
6.107428352,0.9999610463210541,94.68176604199247
6.109714432,0.9999753612502388,94.50580060938573
6.112,0.9999911727576744,94.32962713599812
6.114285568,1.0000075853604529,94.15321867269762
6.116571648,1.000023411566394,93.97659759779286
6.118857216,1.0000376345405764,93.79978220060042
6.121142784,1.000049402955061,93.62278129456777
6.123428352,1.0000580435674116,93.44566082701412
6.125714432,1.000062883396925,93.2684410964162
6.128,1.0000637617564325,93.09118370423111
6.130285568,1.0000605418485096,92.91399233401368
6.132571648,1.0000532716724309,92.73686166830535
6.134857216,1.000042852337472,92.55988466010997
6.137142784,1.0000295194825901,92.3830880874933
6.139428352,1.000014238682398,92.20652889588594
6.141714432,0.9999979707312915,92.03018077650306
6.144,0.9999817913746507,91.85410632284656
6.146285568,0.9999667115435181,91.67826862263558
6.148571648,0.9999536935254921,91.50263829864734
6.150857216,0.9999434765996321,91.32720938320844
6.153142784,0.9999367768832934,91.15190664967677
6.155428352,0.9999340971457746,90.97668549405408
6.157714432,0.9999353508296654,90.80148998193916
6.16,0.9999406436772104,90.6262714283342
6.162285568,0.9999496701328838,90.45094790284146
6.164571648,0.9999617881611907,90.27547896013068
6.166857216,0.9999761269370417,90.09985102209681
6.169142784,0.9999920581402122,89.92400433491727
6.171428352,1.0000083648529876,89.74794949250663
6.173714432,1.000024011254951,89.57166186675256
6.176,1.0000381933166091,89.39518084691956
6.178285568,1.00004980395544,89.21853037859889
6.180571648,1.0000582664019086,89.04173679163947
6.182857216,1.0000629254296103,88.86486348280775
6.185142784,1.0000636460920065,88.68797935723404
6.187428352,1.0000601762993193,88.51111516901159
6.189714432,1.0000528837557205,88.33435901411666
6.192,1.000042272055872,88.15773526128032
6.194285568,1.000028886871555,87.9812881753201
6.196571648,1.0000134932046343,87.80507659143171
6.198857216,0.999997286125393,87.62912484722612
6.201142784,0.9999812735789402,87.45338481710064
6.203428352,0.9999662845743061,87.27789320352461
6.205714432,0.9999534276805794,87.10263214059437
6.208,0.9999433151536464,86.9275449626706
6.210285568,0.9999368577538237,86.75258770423794
6.212571648,0.9999342525849567,86.57772333348586
6.214857216,0.9999357685718796,86.40285680275021
6.217142784,0.9999411884985641,86.22797006821197
6.219428352,0.9999503596577548,86.05299467939301
6.221714432,0.9999625268084557,85.87787772455458
6.224,0.9999769983310507,85.70257155382922
6.226285568,0.9999928040816617,85.52706441714471
6.228571648,1.0000090528433894,85.3513322389326
6.230857216,1.000024684673404,85.17538716626885
6.233142784,1.0000386788701456,84.99925236545128
6.235428352,1.0000501815288154,84.82291729974163
6.237714432,1.0000584394861758,84.64649353534423
6.24,1.0000629544280115,84.46996240534425
6.242285568,1.0000634387872964,84.29342661435564
6.244571648,1.0000598091450585,84.11689601442126
6.246857216,1.0000524224237368,83.94049727521963
6.249142784,1.0000416283391331,83.76422089691728
6.251428352,1.0000281901160146,83.58815350226406
6.253714432,1.0000128918364681,83.41230302932486
6.256,0.9999967125440072,83.236669862989
6.258285568,0.999980683423909,83.06131523140917
6.260571648,0.9999658275494775,82.88616088810961
6.262857216,0.9999530419976007,82.71124705570351
6.265142784,0.999943199538702,82.53651630906289
6.267428352,0.9999369598101123,82.36190537211476
6.269714432,0.9999345087022623,82.18737906231557
6.272,0.9999361432326662,82.01286005453242
6.274285568,0.9999418182804114,81.83831831763932
6.276571648,0.9999509668699755,81.66364773121627
6.278857216,0.999963246698034,81.48887215033479
6.281142784,0.9999777691609153,81.31390161950812
6.283428352,0.999993677882184,81.1387294971046
6.285714432,1.0000098681414826,80.96332983083735
6.288,1.0000253870969689,80.7877308684291
6.290285568,1.0000392870657449,80.61191441646136
6.292571648,1.0000505777010869,80.4359390733078
6.294857216,1.0000586681757253,80.2598260637688
6.297142784,1.0000629722467165,80.08365261062978
6.299428352,1.0000633017490657,79.90743990958076
6.301714432,1.0000595444088602,79.73127926627858
6.304,1.0000519835035169,79.55520812938263
6.306285568,1.0000411246153398,79.37930484951218
6.308571648,1.0000276183344348,79.20354474858621
6.310857216,1.0000122420877364,79.02806498781023
6.313142784,0.999996113101017,78.85278991203039
6.315428352,0.9999801479094782,78.67775885624216
6.317714432,0.9999654189009006,78.50299978530363
6.32,0.9999527693979412,78.3284176009641
6.322285568,0.9999430828220648,78.15402883774377
6.324571648,0.9999369664763417,77.97976003042524
6.326857216,0.9999347772916699,77.80556018278237
6.329142784,0.9999365927978622,77.63139063853511
6.331428352,0.9999423438648599,77.45717408607307
6.333714432,0.9999517214772227,77.28285173727092
6.336,0.9999641286122781,77.10839393198529
6.338285568,0.9999786911250079,76.93376506813755
6.340571648,0.9999944640761546,76.75890331353979
6.342857216,1.0000107187190503,76.58384461684795
6.345142784,1.0000260702530595,76.40856008343981
6.347428352,1.0000399150113886,76.23308257729133
6.349714432,1.0000509153165094,76.05742802512323
6.352,1.0000588817125964,75.88165704671735
6.354285568,1.000062988325842,75.7058042769127
6.356571648,1.0000631370144242,75.52994549147174
6.358857216,1.0000592070225163,75.35413070980134
6.361142784,1.000051469475842,75.1784027280376
6.363428352,1.00004051218362,75.0028139629639
6.365714432,1.0000269445928347,74.82743634422725
6.368,1.0000115971700927,74.65229284350917
6.370285568,0.9999955600750666,74.47736516681249
6.372571648,0.9999795714859178,74.30269569689122
6.374857216,0.9999649484272686,74.12825881226838
6.377142784,0.9999524565856366,73.95402953205603
6.379428352,0.9999429502160415,73.77996702210679
6.381714432,0.9999369390831286,73.6060393371426
6.384,0.9999349383840346,73.43217923594992
6.386285568,0.9999369665171689,73.25833421373441
6.388571648,0.9999429390881155,73.08444979544814
6.390857216,0.9999523669644658,72.91044446381771
6.393142784,0.999964853492174,72.73631459291308
6.395428352,0.9999794512159008,72.56200876057959
6.397714432,0.9999953012795897,72.38748346004358
6.4,1.0000113945547193,72.21274544410471
6.402285568,1.0000267633663604,72.03777102908438
6.404571648,1.0000403952936023,71.86261037257567
6.406857216,1.0000513607829173,71.6872966943155
6.409142784,1.0000590907414193,71.51185338781522
6.411428352,1.000063037221463,71.33633097801868
6.413714432,1.0000629866526267,71.16080619133093
6.416,1.0000588932473138,70.98532492625701
6.418285568,1.0000509727592606,70.80994027456434
6.420571648,1.000039974902963,70.63470923205355
6.422857216,1.000026267292888,70.4596673184452
6.425142784,1.0000109057453557,70.28483015091189
6.427428352,0.9999948524131576,70.11026852276309
6.429714432,0.999979031895598,69.93592801144617
6.432,0.9999645212087194,69.76184154830554
6.434285568,0.9999522254221149,69.58794092032079
6.436571648,0.9999428717833502,69.41420731508722
6.438857216,0.999937045496088,69.24061560764255
6.441142784,0.9999352325235046,69.06708028549316
6.443428352,0.9999373370319414,68.89355782388822
6.445714432,0.999943502586815,68.71998961086432
6.448,0.9999530669780458,68.5463243988853
6.450285568,0.9999656221128868,68.37250314696942
6.452571648,0.9999802965938998,68.19849792342085
6.454857216,0.9999961135479006,68.02429602087622
6.457142784,1.0000122112508696,67.849868228641
6.459428352,1.000027384754146,67.67522449709676
6.461714432,1.000040878937117,67.50038279786426
6.464,1.0000517878603419,67.32537184672755
6.466285568,1.000059251147257,67.15026542920212
6.468571648,1.0000630548541798,66.97508234163803
6.470857216,1.0000627889911546,66.79987552454726
6.473142784,1.000058519989025,66.62471901005168
6.475428352,1.0000505363154237,66.44965557096542
6.477714432,1.000039373674798,66.274762626911
6.48,1.0000255617798133,66.10004915342178
6.482285568,1.0000102314515589,65.92558109644507
6.484571648,0.9999942363499108,65.75131728985886
6.486857216,0.9999784369101841,65.57731652418916
6.489142784,0.9999640798794345,65.40354725160252
6.491428352,0.9999518857835875,65.22997975970705
6.493714432,0.999942648069265,65.05658473786391
6.496,0.9999370677705054,64.88332135356448
6.498285568,0.9999354527869051,64.71011005757626
6.500571648,0.9999377768493286,64.53689787749755
6.502857216,0.9999440680060149,64.36364247968562
6.505142784,0.9999537731280691,64.19028519605025
6.507428352,0.9999663529833677,64.01677461389164
6.509714432,0.9999811113980456,63.84310178079518
6.512,0.999996921935744,63.66917640990315
6.514285568,1.0000129471721304,63.49508304929536
6.516571648,1.000028031180172,63.320734558709866
6.518857216,1.000041461313464,63.146214161127546
6.521142784,1.0000521576479051,62.971531090332775
6.523428352,1.00005943204014,62.79672460995449
6.525714432,1.0000630386133804,62.621843019405816
6.528,1.0000625646958239,62.44696635674712
6.530285568,1.0000581657057386,62.27213991348701
6.532571648,1.0000500955582092,62.09740465301996
6.534857216,1.000038788440642,61.922824923786
6.537142784,1.000024894199905,61.74843368833009
6.539428352,1.0000095271949734,61.57427900605641
6.541714432,0.9999934582504996,61.4003662585282
6.544,0.9999778380472327,61.22668999281358
6.546285568,0.9999635486515737,61.053231167944
6.548571648,0.9999515624428961,60.87999757748946
6.550857216,0.9999424996385339,60.706921815678164
6.553142784,0.9999370929459009,60.533961668985505
6.555428352,0.9999356624531957,60.36106955081026
6.557714432,0.9999381324857939,60.18816312542351
6.56,0.9999445669254649,60.01520939125107
6.562285568,0.9999544548613611,59.84215799553013
6.564571648,0.9999671393530802,59.668966826302764
6.566857216,0.9999818578281903,59.49557755467038
6.569142784,0.9999977802117305,59.321952429786364
6.571428352,1.0000136792156253,59.14815858556652
6.573714432,1.000028765718559,58.97412643791514
6.576,1.0000419185135365,58.79991754116018
6.578285568,1.0000524538609465,58.62550439804632
6.580571648,1.00005969295652,58.451035312311475
6.582857216,1.0000630847278698,58.276454977432365
6.585142784,1.000062424327441,58.10189661486989
6.587428352,1.0000578472607908,57.92736952221664
6.589714432,1.0000496386431392,57.75296530066766
6.592,1.0000381175411888,57.57870084469786
6.594285568,1.000024324403581,57.4046360642418
6.596571648,1.0000089111155195,57.23078932417337
6.598857216,0.9999928404223096,57.05718301058774
6.601142784,0.999977282937013,56.883827756306914
6.603428352,0.9999631049909494,56.710699145586545
6.605714432,0.9999512437766077,56.53776767571793
6.608,0.9999423615740429,56.36499788635369
6.610285568,0.9999371454314859,56.19233489228685
6.612571648,0.9999358781517125,56.01975353310986
6.614857216,0.9999385765364587,55.847160519052046
6.617142784,0.9999451535431423,55.67450323346434
6.619428352,0.999955180382391,55.501752399942376
6.621714432,0.999967913899007,55.32884497401412
6.624,0.9999827475905935,55.155743120439915
6.626285568,0.9999985749802701,54.982438224081186
6.628571648,1.0000144289036466,54.80890973079748
6.630857216,1.0000294453368415,54.63516973582152
6.633142784,1.0000424666549201,54.46124718666436
6.635428352,1.0000527797621968,54.287163540197255
6.637714432,1.0000598384292625,54.112955284949564
6.64,1.0000630267137045,53.93869818206576
6.642285568,1.0000622536729706,53.76443100905102
6.644571648,1.0000575055737249,53.59020882865521
6.646857216,1.00004905619621,53.41610368327215
6.649142784,1.0000375077621315,53.24213859741488
6.651428352,1.0000236351134768,53.06839167557448
6.653714432,1.0000081292983858,52.89487872076424
6.656,0.9999922802530155,52.72156504888202
6.658285568,0.9999767125232855,52.54851212105236
6.660571648,0.9999626788159861,52.37568942590415
6.662857216,0.9999509258864763,52.20306617155617
6.665142784,0.9999422963737394,52.03059442652406
6.667428352,0.9999372079086589,51.85824200877013
6.669714432,0.9999361271369401,51.685935410643474
6.672,0.9999389798384988,51.5136415523363
6.674285568,0.9999457174807314,51.34129316966608
6.676571648,0.999955850529895,51.168806356858546
6.678857216,0.9999687392103689,50.99619015734828
6.681142784,0.999983516164682,50.82335010821961
6.683428352,0.9999993479724699,50.650346374781165
6.685714432,1.0000151552738485,50.477099111009494
6.688,1.0000300626017788,50.3036431331562
6.690285568,1.0000430116606358,50.13000868665664
6.692571648,1.000053237178787,49.956199540713
6.694857216,1.000059987323516,49.78228669832912
6.697142784,1.0000629720490257,49.608319041034896
6.699428352,1.0000619616884237,49.43433523642088
6.701714432,1.0000570780545361,49.26042310073786
6.704,1.0000485411326228,49.08659500867483
6.706285568,1.0000369295730551,48.912954051574474
6.708571648,1.0000228920245293,48.739499331115255
6.710857216,1.0000074450737613,48.56625813230052
6.713142784,0.9999915301729053,48.39327320776149
6.715428352,0.9999761230081036,48.22050318154298
6.717714432,0.9999621421442452,48.04797286010966
6.72,0.9999505785586985,47.87565185752042
6.722285568,0.9999420650003282,47.70347761972612
6.724571648,0.9999372183300478,47.531405031197714
6.726857216,0.9999363280638977,47.359390201940876
6.729142784,0.9999393933943889,47.18738285126616
6.731428352,0.999946278554571,47.01530158167754
6.733714432,0.9999565361149081,46.843080010934
6.736,0.9999694473011568,46.670753397288465
6.738285568,0.9999843408311577,46.49819939289193
6.740571648,1.0000001260711082,46.32544554269795
6.742857216,1.0000158650584967,46.15248945893737
6.745142784,1.0000307345334098,45.97928692567607
6.747428352,1.000043488396969,45.805921489687485
6.749714432,1.000053521322263,45.63239329089779
6.752,1.0000601529476298,45.45876968538575
6.754285568,1.0000629799142031,45.285076409212586
6.756571648,1.0000617630560125,45.11137752651503
6.758857216,1.000056712745483,44.9377490321882
6.761142784,1.0000480274774546,44.764204285804276
6.763428352,1.0000362295600564,44.590839027871944
6.765714432,1.0000221708115749,44.41767712784835
6.768,1.0000068236530788,44.2447455690183
6.770285568,0.9999908726202885,44.072025871712384
6.772571648,0.9999754874021247,43.89957303218299
6.774857216,0.9999616612378315,43.727324296733805
6.777142784,0.9999502432989262,43.55528743551926
6.779428352,0.9999419121210801,43.38338598058802
6.781714432,0.9999372925690223,43.21159455293196
6.784,0.9999365353895109,43.03984377225558
6.786285568,0.9999397902901214,42.86808850052196
6.788571648,0.9999468426168435,42.696275593237566
6.790857216,0.9999572399782787,42.52434631027324
6.793142784,0.9999702781368819,42.35225540738147
6.795428352,0.9999851975705214,42.17998356749008
6.797714432,1.00000098129588,42.007473889469225
6.8,1.0000166763465146,41.834789855631975
6.802285568,1.0000313795155316,41.66184935118573
6.804571648,1.000044019025186,41.48874316638727
6.806857216,1.0000538483151058,41.31548032783221
6.809142784,1.0000603592423272,41.14211624499311
6.811428352,1.0000629595123045,40.96869598722641
6.813714432,1.0000616027621172,40.79525928155957
6.816,1.0000563443158415,40.621921377408896
6.818285568,1.0000475568227194,40.448673160127456
6.820571648,1.000035692317655,40.27556914630036
6.822857216,1.0000215294240122,40.10269249541673
6.825142784,1.0000060768653178,39.930021509791175
6.827428352,0.9999901940975501,39.757604719412136
6.829714432,0.9999748734393216,39.58540471305374
6.832,0.9999611874860096,39.413416725274374
6.834285568,0.9999499243691228,39.241654506949104
6.836571648,0.9999417805828469,39.07001771647161
6.838857216,0.9999373498224158,38.89849560361639
6.841142784,0.999936780199501,38.72702398837583
6.843428352,0.9999402151285687,38.555526528269176
6.845714432,0.9999474481988686,38.38396101991424
6.848,0.9999579172638438,38.21229722479144
6.850285568,0.9999710116490922,38.04045061136029
6.852571648,0.9999860337806826,37.86842309384434
6.854857216,1.000001822698248,37.69617617918462
6.857142784,1.000017486539443,37.52372367649108
6.859428352,1.0000320195712682,37.35105354840931
6.861714432,1.0000446018687377,37.17820080494001
6.864,1.0000542866918078,37.005196474126485
6.866285568,1.0000605022723474,36.83205453751432
6.868571648,1.0000629640182457,36.65890815175254
6.870857216,1.0000614458483938,36.485759162811775
6.873142784,1.000056000487284,36.31264834713054
6.875428352,1.000046997310873,36.13965364018496
6.877714432,1.0000351134253311,35.966843968313
6.88,1.0000208322591917,35.79421613349112
6.882285568,1.0000053732163792,35.6218085099207
6.884571648,0.9999895458032874,35.449651556885755
6.886857216,0.9999743867428322,35.27771244739861
6.889142784,0.9999607169960723,35.10601813977315
6.891428352,0.9999496565872319,34.93448398909643
6.893714432,0.9999416968457275,34.76312250852641
6.896,0.9999373705667154,34.59186598917659
6.898285568,0.9999371027325156,34.420618763702755
6.900571648,0.999940708388202,34.249372016914194
6.902857216,0.999948064077762,34.07806089694428
6.905142784,0.9999586472329801,33.90662813856802
6.907428352,0.9999719144555039,33.7350255937647
6.909714432,0.9999868353933569,33.56323593522132
6.912,1.0000026322655127,33.39123172438781
6.914285568,1.0000182648070464,33.2190113759843
6.916571648,1.0000327430785918,33.04657071452475
6.918857216,1.00004513045407,32.873959851285385
6.921142784,1.0000546233182688,32.70119048485622
6.923428352,1.0000607774811865,32.52832532149783
6.925714432,1.000062967392834,32.35539241705943
6.928,1.000061177572437,32.1824819001405
6.930285568,1.0000556132753378,32.009635015431904
6.932571648,1.0000464638185713,31.836905458265907
6.934857216,1.0000343829636293,31.664326228078426
6.937142784,1.0000201646988902,31.49195764975708
6.939428352,1.0000046367199191,31.31981900807013
6.941714432,0.9999888254409246,31.14790319285377
6.944,0.9999737382912938,30.976228412446986
6.946285568,0.9999603197086974,30.804767884590905
6.948571648,0.9999493658548153,30.633500705809013
