freq,mag,phase
6.0,0.9999950758624999,86.97047595685508
6.008,0.9999953526633071,86.82489749297515
6.016,0.9999956230800937,86.67923428786115
6.024,0.999995887191046,86.53348625751696
6.032,0.9999961450737586,86.38765331823711
6.04,0.999996396805236,86.24173538660853
6.048,0.999996642461897,86.09573237951221
6.056,0.9999968821195758,85.9496442141251
6.064,0.9999971158535275,85.80347080792166
6.072,0.9999973437384277,85.65721207867581
6.08,0.9999975658483787,85.51086794446253
6.088,0.9999977822569102,85.36443832365977
6.096,0.9999979930369828,85.21792313495003
6.104,0.999998198260992,85.07132229732234
6.112,0.999998398000769,84.92463573007385
6.12,0.9999985923275855,84.7778633528117
6.128,0.9999987813121552,84.63100508545483
6.136,0.9999989650246383,84.48406084823569
6.144,0.999999143534642,84.33703056170204
6.152,0.9999993169112261,84.18991414671873
6.16,0.999999485222904,84.04271152446964
6.168,0.9999996485376461,83.89542261645923
6.176,0.9999998069228825,83.74804734451453
6.184,0.9999999604455068,83.60058563078692
6.192,1.0,83.45303739775383
6.2,0.9999999999999999,83.30540256822071
6.208,0.9999999999999999,83.15768106532272
6.216,0.9999999999999999,83.00987281252661
6.224,1.0,82.86197773363253
6.232,1.0,82.71399575277587
6.24,1.0,82.56592679442906
6.248,1.0,82.41777078340343
6.256,1.0,82.26952764485102
6.264,1.0,82.12119730426649
6.272,0.9999999999999999,81.97277968748884
6.28,1.0,81.82427472070339
6.288,0.9999999999999999,81.67568233044355
6.296,0.9999999999999999,81.52700244359268
6.304,0.9999999999999999,81.378234987386
6.312,1.0,81.22937988941233
6.32,1.0,81.08043707761614
6.328,1.0,80.93140648029923
6.336,1.0,80.78228802612271
6.344,0.9999999999999998,80.63308164410886
6.352,1.0,80.48378726364294
6.36,1.0,80.33440481447516
6.368,0.9999999999999999,80.18493422672252
6.376,0.9999999999999999,80.03537543087066
6.384,1.0,79.88572835777582
6.392,0.9999999999999999,79.73599293866668
6.4,0.9999999999999999,79.58616910514625
6.408,1.0,79.43625678919382
6.416,0.9999999999999999,79.28625592316679
6.424,1.0,79.13616643980264
6.432,1.0,78.98598827222074
6.44,1.0000000000000002,78.83572135392441
6.448,1.0,78.68536561880269
6.456,0.9999999999999999,78.53492100113229
6.464,0.9999999999999999,78.38438743557955
6.472,1.0,78.23376485720235
6.48,1.0,78.08305320145193
6.4879999999999995,0.9999999999999999,77.93225240417503
6.496,1.0,77.78136240161552
6.504,1.0,77.63038313041665
6.5120000000000005,1.0,77.47931452762268
6.52,0.9999999999999998,77.3281565306811
6.5280000000000005,0.9999999999999998,77.17690907744432
6.536,1.0,77.02557210617178
6.5440000000000005,1.0,76.87414555553177
6.552,1.0,76.72262936460349
6.5600000000000005,0.9999999999999999,76.57102347287889
6.568,1.0,76.41932782026474
6.5760000000000005,1.0,76.26754234708436
6.584,1.0,76.1156669940799
6.592,1.0,75.96370170241399
6.6,1.0,75.81164641367187
6.608,1.0,75.65950106986327
6.616,1.0,75.50726561342445
6.624,0.9999999999999999,75.35493998722012
6.632,0.9999999999999999,75.20252413454533
6.64,1.0,75.05001799912762
6.648,1.0,74.89742152512875
6.656,1.0,74.7447346571469
6.664,1.0,74.59195734021853
6.672,1.0,74.43908951982031
6.68,0.9999999999999998,74.28613114187124
6.688,1.0,74.13308215273447
6.696,1.0,73.97994249921939
6.704,1.0,73.82671212858361
6.712,0.9999999999999999,73.67339098853479
6.72,0.9999999999999999,73.51997902723288
6.728,1.0,73.36647619329187
6.736,0.9999999999999999,73.21288243578195
6.744,0.9999999999999998,73.05919770423138
6.752,0.9999999999999999,72.90542194862853
6.76,0.9999999999999999,72.75155511942387
6.768,1.0,72.59759716753199
6.776,0.9999999999999999,72.44354804433351
6.784,1.0,72.28940770167718
6.792,1.0,72.1351760918818
6.8,0.9999999999999999,71.98085316773825
6.808,1.0,71.8264388825115
6.816,0.9999999999999999,71.67193318994255
6.824,0.9999999999999999,71.51733604425053
6.832,1.0,71.3626474001346
6.84,1.0,71.20786721277601
6.848,0.9999999999999999,71.05299543784011
6.856,0.9999999999999999,70.89803203147831
6.864,1.0,70.74297695033012
6.872,0.9999999999999999,70.58783015152513
6.88,1.0,70.43259159268504
6.888,1.0,70.27726123192568
6.896,1.0,70.12183902785894
6.904,0.9999999999999999,69.96632493959488
6.912,1.0,69.81071892674368
6.92,1.0,69.65502094941763
6.928,1.0,69.49923096823316
6.936,0.9999999999999999,69.34334894431294
6.944,1.0,69.18737483928768
6.952,1.0,69.03130861529837
6.96,1.0,68.87515023499807
6.968,1.0,68.71889966155415
6.976,1.0,68.56255685865008
6.984,0.9999999999999999,68.4061217904876
6.992,1.0,68.24959442178866
7.0,0.9999999705580497,68.09297471779738
7.008,0.9999998944538377,67.9362626442822
7.016,0.9999998180342321,67.7794581675377
7.024,0.9999997413244848,67.62256125438684
7.032,0.9999996643495784,67.4655718721827
7.04,0.9999995871342277,67.30848998881072
7.048,0.9999995097028809,67.15131557269056
7.056,0.9999994320797237,66.9940485927782
7.064,0.9999993542886796,66.83668901856785
7.072,0.9999992763534122,66.67923682009405
7.08,0.9999991982973281,66.52169196793358
7.088,0.9999991201435781,66.36405443320757
7.096,0.9999990419150585,66.20632418758339
7.104,0.9999989636344156,66.04850120327673
7.112,0.999998885324045,65.89058545305357
7.12,0.9999988070060951,65.73257691023218
7.128,0.9999987287024683,65.57447554868513
7.136,0.9999986504348235,65.41628134284127
7.144,0.9999985722245777,65.2579942676877
7.152,0.9999984940929078,65.09961429877183
7.16,0.999998416060753,64.94114141220334
7.168,0.9999983381488167,64.78257558465614
7.176,0.9999982603775669,64.62391679337043
7.184,0.9999981827672412,64.46516501615457
7.192,0.9999981053378448,64.30632023138722
7.2,0.9999980281091557,64.14738241801919
7.208,0.9999979511007245,63.988351555575505
7.216,0.9999978743318776,63.829227624157355
7.224,0.999997797821717,63.67001060444403
7.232,0.9999977215891248,63.510700477695025
7.24,0.9999976456527633,63.35129722575186
7.248,0.9999975700310764,63.19180083104014
7.256,0.9999974947422929,63.032211276571545
7.264,0.9999974198044274,62.8725285459457
7.272,0.9999973452352814,62.71275262335228
7.28,0.9999972710524466,62.5528834935728
7.288,0.9999971972733055,62.39292114198275
7.296,0.9999971239150335,62.23286555455343
7.304,0.9999970509946003,62.07271671785396
7.312,0.999996978528772,61.91247461905323
7.32,0.9999969065341124,61.75213924592181
7.328,0.999996835026985,61.59171058683398
7.336,0.9999967640235549,61.43118863076956
7.344,0.9999966935397898,61.270573367315954
7.352,0.9999966235914611,61.10986478667004
7.36,0.9999965541941481,60.94906287964009
7.368,0.9999964853632364,60.78816763764773
7.376,0.9999964171139213,60.627179052729865
7.384,0.9999963494612092,60.466097117540606
7.392,0.9999962824199192,60.30492182535317
7.4,0.9999962160046841,60.14365317006181
7.4079999999999995,0.9999961502299526,59.982291146183734
7.416,0.9999960851099902,59.820835748861
7.4239999999999995,0.9999960206588816,59.6592869738625
7.432,0.9999959568905316,59.49764481758566
7.4399999999999995,0.9999958938186662,59.33590927705862
7.448,0.9999958314568353,59.174080349941875
7.4559999999999995,0.9999957698184132,59.01215803453038
7.464,0.9999957089165997,58.850142329755194
7.4719999999999995,0.9999956487644238,58.688033235185664
7.48,0.9999955893747419,58.525830751030966
7.4879999999999995,0.9999955307602417,58.36353487814232
7.496,0.9999954729334424,58.2011456180145
7.504,0.9999954159066969,58.03866297278809
7.5120000000000005,0.9999953596921924,57.87608694525093
7.52,0.9999953043019525,57.71341753884045
7.5280000000000005,0.9999952497478377,57.550654757644956
7.536,0.9999951960415473,57.38779860640598
7.5440000000000005,0.9999951431946219,57.2248490905198
7.552,0.9999950912184417,57.06180621603948
7.5600000000000005,0.9999950401242307,56.89866998967652
7.568,0.9999949899230571,56.73544041880283
7.5760000000000005,0.9999949406258336,56.572117511452404
7.584,0.9999948922433205,56.40870127632334
7.5920000000000005,0.999994844786125,56.2451917227794
7.6,0.9999947982647039,56.081588860852044
7.6080000000000005,0.9999947526893649,55.917892701241996
7.616,0.9999947080702661,55.75410325532131
7.6240000000000006,0.9999946644174192,55.590220535134875
7.632,0.9999946217406895,55.42624455340242
7.640000000000001,0.9999945800497979,55.26217532352009
7.648,0.9999945393543213,55.098012859562445
7.656000000000001,0.9999944996636937,54.93375717628393
7.664,0.999994460987209,54.769408289121
7.672,0.9999944233340198,54.60496621419345
7.68,0.9999943867131397,54.440430968306494
7.688,0.9999943511334445,54.275802568952315
7.696,0.9999943166036733,54.11108103431191
7.704,0.9999942831324292,53.9462663832567
7.712,0.9999942507281807,53.7813586353503
7.72,0.9999942193992621,53.616357810850275
7.728,0.9999941891538757,53.45126393070972
7.736,0.9999941600000919,53.28607701657909
7.744,0.9999941319458503,53.12079709080784
7.752,0.9999941049989611,52.95542417644599
7.76,0.9999940791671063,52.78995829724597
7.768,0.9999940544578392,52.62439947766419
7.776,0.9999940308785877,52.45874774286273
7.784,0.9999940084366531,52.29300311871094
7.792,0.9999939871392123,52.12716563178714
7.8,0.9999939669933182,51.961235309380264
7.808,0.9999939480059008,51.79521217949139
7.816,0.9999939301837684,51.62909627083546
7.824,0.9999939135336077,51.46288761284283
7.832,0.999993898061985,51.296586235660904
7.84,0.9999938837753478,51.130192170155716
7.848,0.9999938706800248,50.96370544791351
7.856,0.9999938587822265,50.797126101242306
7.864,0.999993848088047,50.6304541631735
7.872,0.9999938386034644,50.46368966746339
7.88,0.9999938303343411,50.296832648594716
7.888,0.9999938232864254,50.12988314177827
7.896,0.9999938174653513,49.96284118295436
7.904,0.9999938128766404,49.79570680879433
7.912,0.9999938095257015,49.628480056702124
7.92,0.9999938074178325,49.461160964815754
7.928,0.99999380655822,49.293749572008814
7.936,0.9999938069519407,49.12624591789195
7.944,0.9999938086039621,48.9586500428143
7.952,0.9999938115191428,48.790961987865074
7.96,0.9999938157022333,48.62318179487487
7.968,0.999993821157877,48.45530950641724
7.976,0.9999938278906101,48.28734516581
7.984,0.9999938359048633,48.11928881711682
7.992,0.9999938452049614,47.95114050514849
8.0,0.999993855795124,47.78290027546436
8.008,0.9999938676794674,47.614568174373844
8.016,0.999993880862003,47.4461442489376
8.024000000000001,0.9999938953466405,47.277628546969126
8.032,0.9999939111371856,47.10902111703602
8.04,0.9999939282373425,46.940322008461244
8.048,0.9999939466507141,46.7715312713246
8.056000000000001,0.9999939663808022,46.60264895646401
8.064,0.9999939874310082,46.4336751154769
8.072,0.9999940098046332,46.26460980072137
8.08,0.9999940335048793,46.09545306531751
8.088000000000001,0.9999940585348485,45.926204963148884
8.096,0.9999940848975456,45.75686554886362
8.104,0.9999941125958767,45.58743487787568
8.112,0.9999941416326498,45.4179130063661
8.120000000000001,0.9999941720105764,45.248299991284355
8.128,0.9999942037322702,45.07859589034952
8.136,0.9999942368002495,44.90880076205138
8.144,0.9999942712169354,44.738914665651734
8.152000000000001,0.999994306984654,44.568937661185615
8.16,0.9999943441056363,44.39886980946247
8.168,0.9999943825820174,44.22871117206715
8.176,0.999994422415839,44.058461811361205
8.184000000000001,0.9999944636090472,43.88812179048412
8.192,0.9999945061634945,43.71769117335426
8.2,0.9999945500809403,43.54717002467007
8.208,0.9999945953630499,43.376558409911084
8.216000000000001,0.9999946420113957,43.20585639533918
8.224,0.9999946900274576,43.03506404799961
8.232,0.9999947394126222,42.86418143572189
8.24,0.999994790168184,42.69320862712098
8.248000000000001,0.9999948422953456,42.52214569159842
8.256,0.9999948957952182,42.350992699343216
8.264,0.9999949506688199,42.17974972133278
8.272,0.9999950069170788,42.008416829334074
8.280000000000001,0.999995064540831,41.836994095904565
8.288,0.9999951235408215,41.66548159439317
8.296,0.999995183917705,41.4938793989411
8.304,0.9999952456720442,41.32218758448294
8.312,0.9999953088043129,41.15040622674759
8.32,0.999995373314893,40.97853540225898
8.328,0.999995439204077,40.80657518833721
8.336,0.9999955064720663,40.634525663099204
8.344,0.9999955751189729,40.4623869054598
8.352,0.999995645144819,40.29015899513235
8.36,0.9999957165495363,40.117842012629794
8.368,0.9999957893329671,39.94543603926526
8.376,0.9999958634948635,39.77294115715307
8.384,0.9999959390348885,39.60035744920934
8.392,0.9999960159526148,39.42768499915299
8.4,0.9999960942475263,39.25492389150615
8.408,0.9999961739190165,39.082074211595334
8.416,0.99999625496639,38.90913604555173
8.424,0.9999963373888615,38.73610948031234
8.432,0.9999964211855568,38.56299460362022
8.44,0.9999965063555109,38.389791504025624
8.448,0.9999965928976708,38.216500270886236
8.456,0.9999966808108923,38.04312099436822
8.464,0.9999967700939435,37.869653765446415
8.472,0.9999968607455014,37.696098675905425
8.48,0.9999969527641539,37.52245581833975
8.488,0.9999970461483989,37.34872528615475
8.496,0.9999971408966446,37.17490717356692
8.504,0.9999972370072098,37.001001575604725
8.512,0.9999973344783225,36.82700858810871
8.52,0.9999974333081212,36.652928307732594
8.528,0.9999975334946545,36.478760831943106
8.536,0.9999976350358798,36.304506259021075
8.544,0.999997737929665,36.130164688061384
8.552,0.9999978421737873,35.95573621897383
8.56,0.9999979477659331,35.7812209524832
8.568,0.9999980547036984,35.60661899013001
8.576,0.9999981629845877,35.43193043427051
8.584,0.9999982726060149,35.25715538807748
8.592,0.9999983835653032,35.08229395554018
8.6,0.9999984958596835,34.90734624146507
8.608,0.9999986094862953,34.73231235147575
8.616,0.999998724442187,34.55719239201359
8.624,0.9999988407243147,34.38198647033775
8.632,0.9999989583295426,34.2066946945257
8.64,0.9999990772546421,34.03131717347315
8.648,0.999999197496293,33.85585401689462
8.656,0.9999993190510819,33.68030533532328
8.664,0.9999994419155018,33.504671240111556
8.672,0.999999566085954,33.32895184343085
8.68,0.9999996915587458,33.1531472582721
8.688,0.9999998183300908,32.977257598445576
8.696,0.9999999463961086,32.80128297858124
8.704,1.0,32.62522351412868
8.712,0.9999999999999999,32.44907932135726
8.72,1.0,32.27285051735611
8.728,1.0,32.09653722003428
8.736,0.9999999999999998,31.92013954812054
8.744,1.0,31.743657621163656
8.752,0.9999999999999999,31.56709155953208
8.76,1.0,31.390441484414147
8.768,1.0,31.21370751781774
8.776,1.0,31.036889782570547
8.784,1.0,30.85998840231958
8.792,1.0,30.68300350153138
8.8,1.0,30.5059352054916
8.808,0.9999999999999999,30.32878364030505
8.815999999999999,1.0,30.151548932895334
8.824,1.0,29.974231211004703
8.832,1.0,29.796830603193907
8.84,1.0,29.619347238841893
8.847999999999999,1.0,29.441781248145396
8.856,1.0,29.26413276211877
8.864,1.0,29.08640191259374
8.872,1.0,28.90858883221896
8.879999999999999,0.9999999999999998,28.730693654459643
8.888,1.0,28.552716513597158
8.896,1.0,28.374657544728784
8.904,1.0,28.196516883767195
8.911999999999999,0.9999999999999999,28.018294667439886
8.92,1.0,27.839991033288868
8.928,1.0,27.66160611967017
8.936,0.9999999999999999,27.48314006575333
8.943999999999999,0.9999999999999999,27.304593011520687
8.952,1.0,27.125965097767
8.96,1.0,26.947256466098896
8.968,0.9999999999999999,26.76846725893419
8.975999999999999,1.0,26.589597619501205
8.984,1.0,26.410647691838168
8.992,1.0,26.231617620792676
9.0,1.0,26.05250755202087
9.008,1.0,25.873317631986684
9.016,1.0,25.69404800796115
9.024000000000001,1.0,25.51469882802175
9.032,0.9999999999999999,25.335270241051532
9.04,1.0,25.155762396738236
9.048,0.9999999999999998,24.976175445573528
9.056000000000001,0.9999999999999999,24.796509538852263
9.064,1.0,24.61676482867148
9.072,0.9999999999999999,24.436941467929472
9.08,0.9999999999999999,24.257039610324902
9.088000000000001,0.9999999999999999,24.077059410355947
9.096,1.0000000000000002,23.897001023319262
9.104,1.0,23.7168646053089
9.112,1.0,23.536650313215382
9.120000000000001,1.0,23.35635830472471
9.128,1.0,23.17598873831723
9.136,1.0,22.995541773266503
9.144,1.0,22.815017569638197
9.152000000000001,0.9999999999999998,22.634416288289096
9.16,1.0,22.45373809086582
9.168,1.0,22.27298313980358
9.176,1.0,22.092151598325025
9.184000000000001,1.0,21.911243630439124
9.192,0.9999999999999999,21.73025940093978
9.2,1.0,21.549199075404474
9.208,0.9999999999999999,21.368062820193103
9.216000000000001,0.9999999999999999,21.186850802446628
9.224,1.0,21.005563190085688
9.232,1.0,20.824200151809166
9.24,1.0,20.64276185709278
9.248000000000001,0.9999999999999999,20.461248476187798
9.256,1.0,20.27966018011949
9.264,1.0,20.097997140685514
9.272,0.9999999999999999,19.916259530454596
9.280000000000001,1.0,19.734447522764953
9.288,0.9999999999999999,19.552561291722718
9.296,1.0,19.370601012200297
9.304,0.9999999999999999,19.188566859834797
9.312000000000001,0.9999999999999999,19.006459011026468
9.32,0.9999999999999999,18.824277642937027
9.328,1.0,18.642022933487812
9.336,1.0,18.459695061358225
9.344,0.9999999999999999,18.27729420598403
9.352,0.9999999999999999,18.0948205475554
9.36,1.0000000000000002,17.912274267015412
9.368,0.9999999999999999,17.72965554605788
9.376,1.0,17.5469645671259
9.384,1.0,17.36420151340963
9.392,1.0,17.1813665688447
9.4,1.0,16.998459918110033
9.408,0.9999999999999999,16.81548174662616
9.416,0.9999999999999999,16.632432240552962
9.424,0.9999999999999999,16.449311586788014
9.432,0.9999999999999999,16.266119972964216
9.44,0.9999999999999999,16.082857587448046
9.448,1.0,15.899524619337248
9.456,0.9999999999999999,15.716121258458951
9.464,1.0,15.532647695367297
9.472,1.0,15.349104121341593
9.48,1.0,15.165490728383778
9.488,1.0,14.981807709216602
9.496,1.0,14.798055257281002
9.504,1.0,14.614233566734244
9.512,0.9999999999999999,14.430342832447248
9.52,0.9999999999999999,14.246383250002625
9.528,0.9999999999999999,14.062355015692061
9.536,1.0,13.878258326514198
9.544,1.0,13.694093380171996
9.552,0.9999999999999999,13.509860375070591
9.56,0.9999999999999999,13.32555951031455
9.568,0.9999999999999999,13.141190985705718
9.576,0.9999999999999999,12.956755001740387
9.584,0.9999999999999998,12.772251759607155
9.592,0.9999999999999999,12.587681461183967
9.6,0.9999999999999998,12.403044309035927
9.608,1.0,12.21834050641234
9.616,1.0,12.033570257244422
9.624,1.0,11.848733766142319
9.632,1.0,11.66383123839274
9.64,1.0,11.478862879955926
9.648,0.9999999999999999,11.293828897463241
9.656,1.0,11.10872949821408
9.664,1.0,10.923564890173408
9.672,1.0,10.738335281968613
9.68,0.9999999999999999,10.553040882886993
9.688,0.9999999999999999,10.36768190287256
9.696,1.0,10.18225855252345
9.704,1.0,9.996771043088705
9.712,1.0,9.811219586465615
9.72,1.0,9.625604395196445
9.728,0.9999999999999999,9.439925682465717
9.736,0.9999999999999999,9.254183662096892
9.744,1.0,9.068378548549612
9.752,1.0,8.882510556916298
9.76,1.0,8.696579902919348
9.768,0.9999999999999999,8.510586802907694
9.776,1.0,8.324531473853948
9.784,1.0,8.138414133350874
9.792,1.0,7.952234999608523
9.8,1.0,7.765994291450623
9.808,1.0,7.579692228311648
9.816,1.0,7.393329030233195
9.824,1.0,7.206904917860981
9.832,1.0,7.020420112441148
9.84,1.0,6.833874835817211
9.847999999999999,0.9999999999999999,6.647269310426386
9.856,1.0,6.460603759296247
9.864,1.0,6.2738784060413595
9.872,0.9999999999999999,6.087093474859712
9.879999999999999,1.0,5.900249190529103
9.888,0.9999999999999999,5.713345778403702
9.896,1.0,5.5263834644105385
9.904,1.0,5.339362475045842
9.911999999999999,1.0,5.152283037371319
9.92,0.9999999999999999,4.96514537901061
9.928,1.0,4.777949728145666
9.936,1.0,4.590696313512979
9.943999999999999,0.9999999999999998,4.403385364399769
9.952,1.0,4.216017110640309
9.96,1.0,4.028591782612215
9.968,1.0,3.8411096112325662
9.975999999999999,1.0,3.65357082795398
9.984,0.9999999999999999,3.465975664760828
9.992,1.0,3.278324354165434
10.0,1.0,3.0906171292040745
10.008,1.0000000000000002,2.9028542234329486
10.016,1.0,2.7150358709243005
10.024000000000001,0.9999999999999999,2.5271623062624973
10.032,1.0,2.339233764539931
10.04,0.9999999999999999,2.151250481352883
10.048,1.0,1.9632126927975346
10.056000000000001,1.0,1.775120635465951
10.064,0.9999999999999999,1.586974546441869
10.072,1.0,1.3987746632964577
