freq,mag,phase
6.0,0.999993252164251,68.95699734345686
6.008,0.9999932853431037,68.79448718100059
6.016,0.9999933170677481,68.63192775339287
6.024,0.9999933474224719,68.46931903596683
6.032,0.9999933764896897,68.30666100446801
6.04,0.9999934043499624,68.14395363505481
6.048,0.9999934310820161,67.98119690429888
6.056,0.999993456762762,67.81839078918532
6.064,0.9999934814673154,67.65553526711317
6.072,0.999993505269016,67.49263031589567
6.08,0.9999935282394459,67.32967591376062
6.088,0.9999935504484496,67.1666720393507
6.096,0.9999935719641541,67.00361867172376
6.104,0.9999935928529853,66.84051579035312
6.112,0.9999936131796905,66.67736337512794
6.12,0.9999936330073538,66.51416140635341
6.128,0.9999936523974182,66.35090986475109
6.136,0.9999936714097024,66.18760873145924
6.144,0.9999936901024198,66.02425798803291
6.152,0.9999937085321978,65.86085761644446
6.16,0.9999937267540965,65.69740759908359
6.168,0.9999937448216263,65.5339079187577
6.176,0.9999937627867668,65.37035855869213
6.184,0.9999937806999866,65.20675950253036
6.192,0.9999937986102588,65.04311073433423
6.2,0.9999938165650816,64.8794122385842
6.208,0.9999938346104957,64.71566400017953
6.216,0.9999938527911023,64.55186600443855
6.224,0.9999938711500815,64.3880182370987
6.232,0.9999938897292092,64.22412068431692
6.24,0.9999939085688772,64.06017333266975
6.248,0.999993927708108,63.896176169153414
6.256,0.9999939471845756,63.73212918118418
6.264,0.9999939670346202,63.568032356598316
6.272,0.9999939872932693,63.40388568365245
6.28,0.9999940079942506,63.239689151023555
6.288,0.9999940291700147,63.07544274780919
6.296,0.9999940508517475,62.91114646352759
6.304,0.9999940730693916,62.746800288117804
6.312,0.9999940958516602,62.58240421193985
6.32,0.9999941192260563,62.41795822577474
6.328,0.9999941432188891,62.253462320824724
6.336,0.9999941678552908,62.08891648871327
6.344,0.9999941931592338,61.9243207214852
6.352,0.999994219153547,61.75967501160684
6.36,0.9999942458599331,61.59497935196595
6.368,0.9999942732989846,61.43023373587199
6.376,0.9999943014902019,61.26543815705604
6.384,0.9999943304520063,61.100592609670876
6.392,0.9999943602017609,60.93569708829113
6.4,0.9999943907557837,60.77075158791323
6.408,0.9999944221293647,60.60575610395546
6.416,0.9999944543367826,60.44071063225805
6.424,0.9999944873913199,60.275615169083125
6.432,0.9999945213052798,60.11046971111479
6.44,0.9999945560900011,59.94527425545909
6.448,0.9999945917558748,59.780028799644036
6.456,0.9999946283123599,59.61473334161968
6.464,0.9999946657679983,59.449387879757985
6.472,0.999994704130431,59.28399241285289
6.48,0.9999947434064126,59.11854694012026
6.4879999999999995,0.9999947836018281,58.95305146119789
6.496,0.9999948247217075,58.7875059761454
6.504,0.9999948667702401,58.621910485444374
6.5120000000000005,0.9999949097507913,58.45626498999804
6.52,0.9999949536659163,58.290569491131535
6.5280000000000005,0.9999949985173753,58.12482399059147
6.536,0.999995044306149,57.959028490546366
6.5440000000000005,0.9999950910324532,57.793182993586
6.552,0.9999951386957519,57.62728750272187
6.5600000000000005,0.9999951872947742,57.4613420213867
6.568,0.9999952368275276,57.29534655343461
6.5760000000000005,0.9999952872913122,57.12930110314086
6.584,0.9999953386827349,56.96320567520192
6.592,0.9999953909977256,56.797060274735145
6.6,0.9999954442315478,56.63086490727882
6.608,0.9999954983788157,56.464619578792
6.616,0.9999955534335072,56.2983242956544
6.624,0.9999956093889769,56.13197906466616
6.632,0.9999956662379704,55.96558389304787
6.64,0.9999957239726389,55.79913878844029
6.648,0.9999957825845519,55.63264375890421
6.656,0.99999584206471,55.466098812920414
6.664,0.9999959024035595,55.29950395938937
6.672,0.9999959635910055,55.13285920763115
6.68,0.9999960256164238,54.966164567385206
6.688,0.9999960884686764,54.799420048810205
6.696,0.9999961521361223,54.63262566248385
6.704,0.9999962166066314,54.46578141940271
6.712,0.9999962818675973,54.29888733098193
6.72,0.9999963479059497,54.131943409055104
6.728,0.9999964147081674,53.96494966587409
6.736,0.9999964822602909,53.797906114108685
6.744,0.999996550547934,53.6308127668465
6.752,0.9999966195562977,53.46366963759268
6.76,0.9999966892701807,53.296476740269696
6.768,0.9999967596739925,53.129234089217064
6.776,0.999996830751766,52.961941699191144
6.784,0.999996902487168,52.7945995853649
6.792,0.9999969748635125,52.62720776332755
6.8,0.9999970478637711,52.45976624908442
6.808,0.9999971214705861,52.292275059056564
6.816,0.9999971956662814,52.12473421008059
6.824,0.9999972704328736,51.95714371940832
6.832,0.9999973457520835,51.7895036047065
6.84,0.9999974216053489,51.62181388405656
6.848,0.9999974979738327,51.45407457595422
6.856,0.9999975748384375,51.28628569930932
6.864,0.9999976521798143,51.1184472734454
6.872,0.9999977299783733,50.9505593180994
6.88,0.9999978082142966,50.782621853421425
6.888,0.9999978868675469,50.61463489997435
6.896,0.9999979659178788,50.44659847873345
6.904,0.9999980453448503,50.27851261108617
6.912,0.9999981251278315,50.110377318831695
6.92,0.9999982052460153,49.94219262418068
6.928,0.9999982856784297,49.7739585497548
6.936,0.9999983664039445,49.60567511858649
6.944,0.9999984474012839,49.4373423541185
6.952,0.9999985286490349,49.26896028020365
6.96,0.9999986101256585,49.10052892110428
6.968,0.9999986918094983,48.932048301492024
6.976,0.9999987736787903,48.76351844644736
6.984,0.9999988557116727,48.594939381459234
6.992,0.9999989378861954,48.42631113242464
7.0,0.9999990201803283,48.257633725648304
7.008,0.9999991025719727,48.08890718784214
7.016,0.9999991850389671,47.920131546125
7.024,0.9999992675591,47.75130682802213
7.032,0.9999993501101158,47.58243306146484
7.04,0.9999994326697256,47.413510274790056
7.048,0.9999995152156136,47.24453849673984
7.056,0.9999995977254491,47.07551775646099
7.064,0.9999996801768916,46.906448083504664
7.072,0.9999997625476013,46.73732950782584
7.08,0.9999998448152466,46.56816205978292
7.088,0.9999999269575132,46.39894577013725
7.096,1.0,46.22968067005272
7.104,1.0,46.060366791095205
7.112,1.0,45.891004165232175
7.12,1.0,45.72159282483222
7.128,1.0,45.55213280266452
7.136,1.0,45.38262413189839
7.144,0.9999999999999999,45.21306684610283
7.152,1.0,45.04346097924601
7.16,0.9999999999999999,44.87380656569469
7.168,1.0,44.704103640213916
7.176,1.0,44.53435223796631
7.184,1.0,44.364552394511655
7.192,0.9999999999999998,44.19470414580642
7.2,1.0,44.02480752820315
7.208,1.0,43.85486257845002
7.216,1.0,43.684869333690244
7.224,1.0000000000000002,43.51482783146163
7.232,0.9999999999999999,43.34473810969592
7.24,0.9999999999999999,43.174600206718395
7.248,1.0,43.0044141612472
7.256,0.9999999999999999,42.83418001239287
7.264,1.0000000000000002,42.66389779965779
7.272,0.9999999999999999,42.493567562935574
7.28,1.0,42.32318934251052
7.288,1.0,42.15276317905709
7.296,0.9999999999999999,41.98228911363932
7.304,1.0,41.811767187710224
7.312,0.9999999999999999,41.641197443111196
7.32,0.9999999999999999,41.47057992207153
7.328,1.0,41.29991466720771
7.336,0.9999999999999999,41.12920172152289
7.344,0.9999999999999999,40.95844112840631
7.352,1.0,40.7876329316326
7.36,0.9999999999999999,40.61677717536135
7.368,1.0,40.445873904136334
7.376,1.0,40.27492316288499
7.384,0.9999999999999999,40.10392499691777
7.392,1.0,39.93287945192757
7.4,0.9999999999999999,39.7617865739891
7.4079999999999995,1.0,39.59064640955815
7.416,1.0,39.4194590054711
7.4239999999999995,0.9999999999999999,39.24822440894428
7.432,1.0,39.07694266757318
7.4399999999999995,0.9999999999999999,38.905613829332026
7.448,1.0,38.73423794257291
7.4559999999999995,1.0,38.56281505602542
7.464,1.0,38.391345218795664
7.4719999999999995,1.0,38.21982848036593
7.48,1.0,38.04826489059372
7.4879999999999995,0.9999999999999999,37.87665449971142
7.496,1.0,37.70499735832528
7.504,1.0,37.53329351741511
7.5120000000000005,0.9999999999999999,37.36154302833327
7.52,1.0000000000000002,37.189745942804244
7.5280000000000005,1.0,37.01790231292381
7.536,1.0,36.8460121911585
7.5440000000000005,1.0,36.67407563034467
7.552,1.0,36.50209268368816
7.5600000000000005,1.0,36.33006340476324
7.568,0.9999999999999999,36.15798784751222
7.5760000000000005,1.0,35.9858660662445
7.584,1.0,35.81369811563611
7.5920000000000005,1.0,35.641484050728714
7.6,1.0,35.469223926929246
7.6080000000000005,0.9999999999999999,35.296917800008856
7.616,0.9999999999999999,35.12456572610252
7.6240000000000006,1.0,34.95216776170797
7.632,0.9999999999999999,34.77972396368535
7.640000000000001,0.9999999999999999,34.60723438925616
7.648,1.0,34.43469909600278
7.656000000000001,1.0000000000000002,34.26211814186751
7.664,0.9999999999999999,34.08949158515213
7.672,1.0,33.91681948451683
7.68,0.9999999999999999,33.744101898979714
7.688,1.0,33.57133888791598
7.696,1.0,33.39853051105716
7.704,0.9999999999999999,33.22567682849039
7.712,1.0,33.05277790065765
7.72,0.9999999999999999,32.879833788355064
7.728,1.0,32.70684455273204
7.736,1.0,32.533810255290554
7.744,1.0,32.3607309578845
7.752,1.0,32.18760672271872
7.76,0.9999999999999999,32.01443761234843
7.768,1.0,31.841223689678316
7.776,1.0,31.66796501796184
7.784,1.0,31.494661660800425
7.792,1.0,31.321313682142698
7.8,1.0,31.147921146283704
7.808,1.0,30.974484117864126
7.816,1.0,30.80100266186949
7.824,0.9999999999999999,30.627476843629378
7.832,1.0,30.453906728816683
7.84,1.0,30.280292383446714
7.848,1.0,30.106633873876543
7.856,1.0,29.932931266804086
7.864,1.0,29.759184629267324
7.872,0.9999999999999999,29.585394028643577
7.88,1.0,29.41155953264862
7.888,1.0,29.237681209335914
7.896,1.0,29.06375912709579
7.904,0.9999999999999999,28.889793354654625
7.912,1.0,28.715783961074045
7.92,1.0,28.54173101575012
7.928,0.9999999999999999,28.367634588412493
7.936,1.0,28.19349474912364
7.944,0.9999999999999999,28.019311568277963
7.952,1.0,27.845085116601037
7.96,0.9999999999999999,27.67081546514874
7.968,1.0,27.496502685306467
7.976,1.0,27.322146848788226
7.984,1.0,27.147748027635878
7.992,0.9999999999999999,26.973306294218272
8.0,1.0,26.79882172123041
8.008,1.0,26.624294381692625
8.016,1.0,26.449724348949655
8.024000000000001,0.9999999999999999,26.275111696669974
8.032,1.0,26.100456498844796
8.04,1.0,25.925758829787274
8.048,1.0,25.751018764131594
8.056000000000001,1.0000000000000002,25.57623637683228
8.064,1.0,25.401411743163266
8.072,1.0,25.226544938716916
8.08,1.0,25.051636039403267
8.088000000000001,0.9999999999999999,24.876685121449306
8.096,1.0,24.701692261397938
8.104,0.9999999999999999,24.526657536107102
8.112,1.0,24.35158102274899
8.120000000000001,0.9999999999999999,24.176462798809247
8.128,1.0,24.00130294208598
8.136,0.9999999999999999,23.826101530688927
8.144,1.0,23.650858643038557
8.152000000000001,1.0,23.475574357865312
8.16,1.0,23.30024875420868
8.168,1.0,23.12488191141622
8.176,1.0,22.94947390914274
8.184000000000001,1.0,22.77402482734955
8.192,1.0,22.59853474630347
8.2,1.0,22.423003746575873
8.208,1.0,22.24743190904189
8.216000000000001,1.0,22.071819314879594
8.224,0.9999999999999999,21.896166045569046
8.232,1.0,21.720472182891324
8.24,1.0,21.54473780892772
8.248000000000001,1.0,21.368963006058923
8.256,1.0,21.193147856964018
8.264,0.9999999999999999,21.01729244461957
8.272,1.0,20.84139685229881
8.280000000000001,1.0,20.665461163570733
8.288,0.9999999999999999,20.489485462299207
8.296,1.0,20.31346983264198
8.304,1.0000000000000002,20.137414359049803
8.312,1.0,19.961319126265757
8.32,0.9999999999999999,19.78518421932396
8.328,1.0,19.609009723549015
8.336,1.0,19.432795724554826
8.344,1.0,19.256542308243986
8.352,0.9999999999999999,19.080249560806525
8.36,0.9999999999999999,18.90391756871935
8.368,1.0,18.72754641874501
8.376,1.0,18.551136197931093
8.384,0.9999999999999999,18.374686993609
8.392,0.9999999999999999,18.19819889339335
8.4,1.0,18.021671985180745
8.408,0.9999999999999999,17.845106357149177
8.416,1.0,17.668502097756786
8.424,1.0,17.491859295741232
8.432,1.0,17.315178040118514
8.44,1.0,17.13845842018234
8.448,1.0,16.961700525502852
8.456,1.0,16.78490444592608
8.464,0.9999999999999999,16.608070271572647
8.472,1.0,16.43119809283719
8.48,1.0,16.254288000387113
8.488,1.0,16.077340085161957
8.496,1.0,15.900354438372178
8.504,0.9999999999999999,15.723331151498517
8.512,1.0,15.546270316290762
8.52,0.9999999999999999,15.36917202476711
8.528,0.9999999999999999,15.192036369212948
8.536,1.0,15.014863442180193
8.544,0.9999999329995447,14.837653336486111
8.552,0.9999998581197594,14.660406145212606
8.56,0.9999997833415674,14.483121961705022
8.568,0.9999997086899552,14.305800879571509
8.576,0.999999634189986,14.128442992681766
8.584,0.999999559866792,13.951048395166412
8.592,0.9999994857455718,13.773617181415721
8.6,0.9999994118515846,13.596149446079012
8.608,0.9999993382101453,13.41864528406338
8.616,0.99999926484662,13.241104790533054
8.624,0.9999991917864213,13.063528060908155
8.632,0.9999991190550023,12.88591519086405
8.64,0.9999990466778527,12.7082662763301
8.648,0.9999989746804938,12.530581413489003
8.656,0.9999989030884735,12.352860698775558
8.664,0.9999988319273608,12.175104228876004
8.672,0.9999987612227412,11.997312100726768
8.68,0.9999986910002123,11.819484411513818
8.688,0.9999986212853785,11.641621258671387
8.696,0.9999985521038455,11.463722739881357
8.704,0.9999984834812156,11.285788953071965
8.712,0.9999984154430837,11.107819996417147
8.72,0.9999983480150307,10.929815968335324
8.728,0.9999982812226202,10.751776967488675
8.736,0.9999982150913922,10.573703092781926
8.744,0.9999981496468585,10.395594443361688
8.752,0.9999980849144985,10.217451118615147
8.76,0.999998020919753,10.039273218169464
8.768,0.9999979576880202,9.861060841890462
8.776,0.9999978952446507,9.682814089881983
8.784,0.9999978336149413,9.504533062484624
8.792,0.9999977728241319,9.326217860275051
8.8,0.9999977128973994,9.147868584064744
8.808,0.9999976538598533,8.969485334899334
8.815999999999999,0.9999975957365292,8.79106821405736
8.824,0.9999975385523869,8.612617323049394
8.832,0.9999974823323029,8.434132763617185
8.84,0.9999974271010664,8.255614637732577
8.847999999999999,0.9999973728833743,8.07706304759647
8.856,0.9999973197038261,7.898478095637914
8.864,0.9999972675869201,7.719859884513221
8.872,0.9999972165570473,7.541208517104907
8.879999999999999,0.9999971666384869,7.362524096520615
8.888,0.9999971178554014,7.1838067260922625
8.896,0.9999970702318324,7.005056509375082
8.904,0.9999970237916943,6.826273550146603
8.911999999999999,0.9999969785587726,6.647457952405567
8.92,0.9999969345567147,6.468609820371039
8.928,0.999996891809029,6.289729258481489
8.936,0.9999968503390784,6.110816371393736
8.943999999999999,0.9999968101700752,5.931871263981879
8.952,0.9999967713250781,5.75289404133639
8.96,0.9999967338269854,5.573884808763205
8.968,0.9999966976985323,5.394843671782647
8.975999999999999,0.999996662962285,5.215770736128372
8.984,0.9999966296406361,5.036666107746444
8.992,0.9999965977558013,4.8575298927944175
9.0,0.9999965673298129,4.678362197640288
9.008,0.9999965383845167,4.499163128861382
9.016,0.9999965109415673,4.319932793243477
9.024000000000001,0.9999964850224231,4.14067129777985
9.032,0.999996460648342,3.9613787496702244
9.04,0.9999964378403771,3.782055256319685
9.048,0.9999964166193722,3.6027009253377518
9.056000000000001,0.9999963970059577,3.4233158645374533
9.064,0.9999963790205455,3.2439001819342623
9.072,0.9999963626833254,3.064453985744997
9.08,0.9999963480142608,2.8849773843868953
9.088000000000001,0.9999963350330839,2.7054704864767
9.096,0.9999963237592921,2.5259334008295564
9.104,0.9999963142121435,2.3463662364579383
9.112,0.9999963064106514,2.1667691025707083
9.120000000000001,0.9999963003735837,1.987142108572191
9.128,0.9999962961194553,1.8074853640610724
9.136,0.9999962936665249,1.6277989788293232
9.144,0.9999962930327922,1.4480830628612489
9.152000000000001,0.9999962942359929,1.2683377263325597
9.16,0.999996297293595,1.088563079609271
9.168,0.9999963022227945,0.9087592332466057
9.176,0.9999963090405123,0.7289262979880653
9.184000000000001,0.9999963177633894,0.5490643847644607
9.192,0.9999963284077837,0.36917360469284094
9.2,0.9999963409897669,0.18925406907537182
9.208,0.9999963555251185,0.009305889398391961
9.216000000000001,0.9999963720293255,-0.17067082266852204
9.224,0.9999963905175756,-0.35067595527368145
9.232,0.9999964110047551,-0.5307093963843781
9.24,0.9999964335054456,-0.7107710337878473
9.248000000000001,0.9999964580339197,-0.8908607550922104
9.256,0.9999964846041381,-1.0709784477275945
9.264,0.999996513229745,-1.251123998947243
9.272,0.9999965439240678,-1.4312972958284718
9.280000000000001,0.9999965767001093,-1.6114982252736358
9.288,0.9999966115705484,-1.7917266740112345
9.296,0.9999966485477343,-1.971982528597036
9.304,0.9999966876436845,-2.1522656754150553
9.312000000000001,0.999996728870082,-2.332576000678489
9.32,0.9999967722382702,-2.5129133904308674
9.328,0.999996817759253,-2.6932777305471625
9.336,0.9999968654436888,-2.8736689067347685
9.344,0.9999969153018895,-3.0540868045344194
9.352,0.9999969673438164,-3.2345313093215387
9.36,0.999997021579078,-3.4150023063069566
9.368,0.9999970780169275,-3.5954996805382793
9.376,0.999997136666259,-3.7760233169006563
9.384,0.9999971975356061,-3.956573100118111
9.392,0.999997260633138,-4.137148914754325
9.4,0.9999973259666584,-4.317750645213995
9.408,0.9999973935436011,-4.498378175743574
9.416,0.9999974633710288,-4.679031390432682
9.424,0.999997535455631,-4.859710173214812
9.432,0.9999976098037204,-5.0404144078687505
9.44,0.9999976864212319,-5.221143978019318
9.448,0.9999977653137186,-5.401898767138749
9.456,0.999997846486352,-5.582678658547467
9.464,0.9999979299439172,-5.763483535415461
9.472,0.9999980156908134,-5.944313280763047
9.48,0.9999981037310497,-6.125167777462285
9.488,0.999998194068245,-6.306046908237697
9.496,0.999998286705624,-6.486950555667727
9.504,0.9999983816460176,-6.667878602185455
9.512,0.9999984788918593,-6.848830930080041
9.52,0.9999985784451847,-7.029807421497458
9.528,0.9999986803076286,-7.210807958441927
9.536,0.9999987844804248,-7.391832422776695
9.544,0.9999988909644042,-7.5728806962254245
9.552,0.9999989997599914,-7.7539526603729945
9.56,0.9999991108672066,-7.9350481966668935
9.568,0.9999992242856615,-8.116167186418028
9.576,0.999999340014559,-8.297309510802132
9.584,0.9999994580526922,-8.478475050860535
9.592,0.999999578398443,-8.65966368750163
9.6,0.9999997010497808,-8.840875301501613
9.608,0.9999998260042616,-9.022109773505951
9.616,0.9999999532590267,-9.203366984030165
9.624,0.9999999999999999,-9.384646813461263
9.632,1.0,-9.565949142058532
9.64,1.0,-9.747273849954986
9.648,1.0,-9.928620817158176
9.656,1.0000000000000002,-10.109989923551616
9.664,1.0,-10.291381048895598
9.672,1.0,-10.472794072828645
9.68,0.9999999999999999,-10.654228874868329
9.688,1.0,-10.835685334412695
9.696,0.9999999999999999,-11.017163330741111
9.704,0.9999999999999999,-11.198662743015712
9.712,1.0,-11.38018345028222
9.72,0.9999999999999999,-11.561725331471413
9.728,0.9999999999999999,-11.743288265399945
9.736,1.0,-11.924872130771822
9.744,0.9999999999999999,-12.106476806179217
9.752,0.9999999999999999,-12.288102170103958
9.76,0.9999999999999999,-12.469748100918363
9.768,0.9999999999999998,-12.651414476886726
9.776,1.0,-12.833101176166132
9.784,1.0,-13.014808076807963
9.792,1.0,-13.19653505675874
9.8,1.0,-13.378281993861616
9.808,1.0,-13.560048765857198
9.816,1.0,-13.741835250385103
9.824,0.9999999999999999,-13.923641324984745
9.832,1.0,-14.10546686709688
9.84,0.9999999999999999,-14.28731175406447
9.847999999999999,1.0,-14.469175863134103
9.856,1.0,-14.651059071457121
9.864,0.9999999999999999,-14.832961256090693
9.872,1.0,-15.014882293999102
9.879999999999999,1.0,-15.196822062055011
9.888,0.9999999999999999,-15.378780437040596
9.896,1.0,-15.56075729564866
9.904,0.9999999999999999,-15.74275251448393
9.911999999999999,1.0,-15.924765970064328
9.92,0.9999999999999999,-16.106797538822114
9.928,1.0,-16.28884709710501
9.936,1.0,-16.470914521177523
9.943999999999999,1.0,-16.652999687222216
9.952,0.9999999999999999,-16.835102471340853
9.96,0.9999999999999999,-17.017222749555582
9.968,1.0,-17.199360397810185
