freq,mag,phase
6.0,0.9999944428297678,-135.91774257054493
6.008,0.9999929093056944,-136.3018977102517
6.016,0.9999914452111259,-136.6858268517016
6.024,0.9999900489548843,-137.06953158408086
6.032,0.9999887189677545,-137.45301350498966
6.04,0.999987453702331,-137.83627422033246
6.048,0.9999862516328561,-138.2193153442094
6.056,0.9999851112550648,-138.60213849880842
6.064,0.9999840310860248,-138.98474531429807
6.072,0.9999830096639762,-139.36713742872155
6.08,0.9999820455481728,-139.7493164878911
6.088,0.9999811373187221,-140.13128414528344
6.096,0.9999802835764231,-140.51304206193615
6.104,0.9999794829426056,-140.89459190634463
6.112,0.9999787340589705,-141.2759353543601
6.12,0.999978035587425,-141.65707408908784
6.128,0.9999773862099234,-142.03800980078748
6.136,0.9999767846283034,-142.41874418677259
6.144,0.9999762295641219,-142.7992789513123
6.152,0.999975719758498,-143.17961580553282
6.16,0.9999752539719426,-143.55975646732057
6.168,0.9999748309842016,-143.93970266122528
6.176,0.9999744495940889,-144.31945611836477
6.184,0.9999741086193257,-144.69901857632962
6.192,0.9999738068963777,-145.0783917790895
6.2,0.9999735432802891,-145.45757747689936
6.208,0.9999733166445198,-145.83657742620747
6.216,0.9999731258807882,-146.21539338956325
6.224,0.9999729698989004,-146.59402713552632
6.232,0.9999728476265909,-146.9724804385765
6.24,0.9999727580093607,-147.35075507902425
6.248,0.9999727000103152,-147.72885284292192
6.256,0.9999726726099956,-148.10677552197595
6.264,0.9999726748062252,-148.4845249134595
6.272,0.9999727056139439,-148.86210282012627
6.28,0.9999727640650433,-149.23951105012472
6.288,0.9999728492082092,-149.6167514169129
6.296,0.9999729601087601,-149.99382573917464
6.304,0.9999730958484839,-150.3707358407357
6.312,0.9999732555254806,-150.7474835504813
6.32,0.9999734382539986,-151.12407070227366
6.328,0.9999736431642792,-151.50049913487118
6.336,0.9999738694023916,-151.87677069184744
6.344,0.9999741161300791,-152.2528872215114
6.352,0.9999743825245957,-152.62885057682823
6.36,0.9999746677785537,-153.00466261534046
6.368,0.9999749710997632,-153.38032519909058
6.376,0.9999752917110696,-153.75584019454357
6.384,0.9999756288502065,-154.1312094725104
6.392,0.9999759817696319,-154.50643490807218
6.4,0.9999763497363768,-154.88151838050516
6.408,0.9999767320318882,-155.25646177320596
6.416,0.9999771279518754,-155.63126697361787
6.424,0.9999775368061538,-156.00593587315748
6.432,0.9999779579184952,-156.38047036714212
6.44,0.9999783906264696,-156.75487235471806
6.448,0.9999788342813,-157.12914373878874
6.456,0.9999792882477042,-157.50328642594445
6.464,0.9999797519037475,-157.877302326392
6.472,0.99998022464069,-158.25119335388527
6.48,0.9999807058628399,-158.62496142565624
6.4879999999999995,0.999981194987402,-158.9986084623465
6.496,0.9999816914443302,-159.3721363879399
6.504,0.9999821946761793,-159.74554712969493
6.5120000000000005,0.9999827041379594,-160.11884261807842
6.52,0.9999832192969864,-160.4920247866992
6.5280000000000005,0.999983739632742,-160.86509557224304
6.536,0.999984264636723,-161.23805691440703
6.5440000000000005,0.9999847938123007,-161.61091075583602
6.552,0.9999853266745761,-161.98365904205798
6.5600000000000005,0.9999858627502377,-162.35630372142117
6.568,0.9999864015774216,-162.72884674503086
6.5760000000000005,0.9999869427055663,-163.1012900666877
6.584,0.9999874856952752,-163.47363564282506
6.592,0.9999880301181775,-163.84588543244843
6.6,0.9999885755567861,-164.21804139707424
6.608,0.9999891216043646,-164.5901055006695
6.616,0.9999896678647866,-164.96207970959222
6.624,0.9999902139523994,-165.3339659925317
6.632,0.99999075949189,-165.7057663204498
6.64,0.9999913041181496,-166.07748266652243
6.648,0.9999918474761396,-166.44911700608142
6.656,0.9999923892207587,-166.82067131655705
6.664,0.9999929290167103,-167.19214757742088
6.672,0.9999934665383708,-167.56354777012888
6.68,0.9999940014696609,-167.93487387806525
6.688,0.9999945335039135,-168.30612788648648
6.696,0.9999950623437439,-168.6773117824659
6.704,0.9999955877009273,-169.04842755483833
6.712,0.9999961092962638,-169.4194771941456
6.72,0.9999966268594587,-169.79046269258214
6.728,0.9999971401289921,-170.1613860439409
6.736,0.9999976488519978,-170.53224924355982
6.744,0.9999981527841364,-170.9030542882686
6.752,0.9999986516894755,-171.27380317633566
6.76,0.9999991453403646,-171.64449790741568
6.768,0.9999996335173159,-172.01514048249734
6.776,1.0,-172.38573290385136
6.784,1.0,-172.7562771749789
6.792,0.9999999999999999,-173.12677530056027
6.8,1.0,-173.49722928640406
6.808,1.0,-173.86764113939628
6.816,1.0,-174.23801286745007
6.824,1.0,-174.60834647945538
6.832,0.9999999999999999,-174.9786439852295
6.84,0.9999999999999999,-175.34890739546694
6.848,1.0000000000000002,-175.71913872169054
6.856,0.9999999999999999,-176.08933997620215
6.864,1.0,-176.4595131720338
6.872,0.9999999999999999,-176.82966032289917
6.88,1.0,-177.19978344314504
6.888,0.9999999999999998,-177.56988454770323
6.896,0.9999999999999999,-177.93996565204256
6.904,0.9999999999999999,-178.31002877212117
6.912,0.9999999999999999,-178.68007592433884
6.92,1.0,-179.05010912548963
6.928,0.9999999999999999,-179.42013039271467
6.936,1.0,-179.79014174345517
6.944,0.9999999999999999,179.83985480459464
6.952,1.0,179.469857233534
6.96,1.0,179.0998635253023
6.968,0.9999999999999999,178.7298716617257
6.976,1.0,178.35987962456315
6.984,1.0,177.9898853955527
6.992,0.9999999999999999,177.61988695645766
7.0,0.9999999999999999,177.24988228911238
7.008,1.0,176.87986937546833
7.016,1.0,176.50984619763963
7.024,1.0,176.13981073794898
7.032,1.0,175.76976097897304
7.04,0.9999999999999999,175.39969490358808
7.048,1.0,175.0296104950155
7.056,1.0,174.65950573686715
7.064,0.9999999999999999,174.28937861319068
7.072,1.0,173.91922710851497
7.08,0.9999999999999998,173.54904920789542
7.088,0.9999999999999999,173.17884289695917
7.096,1.0,172.8086061619503
7.104,1.0,172.43833698977528
7.112,0.9999999999999999,172.06803336804794
7.12,0.9999999999999999,171.69769328513496
7.128,1.0,171.32731473020107
7.136,1.0,170.95689569325418
7.144,1.0,170.5864341651909
7.152,1.0,170.21592813784181
7.16,0.9999999999999998,169.84537560401674
7.168,1.0,169.4747745575504
7.176,1.0,169.10412299334777
7.184,1.0,168.7334189074296
7.192,1.0,168.36266029697822
7.2,1.0,167.9918451603831
7.208,1.0,167.6209714972866
7.216,0.9999999999999999,167.25003730863017
7.224,1.0,166.87904059669992
7.232,0.9999999999999999,166.50797936517301
7.24,0.9999999999999999,166.1368516191639
7.248,1.0,165.76565536527045
7.256,1.0,165.3943886116205
7.264,1.0,165.0230493679187
7.272,1.0,164.65163564549283
7.28,1.0,164.280145457341
7.288,1.0,163.9085768181788
7.296,1.0,163.53692774448618
7.304,1.0,163.16519625455513
7.312,1.0,162.79338036853713
7.32,0.9999999999999999,162.42147810849104
7.328,1.0,162.04948749843095
7.336,1.0,161.6774065643742
7.344,1.0,161.30523333439018
7.352,1.0000000000000002,160.9329658386484
7.36,1.0,160.5606021094677
7.368,1.0,160.18814018136496
7.376,1.0,159.81557809110456
7.384,1.0,159.4429138777478
7.392,0.9999999999999999,159.07014558270274
7.4,0.9999999999999999,158.69727124977405
7.4079999999999995,0.9999999999999999,158.32428892521344
7.416,1.0,157.95119665776988
7.4239999999999995,1.0,157.57799249874103
7.432,1.0,157.2046745020235
7.4399999999999995,0.9999999999999999,156.83124072416496
7.448,1.0,156.45768922441528
7.4559999999999995,1.0,156.0840180647789
7.464,0.9999999999999999,155.71022531006662
7.4719999999999995,1.0,155.33630902794877
7.48,0.9999999999999999,154.9622672890075
7.4879999999999995,1.0,154.58809816679067
7.496,1.0,154.21379973786458
7.504,1.0,153.83937008186874
7.5120000000000005,1.0,153.46480728156928
7.52,1.0,153.0901094229144
7.5280000000000005,1.0,152.71527459508835
7.536,1.0,152.34030089056762
7.5440000000000005,0.9999999999999999,151.9651864051758
7.552,0.9999999999999999,151.58992923814046
7.5600000000000005,1.0,151.2145274921487
7.568,1.0,150.83897927340468
7.5760000000000005,0.9999999999999999,150.4632826916862
7.584,0.9999999999999999,150.08743586040293
7.5920000000000005,0.9999999999999999,149.7114368966536
7.6,0.9999999999999999,149.33528392128528
7.6080000000000005,1.0,148.9589750589513
7.616,0.9999999999999999,148.5825084381712
7.6240000000000006,1.0,148.20588219138983
7.632,1.0,147.82909445503782
7.640000000000001,1.0,147.45214336959177
7.648,1.0,147.07502707963545
7.656000000000001,0.9999999999999999,146.6977437339208
7.664,1.0,146.32029148543032
7.672,0.9999999999999999,145.94266849143875
7.68,0.9999999999999999,145.5648729135762
7.688,1.0,145.18690291789125
7.696,1.0,144.80875667491455
7.704,0.9999999999999999,144.430432359723
7.712,0.9999999999999999,144.05192815200436
7.72,1.0,143.67324223612238
7.728,1.0000000000000002,143.29437280118233
7.736,0.9999999999999999,142.915318041097
7.744,1.0,142.53607615465347
7.752,0.9999999999999999,142.15664534557993
7.76,0.9999999999999999,141.77702382261336
7.768,1.0,141.39720979956763
7.776,0.9999999999999998,141.01720149540196
7.784,0.9999999999999999,140.6369971342901
7.792,1.0,140.2565949456899
7.8,1.0,139.87599316441344
7.808,1.0,139.49519003069761
7.816,0.9999999999999999,139.11418379027552
7.824,1.0000000000000002,138.73297269444788
7.832,0.9999999999999999,138.3515550001554
7.84,1.0,137.9699289700517
7.848,1.0,137.58809287257642
7.856,0.9999999999999999,137.20604498202917
7.864,0.9999999772920225,136.8237835786439
7.872,0.9999997199036914,136.44130694866396
7.88,0.9999994638833444,136.05861338441744
7.888,0.9999992093333173,135.6757011843934
7.896,0.9999989563547114,135.29256865331843
7.904,0.9999987050473695,134.9092141022338
7.912,0.9999984555098537,134.52563584857313
7.92,0.9999982078394244,134.14183221624089
7.928,0.9999979621320206,133.75780153569113
7.936,0.9999977184822355,133.37354214400688
7.944,0.9999974769833005,132.98905238498023
7.952,0.9999972377270632,132.60433060919286
7.96,0.999997000803968,132.21937517409725
7.968,0.999996766303039,131.8341844440982
7.976,0.9999965343118603,131.4487567906354
7.984,0.9999963049165586,131.06309059226606
7.992,0.9999960782017867,130.67718423474847
8.0,0.9999958542507051,130.2910361111259
8.008,0.999995633144967,129.90464462181137
8.016,0.9999954149647011,129.51800817467253
8.024000000000001,0.9999951997884976,129.13112518511772
8.032,0.9999949876933923,128.74399407618228
8.04,0.9999947787548515,128.356613278615
8.048,0.9999945730467596,127.96898123096598
8.056000000000001,0.9999943706414033,127.58109637967478
8.064,0.9999941716094605,127.19295717915895
8.072,0.9999939760199859,126.80456209190291
8.08,0.9999937839403997,126.415909588548
8.088000000000001,0.9999935954364758,126.02699814798305
8.096,0.9999934105723294,125.63782625743507
8.104,0.9999932294104066,125.2483924125605
8.112,0.999993052011475,124.8586951175377
8.120000000000001,0.9999928784346123,124.46873288515951
8.128,0.9999927087371964,124.07850423692639
8.136,0.9999925429748975,123.68800770314006
8.144,0.9999923812016687,123.29724182299786
8.152000000000001,0.9999922234697375,122.906205144688
8.16,0.9999920698295988,122.51489622548478
8.168,0.9999919203300062,122.1233136318443
8.176,0.9999917750179662,121.73145593950132
8.184000000000001,0.9999916339387307,121.33932173356662
8.192,0.999991497135792,120.94690960862425
8.2,0.9999913646508762,120.55421816882973
8.208,0.9999912365239381,120.16124602800897
8.216000000000001,0.9999911127931562,119.76799180975759
8.224,0.9999909934949297,119.37445414754067
8.232,0.9999908786638724,118.98063168479284
8.24,0.9999907683328108,118.5865230750193
8.248000000000001,0.9999906625327802,118.19212698189747
8.256,0.9999905612930221,117.79744207937851
8.264,0.9999904646409827,117.40246705178977
8.272,0.9999903726023102,117.0072005939376
8.280000000000001,0.9999902852008526,116.61164141121111
8.288,0.9999902024586597,116.21578821968583
8.296,0.9999901243959787,115.81963974622786
8.304,0.9999900510312572,115.42319472859884
8.312,0.9999899823811413,115.02645191556171
8.32,0.9999899184604778,114.62941006698564
8.328,0.9999898592823141,114.23206795395315
8.336,0.9999898048579012,113.83442435886603
8.344,0.9999897551966933,113.43647807555318
8.352,0.9999897103063526,113.03822790937747
8.36,0.9999896701927504,112.63967267734444
8.368,0.9999896348599716,112.24081120821003
8.376,0.9999896043103156,111.84164234259009
8.384,0.9999895785443043,111.44216493306897
8.392,0.9999895575606836,111.0423778443097
8.4,0.9999895413564281,110.64227995316352
8.408,0.9999895299267482,110.2418701487808
8.416,0.9999895232650937,109.84114733272115
8.424,0.9999895213631619,109.44011041906522
8.432,0.9999895242109008,109.03875833452545
8.44,0.99998953179652,108.63709001855862
8.448,0.9999895441064942,108.23510442347717
8.456,0.9999895611255736,107.83280051456245
8.464,0.999989582836789,107.43017727017663
8.472,0.9999896092214635,107.02723368187651
8.48,0.9999896402592184,106.6239687545261
8.488,0.9999896759279843,106.2203815064109
8.496,0.9999897162040093,105.81647096935103
8.504,0.99998976106187,105.412236188816
8.512,0.9999898104744808,105.00767622403825
8.52,0.9999898644131057,104.60279014812855
8.528,0.9999899228473685,104.19757704818983
8.536,0.9999899857452653,103.79203602543285
8.544,0.9999900530731748,103.38616619529066
8.552,0.9999901247958716,102.97996668753447
8.56,0.9999902008765392,102.5734366463884
8.568,0.9999902812767822,102.1665752306457
8.576,0.9999903659566399,101.75938161378366
8.584,0.9999904548745998,101.35185498408013
8.592,0.9999905479876123,100.94399454472857
8.6,0.9999906452511047,100.53579951395481
8.608,0.9999907466189961,100.12726912513214
8.616,0.9999908520437125,99.71840262689814
8.624,0.9999909614762034,99.30919928326992
8.632,0.9999910748659554,98.89965837376096
8.64,0.9999911921610116,98.48977919349623
8.648,0.9999913133079851,98.07956105332914
8.656,0.9999914382520788,97.66900327995658
8.664,0.9999915669371002,97.25810521603553
8.672,0.9999916993054812,96.84686622029821
8.68,0.9999918352982946,96.43528566766841
8.688,0.9999919748552738,96.02336294937635
8.696,0.9999921179148304,95.61109747307479
8.704,0.9999922644140735,95.19848866295368
8.712,0.9999924142888301,94.78553595985582
8.72,0.9999925674736625,94.37223882139106
8.728,0.9999927239018918,93.95859672205171
8.736,0.9999928835056147,93.5446091533262
8.744,0.9999930462157265,93.13027562381394
8.752,0.9999932119619419,92.71559565933848
8.76,0.9999933806728151,92.30056880306172
8.768,0.9999935522757624,91.88519461559655
8.776,0.9999937266970843,91.46947267512034
8.784,0.9999939038619872,91.05340257748675
8.792,0.9999940836946061,90.63698393633855
8.8,0.9999942661180283,90.22021638321863
8.808,0.9999944510543154,89.80309956768191
8.815999999999999,0.999994638424527,89.38563315740556
8.824,0.9999948281487446,88.96781683829954
8.832,0.9999950201460963,88.54965031461653
8.84,0.9999952143347807,88.13113330906106
8.847999999999999,0.9999954106320897,87.71226556289797
8.856,0.999995608954437,87.29304683606074
8.864,0.9999958092173794,86.8734769072591
8.872,0.9999960113356453,86.45355557408581
8.879999999999999,0.9999962152231584,86.03328265312254
8.888,0.9999964207930641,85.61265798004568
8.896,0.9999966279577561,85.19168140973126
8.904,0.9999968366289023,84.77035281635885
8.911999999999999,0.9999970467174719,84.34867209351466
8.92,0.9999972581337612,83.92663915429428
8.928,0.9999974707874224,83.50425393140448
8.936,0.9999976845874893,83.08151637726392
8.943999999999999,0.999997899442406,82.6584264641029
8.952,0.9999981152600542,82.23498418406271
8.96,0.9999983319477812,81.81118954929383
8.968,0.9999985494124276,81.38704259205305
8.975999999999999,0.9999987675603567,80.96254336479946
8.984,0.9999989862974822,80.53769194028983
8.992,0.9999992055292974,80.11248841167298
9.0,0.9999994251609043,79.68693289258272
9.008,0.9999996450970415,79.26102551722957
9.016,0.9999998652421161,78.834766440492
9.024000000000001,1.0,78.40815583800617
9.032,1.0,77.9811939062544
9.04,1.0,77.55388086265233
9.048,0.9999999999999999,77.12621694563516
9.056000000000001,0.9999999999999999,76.69820241474271
9.064,1.0,76.2698375507027
9.072,1.0,75.8411226555129
9.08,0.9999999999999999,75.41205805252207
9.088000000000001,0.9999999999999999,74.98264408650964
9.096,1.0,74.55288112376356
9.104,0.9999999999999999,74.12276955215678
9.112,1.0,73.69230978122248
9.120000000000001,0.9999999999999999,73.26150224222796
9.128,1.0,72.83034738824651
9.136,0.9999999999999999,72.39884569422772
9.144,1.0,71.9669976570666
9.152000000000001,0.9999999999999999,71.5348037956712
9.16,1.0,71.10226465102784
9.168,1.0,70.66938078626507
9.176,0.9999999999999999,70.23615278671603
9.184000000000001,1.0,69.80258125997915
9.192,0.9999999999999999,69.36866683597667
9.2,1.0,68.93441016701145
9.208,0.9999999999999999,68.49981192782207
9.216000000000001,0.9999999999999999,68.06487281563649
9.224,1.0,67.62959355022295
9.232,0.9999999999999999,67.1939748739393
9.24,1.0,66.75801755178064
9.248000000000001,1.0,66.32172237142494
9.256,1.0,65.88509014327632
9.264,1.0,65.4481217005062
9.272,0.9999999999999999,65.01081789909296
9.280000000000001,1.0,64.57317961785922
9.288,0.9999999999999999,64.13520775850694
9.296,1.0,63.696903245649935
9.304,0.9999999999999999,63.258267026845076
9.312000000000001,1.0,62.8193000726209
9.32,0.9999999999999999,62.38000337650368
9.328,1.0,61.94037795504147
9.336,1.0000000000000002,61.50042484782582
9.344,1.0,61.0601451175116
9.352,1.0,60.619539849833416
9.36,1.0,60.178610153620994
9.368,1.0,59.73735716081067
9.376,1.0,59.29578202645617
9.384,1.0,58.85388592873504
9.392,1.0,58.41167006895447
9.4,1.0,57.969135671552834
9.408,0.9999999999999999,57.52628398410043
9.416,0.9999999999999999,57.0831162772959
9.424,1.0,56.63963384496188
9.432,1.0,56.195838004036155
9.44,1.0,55.75173009456217
9.448,1.0,55.307311479674915
9.456,1.0,54.86258354558593
9.464,0.9999999999999999,54.41754770156403
9.472,1.0,53.97220537991487
9.48,1.0,53.52655803595602
9.488,1.0,53.08060714799115
9.496,0.9999999999999999,52.63435421727973
9.504,0.9999999999999998,52.18780076800538
9.512,1.0,51.74094834723999
9.52,0.9999999999999999,51.2937985249066
9.528,1.0,50.84635289373757
9.536,1.0,50.39861306923189
9.544,0.9999999999999998,49.95058068960758
9.552,0.9999999999999999,49.50225741575307
9.56,1.0,49.05364493117396
9.568,1.0000000000000002,48.6047449419383
9.576,0.9999999999999999,48.155559176617665
9.584,1.0,47.70608938622646
9.592,1.0,47.25633734415686
9.6,1.0,46.806304846112425
9.608,1.0,46.35599371003683
9.616,0.9999999999999998,45.9054057760415
9.624,1.0,45.45454290632831
9.632,1.0,45.003406985111084
9.64,0.9999999999999998,44.55199991853239
9.648,0.9999999999999999,44.100323634578615
9.656,0.9999999999999999,43.64838008299083
9.664,1.0,43.19617123517382
9.672,1.0,42.74369908410049
9.68,0.9999999999999999,42.290965644214985
9.688,0.9999999999999998,41.83797295133075
9.696,1.0,41.38472306252752
9.704,1.0,40.931218056043235
9.712,0.9999999999999998,40.47746003116466
9.72,1.0,40.02345110811325
9.728,1.0,39.56919342792945
9.736,0.9999999999999999,39.11468915235235
9.744,0.9999999999999998,38.65994046369778
9.752,1.0,38.20494956473172
9.76,1.0,37.74971867854221
9.768,1.0,37.29425004840657
9.776,0.9999999999999998,36.838545937656946
9.784,1.0,36.38260862954148
9.792,0.9999999999999999,35.926440427083705
9.8,1.0,35.470043652937306
9.808,1.0,35.01342064923953
9.816,1.0,34.556573777459796
9.824,1.0,34.099505418246814
9.832,1.0,33.64221797127125
9.84,0.9999999999999999,33.18471385506665
9.847999999999999,1.0,32.72699550686606
9.856,1.0,32.26906538243654
9.864,1.0,31.81092595591057
9.872,0.9999999999999999,31.352579719614017
9.879999999999999,0.9999999999999999,30.894029183891202
9.888,0.9999999999999999,30.435276876927354
9.896,1.0,29.976325344568078
9.904,1.0,29.517177150135606
9.911999999999999,1.0,29.057834874241923
9.92,1.0,28.5983011145997
9.928,0.9999999999999999,28.138578485830006
9.936,0.9999999999999999,27.678669619267026
9.943999999999999,1.0,27.218577162759843
9.952,0.9999999999999999,26.75830378047178
9.96,0.9999999999999999,26.297852152677002
9.968,0.9999999999999999,25.837224975553962
