freq,mag,phase
6.0,0.9999936943640207,-134.06261683603395
6.008,0.9999936518623743,-134.46747913292006
6.016,0.9999936091829836,-134.87214618647067
6.024,0.9999935663812399,-135.27661885458807
6.032,0.9999935235113493,-135.68089800657947
6.04,0.9999934806263434,-136.08498452304568
6.048,0.9999934377780851,-136.48887929577043
6.056,0.999993395017281,-136.89258322760963
6.064,0.9999933523934887,-137.29609723238124
6.072,0.9999933099551284,-137.69942223475527
6.08,0.9999932677494895,-138.102559170144
6.088,0.9999932258227411,-138.5055089845928
6.096,0.9999931842199425,-138.90827263467088
6.104,0.999993142985052,-139.31085108736286
6.112,0.9999931021609366,-139.71324531996027
6.12,0.9999930617893807,-140.1154563199534
6.128,0.9999930219110958,-140.51748508492403
6.136,0.9999929825657328,-140.91933262243774
6.144,0.9999929437918862,-141.3209999499371
6.152,0.9999929056271109,-141.72248809463522
6.16,0.9999928681079269,-142.12379809340936
6.168,0.999992831269829,-142.5249309926954
6.176,0.9999927951472988,-142.92588784838208
6.184,0.9999927597738134,-143.3266697257063
6.192,0.9999927251818562,-143.72727769914823
6.2,0.9999926914029221,-144.12771285232736
6.208,0.9999926584675382,-144.5279762778985
6.216,0.9999926264052597,-144.92806907744819
6.224,0.9999925952446888,-145.32799236139235
6.232,0.9999925650134821,-145.72774724887307
6.24,0.9999925357383621,-146.12733486765686
6.248,0.9999925074451239,-146.5267563540328
6.256,0.9999924801586452,-146.92601285271124
6.264,0.9999924539029011,-147.32510551672308
6.272,0.9999924287009658,-147.72403550731943
6.28,0.9999924045750318,-148.12280399387137
6.288,0.9999923815464119,-148.52141215377085
6.296,0.9999923596355523,-148.91986117233134
6.304,0.9999923388620449,-149.3181522426893
6.312,0.9999923192446291,-149.7162865657062
6.32,0.999992300801212,-150.11426534987055
6.328,0.9999922835488706,-150.512089811201
6.336,0.9999922675038635,-150.90976117314923
6.344,0.9999922526816438,-151.30728066650394
6.352,0.9999922390968637,-151.70464952929495
6.36,0.9999922267633861,-152.10186900669765
6.368,0.9999922156942985,-152.49894035093828
6.376,0.9999922059019145,-152.89586482119952
6.384,0.9999921973977923,-153.29264368352636
6.392,0.9999921901927381,-153.68927821073277
6.4,0.9999921842968158,-154.0857696823086
6.408,0.9999921797193627,-154.48211938432698
6.416,0.9999921764689905,-154.87832860935248
6.424,0.9999921745536035,-155.2743986563492
6.432,0.999992173980398,-155.67033083058993
6.44,0.9999921747558835,-156.0661264435653
6.448,0.9999921768858838,-156.46178681289368
6.456,0.9999921803755466,-156.85731326223154
6.464,0.9999921852293591,-157.25270712118407
6.472,0.9999921914511499,-157.64796972521663
6.48,0.999992199044104,-158.04310241556632
6.4879999999999995,0.9999922080107683,-158.43810653915426
6.496,0.9999922183530628,-158.83298344849825
6.504,0.9999922300722915,-159.2277345016257
6.5120000000000005,0.9999922431691449,-159.62236106198782
6.52,0.9999922576437175,-160.01686449837288
6.5280000000000005,0.9999922734955115,-160.41124618482152
6.536,0.9999922907234485,-160.8055075005412
6.5440000000000005,0.9999923093258767,-161.19964982982222
6.552,0.9999923293005802,-161.59367456195304
6.5600000000000005,0.9999923506447888,-161.98758309113737
6.568,0.9999923733551884,-162.38137681641038
6.5760000000000005,0.9999923974279233,-162.7750571415567
6.584,0.9999924228586142,-163.16862547502754
6.592,0.9999924496423607,-163.56208322985964
6.6,0.9999924777737509,-163.9554318235934
6.608,0.9999925072468717,-164.34867267819223
6.616,0.999992538055317,-164.74180721996237
6.624,0.9999925701921951,-165.13483687947254
6.632,0.999992603650139,-165.5277630914749
6.64,0.9999926384213129,-165.92058729482562
6.648,0.9999926744974226,-166.31331093240647
6.656,0.9999927118697229,-166.7059354510465
6.664,0.9999927505290244,-167.09846230144458
6.672,0.9999927904657064,-167.49089293809178
6.68,0.9999928316697194,-167.88322881919467
6.688,0.999992874130598,-168.27547140659883
6.696,0.9999929178374667,-168.6676221657128
6.704,0.9999929627790475,-169.05968256543267
6.712,0.9999930089436704,-169.45165407806653
6.72,0.9999930563192791,-169.84353817926012
6.728,0.9999931048934392,-170.23533634792224
6.736,0.9999931546533484,-170.6270500661508
6.744,0.9999932055858409,-171.01868081915939
6.752,0.9999932576773981,-171.4102300952041
6.76,0.9999933109141548,-171.8016993855108
6.768,0.9999933652819073,-172.19309018420282
6.776,0.9999934207661203,-172.58440398822896
6.784,0.9999934773519374,-172.97564229729193
6.792,0.9999935350241835,-173.36680661377727
6.8,0.999993593767378,-173.7578984426825
6.808,0.9999936535657374,-174.14891929154672
6.816,0.999993714403186,-174.53987067038054
6.824,0.9999937762633615,-174.93075409159653
6.832,0.999993839129623,-175.32157106993978
6.84,0.9999939029850581,-175.71232312241906
6.848,0.9999939678124894,-176.1030117682383
6.856,0.9999940335944828,-176.49363852872818
6.864,0.9999941003133538,-176.88420492727843
6.872,0.9999941679511741,-177.27471248927029
6.88,0.9999942364897804,-177.66516274200927
6.888,0.9999943059107782,-178.0555572146584
6.896,0.9999943761955523,-178.44589743817158
6.904,0.9999944473252701,-178.83618494522764
6.912,0.9999945192808912,-179.22642127016428
6.92,0.9999945920431724,-179.61660794891262
6.928,0.9999946655926747,179.99325348106802
6.936,0.9999947399097703,179.6031614808548
6.944,0.9999948149746476,179.21311451012627
6.952,0.9999948907673216,178.82311102722653
6.96,0.9999949672676347,178.43314948922904
6.968,0.9999950444552664,178.04322835200048
6.976,0.9999951223097412,177.65334607026406
6.984,0.9999952008104309,177.2635010976627
6.992,0.9999952799365633,176.87369188682163
7.0,0.9999953596672273,176.48391688941115
7.008,0.9999954399813796,176.0941745562088
7.016,0.9999955208578517,175.70446333716126
7.024,0.9999956022753536,175.31478168144628
7.032,0.9999956842124803,174.92512803753385
7.04,0.99999576664772,174.53550085324773
7.048,0.9999958495594571,174.1458985758261
7.056,0.9999959329259788,173.7563196519824
7.064,0.9999960167254829,173.36676252796593
7.072,0.9999961009360784,172.97722564962166
7.08,0.9999961855357978,172.58770746245062
7.088,0.9999962705025979,172.19820641166956
7.096,0.9999963558143659,171.80872094227027
7.104,0.9999964414489257,171.4192494990791
7.112,0.9999965273840444,171.029790526816
7.12,0.9999966135974359,170.6403424701533
7.128,0.9999967000667663,170.25090377377467
7.136,0.9999967867696605,169.86147288243305
7.144,0.999996873683705,169.47204824100956
7.152,0.9999969607864564,169.08262829457107
7.16,0.9999970480554435,168.69321148842837
7.168,0.9999971354681736,168.30379626819374
7.176,0.9999972230021378,167.91438107983853
7.184,0.9999973106348151,167.5249643697505
7.192,0.9999973983436777,167.1355445847909
7.2,0.9999974861061965,166.7461201723517
7.208,0.9999975738998438,166.3566895804122
7.216,0.9999976617021017,165.96725125759573
7.224,0.9999977494904629,165.57780365322648
7.232,0.9999978372424366,165.18834521738552
7.24,0.9999979249355557,164.79887440096718
7.248,0.999998012547377,164.40938965573523
7.256,0.999998100055489,164.01988943437868
7.264,0.999998187437514,163.63037219056784
7.272,0.9999982746711152,163.2408363790098
7.28,0.9999983617339986,162.85128045550414
7.288,0.9999984486039185,162.46170287699837
7.296,0.9999985352586812,162.07210210164322
7.304,0.9999986216761495,161.68247658884803
7.312,0.9999987078342468,161.29282479933573
7.32,0.9999987937109617,160.90314519519805
7.328,0.9999988792843513,160.51343623995024
7.336,0.9999989645325444,160.12369639858605
7.344,0.9999990494337484,159.73392413763256
7.352,0.99999913396625,159.3441179252047
7.36,0.9999992181084209,158.95427623105988
7.368,0.9999993018387213,158.56439752665278
7.376,0.9999993851357029,158.17448028518922
7.384,0.9999994679780135,157.7845229816811
7.392,0.9999995503444009,157.3945240930006
7.4,0.9999996322137157,157.0044820979341
7.4079999999999995,0.9999997135649143,156.61439547723685
7.416,0.9999997943770657,156.2242627136867
7.4239999999999995,0.9999998746293504,155.8340822921387
7.432,0.9999999543010668,155.4438526995785
7.4399999999999995,1.0,155.05357242517718
7.448,0.9999999999999999,154.66323996034433
7.4559999999999995,0.9999999999999999,154.27285379878288
7.464,1.0,153.88241243654235
7.4719999999999995,1.0,153.49191437207324
7.48,1.0,153.10135810628043
7.4879999999999995,1.0,152.71074214257766
7.496,1.0,152.3200649869406
7.504,1.0,151.92932514796158
7.5120000000000005,1.0,151.53852113690263
7.52,1.0,151.14765146774985
7.5280000000000005,1.0,150.75671465726685
7.536,0.9999999999999999,150.36570922504907
7.5440000000000005,1.0,149.97463369357698
7.552,0.9999999999999999,149.5834865882707
7.5600000000000005,1.0000000000000002,149.19226643754303
7.568,1.0,148.8009717728542
7.5760000000000005,1.0,148.40960112876505
7.584,0.9999999999999999,148.0181530429915
7.5920000000000005,1.0,147.626626056458
7.6,1.0,147.23501871335222
7.6080000000000005,1.0,146.8433295611782
7.616,1.0,146.45155715081134
7.6240000000000006,0.9999999999999999,146.0597000365516
7.632,0.9999999999999999,145.66775677617846
7.640000000000001,1.0,145.27572593100447
7.648,1.0000000000000002,144.88360606593002
7.656000000000001,1.0000000000000002,144.491395749497
7.664,1.0,144.09909355394393
7.672,1.0,143.70669805525955
7.68,1.0,143.31420783323793
7.688,1.0,142.92162147153266
7.696,1.0,142.52893755771143
7.704,0.9999999999999999,142.13615468331085
7.712,1.0,141.74327144389102
7.72,1.0,141.35028643909035
7.728,0.9999999999999998,140.95719827268053
7.736,0.9999999999999999,140.56400555262135
7.744,0.9999999999999999,140.17070689111569
7.752,1.0,139.77730090466477
7.76,1.0,139.38378621412323
7.768,0.9999999999999999,138.9901614447544
7.776,1.0,138.59642522628565
7.784,1.0,138.20257619296382
7.792,1.0,137.80861298361086
7.8,1.0,137.4145342416792
7.808,1.0,137.0203386153078
7.816,0.9999999999999999,136.6260247573776
7.824,0.9999999999999999,136.23159132556776
7.832,0.9999999999999999,135.8370369824114
7.84,0.9999999999999999,135.44236039535184
7.848,1.0,135.04756023679872
7.856,1.0,134.6526351841844
7.864,1.0,134.25758392002027
7.872,1.0,133.86240513195335
7.88,0.9999999999999999,133.46709751282282
7.888,0.9999999999999999,133.07165976071678
7.896,0.9999999999999999,132.67609057902908
7.904,0.9999999999999999,132.28038867651625
7.912,0.9999999999999999,131.8845527673545
7.92,0.9999999999999999,131.48858157119705
7.928,1.0,131.09247381323112
7.936,1.0,130.69622822423557
7.944,1.0,130.2998435406382
7.952,1.0,129.90331850457335
7.96,1.0,129.50665186393985
7.968,1.0,129.1098423724585
7.976,1.0,128.71288878973027
7.984,1.0,128.3157898812942
7.992,1.0,127.91854441868557
8.0,1.0,127.52115117949428
8.008,1.0,127.12360894742314
8.016,0.9999999999999999,126.7259165123462
8.024000000000001,0.9999999999999999,126.32807267036786
8.032,1.0,125.93007622388107
8.04,1.0,125.53192598162633
8.048,0.9999999999999999,125.13362075875055
8.056000000000001,1.0,124.73515937686643
8.064,0.9999999999999999,124.33654066411135
8.072,1.0,123.93776345520646
8.08,1.0,123.53882659151627
8.088000000000001,1.0,123.13972892110827
8.096,0.9999999999999999,122.74046929881231
8.104,1.0,122.3410465862802
8.112,1.0,121.94145965204554
8.120000000000001,1.0,121.54170737158385
8.128,1.0,121.14178862737242
8.136,1.0,120.74170230895014
8.144,1.0,120.34144731297792
8.152000000000001,1.0,119.94102254329901
8.16,0.9999999999999999,119.5404269109994
8.168,0.9999999999999999,119.13965933446791
8.176,0.9999999999999999,118.738718739457
8.184000000000001,1.0,118.33760405914349
8.192,0.9999999999999999,117.93631423418933
8.2,1.0,117.5348482128018
8.208,1.0,117.13320495079506
8.216000000000001,1.0,116.73138341165087
8.224,1.0,116.32938256657962
8.232,1.0,115.92720139458129
8.24,1.0,115.52483888250663
8.248000000000001,1.0,115.12229402511875
8.256,1.0,114.71956582515409
8.264,0.9999999999999999,114.31665329338371
8.272,1.0,113.91355544867473
8.280000000000001,1.0,113.51027131805212
8.288,1.0,113.10679993675997
8.296,0.9999999999999999,112.70314034832282
8.304,1.0,112.2992916046075
8.312,1.0,111.89525276588503
8.32,1.0,111.49102290089164
8.328,0.9999999999999999,111.08660108689115
8.336,0.9999999999999999,110.68198640973613
8.344,1.0,110.27717796393013
8.352,1.0,109.87217485268893
8.36,1.0,109.46697618800299
8.368,0.9999999999999999,109.0615810906985
8.376,1.0,108.65598869049978
8.384,0.9999999999999999,108.25019812609064
8.392,1.0,107.84420854517657
8.4,1.0,107.43801910454606
8.408,0.9999999999999999,107.0316289701329
8.416,0.9999999999999999,106.62503731707729
8.424,1.0,106.21824332978824
8.432,0.9999999999999999,105.81124620200461
8.44,1.0,105.4040451368574
8.448,1.0,104.99663934693065
8.456,1.0,104.58902805432378
8.464,1.0,104.1812104907123
8.472,0.9999999103825177,103.77318589741004
8.48,0.9999998099095925,103.3649535254298
8.488,0.9999997079653773,102.95651263554531
8.496,0.9999996045594638,102.5478624983519
8.504,0.9999994997016722,102.1390023943282
8.512,0.9999993934020502,101.72993161389662
8.52,0.9999992856708697,101.32064945748492
8.528,0.9999991765186277,100.91115523558642
8.536,0.9999990659560423,100.50144826882146
8.544,0.9999989539940531,100.09152788799727
8.552,0.9999988406438183,99.6813934341693
8.56,0.9999987259167129,99.27104425870073
8.568,0.9999986098243281,98.86047972332352
8.576,0.9999984923784687,98.44969920019781
8.584,0.9999983735911512,98.03870207197251
8.592,0.9999982534746018,97.62748773184437
8.6,0.9999981320412564,97.2160555836183
8.608,0.9999980093037557,96.80440504176616
8.616,0.9999978852749457,96.39253553148667
8.624,0.9999977599678754,95.98044648876373
8.632,0.9999976333957927,95.56813736042601
8.64,0.9999975055721464,95.15560760420492
8.648,0.9999973765105796,94.74285668879372
8.656,0.9999972462249314,94.32988409390505
8.664,0.999997114729233,93.91668931032955
8.672,0.999996982037705,93.50327183999298
8.68,0.9999968481647574,93.0896311960143
8.688,0.9999967131249853,92.67576690276232
8.696,0.9999965769331681,92.26167849591324
8.704,0.9999964396042662,91.84736552250673
8.712,0.9999963011534198,91.43282754100295
8.72,0.9999961615959452,91.01806412133793
8.728,0.9999960209473349,90.60307484498021
8.736,0.9999958792232523,90.18785930498545
8.744,0.9999957364395312,89.77241710605239
8.752,0.9999955926121735,89.35674786457696
8.76,0.9999954477573462,88.94085120870746
8.768,0.9999953018913778,88.52472677839798
8.776,0.9999951550307581,88.10837422546291
8.784,0.9999950071921347,87.69179321362958
8.792,0.9999948583923102,87.27498341859209
8.8,0.9999947086482398,86.85794452806311
8.808,0.9999945579770284,86.44067624182689
8.815999999999999,0.9999944063959294,86.02317827179044
8.824,0.9999942539223403,85.60545034203525
8.832,0.999994100573801,85.18749218886829
8.84,0.999993946367991,84.76930356087253
8.847999999999999,0.9999937913227264,84.35088421895671
8.856,0.9999936354559577,83.93223393640514
8.864,0.9999934787857669,83.51335249892708
8.872,0.999993321330364,83.09423970470516
8.879999999999999,0.9999931631080862,82.67489536444334
8.888,0.999993004137392,82.2553193014148
8.896,0.9999928444368615,81.83551135150918
8.904,0.9999926840251913,81.41547136327905
8.911999999999999,0.9999925229211923,80.9951991979858
8.92,0.9999923611437882,80.57469472964529
8.928,0.9999921987120104,80.15395784507302
8.936,0.9999920356449958,79.73298844392839
8.943999999999999,0.999991871961985,79.31178643875819
8.952,0.9999917076823176,78.89035175504009
8.96,0.9999915428254307,78.46868433122539
8.968,0.9999913774108542,78.04678411878082
8.975999999999999,0.9999912114582097,77.6246510822297
8.984,0.9999910449872058,77.2022851991929
8.992,0.9999908780176364,76.77968646042905
9.0,0.9999907105693768,76.35685486987366
9.008,0.9999905426623802,75.93379044467788
9.016,0.9999903743166761,75.51049321524654
9.024000000000001,0.9999902055523652,75.08696322527578
9.032,0.9999900363896185,74.66320053178944
9.04,0.9999898668486709,74.23920520517485
9.048,0.9999896969498224,73.81497732921818
9.056000000000001,0.9999895267134313,73.39051700113905
9.064,0.9999893561599126,72.96582433162403
9.072,0.9999891853097336,72.54089944485943
9.08,0.9999890141834128,72.11574247856355
9.088000000000001,0.9999888428015141,71.69035358401828
9.096,0.9999886711846462,71.26473292609943
9.104,0.9999884993534565,70.83888068330627
9.112,0.9999883273286303,70.4127970477907
9.120000000000001,0.999988155130886,69.98648222538539
9.128,0.9999879827809725,69.5599364356309
9.136,0.9999878102996658,69.13315991180193
9.144,0.9999876377077654,68.7061529009328
9.152000000000001,0.9999874650260907,68.27891566384245
9.16,0.9999872922754793,67.85144847515788
9.168,0.9999871194767813,67.42375162333674
9.176,0.9999869466508582,66.99582541068949
9.184000000000001,0.9999867738185779,66.56767015340048
9.192,0.9999866010008117,66.13928618154787
9.2,0.9999864282184329,65.71067383912245
9.208,0.9999862554923089,65.2818334840459
9.216000000000001,0.9999860828433034,64.85276548818823
9.224,0.9999859102922689,64.42347023738363
9.232,0.9999857378600455,63.993948131445485
9.24,0.9999855655674562,63.5641995841807
9.248000000000001,0.9999853934353046,63.134225023403026
9.256,0.9999852214843704,62.704024890944915
9.264,0.9999850497354082,62.273599642668465
9.272,0.9999848782091403,61.8429497484755
9.280000000000001,0.9999847069262581,61.412075692316826
9.288,0.9999845359074145,60.9809779721998
9.296,0.9999843651732239,60.549657100195006
9.304,0.9999841947442555,60.11811360244205
9.312000000000001,0.9999840246410333,59.68634801915437
9.32,0.9999838548840302,59.25436090462255
9.328,0.9999836854936663,58.82215282721645
9.336,0.9999835164903041,58.38972436938655
9.344,0.9999833478942471,57.95707612766437
9.352,0.9999831797257345,57.52420871266069
9.36,0.9999830120049388,57.09112274906398
9.368,0.9999828447519625,56.65781887563636
9.376,0.9999826779868348,56.224297745209576
9.384,0.9999825117295088,55.790560024678555
9.392,0.9999823459998561,55.35660639499512
9.4,0.9999821808176671,54.92243755115888
9.408,0.9999820162026439,54.48805420220876
9.416,0.9999818521744,54.05345707121145
9.424,0.9999816887524561,53.618646895250144
9.432,0.9999815259562359,53.18362442541089
9.44,0.9999813638050643,52.748390426768665
9.448,0.999981202318164,52.31294567837102
9.456,0.9999810415146508,51.877290973222024
9.464,0.9999808814135331,51.44142711826303
9.472,0.9999807220337068,51.00535493435413
9.48,0.9999805633939524,50.56907525625247
9.488,0.9999804055129324,50.13258893259086
9.496,0.999980248409188,49.69589682585374
9.504,0.9999800921011368,49.25899981235303
9.512,0.9999799366070679,48.82189878220139
9.52,0.9999797819451409,48.38459463928559
9.528,0.9999796281333815,47.94708830123695
9.536,0.99997947518968,47.50938069940213
9.544,0.9999793231317862,47.071472778810836
9.552,0.9999791719773091,46.63336549814388
9.56,0.9999790217437113,46.19505982969823
9.568,0.9999788724483087,45.75655675935232
9.576,0.9999787241082657,45.31785728652839
9.584,0.9999785767405935,44.878962424154935
9.592,0.9999784303621467,44.43987319862642
9.6,0.9999782849896212,44.000590649763
9.608,0.9999781406395504,43.561115830767235
9.616,0.999977997328304,43.12144980818127
9.624,0.9999778550720845,42.68159366184065
9.632,0.9999777138869235,42.24154848482866
9.64,0.9999775737886818,41.801315383427465
9.648,0.999977434793044,41.360895477069526
9.656,0.999977296915518,40.920289898285986
9.664,0.999977160171431,40.47949979265519
9.672,0.9999770245759287,40.038526318748346
9.68,0.9999768901439714,39.59737064807512
9.688,0.9999767568903317,39.15603396502655
9.696,0.9999766248295935,38.71451746681773
9.704,0.9999764939761479,38.2728223634279
9.712,0.9999763643441927,37.830949877540355
9.72,0.9999762359477284,37.38890124447951
9.728,0.9999761088005579,36.94667771214821
9.736,0.9999759829162823,36.50428054096179
9.744,0.9999758583083005,36.061711003782506
9.752,0.999975734989806,35.6189703858509
9.76,0.9999756129737852,35.17605998471723
9.768,0.9999754922730162,34.7329811101701
9.776,0.9999753729000659,34.28973508416501
9.784,0.9999752548672876,33.84632324075012
9.792,0.9999751381868206,33.40274692599205
9.8,0.9999750228705881,32.95900749789866
