freq,mag,phase
6.0,0.9999934927123627,-137.37662020295812
6.008,0.9999932738356044,-137.84251634607983
6.016,0.999993058586753,-138.30825533404297
6.024,0.9999928470221958,-138.7738364095297
6.032,0.9999926391962465,-139.2392588345196
6.04,0.9999924351611578,-139.70452189021742
6.048,0.9999922349671401,-140.16962487697964
6.056,0.9999920386623715,-140.63456711423933
6.064,0.9999918462930165,-141.09934794043022
6.072,0.9999916579032399,-141.56396671290878
6.08,0.9999914735352214,-142.02842280787536
6.088,0.9999912932291749,-142.4927156202941
6.096,0.99999111702336,-142.95684456381125
6.104,0.9999909449541019,-143.42080907067268
6.112,0.9999907770558062,-143.8846085916397
6.12,0.9999906133609755,-144.34824259590425
6.128,0.9999904539002272,-144.81171057100235
6.136,0.99999029870231,-145.27501202272697
6.144,0.9999901477941209,-145.73814647503931
6.152,0.999990001200723,-146.20111346997942
6.16,0.9999898589453632,-146.66391256757532
6.168,0.9999897210494894,-147.12654334575166
6.176,0.9999895875327695,-147.5890054002368
6.184,0.9999894584131078,-148.05129834446907
6.192,0.9999893337066659,-148.51342180950255
6.2,0.9999892134278769,-148.97537544391113
6.208,0.9999890975894691,-149.43715891369234
6.216,0.9999889862024809,-149.89877190216973
6.224,0.99998887927628,-150.36021410989497
6.232,0.9999887768185851,-150.8214852545486
6.24,0.9999886788354805,-151.28258507084033
6.248,0.9999885853314382,-151.74351331040836
6.256,0.999988496309338,-152.2042697417179
6.264,0.9999884117704835,-152.66485414995915
6.272,0.9999883317146249,-153.12526633694446
6.28,0.9999882561399763,-153.58550612100453
6.288,0.999988185043236,-154.0455733368846
6.296,0.9999881184196068,-154.50546783563922
6.304,0.9999880562628142,-154.96518948452692
6.312,0.9999879985651298,-155.42473816690398
6.32,0.9999879453173849,-155.88411378211788
6.328,0.9999878965089982,-156.34331624539996
6.336,0.9999878521279886,-156.80234548775772
6.344,0.9999878121610021,-157.26120145586617
6.352,0.9999877765933246,-157.71988411195963
6.36,0.9999877454089083,-158.17839343372185
6.368,0.9999877185903904,-158.63672941417659
6.376,0.9999876961191102,-159.09489206157727
6.384,0.9999876779751317,-159.55288139929658
6.392,0.9999876641372663,-160.01069746571525
6.4,0.9999876545830878,-160.46834031411097
6.408,0.999987649288957,-160.92581001254632
6.416,0.9999876482300406,-161.38310664375703
6.424,0.999987651380332,-161.84023030503937
6.432,0.9999876587126689,-162.29718110813772
6.44,0.9999876701987588,-162.75395917913136
6.448,0.9999876858091943,-163.2105646583215
6.456,0.9999877055134774,-163.66699770011763
6.464,0.999987729280037,-164.123258472924
6.472,0.9999877570762501,-164.57934715902573
6.48,0.999987788868462,-165.03526395447454
6.4879999999999995,0.999987824622008,-165.49100906897476
6.496,0.9999878643012311,-165.94658272576893
6.504,0.9999879078695041,-166.40198516152296
6.5120000000000005,0.9999879552892494,-166.85721662621197
6.52,0.9999880065219567,-167.31227738300498
6.5280000000000005,0.9999880615282093,-167.76716770815074
6.536,0.9999881202676957,-168.22188789086198
6.5440000000000005,0.9999881826992372,-168.67643823320145
6.552,0.9999882487808026,-169.13081904996582
6.5600000000000005,0.9999883184695304,-169.5850306685717
6.568,0.9999883917217491,-170.0390734289397
6.5760000000000005,0.9999884684929952,-170.49294768338024
6.584,0.9999885487380342,-170.94665379647762
6.592,0.9999886324108792,-171.40019214497588
6.6,0.999988719464812,-171.8535631176634
6.608,0.9999888098524008,-172.30676711525808
6.616,0.9999889035255204,-172.75980455029276
6.624,0.9999890004353729,-173.21267584700018
6.632,0.9999891005325032,-173.66538144119872
6.64,0.9999892037668225,-174.11792178017768
6.648,0.9999893100876244,-174.57029732258297
6.656,0.9999894194436056,-175.02250853830304
6.664,0.9999895317828831,-175.4745559083546
6.672,0.9999896470530149,-175.92643992476889
6.68,0.999989765201017,-176.3781610904778
6.688,0.9999898861733832,-176.82971991920047
6.696,0.9999900099161031,-177.28111693532995
6.704,0.9999901363746797,-177.73235267381995
6.712,0.99999026549415,-178.18342768007204
6.72,0.9999903972191003,-178.63434250982303
6.728,0.9999905314936866,-179.08509772903233
6.736,0.999990668261651,-179.53569391377
6.744,0.9999908074663408,-179.9861316501047
6.752,0.9999909490507252,179.56358846600784
6.76,0.9999910929574126,179.1134658288363
6.768,0.9999912391286707,178.66349982298485
6.776,0.9999913875064403,178.2136898235037
6.784,0.9999915380323552,177.7640351959999
6.792,0.9999916906477574,177.3145352967471
6.8,0.999991845293716,176.86518947279578
6.808,0.9999920019110434,176.41599706208234
6.816,0.9999921604403109,175.96695739353845
6.824,0.999992320821867,175.51806978719986
6.832,0.9999924829958524,175.0693335543147
6.84,0.9999926469022181,174.62074799745164
6.848,0.99999281248074,174.17231241060756
6.856,0.9999929796710357,173.7240260793148
6.864,0.9999931484125805,173.27588828074815
6.872,0.9999933186447238,172.82789828383144
6.88,0.9999934903067029,172.3800553493435
6.888,0.99999366333766,171.93235873002396
6.896,0.9999938376766588,171.48480767067866
6.904,0.9999940132626963,171.03740140828444
6.912,0.9999941900347213,170.59013917209356
6.92,0.9999943679316479,170.1430201837379
6.928,0.9999945468923707,169.69604365733235
6.936,0.9999947268557781,169.2492087995782
6.944,0.9999949077607693,168.80251480986576
6.952,0.9999950895462671,168.3559608803765
6.96,0.9999952721512323,167.9095461961851
6.968,0.9999954555146779,167.46326993536061
6.976,0.9999956395756848,167.0171312690675
6.984,0.9999958242734112,166.57112936166592
6.992,0.9999960095471112,166.12526337081172
7.0,0.9999961953361457,165.67953244755608
7.008,0.9999963815799957,165.23393573644418
7.016,0.9999965682182772,164.78847237561405
7.024,0.9999967551907514,164.34314149689428
7.032,0.9999969424373415,163.8979422259019
7.04,0.9999971298981422,163.4528736821391
7.048,0.9999973175134327,163.00793497909007
7.056,0.9999975052236914,162.56312522431674
7.064,0.9999976929696051,162.11844351955466
7.072,0.9999978806920844,161.6738889608078
7.08,0.999998068332274,161.2294606384432
7.088,0.9999982558315628,160.78515763728495
7.096,0.9999984431315985,160.3409790367078
7.104,0.9999986301742991,159.89692391073007
7.112,0.9999988169018611,159.4529913281063
7.12,0.9999990032567755,159.00918035241907
7.128,0.9999991891818332,158.5654900421704
7.136,0.9999993746201413,158.12191945087304
7.144,0.9999995595151305,157.67846762714058
7.152,0.9999997438105673,157.23513361477745
7.16,0.9999999274505635,156.79191645286838
7.168,0.9999999999999999,156.34881517586714
7.176,0.9999999999999999,155.90582881368505
7.184,0.9999999999999998,155.46295639177853
7.192,1.0,155.02019693123663
7.2,0.9999999999999999,154.57754944886773
7.208,1.0,154.13501295728577
7.216,1.0,153.69258646499588
7.224,1.0,153.2502689764797
7.232,1.0,152.80805949228
7.24,1.0,152.36595700908475
7.248,0.9999999999999998,151.92396051981078
7.256,0.9999999999999998,151.48206901368687
7.264,1.0,151.0402814763363
7.272,0.9999999999999999,150.59859688985892
7.28,0.9999999999999999,150.15701423291245
7.288,0.9999999999999999,149.71553248079377
7.296,1.0,149.27415060551922
7.304,1.0,148.83286757590452
7.312,1.0,148.39168235764416
7.32,0.9999999999999999,147.9505939133904
7.328,1.0,147.50960120283162
7.336,1.0,147.0687031827701
7.344,1.0,146.62789880719941
7.352,1.0,146.1871870273812
7.36,1.0,145.74656679192157
7.368,1.0,145.3060370468467
7.376,1.0,144.86559673567848
7.384,1.0,144.42524479950885
7.392,1.0,143.98498017707425
7.4,1.0,143.54480180482946
7.4079999999999995,0.9999999999999999,143.10470861702075
7.416,1.0,142.66469954575857
7.4239999999999995,1.0,142.2247735210899
7.432,1.0,141.78492947106986
7.4399999999999995,1.0,141.34516632183318
7.448,1.0,140.9054829976646
7.4559999999999995,0.9999999999999998,140.4658784210695
7.464,0.9999999999999999,140.0263515128432
7.4719999999999995,0.9999999999999999,139.58690119214083
7.48,1.0,139.14752637654536
7.4879999999999995,1.0,138.70822598213675
7.496,1.0,138.26899892355883
7.504,1.0,137.82984411408745
7.5120000000000005,1.0,137.39076046569676
7.52,1.0,136.95174688912604
7.5280000000000005,1.0,136.51280229394493
7.536,0.9999999999999999,136.0739255886198
7.5440000000000005,0.9999999999999999,135.6351156805777
7.552,1.0,135.1963714762717
7.5600000000000005,1.0,134.75769188124426
7.568,0.9999999999999999,134.31907580019126
7.5760000000000005,0.9999999999999999,133.88052213702474
7.584,1.0,133.44202979493602
7.5920000000000005,1.0,133.00359767645725
7.6,0.9999999999999999,132.56522468352375
7.6080000000000005,1.0,132.12690971753494
7.616,1.0,131.68865167941547
7.6240000000000006,1.0,131.25044946967515
7.632,0.9999999999999999,130.81230198846967
7.640000000000001,1.0,130.3742081356593
7.648,1.0,129.9361668108687
7.656000000000001,1.0,129.49817691354502
7.664,0.9999999999999999,129.06023734301667
7.672,1.0,128.62234699855063
7.68,1.0,128.18450477941013
7.688,1.0,127.7467095849117
7.696,1.0,127.30896031448147
7.704,1.0,126.8712558677115
7.712,1.0,126.43359514441539
7.72,1.0,125.99597704468378
7.728,1.0,125.55840046893911
7.736,1.0,125.12086431799018
7.744,1.0,124.68336749308637
7.752,1.0000000000000002,124.24590889597123
7.76,0.9999999999999999,123.80848742893582
7.768,0.9999999999999999,123.37110199487192
7.776,1.0,122.93375149732421
7.784,1.0,122.4964348405427
7.792,0.9999999999999999,122.0591509295345
7.8,1.0,121.62189867011513
7.808,0.9999999999999999,121.1846769689597
7.816,1.0000000000000002,120.74748473365354
7.824,1.0,120.31032087274247
7.832,1.0,119.87318429578282
7.84,1.0,119.436073913391
7.848,1.0,118.99898863729267
7.856,0.9999999999999999,118.56192738037169
7.864,1.0,118.12488905671857
7.872,1.0,117.6878725816787
7.88,0.9999999999999999,117.25087687190025
7.888,1.0,116.8139008453814
7.896,1.0,116.37694342151771
7.904,0.9999999999999999,115.9400035211489
7.912,1.0,115.50308006660522
7.92,1.0,115.06617198175371
7.928,1.0,114.62927819204394
7.936,0.9999999999999999,114.19239762455346
7.944,1.0,113.75552920803314
7.952,0.9999999999999999,113.3186718729518
7.96,1.0,112.88182455154087
7.968,1.0,112.4449861778386
7.976,0.9999999999999999,112.00815568773395
7.984,1.0,111.57133201901017
7.992,1.0,111.13451411138813
8.0,0.9999999999999999,110.69770090656931
8.008,0.9999999999999999,110.26089134827853
8.016,0.9999999999999999,109.82408438230611
8.024000000000001,0.9999999999999999,109.3872789565504
8.032,1.0,108.95047402105946
8.04,0.9999999999999999,108.51366852807219
8.048,0.9999999999999999,108.07686143205996
8.056000000000001,1.0,107.64005168976767
8.064,1.0,107.20323826025427
8.072,0.9999999999999998,106.76642010493296
8.08,0.9999999999999999,106.32959618761153
8.088000000000001,0.9999999999999999,105.8927654745324
8.096,1.0,105.45592693441199
8.104,0.9999999999999999,105.01907953847999
8.112,0.9999999999999999,104.58222226051839
8.120000000000001,1.0,104.1453540769007
8.128,0.9999999999999999,103.70847396663017
8.136,0.9999999999999999,103.27158091137785
8.144,1.0,102.83467389552101
8.152000000000001,1.0,102.39775190618087
8.16,1.0,101.96081393326016
8.168,0.9999999999999999,101.52385896948003
8.176,1.0,101.08688601041747
8.184000000000001,0.9999999999999998,100.64989405454216
8.192,1.0,100.2128821032529
8.2,1.0,99.77584916091375
8.208,1.0,99.33879423489033
8.216000000000001,0.9999999999999999,98.90171633558586
8.224,1.0,98.46461447647656
8.232,0.9999999999999999,98.02748767414691
8.24,0.9999999999999998,97.59033494832505
8.248000000000001,0.9999999999999999,97.15315532191786
8.256,1.0,96.71594782104553
8.264,1.0,96.27871147507588
8.272,0.9999999999999999,95.8414453166589
8.280000000000001,0.9999999999999999,95.40414838176095
8.288,1.0,94.96681970969844
8.296,0.9999999999999999,94.52945834317137
8.304,0.9999999999999998,94.09206332829696
8.312,1.0,93.65463371464305
8.32,1.0,93.21716855526067
8.328,0.9999999999999999,92.77966690671747
8.336,1.0,92.34212782912967
8.344,1.0,91.90455038619527
8.352,0.9999999999999999,91.46693364522541
8.36,1.0,91.02927667717732
8.368,0.9999998524859262,90.59157855668529
8.376,0.9999996302024685,90.15383836209314
8.384,0.999999405773705,89.71605517548485
8.392,0.9999991792362961,89.27822808271668
8.4,0.9999989506272997,88.84035617344736
8.408,0.9999987199841659,88.40243854116993
8.416,0.9999984873447303,87.9644742832414
8.424,0.9999982527472064,87.52646250091439
8.432,0.9999980162301779,87.08840229936636
8.44,0.9999977778325922,86.65029278773082
8.448,0.9999975375937527,86.21213307912625
8.456,0.9999972955533127,85.77392229068697
8.464,0.9999970517512663,85.33565954359173
8.472,0.9999968062279418,84.89734396309412
8.48,0.9999965590239943,84.45897467855093
8.488,0.9999963101803986,84.02055082345206
8.496,0.9999960597384406,83.58207153544869
8.504,0.9999958077397108,83.1435359563828
8.512,0.9999955542260954,82.70494323231495
8.52,0.9999952992397708,82.26629251355342
8.528,0.9999950428231932,81.82758295468183
8.536,0.9999947850190932,81.38881371458778
8.544,0.9999945258704673,80.94998395649017
8.552,0.9999942654205686,80.51109284796757
8.56,0.9999940037129008,80.07213956098511
8.568,0.9999937407912102,79.63312327192257
8.576,0.9999934766994767,79.19404316160097
8.584,0.9999932114819068,78.75489841531032
8.592,0.9999929451829253,78.31568822283586
8.6,0.9999926778471666,77.87641177848549
8.608,0.9999924095194682,77.43706828111564
8.616,0.9999921402448617,76.99765693415853
8.624,0.9999918700685642,76.55817694564756
8.632,0.9999915990359713,76.11862752824436
8.64,0.999991327192648,75.67900789926375
8.648,0.9999910545843212,75.23931728070053
8.656,0.9999907812568718,74.79955489925423
8.664,0.9999905072563244,74.35971998635542
8.672,0.999990232628842,73.91981177819017
8.68,0.999989957420716,73.47982951572612
8.688,0.9999896816783583,73.0397724447366
8.696,0.9999894054482925,72.59963981582634
8.704,0.9999891287771465,72.15943088445533
8.712,0.9999888517116441,71.71914491096422
8.72,0.9999885742985957,71.27878116059784
8.728,0.9999882965848903,70.83833890353021
8.736,0.9999880186174883,70.39781741488791
8.744,0.9999877404434119,69.95721597477471
8.752,0.9999874621097367,69.51653386829454
8.76,0.9999871836635837,69.07577038557594
8.768,0.9999869051521112,68.6349248217946
8.776,0.9999866266225057,68.1939964771976
8.784,0.9999863481219737,67.75298465712558
8.792,0.999986069697734,67.31188867203664
8.8,0.9999857913970078,66.87070783752833
8.808,0.9999855132670117,66.42944147436098
8.815999999999999,0.9999852353549487,65.98808890847972
8.824,0.9999849577079998,65.54664947103693
8.832,0.9999846803733149,65.1051224984147
8.84,0.999984403398006,64.66350733224671
8.847999999999999,0.9999841268291374,64.22180331943976
8.856,0.9999838507137179,63.78000981219577
8.864,0.9999835750986908,63.33812616803348
8.872,0.9999833000309296,62.896151749809675
8.879999999999999,0.9999830255572244,62.45408592574015
8.888,0.9999827517242772,62.01192806942095
8.896,0.9999824785786922,61.569677559849566
8.904,0.9999822061669675,61.127333781445316
8.911999999999999,0.999981934535487,60.68489612406982
8.92,0.9999816637305116,60.24236398304755
8.928,0.9999813937981714,59.79973675918621
8.936,0.9999811247844571,59.357013858796726
8.943999999999999,0.9999808567352122,58.91419469371279
8.952,0.9999805896961232,58.4712786813109
8.96,0.9999803237127143,58.02826524453001
8.968,0.9999800588303359,57.58515381189079
8.975999999999999,0.9999797950941584,57.141943817514615
8.984,0.9999795325491636,56.69863470114277
8.992,0.9999792712401365,56.255225908155516
9.0,0.9999790112116569,55.81171688959063
9.008,0.9999787525080917,55.3681071021616
9.016,0.9999784951735868,54.924396008276254
9.024000000000001,0.9999782392520589,54.480583076055076
9.032,0.9999779847871872,54.03666777934898
9.04,0.9999777318224066,53.59264959775683
9.048,0.9999774804008986,53.14852801664338
9.056000000000001,0.9999772305655829,52.70430252715674
9.064,0.999976982359112,52.2599726262455
9.072,0.9999767358238606,51.81553781667559
9.08,0.9999764910019198,51.37099760704724
9.088000000000001,0.9999762479350874,50.926351511811916
9.096,0.9999760066648629,50.481599051288605
9.104,0.9999757672324371,50.03673975167984
9.112,0.9999755296786863,49.591773145088005
9.120000000000001,0.999975294044164,49.14669876953147
9.128,0.9999750603690934,48.70151616896001
9.136,0.9999748286933605,48.256224893270115
9.144,0.9999745990565052,47.810824498320514
9.152000000000001,0.9999743714977166,47.36531454594741
9.16,0.9999741460558226,46.9196946039792
9.168,0.9999739227692842,46.47396424625092
9.176,0.9999737016761894,46.028123052618945
9.184000000000001,0.9999734828142433,45.58217060897537
9.192,0.9999732662207633,45.13610650726195
9.2,0.9999730519326716,44.68993034548367
9.208,0.9999728399864869,44.24364172772251
9.216000000000001,0.9999726304183199,43.79724026415121
9.224,0.9999724232638635,43.350725571046034
9.232,0.9999722185583888,42.90409727079965
9.24,0.9999720163367368,42.457354991934075
9.248000000000001,0.9999718166333119,42.01049836911324
9.256,0.9999716194820751,41.563527043155254
9.264,0.9999714249165388,41.11644066104413
9.272,0.999971232969759,40.669238875941815
9.280000000000001,0.9999710436743293,40.22192134719998
9.288,0.9999708570623743,39.77448774037123
9.296,0.9999706731655448,39.32693772721987
9.304,0.9999704920150094,38.87927098573312
9.312000000000001,0.9999703136414501,38.43148720013188
9.32,0.999970138075056,37.98358606088087
9.328,0.9999699653455163,37.53556726469863
9.336,0.9999697954820165,37.08743051456758
9.344,0.9999696285132306,36.63917551974395
9.352,0.9999694644673164,36.19080199576648
9.36,0.9999693033719104,35.742309664466305
9.368,0.9999691452541206,35.29369825397508
9.376,0.9999689901405231,34.84496749873438
9.384,0.9999688380571554,34.396117139503176
9.392,0.9999686890295119,33.947146923366816
9.4,0.9999685430825376,33.49805660374398
9.408,0.9999684002406247,33.04884594039503
9.416,0.9999682605276062,32.599514699428475
9.424,0.9999681239667524,32.15006265330887
9.432,0.9999679905807647,31.70048958086256
9.44,0.9999678603917707,31.250795267285106
9.448,0.9999677334213226,30.8009795041465
9.456,0.9999676096903882,30.35104208939796
9.464,0.9999674892193502,29.9009828273767
9.472,0.9999673720280007,29.450801528811986
9.48,0.9999672581355357,29.000498010829368
9.488,0.9999671475605529,28.55007209695628
9.496,0.9999670403210474,28.09952361712554
9.504,0.9999669364344066,27.648852407680383
9.512,0.9999668359174071,27.19805831137749
9.52,0.9999667387862117,26.74714117739122
9.528,0.9999666450563655,26.29610086131613
9.536,0.9999665547427911,25.844937225170654
9.544,0.9999664678597875,25.393650137398907
9.552,0.999966384421025,24.942239472873762
9.56,0.9999663044395434,24.49070511289807
9.568,0.9999662279277477,24.03904694520709
9.576,0.9999661548974067,23.587264863969022
9.584,0.9999660853596487,23.135358769786823
9.592,0.9999660193249595,22.683328569698165
9.6,0.9999659568031811,22.231174177176495
9.608,0.9999658978035066,21.778895512130376
9.616,0.99996584233448,21.326492500903893
9.624,0.9999657904039936,20.87396507627533
9.632,0.9999657420192851,20.421313177456916
9.64,0.9999656971869368,19.968536750092778
9.648,0.999965655912873,19.515635746258027
9.656,0.9999656182023581,19.062610124456064
9.664,0.9999655840599958,18.609459849616975
9.672,0.9999655534897273,18.156184893094043
9.68,0.9999655264948295,17.702785232661554
9.688,0.9999655030779147,17.249260852510584
9.696,0.9999654832409284,16.795611743246052
9.704,0.9999654669851491,16.341837901881828
9.712,0.9999654543111882,15.887939331837048
9.72,0.9999654452189868,15.433916042930528
9.728,0.9999654397078176,14.979768051376348
9.736,0.9999654377762841,14.52549537977749
9.744,0.9999654394223191,14.071098057120704
9.752,0.9999654446431843,13.616576118769466
9.76,0.9999654534354728,13.161929606458036
9.768,0.9999654657951066,12.707158568283655
9.776,0.9999654817173379,12.252263058699903
9.784,0.9999655011967492,11.797243138508094
9.792,0.9999655242272534,11.342098874849901
9.8,0.9999655508020956,10.886830341197964
9.808,0.9999655809138523,10.431437617347745
9.816,0.999965614554434,9.975920789407379
