freq,mag,phase
6.0,0.9999931513928038,-158.03852886864
6.008,0.999990466625505,-158.37988038730677
6.016,0.999987855212056,-158.72094827869975
6.024,0.999985315855682,-159.06173695366192
6.032,0.9999828472769423,-159.4022508200735
6.04,0.9999804482135516,-159.74249428285762
6.048,0.9999781174202018,-160.08247174398767
6.056,0.9999758536683853,-160.4221876024967
6.064,0.9999736557462179,-160.76164625448888
6.072,0.9999715224582667,-161.10085209315238
6.08,0.9999694526253744,-161.43980950877472
6.088,0.9999674450844882,-161.77852288875937
6.096,0.9999654986884873,-162.11699661764425
6.104,0.9999636123060156,-162.45523507712224
6.112,0.9999617848213093,-162.79324264606285
6.12,0.9999600151340329,-163.1310237005362
6.128,0.9999583021591101,-163.46858261383787
6.136,0.9999566448265599,-163.80592375651585
6.144,0.9999550420813318,-164.14305149639907
6.152,0.999953492883145,-164.47997019862694
6.16,0.9999519962063238,-164.816684225681
6.168,0.999950551039642,-165.1531979374176
6.176,0.9999491563861571,-165.48951569110193
6.184,0.9999478112630571,-165.82564184144405
6.192,0.9999465147015055,-166.16158074063543
6.2,0.9999452657464817,-166.4973367383873
6.208,0.9999440634566278,-166.83291418197052
6.216,0.9999429069040986,-167.16831741625603
6.224,0.9999417951744063,-167.503550783757
6.232,0.9999407273662754,-167.8386186246722
6.24,0.9999397025914828,-168.17352527693035
6.248,0.9999387199747256,-168.50827507623566
6.256,0.9999377786534618,-168.84287235611438
6.264,0.9999368777777666,-169.17732144796295
6.272,0.9999360165101969,-169.51162668109635
6.28,0.999935194025637,-169.84579238279827
6.288,0.9999344095111673,-170.17982287837165
6.296,0.9999336621659136,-170.51372249119095
6.304,0.9999329512009153,-170.84749554275436
6.312,0.9999322758389867,-171.18114635273787
6.32,0.9999316353145788,-171.5146792390496
6.328,0.9999310288736419,-171.8480985178854
6.336,0.9999304557734956,-172.18140850378504
6.344,0.9999299152826924,-172.51461350968918
6.352,0.9999294066808844,-172.84771784699757
6.36,0.9999289292587032,-173.18072582562715
6.368,0.9999284823176143,-173.51364175407195
6.376,0.9999280651698019,-173.84646993946276
6.384,0.999927677138036,-174.17921468762822
6.392,0.9999273175555496,-174.51188030315586
6.4,0.9999269857659085,-174.84447108945457
6.408,0.9999266811228965,-175.17699134881698
6.416,0.9999264029903865,-175.50944538248268
6.424,0.9999261507422187,-175.84183749070243
6.432,0.9999259237620893,-176.17417197280193
6.44,0.9999257214434213,-176.50645312724725
6.448,0.9999255431892531,-176.8386852517099
6.456,0.999925388412121,-177.1708726431327
6.464,0.999925256533944,-177.50301959779605
6.472,0.9999251469859081,-177.83513041138482
6.48,0.9999250592083538,-178.16720937905524
6.4879999999999995,0.9999249926506661,-178.4992607955025
6.496,0.9999249467711636,-178.83128895502853
6.504,0.9999249210369848,-179.16329815161012
6.5120000000000005,0.9999249149239842,-179.49529267896764
6.52,0.9999249279166254,-179.82727683063354
6.5280000000000005,0.999924959507867,179.84074509997845
6.536,0.9999250091990683,179.5087688195043
6.5440000000000005,0.9999250764998775,179.17679003455976
6.552,0.9999251609281318,178.84480445167114
6.5600000000000005,0.9999252620097512,178.51280777720498
6.568,0.9999253792786454,178.18079571729865
6.5760000000000005,0.9999255122766074,177.84876397778945
6.584,0.9999256605532124,177.51670826414505
6.592,0.9999258236657304,177.18462428139273
6.6,0.9999260011790178,176.852507734049
6.608,0.9999261926654306,176.52035432604953
6.616,0.9999263977047209,176.18815976067822
6.624,0.9999266158839524,175.85591974049692
6.632,0.9999268467973992,175.52362996727518
6.64,0.9999270900464606,175.19128614191956
6.648,0.9999273452395661,174.85888396440356
6.656,0.9999276119920842,174.5264191336971
6.664,0.9999278899262412,174.19388734769674
6.672,0.9999281786710242,173.86128430315554
6.68,0.9999284778620989,173.52860569561318
6.688,0.9999287871417226,173.19584721932642
6.696,0.9999291061586584,172.86300456719965
6.704,0.9999294345680914,172.5300734307156
6.712,0.9999297720315481,172.19704949986652
6.72,0.9999301182168072,171.86392846308533
6.728,0.999930472797825,171.53070600717734
6.736,0.9999308354546519,171.19737781725215
6.744,0.9999312058733508,170.86393957665572
6.752,0.999931583745923,170.53038696690342
6.76,0.999931968770225,170.19671566761258
6.768,0.9999323606498948,169.86292135643612
6.776,0.999932759094275,169.5289997089965
6.784,0.9999331638183362,169.19494639881975
6.792,0.9999335745426027,168.86075709727055
6.8,0.9999339909930799,168.52642747348727
6.808,0.9999344129011805,168.19195319431805
6.816,0.9999348400036527,167.85732992425696
6.824,0.9999352720425074,167.52255332538107
6.832,0.9999357087649499,167.18761905728792
6.84,0.9999361499233083,166.8525227770339
6.848,0.9999365952749656,166.51726013907276
6.856,0.9999370445822913,166.18182679519546
6.864,0.9999374976125737,165.84621839447018
6.872,0.9999379541379533,165.5104305831834
6.88,0.9999384139353567,165.17445900478145
6.888,0.9999388767864312,164.83829929981323
6.896,0.9999393424774825,164.50194710587323
6.904,0.999939810799407,164.16539805754593
6.912,0.9999402815476324,163.82864778635056
6.92,0.9999407545220536,163.49169192068715
6.928,0.9999412295269713,163.15452608578332
6.936,0.9999417063710319,162.81714590364192
6.944,0.9999421848671664,162.4795469929898
6.952,0.9999426648325309,162.14172496922762
6.96,0.9999431460884489,161.8036754443805
6.968,0.9999436284603518,161.46539402704985
6.976,0.9999441117777216,161.12687632236631
6.984,0.9999445958740353,160.78811793194373
6.992,0.9999450805867067,160.44911445383434
7.0,0.9999455657570326,160.10986148248517
7.008,0.9999460512301372,159.77035460869556
7.016,0.9999465368549172,159.43058941957588
7.024,0.9999470224839894,159.0905614985077
7.032,0.9999475079736362,158.7502664251052
7.04,0.9999479931837544,158.40969977517776
7.048,0.9999484779778027,158.06885712069413
7.056,0.9999489622227501,157.72773402974795
7.064,0.9999494457890268,157.3863260665245
7.072,0.9999499285504715,157.04462879126928
7.08,0.9999504103842844,156.70263776025774
7.088,0.9999508911709764,156.36034852576694
7.096,0.9999513707943218,156.01775663604815
7.104,0.9999518491413107,155.67485763530198
7.112,0.9999523261021002,155.33164706365417
7.12,0.9999528015699689,154.9881204571338
7.128,0.9999532754412702,154.64427334765278
7.136,0.9999537476153872,154.3001012629874
7.144,0.9999542179946864,153.95559972676142
7.152,0.9999546864844742,153.61076425843115
7.16,0.9999551529929518,153.26559037327223
7.168,0.9999556174311726,152.92007358236867
7.176,0.9999560797129976,152.57420939260336
7.184,0.9999565397550544,152.22799330665094
7.192,0.999956997476694,151.88142082297242
7.2,0.9999574527999494,151.53448743581228
7.208,0.9999579056494936,151.1871886351971
7.216,0.9999583559526002,150.83951990693683
7.224,0.9999588036391028,150.49147673262812
7.232,0.9999592486413542,150.1430545896596
7.24,0.999959690894188,149.79424895122014
7.248,0.9999601303348791,149.44505528630845
7.256,0.9999605669031053,149.09546905974588
7.264,0.9999610005409101,148.74548573219138
7.272,0.9999614311926639,148.39510076015878
7.28,0.9999618588050266,148.0443095960366
7.288,0.9999622833269124,147.69310768811073
7.296,0.9999627047094524,147.3414904805892
7.304,0.9999631229059582,146.98945341363
7.312,0.999963537871887,146.63699192337162
7.32,0.9999639495648063,146.28410144196593
7.328,0.9999643579443591,145.93077739761426
7.336,0.9999647629722294,145.5770152146061
7.344,0.9999651646121078,145.22281031336095
7.352,0.9999655628296596,144.86815811047288
7.36,0.9999659575924899,144.5130540187579
7.368,0.9999663488701092,144.15749344730514
7.376,0.9999667366339056,143.80147180153034
7.384,0.9999671208571075,143.44498448323273
7.392,0.9999675015147548,143.08802689065556
7.4,0.9999678785836674,142.73059441854917
7.4079999999999995,0.9999682520424118,142.37268245823802
7.416,0.9999686218712732,142.0142863976907
7.4239999999999995,0.9999689880522229,141.65540162159368
7.432,0.9999693505688886,141.2960235114282
7.4399999999999995,0.9999697094065254,140.93614744555128
7.448,0.9999700645519861,140.57576879927942
7.4559999999999995,0.9999704159936905,140.21488294497726
7.464,0.9999707637215992,139.8534852521485
7.4719999999999995,0.9999711077271823,139.49157108753207
7.48,0.9999714480033933,139.1291358152009
7.4879999999999995,0.9999717845446393,138.7661747966655
7.496,0.9999721173467548,138.40268339098103
7.504,0.9999724464069741,138.03865695485865
7.5120000000000005,0.9999727717239035,137.67409084278077
7.52,0.9999730932974944,137.3089804071207
7.5280000000000005,0.9999734111290183,136.9433209982663
7.536,0.999973725221038,136.5771079647483
7.5440000000000005,0.9999740355773841,136.21033665337222
7.552,0.9999743422031282,135.84300240935596
7.5600000000000005,0.9999746451045571,135.47510057647037
7.568,0.9999749442891477,135.10662649718589
7.5760000000000005,0.9999752397655424,134.73757551282242
7.584,0.999975531543525,134.36794296370533
7.5920000000000005,0.999975819633994,133.99772418932469
7.6,0.9999761040489407,133.6269145285008
7.6080000000000005,0.9999763848014245,133.25550931955345
7.616,0.9999766619055489,132.88350390047714
7.6240000000000006,0.9999769353764373,132.51089360912033
7.632,0.9999772052302116,132.137673783371
7.640000000000001,0.9999774714839669,131.76383976134608
7.648,0.9999777341557503,131.3893868815875
7.656000000000001,0.9999779932645381,131.01431048326222
7.664,0.9999782488302122,130.638605906369
7.672,0.9999785008735388,130.26226849194944
7.68,0.9999787494161466,129.88529358230554
7.688,0.9999789944805046,129.50767652122232
7.696,0.9999792360899006,129.12941265419636
7.704,0.9999794742684194,128.75049732866992
7.712,0.999979709040922,128.37092589427138
7.72,0.999979940433025,127.990693703061
7.728,0.9999801684710785,127.60979610978312
7.736,0.9999803931821476,127.22822847212433
7.744,0.9999806145939896,126.84598615097762
7.752,0.9999808327350345,126.46306451071311
7.76,0.9999810476343659,126.07945891945471
7.768,0.9999812593217001,125.69516474936347
7.776,0.999981467827366,125.31017737692716
7.784,0.9999816731822869,124.92449218325658
7.792,0.9999818754179597,124.53810455438837
7.8,0.9999820745664362,124.15100988159445
7.808,0.9999822706603043,123.76320356169843
7.816,0.9999824637326684,123.37468099739866
7.824,0.9999826538171311,122.98543759759836
7.832,0.9999828409477749,122.59546877774251
7.84,0.9999830251591426,122.20476996016214
7.848,0.9999832064862196,121.81333657442546
7.856,0.9999833849644164,121.42116405769639
7.864,0.9999835606295493,121.02824785510032
7.872,0.999983733517824,120.63458342009729
7.88,0.9999839036658154,120.2401662148625
7.888,0.9999840711104531,119.8449917106745
7.896,0.9999842358890019,119.4490553883108
7.904,0.9999843980390447,119.05235273845128
7.912,0.9999845575984657,118.65487926208927
7.92,0.9999847146054329,118.25663047095045
7.928,0.9999848690983819,117.85760188791966
7.936,0.9999850211159983,117.45778904747549
7.944,0.999985170697201,117.0571874961332
7.952,0.9999853178811263,116.65579279289538
7.96,0.9999854627071108,116.25360050971112
7.968,0.9999856052146754,115.85060623194295
7.976,0.999985745443509,115.44680555884247
7.984,0.9999858834334527,115.04219410403418
7.992,0.9999860192244827,114.63676749600764
8.0,0.9999861528566962,114.23052137861816
8.008,0.9999862843702939,113.8234514115962
8.016,0.9999864138055659,113.41555327106472
8.024000000000001,0.9999865412028747,113.00682265006634
8.032,0.9999866666026411,112.59725525909803
8.04,0.9999867900453283,112.18684682665501
8.048,0.9999869115714266,111.77559309978359
8.056000000000001,0.9999870312214383,111.36348984464293
8.064,0.9999871490358632,110.9505328470754
8.072,0.9999872650551831,110.53671791318581
8.08,0.9999873793198476,110.12204086993005
8.088000000000001,0.9999874918702595,109.70649756571271
8.096,0.9999876027467587,109.29008387099363
8.104,0.9999877119896105,108.87279567890312
8.112,0.9999878196389888,108.45462890586725
8.120000000000001,0.9999879257349631,108.03557949224191
8.128,0.999988030317484,107.61564340295593
8.136,0.9999881334263695,107.19481662816334
8.144,0.9999882351012903,106.7730951839053
8.152000000000001,0.9999883353817569,106.3504751127814
8.16,0.9999884343071055,105.92695248462974
8.168,0.9999885319164843,105.50252339721652
8.176,0.9999886282488396,105.07718397693515
8.184000000000001,0.9999887233429033,104.65093037951485
8.192,0.9999888172371794,104.22375879073815
8.2,0.99998890996993,103.79566542716782
8.208,0.9999890015791628,103.36664653688342
8.216000000000001,0.9999890921026187,102.9366984002273
8.224,0.9999891815777576,102.50581733055951
8.232,0.9999892700417466,102.07399967502202
8.24,0.9999893575314474,101.64124181531264
8.248000000000001,0.9999894440834026,101.20754016846831
8.256,0.9999895297338253,100.7728911876571
8.264,0.9999896145185847,100.33729136297958
8.272,0.9999896984731951,99.90073722227974
8.280000000000001,0.9999897816328034,99.46322533196494
8.288,0.9999898640321774,99.02475229783481
8.296,0.9999899457056939,98.585314765919
8.304,0.9999900266873261,98.14490942332444
8.312,0.9999901070106335,97.70353299909164
8.32,0.9999901867087497,97.26118226505874
8.328,0.9999902658143699,96.8178540367361
8.336,0.9999903443597422,96.37354517418781
8.344,0.9999904223766535,95.9282525829236
8.352,0.9999904998964212,95.48197321479753
8.36,0.9999905769498806,95.034704068917
8.368,0.9999906535673748,94.58644219255824
8.376,0.9999907297787444,94.1371846820919
8.384,0.9999908056133165,93.68692868391511
8.392,0.9999908810998946,93.235671395393
8.4,0.9999909562667488,92.78341006580683
8.408,0.9999910311416053,92.33014199731123
8.416,0.9999911057516365,91.87586454589754
8.424,0.9999911801234522,91.42057512236637
8.432,0.9999912542830884,90.96427119330556
8.44,0.9999913282560009,90.50695028207736
8.448,0.9999914020670516,90.04860996981053
8.456,0.9999914757405038,89.58924789640123
8.464,0.999991549300011,89.12886176151873
8.472,0.9999916227686085,88.6674493256193
8.48,0.9999916961687049,88.20500841096461
8.488,0.9999917695220745,87.74153690264787
8.496,0.9999918428498478,87.27703274962417
8.504,0.9999919161725047,86.81149396574801
8.512,0.9999919895098661,86.34491863081463
8.52,0.999992062881086,85.8773048916079
8.528,0.9999921363046458,85.40865096295185
8.536,0.9999922097983437,84.93895512876796
8.544,0.9999922833792919,84.46821574313559
8.552,0.9999923570639064,83.9964312313579
8.56,0.999992430867902,83.52360009102998
8.568,0.9999925048062855,83.04972089311215
8.576,0.9999925788933508,82.57479228300483
8.584,0.9999926531426704,82.09881298162784
8.592,0.9999927275670919,81.62178178650083
8.6,0.9999928021787315,81.14369757282739
8.608,0.9999928769889702,80.66455929457958
8.616,0.999992952008447,80.18436598558553
8.624,0.9999930272470542,79.7031167606168
8.632,0.9999931027139348,79.22081081647801
8.64,0.9999931784174771,78.73744743309545
8.648,0.9999932543653096,78.25302597460728
8.656,0.9999933305643005,77.767545890452
8.664,0.9999934070205505,77.28100671645754
8.672,0.9999934837393923,76.7934080759279
8.68,0.9999935607253866,76.30474968072966
8.688,0.9999936379823197,75.81503133237499
8.696,0.9999937155132016,75.32425292310388
8.704,0.9999937933202635,74.83241443696188
8.712,0.9999938714049558,74.33951595087605
8.72,0.9999939497679478,73.84555763572563
8.728,0.9999940284091259,73.35053975741009
8.736,0.9999941073275923,72.85446267791067
8.744,0.9999941865216654,72.35732685634845
8.752,0.9999942659888794,71.85913285003501
8.76,0.9999943457259838,71.35988131551844
8.768,0.9999944257289451,70.85957300962099
8.776,0.9999945059929465,70.35820879047117
8.784,0.9999945865123896,69.85578961852609
8.792,0.9999946672808958,69.35231655758749
8.8,0.999994748291308,68.8477907758068
8.808,0.9999948295356929,68.34221354668267
8.815999999999999,0.9999949110053431,67.83558625004677
8.824,0.9999949926907814,67.32791037304013
8.832,0.9999950745817621,66.8191875110779
8.84,0.9999951566672752,66.3094193688024
8.847999999999999,0.9999952389355515,65.79860776102326
8.856,0.999995321374066,65.28675461364551
8.864,0.9999954039695417,64.7738619645837
8.872,0.9999954867079569,64.25993196466163
8.879999999999999,0.9999955695745485,63.744966878497266
8.888,0.9999956525538186,63.228969085372555
8.896,0.9999957356295411,62.71194108008734
8.904,0.9999958187847681,62.1938854737961
8.911999999999999,0.9999959020018364,61.67480499482738
8.92,0.9999959852623751,61.154702489485665
8.928,0.9999960685473134,60.63358092283479
8.936,0.9999961518368888,60.11144337946164
8.943999999999999,0.9999962351106556,59.58829306421989
8.952,0.9999963183474935,59.06413330295375
8.96,0.9999964015256165,58.538967543200606
8.968,0.9999964846225846,58.012799354871234
8.975999999999999,0.9999965676153112,57.485632430907636
8.984,0.999996650480075,56.95747058791822
8.992,0.9999967331925314,56.428317766789235
9.0,0.9999968157277219,55.898178033271165
9.008,0.9999968980600874,55.36705557854025
9.016,0.9999969801634798,54.834954719734625
9.024000000000001,0.9999970620111736,54.30187990046424
9.032,0.99999714357588,53.76783569129306
9.04,0.9999972248297591,53.23282679019385
9.048,0.999997305744434,52.696858022975114
9.056000000000001,0.9999973862910042,52.159934343679026
9.064,0.9999974664400604,51.62206083494948
9.072,0.9999975461616988,51.08324270836992
9.08,0.9999976254255369,50.54348530477087
9.088000000000001,0.9999977042007276,50.00279409450619
9.096,0.9999977824559764,49.4611746776968
9.104,0.9999978601595562,48.91863278444189
9.112,0.999997937279325,48.37517427499744
9.120000000000001,0.999998013782742,47.830805139921175
9.128,0.999998089636885,47.28553150018253
9.136,0.9999981648084677,46.73935960723795
9.144,0.9999982392638579,46.19229584307144
9.152000000000001,0.9999983129690952,45.644346720198904
9.16,0.9999983858899103,45.095518881635925
9.168,0.9999984579917416,44.54581910082847
9.176,0.9999985292397577,43.99525428154668
9.184000000000001,0.9999985995988737,43.443831457741005
9.192,0.9999986690337724,42.891557793359226
9.2,0.999998737508924,42.33844058212502
9.208,0.999998804988606,41.78448724727759
9.216000000000001,0.9999988714369233,41.22970534127193
9.224,0.9999989368178304,40.674102545438416
9.232,0.9999990010951499,40.11768666960214
9.24,0.9999990642325964,39.56046565166212
9.248000000000001,0.9999991261937956,39.00244755712925
9.256,0.9999991869423068,38.443640578622606
9.264,0.9999992464416452,37.884053035324065
9.272,0.9999993046553014,37.323693372391446
9.280000000000001,0.999999361546768,36.7625701603295
9.288,0.999999417079557,36.20069209431812
9.296,0.9999994712172252,35.638067993497835
9.304,0.9999995239233962,35.07470680021306
9.312000000000001,0.9999995751617814,34.510617579212514
9.32,0.9999996248962053,33.945809516805966
9.328,0.9999996730906269,33.38029191997786
9.336,0.9999997197091623,32.8140742154582
9.344,0.9999997647161085,32.24716594875031
9.352,0.999999808075966,31.679576783113895
9.36,0.9999998497534622,31.11131649850682
9.368,0.9999998897135731,30.542394990481416
9.376,0.9999999279215488,29.972822269039675
9.384,0.9999999643429343,29.402608457443204
9.392,0.9999999989435938,28.831763790982087
9.4,1.0,28.260298615698975
9.408,0.9999999999999999,27.688223387072256
9.416,0.9999999999999999,27.115548668654725
9.424,1.0,26.542285130671985
9.432,1.0,25.968443548576627
9.44,0.9999999999999998,25.394034801562732
9.448,1.0,24.81906987103683
9.456,1.0,24.24355983904965
9.464,0.9999999999999999,23.66751588668526
9.472,0.9999999999999999,23.090949292411622
9.48,1.0,22.513871430389322
9.488,1.0,21.93629376874281
9.496,1.0,21.358227867790518
9.504,1.0000000000000002,20.779685378238707
9.512,0.9999999999999999,20.200678039335095
9.52,1.0,19.621217676987364
9.528,0.9999999999999999,19.041316201842722
9.536,1.0,18.460985607333548
9.544,0.9999999999999999,17.88023796768528
9.552,1.0,17.299085435891737
9.56,0.9999999999999999,16.717540241654344
9.568,1.0,16.135614689289948
9.576,1.0,15.5533211556041
9.584,1.0,14.97067208773468
9.592,0.9999999999999999,14.387680000962384
9.6,1.0,13.8043574764933
9.608,1.0,13.220717159210169
9.616,0.9999999999999999,12.63677175539729
