freq,mag,phase
6.0,0.9999957364671952,86.08103200615852
6.008,0.9999974322629331,85.95165003985748
6.016,0.9999990983618843,85.8222522511919
6.024,1.0,85.69283864101624
6.032,0.9999999999999999,85.56340921017436
6.04,1.0,85.43396395949974
6.048,1.0,85.30450288981575
6.056,1.0,85.17502600193596
6.064,1.0,85.04553329666423
6.072,0.9999999999999998,84.91602477479505
6.08,1.0,84.7865004371138
6.088,1.0,84.65696028439694
6.096,1.0,84.52740431741228
6.104,1.0,84.39783253691918
6.112,0.9999999999999999,84.2682449436689
6.12,1.0,84.13864153840467
6.128,1.0,84.00902232186212
6.136,1.0,83.87938729476933
6.144,1.0,83.74973645784728
6.152,1.0,83.62006981180988
6.16,1.0,83.49038735736438
6.168,1.0,83.36068909521153
6.176,1.0,83.23097502604577
6.184,0.9999999999999999,83.1012451505556
6.192,1.0000000000000002,82.9714994694237
6.2,1.0,82.84173798332726
6.208,1.0,82.71196069293816
6.216,1.0,82.58216759892318
6.224,0.9999999999999999,82.45235870194436
6.232,0.9999999999999998,82.3225340026591
6.24,1.0,82.19269350172048
6.248,1.0,82.0628371997775
6.256,0.9999999999999998,81.93296509747526
6.264,0.9999999999999999,81.80307719545524
6.272,1.0,81.67317349435552
6.28,0.9999999999999999,81.54325399481107
6.288,1.0,81.41331869745386
6.296,1.0,81.28336760291324
6.304,1.0,81.15340071181612
6.312,1.0,81.02341802478712
6.32,0.9999999999999999,80.89341954244895
6.328,1.0,80.76340526542259
6.336,1.0,80.63337519432743
6.344,1.0,80.50332932978166
6.352,1.0,80.37326767240243
6.36,1.0,80.24319022280602
6.368,1.0,80.11309698160821
6.376,0.9999999999999999,79.9829879494244
6.384,1.0,79.85286312686988
6.392,1.0,79.72272251456008
6.4,1.0,79.59256611311078
6.408,0.9999999999999999,79.46239392313839
6.416,1.0,79.33220594526007
6.424,1.0,79.20200218009407
6.432,0.9999999999999999,79.07178262825992
6.44,0.9999999999999999,78.94154729037871
6.448,1.0,78.8112961670732
6.456,1.0,78.68102925896812
6.464,1.0,78.5507465666905
6.472,1.0,78.42044809086971
6.48,0.9999999999999999,78.29013383213784
6.4879999999999995,0.9999999999999999,78.15980379112987
6.496,0.9999999999999999,78.02945796848378
6.504,1.0,77.89909636484113
6.5120000000000005,1.0,77.7687189808468
6.52,1.0,77.63832581714972
6.5280000000000005,0.9999999999999999,77.50791687440258
6.536,1.0,77.37749215326261
6.5440000000000005,0.9999999999999999,77.24705165439133
6.552,1.0,77.11659537845503
6.5600000000000005,0.9999999999999999,76.98612332612493
6.568,1.0,76.85563549807745
6.5760000000000005,0.9999999999999999,76.72513189499428
6.584,1.0,76.5946125175629
6.592,0.9999999999999999,76.46407736647646
6.6,0.9999999999999999,76.33352644243422
6.608,0.9999999999999999,76.2029597461418
6.616,0.9999999999999998,76.07237727831121
6.624,1.0,75.94177903966124
6.632,0.9999999999999999,75.81116503091765
6.64,1.0,75.68053525281337
6.648,1.0,75.54988970608868
6.656,0.9999999999999999,75.41922839149147
6.664,1.0,75.28855130977757
6.672,1.0,75.15785846171076
6.68,0.9999999999999999,75.02714984806315
6.688,0.9999999999999999,74.89642546961532
6.696,0.9999999999999999,74.76568532715658
6.704,1.0,74.63492942148518
6.712,1.0,74.50415775340855
6.72,1.0,74.37337032374343
6.728,1.0,74.24256713331619
6.736,1.0,74.11174818296304
6.744,0.9999999999999999,73.98091347353012
6.752,1.0,73.85006300587393
6.76,1.0,73.71919678086135
6.768,0.9999999999999999,73.58831479936997
6.776,1.0,73.45741706228826
6.784,1.0,73.32650357051574
6.792,0.9999999999999999,73.19557432496339
6.8,1.0,73.06462932655357
6.808,1.0,72.93366857622047
6.816,1.0,72.8026920749103
6.824,0.9999999999999999,72.67169982358126
6.832,1.0,72.54069182320414
6.84,1.0,72.40966807476224
6.848,0.9999999999999999,72.2786285792516
6.856,0.9999999999999999,72.14757333768142
6.864,1.0,72.01650235107405
6.872,1.0,71.88541562046531
6.88,1.0,71.75431314690466
6.888,1.0,71.62319493145547
6.896,0.9999999999999999,71.4920609751951
6.904,1.0,71.36091127921527
6.912,0.9999999999999999,71.22974584462217
6.92,1.0,71.09856467253667
6.928,0.9999999999999999,70.96736776409453
6.936,0.9999999999999999,70.83615512044668
6.944,0.9999999999999999,70.70492674275934
6.952,0.9999999999999999,70.57368263221423
6.96,1.0,70.44242279000885
6.968,0.9999999999999999,70.31114721735659
6.976,0.9999999999999999,70.17985591548704
6.984,1.0,70.04854888564608
6.992,1.0,69.91722612909616
7.0,1.0,69.78588764711651
7.008,0.9999999999999999,69.65453344100325
7.016,0.9999999999999999,69.52316351206971
7.024,1.0,69.3917778616466
7.032,0.9999999999999998,69.26037649108214
7.04,1.0,69.12895940174235
7.048,0.9999999999999998,68.9975265950112
7.056,1.0,68.86607807229079
7.064,1.0,68.73461383500167
7.072,0.9999999999999999,68.60313388458286
7.08,1.0,68.4716382224922
7.088,1.0,68.3401268502065
7.096,1.0,68.20859976922169
7.104,1.0,68.07705698105305
7.112,1.0,67.94549848723544
7.12,0.9999999999999998,67.81392428932345
7.128,0.9999999999999999,67.68233438889165
7.136,1.0,67.55072878753471
7.144,1.0,67.41910748686763
7.152,1.0,67.287470488526
7.16,1.0,67.15581779416604
7.168,0.9999999999999999,67.02414940546497
7.176,0.9999999999999999,66.89246532412108
7.184,1.0,66.76076555185396
7.192,0.9999999999999999,66.6290500904047
7.2,1.0,66.4973189415361
7.208,1.0,66.36557210703276
7.216,1.0,66.23380958870146
7.224,1.0,66.10203138837115
7.232,1.0,65.97023750789323
7.24,1.0,65.83842794914176
7.248,1.0,65.70660271401364
7.256,0.9999999999999999,65.57476180442875
7.264,1.0,65.44290522233015
7.272,0.9999999999999999,65.31103296968433
7.28,1.0,65.17914504848136
7.288,1.0,65.04724146073498
7.296,0.9999999999999999,64.91532220848295
7.304,0.9999999999999999,64.78338729378716
7.312,1.0,64.65143671873375
7.32,1.0,64.51947048543344
7.328,1.0,64.38748859602153
7.336,1.0,64.25549105265824
7.344,1.0,64.12347785752887
7.352,0.9999999999999999,63.99144901284382
7.36,1.0,63.85940452083906
7.368,1.0,63.72734438377597
7.376,1.0,63.59526860394183
7.384,1.0,63.46317718364982
7.392,0.9999999999999999,63.33107012523922
7.4,1.0,63.198947431075645
7.4079999999999995,1.0,63.066809103551186
7.416,1.0,62.93465514508454
7.4239999999999995,1.0,62.80248555812135
7.432,0.9999999999999999,62.67030034513414
7.4399999999999995,1.0,62.53809950862272
7.448,0.9999999999999998,62.40588305111415
7.4559999999999995,1.0,62.27365097516321
7.464,1.0,62.14140328335216
7.4719999999999995,0.9999999999999999,62.009139978291344
7.48,0.9999999999999999,61.876861062618985
7.4879999999999995,0.9999999999999999,61.744566539001724
7.496,0.9999999999999999,61.61225641013439
7.504,0.9999999999999999,61.47993067874061
7.5120000000000005,1.0,61.347589347572516
7.52,1.0,61.21523241941134
7.5280000000000005,0.9999999999999999,61.082859897067294
7.536,1.0,60.95047178337988
7.5440000000000005,1.0,60.81806808121799
7.552,0.9999999999999999,60.685648793480134
7.5600000000000005,1.0,60.55321392309453
7.568,1.0,60.42076347301939
7.5760000000000005,0.9999999999999999,60.288297446242886
7.584,1.0,60.155815845783614
7.5920000000000005,1.0,60.02331867469037
7.6,1.0,59.890805936042796
7.6080000000000005,0.9999999999999999,59.758277632950985
7.616,1.0,59.625733768556174
7.6240000000000006,1.0,59.4931743460305
7.632,1.0,59.360599368577525
7.640000000000001,1.0,59.22800883943197
7.648,1.0,59.0954027618603
7.656000000000001,1.0,58.962781139160555
7.664,1.0,58.830143974662775
7.672,1.0,58.69749127172892
7.68,0.9999999999999999,58.564823033753235
7.688,1.0,58.43213926416223
7.696,1.0,58.29943996641497
7.704,1.0,58.16672514400319
7.712,1.0,58.03399480045139
7.72,1.0,57.90124893931711
7.728,1.0,57.76848756419098
7.736,0.9999999999999999,57.635710678696924
7.744,0.9999999999999999,57.50291828649229
7.752,0.9999999999999999,57.37011039126803
7.76,1.0,57.23728699674885
7.768,1.0,57.10444810669331
7.776,1.0000000000000002,56.97159372489406
7.784,0.9999999999999999,56.83872385517791
7.792,1.0,56.70583850140605
7.8,1.0,56.572937667474136
7.808,0.9999999999999999,56.4400213573125
7.816,0.9999999999999999,56.30708957488622
7.824,0.9999999999999999,56.17414232419536
7.832,1.0,56.041179609275034
7.84,1.0,55.90820143419564
7.848,0.9999999999999999,55.775207803062884
7.856,1.0,55.642198720018065
7.864,1.0,55.50917418923814
7.872,0.9999999999999999,55.37613421493582
7.88,1.0,55.243078801359836
7.888,0.9999999999999999,55.11000795279498
7.896,1.0,54.9769216735623
7.904,1.0,54.84381996801927
7.912,1.0,54.71070284055979
7.92,1.0,54.57757029561451
7.928,1.0,54.44442233765082
7.936,1.0,54.3112589711731
7.944,0.9999999999999999,54.17808020072279
7.952,1.0,54.044886030878544
7.96,1.0,53.91167646625638
7.968,0.9999999999999999,53.7784515115098
7.976,0.9999999999999999,53.64521117132992
7.984,1.0,53.51195545044565
7.992,1.0,53.378684353623775
8.0,1.0,53.24539788566909
8.008,0.9999999999999999,53.112096051424615
8.016,0.9999999999999999,52.97877885577156
8.024000000000001,1.0,52.845446303629686
8.032,0.9999999999999999,52.71209839995728
8.04,0.9999999999999999,52.57873514975123
8.048,1.0,52.445356558047294
8.056000000000001,1.0,52.311962629920245
8.064,1.0,52.17855337048388
8.072,1.0,52.04512878489119
8.08,1.0,51.91168887833448
8.088000000000001,1.0,51.778233656045536
8.096,0.9999999769009609,51.64476312329581
8.104,0.9999997423147391,51.511277285396346
8.112,0.9999995115652718,51.377776147698036
8.120000000000001,0.9999992846675376,51.24425971559181
8.128,0.9999990616359296,51.11072799450865
8.136,0.9999988424842604,50.97718098991972
8.144,0.9999986272257648,50.843618707336475
8.152000000000001,0.9999984158731023,50.7100411523109
8.16,0.9999982084383632,50.576448330435554
8.168,0.9999980049330695,50.44284024734361
8.176,0.99999780536818,50.30921690870908
8.184000000000001,0.9999976097540918,50.17557832024694
8.192,0.9999974181006468,50.041924487713224
8.2,0.9999972304171322,49.90825541690504
8.208,0.9999970467122856,49.77457111366087
8.216000000000001,0.9999968669942982,49.64087158386051
8.224,0.999996691270818,49.507156833425405
8.232,0.9999965195489533,49.373426868318475
8.24,0.9999963518352765,49.239681694544444
8.248000000000001,0.999996188135827,49.10592131814994
8.256,0.9999960284561155,48.97214574522351
8.264,0.9999958728011258,48.838354981895776
8.272,0.9999957211753213,48.70454903433955
8.280000000000001,0.999995573582645,48.57072790876997
8.288,0.999995430026525,48.43689161144462
8.296,0.9999952905098781,48.30304014866354
8.304,0.9999951550351119,48.16917352676943
8.312,0.9999950236041294,48.03529175214773
8.32,0.9999948962183325,47.90139483122671
8.328,0.9999947728786239,47.767482770477685
8.336,0.9999946535854131,47.63355557641485
8.344,0.9999945383386175,47.49961325559578
8.352,0.9999944271376675,47.365655814621135
8.36,0.999994319981509,47.231683260135085
8.368,0.9999942168686073,47.09769559882519
8.376,0.9999941177969504,46.96369283742267
8.384,0.9999940227640518,46.829674982702294
8.392,0.999993931766956,46.695642041482806
8.4,0.9999938448022395,46.56159402062666
8.408,0.9999937618660154,46.427530927040415
8.416,0.9999936829539375,46.29345276767463
8.424,0.9999936080612023,46.159359549524126
8.432,0.9999935371825535,46.025251279627916
8.44,0.999993470312285,45.89112796506948
8.448,0.9999934074442443,45.756989612976696
8.456,0.9999933485718361,45.62283623052209
8.464,0.9999932936880263,45.488667824922764
8.472,0.999993242785344,45.35448440344067
8.48,0.9999931958558864,45.22028597338252
8.488,0.9999931528913212,45.08607254210011
8.496,0.9999931138828907,44.95184411699007
8.504,0.9999930788214144,44.8176007054944
8.512,0.9999930476972941,44.6833423151001
8.52,0.9999930205005149,44.54906895333966
8.528,0.9999929972206507,44.414780627790854
8.536,0.9999929778468667,44.280477346077014
8.544,0.9999929623679222,44.14615911586699
8.552,0.9999929507721759,44.01182594487539
8.56,0.9999929430475875,43.87747784086244
8.568,0.9999929391817209,43.743114811634385
8.576,0.99999293916175,43.60873686504317
8.584,0.9999929429744593,43.474344008987
8.592,0.999992950606249,43.33993625140993
8.6,0.9999929620431375,43.205513600302424
8.608,0.9999929772707653,43.071076063700964
8.616,0.9999929962743982,42.93662364968859
8.624,0.9999930190389306,42.80215636639461
8.632,0.999993045548889,42.66767422199495
8.64,0.9999930757884355,42.533177224712
8.648,0.9999931097413706,42.398665382814926
8.656,0.9999931473911365,42.26413870461953
8.664,0.999993188720822,42.12959719848853
8.672,0.9999932337131636,41.995040872831446
8.68,0.9999932823505505,41.86046973610485
8.688,0.999993334615027,41.725883796812234
8.696,0.9999933904882963,41.591283063504406
8.704,0.9999934499517235,41.456667544779144
8.712,0.9999935129863396,41.32203724928169
8.72,0.999993579572844,41.187392185704475
8.728,0.9999936496916079,41.052732362787445
8.736,0.9999937233226781,40.918057789317935
8.744,0.9999938004457797,40.78336847413096
8.752,0.9999938810403202,40.64866442610898
8.76,0.9999939650853917,40.513945654182336
8.768,0.9999940525597747,40.37921216732896
8.776,0.9999941434419425,40.24446397457475
8.784,0.999994237710062,40.109701084993375
8.792,0.9999943353419987,39.974923507706556
8.8,0.99999443631532,39.840131251883975
8.808,0.9999945406072976,39.70532432674346
8.815999999999999,0.9999946481949117,39.570502741550925
8.824,0.9999947590548525,39.435666505620524
8.832,0.9999948731635259,39.300815628314716
8.84,0.9999949904970546,39.1659501190443
8.847999999999999,0.9999951110312827,39.031069987268424
8.856,0.9999952347417774,38.8961752424947
8.864,0.9999953616038341,38.76126589427928
8.872,0.9999954915924778,38.626341952226944
8.879999999999999,0.9999956246824675,38.49140342599101
8.888,0.999995760848299,38.35645032527352
8.896,0.9999959000642078,38.22148265982528
8.904,0.999996042304172,38.086500439445935
8.911999999999999,0.9999961875419169,37.95150367398391
8.92,0.9999963357509163,37.81649237333654
8.928,0.9999964869043964,37.6814665474502
8.936,0.9999966409753397,37.54642620632024
8.943999999999999,0.9999967979364865,37.411371359991094
8.952,0.9999969577603396,37.27630201855623
8.96,0.9999971204191661,37.141218192158384
8.968,0.9999972858850015,37.006119890989545
8.975999999999999,0.9999974541296518,36.871007125290824
8.984,0.9999976251246978,36.73587990535273
8.992,0.9999977988414966,36.600738241515145
9.0,0.9999979752511862,36.46558214416736
9.008,0.9999981543246873,36.330411623748084
9.016,0.9999983360327072,36.1952266907455
9.024000000000001,0.9999985203457423,36.06002735569742
9.032,0.9999987072340811,35.9248136291912
9.04,0.9999988966678077,35.78958552186378
9.048,0.999999088616804,35.65434304440177
9.056000000000001,0.9999992830507537,35.519086207541555
9.064,0.9999994799391443,35.383815022069264
9.072,0.9999996792512701,35.24852949882073
9.08,0.9999998809562358,35.113229648681646
9.088000000000001,1.0,34.97791548258759
9.096,0.9999999999999999,34.84258701152407
9.104,0.9999999999999999,34.70724424652645
9.112,1.0,34.57188719868007
9.120000000000001,1.0,34.43651587912033
9.128,1.0,34.30113029903266
9.136,1.0,34.165730469652516
9.144,1.0,34.03031640226542
9.152000000000001,1.0,33.89488810820712
9.16,1.0,33.75944559886351
9.168,1.0,33.62398888567061
9.176,1.0,33.488517980114636
9.184000000000001,1.0,33.35303289373217
9.192,1.0,33.21753363810996
9.2,0.9999999999999999,33.08202022488514
9.208,1.0,32.946492665745005
9.216000000000001,1.0,32.81095097242737
9.224,1.0,32.67539515672034
9.232,1.0,32.53982523046238
9.24,1.0,32.40424120554239
9.248000000000001,1.0,32.2686430938997
9.256,0.9999999999999999,32.133030907524144
9.264,1.0000000000000002,31.99740465845593
9.272,1.0,31.861764358785774
9.280000000000001,1.0,31.726110020654904
9.288,0.9999999999999999,31.590441656255095
9.296,1.0,31.454759277828618
9.304,1.0,31.319062897668264
9.312000000000001,1.0000000000000002,31.18335252811739
9.32,1.0,31.047628181570015
9.328,1.0,30.911889870470578
9.336,0.9999999999999999,30.776137607314187
9.344,1.0,30.64037140464659
9.352,1.0,30.504591275064016
9.36,0.9999999999999999,30.368797231213446
9.368,1.0,30.23298928579235
9.376,1.0,30.09716745154892
9.384,1.0,29.961331741281864
9.392,1.0,29.825482167840644
9.4,0.9999999999999999,29.689618744125188
9.408,0.9999999999999999,29.553741483086235
9.416,1.0,29.417850397724973
9.424,1.0,29.281945501093347
9.432,1.0,29.146026806293822
9.44,1.0,29.010094326479592
9.448,0.9999999999999999,28.87414807485432
9.456,1.0,28.738188064672393
9.464,0.9999999999999999,28.602214309238732
9.472,1.0,28.466226821908887
9.48,1.0,28.330225616088903
9.488,0.9999999999999999,28.194210705235534
9.496,1.0,28.058182102855906
9.504,1.0,27.92213982250787
9.512,0.9999999999999998,27.78608387779962
9.52,1.0,27.650014282390032
9.528,1.0,27.51393104998833
9.536,1.0,27.377834194354318
9.544,1.0,27.24172372929814
9.552,1.0,27.105599668680508
9.56,0.9999999999999999,26.969462026412398
9.568,0.9999999999999998,26.833310816455292
9.576,0.9999999999999999,26.697146052820923
9.584,1.0,26.560967749571457
9.592,1.0,26.42477592081925
9.6,1.0,26.288570580727036
9.608,0.9999999999999999,26.1523517435077
9.616,1.0,26.016119423424428
9.624,0.9999999999999998,25.87987363479044
9.632,1.0,25.74361439196927
9.64,1.0,25.607341709374378
9.648,1.0,25.471055601469416
9.656,0.9999999999999998,25.33475608276793
9.664,0.9999999999999999,25.198443167833588
9.672,0.9999999999999999,25.06211687127984
9.68,0.9999999999999999,24.925777207770153
9.688,0.9999999999999999,24.789424192017687
9.696,0.9999999999999999,24.65305783878554
9.704,0.9999999999999999,24.51667816288641
9.712,0.9999999999999999,24.380285179182792
9.72,1.0000000000000002,24.243878902586715
9.728,0.9999999999999999,24.10745934805985
9.736,1.0,23.971026530613297
9.744,1.0,23.834580465307702
9.752,1.0,23.698121167253003
9.76,0.9999999999999999,23.561648651608543
9.768,0.9999999999999999,23.42516293358281
9.776,1.0,23.288664028433605
9.784,0.9999999999999999,23.152151951467708
9.792,1.0,23.01562671804105
9.8,0.9999999999999999,22.879088343558436
9.808,1.0,22.742536843473626
9.816,0.9999999999999999,22.60597223328907
9.824,0.9999999999999999,22.46939452855608
9.832,1.0,22.33280374487443
9.84,0.9999999999999999,22.196199897892615
9.847999999999999,1.0,22.05958300330744
9.856,1.0,21.92295307686407
9.864,1.0,21.786310134355993
9.872,1.0,21.64965419162487
9.879999999999999,0.9999999999999999,21.512985264560324
9.888,1.0,21.376303369099947
9.896,1.0,21.239608521229222
9.904,1.0,21.10290073698137
9.911999999999999,1.0,20.966180032437137
9.92,0.9999999999999999,20.829446423724796
9.928,1.0,20.692699927020033
9.936,0.9999999999999999,20.555940558545775
9.943999999999999,1.0,20.41916833457201
9.952,1.0,20.282383271415725
9.96,1.0,20.145585385440814
9.968,0.9999999999999999,20.008774693057845
9.975999999999999,1.0,19.87195121072395
9.984,0.9999999999999999,19.735114954942635
9.992,0.9999999999999999,19.598265942263748
10.0,1.0,19.461404189283257
10.008,1.0,19.324529712643006
10.016,1.0,19.187642529030633
10.024000000000001,1.0,19.05074265517946
10.032,1.0,18.913830107868236
10.04,1.0,18.776904903920947
10.048,1.0,18.639967060206633
10.056000000000001,1.0,18.50301659363931
10.064,0.9999999999999999,18.366053521177683
10.072,1.0,18.229077859824912
10.08,0.9999999999999999,18.09208962662846
10.088000000000001,1.0,17.95508883867992
10.096,0.9999999999999999,17.818075513114795
10.104,0.9999999999999999,17.681049667112163
10.112,1.0,17.544011317894544
10.120000000000001,1.0,17.406960482727705
10.128,1.0,17.269897178920388
10.136,1.0,17.132821423823973
10.144,1.0,16.995733234832308
10.152000000000001,1.0,16.8586326293815
10.16,1.0,16.721519624949625
10.168,1.0,16.58439423905632
10.176,1.0,16.44725648926264
10.184000000000001,1.0,16.310106393170756
10.192,1.0,16.172943968423716
10.2,1.0,16.035769232704922
10.208,1.0,15.898582203738028
10.216000000000001,0.9999999999999999,15.761382899286582
10.224,0.9999999999999998,15.624171337153687
10.232,0.9999999999999998,15.486947535181585
10.24,1.0,15.349711511251371
10.248000000000001,1.0,15.212463283282704
10.256,1.0,15.07520286923338
10.264,0.9999999999999999,14.937930287098892
10.272,1.0,14.800645554912114
10.280000000000001,1.0,14.663348690742954
10.288,0.9999999999999999,14.526039712697893
10.296,1.0,14.38871863891952
10.304,0.9999999999999999,14.251385487586147
