freq,mag,phase
6.0,0.999995957443175,163.45614772792237
6.008,0.9999960878211942,163.04182308985708
6.016,0.9999962090541922,162.62723593143562
6.024,0.9999963213168221,162.21238123582515
6.032,0.9999964247823251,161.79725396666726
6.04,0.9999965196225339,161.38184906821576
6.048,0.999996606007873,160.96616146547544
6.056,0.9999966841073629,160.55018606434226
6.064,0.9999967540886215,160.13391775174506
6.072,0.9999968161178656,159.71735139578877
6.08,0.9999968703599157,159.3004818458988
6.088,0.9999969169781954,158.8833039329677
6.096,0.999996956134738,158.46581246950285
6.104,0.9999969879901863,158.04800224977635
6.112,0.9999970127037962,157.6298680499764
6.12,0.9999970304334407,157.21140462836112
6.128,0.9999970413356106,156.79260672541344
6.136,0.9999970455654206,156.3734690639991
6.144,0.9999970432766104,155.95398634952596
6.152,0.9999970346215481,155.5341532701059
6.16,0.999997019751235,155.11396449671892
6.168,0.9999969988153063,154.69341468337961
6.176,0.9999969719620363,154.27249846730598
6.184,0.9999969393383437,153.85121046909097
6.192,0.9999969010897894,153.42954529287638
6.2,0.9999968573605874,153.00749752652973
6.208,0.9999968082936004,152.58506174182347
6.216,0.9999967540303532,152.1622324946178
6.224,0.9999966947110257,151.7390043250454
6.232,0.9999966304744655,151.31537175770035
6.24,0.9999965614581846,150.8913293018291
6.248,0.999996487798371,150.46687145152546
6.256,0.9999964096298841,150.04199268592845
6.264,0.9999963270862645,149.61668746942382
6.272,0.9999962402997346,149.19095025184888
6.28,0.9999961494012073,148.76477546870095
6.288,0.9999960545202827,148.33815754134955
6.296,0.999995955785256,147.9110908772524
6.304,0.9999958533231235,147.48356987017524
6.312,0.9999957472595844,147.05558890041576
6.32,0.9999956377190428,146.6271423350313
6.328,0.9999955248246133,146.19822452807117
6.336,0.9999954086981276,145.76882982081298
6.344,0.9999952894601354,145.33895254200334
6.352,0.9999951672299073,144.90858700810332
6.36,0.9999950421254445,144.47772752353825
6.368,0.9999949142634749,144.04636838095232
6.376,0.9999947837594643,143.6145038614681
6.384,0.999994650727615,143.18212823495088
6.392,0.9999945152808754,142.74923576027805
6.4,0.9999943775309362,142.3158206856138
6.408,0.9999942375882429,141.88187724868874
6.416,0.9999940955619927,141.44739967708543
6.424,0.9999939515601437,141.01238218852885
6.432,0.9999938056894154,140.5768189911829
6.44,0.9999936580552932,140.14070428395246
6.448,0.9999935087620354,139.70403225679115
6.456,0.9999933579126712,139.2667970910155
6.464,0.9999932056090104,138.82899295962468
6.472,0.9999930519516432,138.39061402762695
6.48,0.9999928970399476,137.95165445237186
6.4879999999999995,0.9999927409720882,137.51210838388954
6.496,0.9999925838450248,137.07196996523595
6.504,0.9999924257545143,136.6312333328456
6.5120000000000005,0.999992266795113,136.18989261688992
6.52,0.999992107060182,135.74794194164414
6.5280000000000005,0.9999919466418913,135.30537542585952
6.536,0.9999917856312214,134.86218718314464
6.5440000000000005,0.9999916241179678,134.41837132235196
6.552,0.9999914621907456,133.97392194797402
6.5600000000000005,0.9999912999369901,133.52883316054516
6.568,0.9999911374429654,133.08309905705283
6.5760000000000005,0.9999909747937616,132.63671373135503
6.584,0.9999908120733023,132.18967127460743
6.592,0.9999906493643461,131.74196577569688
6.6,0.9999904867484921,131.2935913216847
6.608,0.9999903243061798,130.84454199825734
6.616,0.9999901621166956,130.3948118901859
6.624,0.9999900002581741,129.94439508179448
6.632,0.9999898388076007,129.49328565743687
6.64,0.9999896778408168,129.04147770198244
6.648,0.9999895174325212,128.58896530131102
6.656,0.9999893576562737,128.135742542817
6.664,0.999989198584497,127.68180351592254
6.672,0.9999890402884825,127.22714231260048
6.68,0.9999888828383888,126.77175302790666
6.688,0.9999887263032483,126.31562976052192
6.696,0.9999885707509687,125.85876661330406
6.704,0.999988416248334,125.40115769384961
6.712,0.9999882628610108,124.94279711506596
6.72,0.9999881106535476,124.48367899575341
6.728,0.9999879596893787,124.02379746119767
6.736,0.9999878100308269,123.56314664377312
6.744,0.9999876617391059,123.1017206835562
6.752,0.9999875148743224,122.63951372895002
6.76,0.9999873694954787,122.17651993731953
6.768,0.9999872256604758,121.7127334756378
6.776,0.9999870834261135,121.24814852114342
6.784,0.9999869428480956,120.7827592620092
6.792,0.9999868039810303,120.31655989802204
6.8,0.9999866668784324,119.84954464127456
6.808,0.9999865315927259,119.38170771686814
6.816,0.9999863981752461,118.91304336362768
6.824,0.9999862666762422,118.44354583482841
6.832,0.9999861371448777,117.97320939893442
6.84,0.9999860096292338,117.50202834034924
6.848,0.9999858841763112,117.0299969601789
6.856,0.9999857608320313,116.55710957700688
6.864,0.9999856396412385,116.08336052768173
6.872,0.9999855206477022,115.60874416811693
6.88,0.9999854038941185,115.1332548741036
6.888,0.9999852894221117,114.65688704213574
6.896,0.9999851772722365,114.17963509024813
6.904,0.9999850674839791,113.70149345886735
6.912,0.9999849600957592,113.22245661167557
6.92,0.9999848551449325,112.7425190364874
6.928,0.9999847526677897,112.26167524613983
6.936,0.9999846526995619,111.77991977939546
6.944,0.9999845552744195,111.2972472018588
6.952,0.9999844604254732,110.81365210690613
6.96,0.9999843681847793,110.32912911662852
6.968,0.9999842785833365,109.84367288278837
6.976,0.9999841916510905,109.35727808778951
6.984,0.9999841074169348,108.86993944566082
6.992,0.9999840259087117,108.38165170305327
7.0,0.9999839471532146,107.89240964025085
7.008,0.9999838711761889,107.40220807219504
7.016,0.9999837980023327,106.91104184952275
7.024,0.9999837276553011,106.41890585961846
7.032,0.9999836601577043,105.92579502767954
7.04,0.9999835955311103,105.43170431779562
7.048,0.9999835337960484,104.93662873404162
7.056,0.9999834749720073,104.4405633215844
7.064,0.9999834190774394,103.9435031678034
7.072,0.9999833661297605,103.44544340342449
7.08,0.9999833161453529,102.94637920366804
7.088,0.9999832691395663,102.44630578941015
7.096,0.9999832251267184,101.94521842835776
7.104,0.9999831841200982,101.4431124362372
7.112,0.9999831461319676,100.93998317799623
7.12,0.999983111173561,100.43582606901938
7.128,0.99998307925509,99.93063657635689
7.136,0.9999830503857428,99.42441021996655
7.144,0.999983024573688,98.91714257396902
7.152,0.9999830018260748,98.40882926791599
7.16,0.9999829821490361,97.89946598807141
7.168,0.9999829655476901,97.38904847870536
7.176,0.999982952026143,96.87757254340077
7.184,0.9999829415874893,96.36503404637266
7.192,0.9999829342338161,95.8514289137996
7.2,0.9999829299662054,95.33675313516754
7.208,0.9999829287847342,94.8210027646257
7.216,0.999982930688479,94.30417392235405
7.224,0.9999829356755195,93.78626279594289
7.232,0.999982943742938,93.26726564178328
7.24,0.9999829548868232,92.74717878646918
7.248,0.9999829691022748,92.22599862821035
7.256,0.9999829863834055,91.70372163825596
7.264,0.9999830067233434,91.1803443623286
7.272,0.9999830301142362,90.65586342206876
7.28,0.999983056547253,90.1302755164888
7.288,0.9999830860125898,89.60357742343678
7.296,0.9999831184994715,89.07576600106954
7.304,0.999983153996157,88.54683818933462
7.312,0.9999831924899407,88.01679101146081
7.32,0.9999832339671603,87.48562157545709
7.328,0.9999832784131966,86.95332707561914
7.336,0.9999833258124811,86.41990479404362
7.344,0.9999833761484987,85.88535210214931
7.352,0.9999834294037943,85.34966646220514
7.36,0.9999834855599751,84.81284542886415
7.368,0.9999835445977168,84.27488665070351
7.376,0.9999836064967692,83.73578787176959
7.384,0.9999836712359631,83.19554693312809
7.392,0.9999837387932097,82.65416177441838
7.4,0.9999838091455147,82.11163043541167
7.4079999999999995,0.9999838822689779,81.56795105757257
7.416,0.9999839581388026,81.02312188562306
7.4239999999999995,0.9999840367293011,80.47714126910948
7.432,0.9999841180139015,79.9300076639698
7.4399999999999995,0.9999842019651541,79.3817196341036
7.448,0.9999842885547389,78.83227585294051
7.4559999999999995,0.9999843777534732,78.28167510501063
7.464,0.999984469531317,77.7299162875118
7.4719999999999995,0.9999845638573851,77.17699841187762
7.48,0.9999846606999512,76.62292060534115
7.4879999999999995,0.9999847600264573,76.06768211249774
7.496,0.999984861803524,75.51128229686238
7.504,0.9999849659969555,74.95372064242459
7.5120000000000005,0.9999850725717538,74.39499675519643
7.52,0.9999851814921237,73.8351103647566
7.5280000000000005,0.999985292721484,73.27406132578606
7.536,0.9999854062224783,72.71184961959817
7.5440000000000005,0.9999855219569835,72.14847535565885
7.552,0.9999856398861222,71.58393877309959
7.5600000000000005,0.9999857599702714,71.01824024221881
7.568,0.999985882169076,70.45138026597455
7.5760000000000005,0.999986006441457,69.88335948146344
7.584,0.9999861327456264,69.3141786613896
7.5920000000000005,0.9999862610390982,68.74383871551814
7.6,0.999986391278698,68.17234069211622
7.6080000000000005,0.9999865234205809,67.59968577937762
7.616,0.9999866574202384,67.0258753068325
7.6240000000000006,0.9999867932325169,66.45091074673905
7.632,0.9999869308116279,65.8747937154584
7.640000000000001,0.9999870701111631,65.29752597480926
7.648,0.9999872110841083,64.7191094334045
7.656000000000001,0.9999873536828577,64.13954614796461
7.664,0.99998749785923,63.55883832461186
7.672,0.9999876435644819,62.976988320139164
7.68,0.9999877907493238,62.39399864325705
7.688,0.9999879393639369,61.80987195581449
7.696,0.9999880893579874,61.224611073994446
7.704,0.9999882406806448,60.63821896948212
7.712,0.9999883932805981,60.05069877060549
7.72,0.9999885471060717,59.462053763446534
7.728,0.9999887021048437,58.87228739292251
7.736,0.9999888582242642,58.28140326383605
7.744,0.9999890154112723,57.68940514189297
7.752,0.9999891736124152,57.09629695468693
7.76,0.9999893327738658,56.50208279264961
7.768,0.9999894928414435,55.90676690996548
7.776,0.9999896537606311,55.3103537254502
7.784,0.9999898154765962,54.71284782339137
7.792,0.9999899779342103,54.11425395435073
7.8,0.9999901410780692,53.51457703592669
7.808,0.9999903048525131,52.913822153476126
7.816,0.9999904692016472,52.311994560794446
7.824,0.9999906340693637,51.70909968075286
7.832,0.9999907993993616,51.10514310589167
7.84,0.999990965135169,50.50013059896895
7.848,0.9999911312201649,49.894068093463176
7.856,0.9999912975976012,49.2869616940289
7.864,0.9999914642106247,48.67881767690476
7.872,0.9999916310022993,48.06964249027247
7.88,0.9999917979156292,47.459442754566
7.888,0.999991964893582,46.848225262730054
7.896,0.9999921318791114,46.235996980426776
7.904,0.9999922988151798,45.622765046189784
7.912,0.9999924656447836,45.00853677152481
7.92,0.999992632310975,44.393319640955795
7.928,0.999992798756887,43.77712131201588
7.936,0.9999929649257563,43.15994961518205
7.944,0.9999931307609491,42.54181255375323
7.952,0.9999932962059828,41.922718303670365
7.96,0.9999934612045535,41.302675213278256
7.968,0.999993625700557,40.68169180302816
7.976,0.9999937896381161,40.059776765120446
7.984,0.9999939529616039,39.43693896308684
7.992,0.9999941156156679,38.813187431311384
8.0,0.9999942775452566,38.18853137448962
8.008,0.9999944386956418,37.562980167025465
8.016,0.9999945990124456,36.9365433523647
8.024000000000001,0.9999947584416627,36.309230642266215
8.032,0.9999949169296883,35.68105191600807
8.04,0.9999950744233386,35.05201721952965
8.048,0.99999523086988,34.422136764509375
8.056000000000001,0.9999953862170498,33.79142092737755
8.064,0.9999955404130825,33.1598802482632
8.072,0.9999956934067347,32.52752542987526
8.08,0.9999958451473071,31.894367336318542
8.088000000000001,0.999995995584671,31.26041699184351
8.096,0.9999961446692914,30.625685579529456
8.104,0.99999629235225,29.990184439901334
8.112,0.9999964385852697,29.353925069480837
8.120000000000001,0.9999965833207375,28.716919119271182
8.128,0.9999967265117286,28.079178393174995
8.136,0.9999968681120271,27.440714846346207
8.144,0.9999970080761523,26.80154058347618
8.152000000000001,0.9999971463593769,26.16166785701435
8.16,0.999997282917752,25.521109065322484
8.168,0.9999974177081283,24.879876750763785
8.176,0.9999975506881765,24.2379835977275
8.184000000000001,0.9999976818164097,23.595442430589163
8.192,0.9999978110522031,22.952266211606023
8.2,0.9999979383558142,22.308468038748988
8.208,0.9999980636884049,21.664061143472072
8.216000000000001,0.9999981870120583,21.019058888419416
8.224,0.999998308289798,20.37347476506995
8.232,0.9999984274856092,19.727322391321074
8.24,0.9999985445644546,19.080615509012475
8.248000000000001,0.9999986594922916,18.433367981390663
8.256,0.9999987722360923,17.78559379051407
8.264,0.9999988827638571,17.137307034600603
8.272,0.9999989910446321,16.488521925319013
8.280000000000001,0.9999990970485249,15.839252785024476
8.288,0.9999992007467191,15.189514043938996
8.296,0.9999993021114886,14.539320237278185
8.304,0.999999401116212,13.888686002326342
8.312,0.9999994977353851,13.237626075460364
8.32,0.9999995919446336,12.586155289122418
8.328,0.9999996837207258,11.93428856874609
8.336,0.9999997730415835,11.282040929632908
8.344,0.999999859886291,10.629427473785443
8.352,0.9999999442351084,9.97646338669352
8.36,1.0,9.323163934079766
8.368,1.0,8.669544458601504
8.376,1.0,8.015620376514972
8.384,0.9999999999999999,7.361407174298938
8.392,1.0,6.706920405243945
8.4,0.9999999999999999,6.052175686004324
8.408,1.0,5.397188693119068
8.416,0.9999999999999999,4.741975159498954
8.424,1.0,4.08655087088605
8.432,1.0,3.4309316622830455
8.44,1.0,2.7751334143584883
8.448,1.0,2.1191720498255124
8.456,1.0,1.4630635298004022
8.464,1.0,0.8068238501380692
8.472,0.9999999999999999,0.15046903775138754
8.48,1.0,-0.5059848530886594
8.488,0.9999999999999998,-1.1625217444653528
8.496,0.9999999999999999,-1.819125538543693
8.504,0.9999999999999999,-2.4757801213064083
8.512,0.9999999999999999,-3.132469366301239
8.52,0.9999999999999999,-3.789177138392731
8.528,0.9999999999999998,-4.445887297521251
8.536,1.0,-5.102583702462607
8.544,1.0,-5.759250214590799
8.552,1.0000000000000002,-6.415870701637391
8.56,0.9999999999999999,-7.07242904144995
8.568,1.0,-7.7289091257432165
8.576,1.0,-8.385294863845212
8.584,0.9999999999999999,-9.041570186432116
8.592,0.9999999999999999,-9.697719049254152
8.6,1.0,-10.353725436846242
8.608,0.9999999999999999,-11.009573366225757
8.616,1.0,-11.66524689057114
8.624,1.0,-12.320730102883767
8.632,0.9999999999999999,-12.97600713962679
8.64,1.0,-13.631062184343516
8.648,1.0,-14.285879471248897
8.656,1.0,-14.94044328879701
8.664,0.9999999999999999,-15.594737983217845
8.672,1.0,-16.248747962026535
8.68,1.0,-16.902457697498438
8.688,1.0,-17.555851730113027
8.696,1.0,-18.208914671960365
8.704,1.0,-18.8616312101129
8.712,0.9999999999999999,-19.513986109956637
8.72,1.0,-20.16596421848447
8.728,1.0,-20.817550467545683
8.736,0.9999999999999999,-21.468729877054525
8.744,1.0,-22.119487558152073
8.752,0.9999999999999999,-22.76980871632427
8.76,0.9999999999999999,-23.41967865447036
8.768,1.0,-24.069082775924837
8.776,0.9999999999999999,-24.71800658742717
8.784,1.0,-25.366435702042523
8.792,1.0,-26.014355842027705
8.8,1.0,-26.66175284164591
8.808,0.9999999999999999,-27.30861264992431
8.815999999999999,1.0,-27.954921333358225
8.824,1.0,-28.600665078556887
8.832,1.0,-29.24583019483183
8.84,1.0,-29.89040311672712
8.847999999999999,1.0,-30.53437040649014
8.856,1.0,-31.17771875648158
8.864,1.0,-31.820434991524294
8.872,0.9999999999999999,-32.46250607119119
8.879999999999999,0.9999999999999999,-33.10391909203058
8.888,0.9999999698025788,-33.74466128972814
8.896,0.9999999020721486,-34.384720041205284
8.904,0.9999998331620586,-35.0240828666543
8.911999999999999,0.9999997631186096,-35.66273743150869
8.92,0.9999996919883608,-36.300671548348625
8.928,0.9999996198181043,-36.93787317874085
8.936,0.9999995466548401,-37.57433043501397
8.943999999999999,0.9999994725457513,-38.21003158196792
8.952,0.999999397538177,-38.8449650385172
8.96,0.9999993216795898,-39.47911937926792
8.968,0.9999992450175698,-40.1124833360295
8.975999999999999,0.9999991675997797,-40.745045799260204
8.984,0.9999990894739419,-41.37679581944598
8.992,0.9999990106878124,-42.00772260841341
9.0,0.9999989312891574,-42.63781554057702
9.008,0.9999988513257309,-43.267064154121144
9.016,0.9999987708452489,-43.89545815211528
9.024000000000001,0.9999986898953674,-44.522987403564336
9.032,0.99999860852366,-45.149641944394304
9.04,0.9999985267775938,-45.77541197837309
9.048,0.9999984447045073,-46.40028787796644
9.056000000000001,0.9999983623515896,-47.02426018512994
9.064,0.9999982797658565,-47.64731961203786
9.072,0.9999981969941307,-48.26945704174907
9.08,0.9999981140830205,-48.89066352880978
9.088000000000001,0.9999980310788976,-49.51093029979422
9.096,0.9999979480278783,-50.1302487537845
9.104,0.999997864975803,-50.748610462789685
9.112,0.9999977819682163,-51.36600717210408
9.120000000000001,0.999997699050347,-51.982430800606025
9.128,0.9999976162670917,-52.59787344099862
9.136,0.9999975336629925,-53.212327359992166
9.144,0.9999974512822231,-53.82578499842909
9.152000000000001,0.999997369168567,-54.43823897135213
9.16,0.9999972873654037,-55.04968206801748
9.168,0.9999972059156894,-55.660107251853304
9.176,0.9999971248619425,-56.26950766036342
9.184000000000001,0.9999970442462263,-56.87787660497821
9.192,0.9999969641101331,-57.48520757085373
9.2,0.99999688449477,-58.09149421661967
9.208,0.999996805440745,-58.69673037407635
9.216000000000001,0.9999967269881506,-59.300910047842535
9.224,0.999996649176551,-59.90402741495524
9.232,0.9999965720449695,-60.5060768244223
9.24,0.9999964956318742,-61.10705279672789
9.248000000000001,0.9999964199751668,-61.706950023292734
9.256,0.9999963451121691,-62.30576336589044
9.264,0.9999962710796126,-62.90348785602058
9.272,0.999996197913628,-63.50011869423882
9.280000000000001,0.9999961256497315,-64.09565124944594
9.288,0.9999960543228176,-64.69008105813708
9.296,0.9999959839671475,-65.28340382361196
9.304,0.999995914616341,-65.87561541514633
9.312000000000001,0.9999958463033667,-66.46671186712666
9.32,0.9999957790605329,-67.0566893781491
9.328,0.9999957129194805,-67.64554431008382
9.336,0.9999956479111753,-68.23327318710488
9.344,0.9999955840659008,-68.81987269468732
9.352,0.9999955214132485,-69.40533967857372
9.36,0.9999954599821174,-69.98967114370838
9.368,0.999995399800702,-70.57286425314392
9.376,0.9999953408964893,-71.15491632691732
9.384,0.9999952832962541,-71.73582484090056
9.392,0.999995227026054,-72.31558742562288
9.4,0.999995172111223,-72.89420186506968
9.408,0.9999951185763694,-73.47166609545488
9.416,0.9999950664453716,-74.04797820397246
9.424,0.9999950157413745,-74.62313642752314
9.432,0.9999949664867873,-75.19713915142215
9.44,0.9999949187032801,-75.76998490808462
9.448,0.9999948724117813,-76.34167237569362
9.456,0.9999948276324774,-76.91220037684793
9.464,0.9999947843848095,-77.48156787719452
9.472,0.9999947426874738,-78.04977398404246
9.48,0.9999947025584186,-78.61681794496346
9.488,0.9999946640148464,-79.18269914637601
9.496,0.9999946270732119,-79.74741711211772
9.504,0.9999945917492216,-80.310971502003
9.512,0.999994558057836,-80.87336211037102
9.52,0.9999945260132684,-81.43458886462057
9.528,0.9999944956289876,-81.99465182373707
9.536,0.999994466917717,-82.553551176808
9.544,0.9999944398914374,-83.11128724153232
9.552,0.9999944145613905,-83.66786046272006
9.56,0.9999943909380764,-84.22327141078718
9.568,0.9999943690312606,-84.77752078024243
9.576,0.9999943488499725,-85.33060938817107
9.584,0.9999943304025118,-85.88253817271202
9.592,0.9999943136964484,-86.4333081915333
9.6,0.9999942987386282,-86.98292062030255
9.608,0.9999942855351742,-87.53137675115707
9.616,0.9999942740914919,-88.07867799117051
9.624,0.9999942644122718,-88.62482586082037
9.632,0.9999942565014949,-89.16982199245338
9.64,0.9999942503624349,-89.71366812875323
9.648,0.9999942459976653,-90.25636612120721
9.656,0.9999942434090613,-90.7979179285766
9.664,0.9999942425978063,-91.33832561536707
9.672,0.9999942435643958,-91.87759135030396
9.68,0.9999942463086439,-92.41571740480903
