freq,mag,phase
6.0,0.9999976017699608,27.07338716039191
6.04166656,0.9999949860615459,26.00669313166499
6.08333312,0.9999924696588115,24.93994828967598
6.125000192,0.9999902042488734,23.873102765471003
6.166666752,0.9999881525581686,22.80621212033215
6.208333312,0.99998628746317,21.73919428751537
6.249999872,0.9999847939807025,20.672117060646
6.291666432,0.999983574568966,19.604944847904065
6.333333504,0.9999826857222489,18.537669344973363
6.375000064,0.9999821492974589,17.470318298609627
6.416666624,0.9999818867592527,16.40284514845038
6.458333184,0.9999820555570839,15.335290058052902
6.499999744,0.9999826134213372,14.267659371635718
6.541666816,0.999983494165465,13.19984956224258
6.583333376,0.9999846852322496,12.132026725203872
6.624999936,0.9999861597364926,11.064005442104602
6.666666496,0.9999880455399528,9.995925658883223
6.708333568,0.9999901398745025,8.927696599283555
6.750000128,0.9999925136071761,7.859340481299518
6.791666688,0.9999950848395038,6.790906347855505
6.833333248,0.9999979409566571,5.722301729007624
6.874999808,1.000000815867059,4.65360628119111
6.91666688,1.0000037134908948,3.584748513743459
6.95833344,1.0000068496709307,2.5158134063318287
7.0,1.0000098415393353,1.4467296946462198
7.04166656,1.0000128819350893,0.3774850279605714
7.08333312,1.00001574671201,-0.6918678504748517
7.125000192,1.0000185879948555,-1.7613318900098163
7.166666752,1.0000212351593873,-2.8309489244129886
7.208333312,1.000023610959438,-3.9006955745608907
7.249999872,1.000025809592723,-4.9705259817736245
7.291666432,1.0000276368671193,-6.040531388716561
7.333333504,1.00002915863179,-7.110649006586414
7.375000064,1.0000304452056985,-8.180875530305553
7.416666624,1.000031317866602,-9.25122846127314
7.458333184,1.0000318744184549,-10.32167316220428
7.500000256,1.0000319450447035,-11.39226772861002
7.541666816,1.0000316578910982,-12.46298659711807
7.583333376,1.0000310577413867,-13.533777781697635
7.624999936,1.0000300311471717,-14.604691525614479
7.666666496,1.000028546823508,-15.675731478366128
7.708333568,1.0000268331213291,-16.746855309985055
7.750000128,1.0000247759893768,-17.81809144478908
7.791666688,1.000022519655778,-18.889431797345164
7.833333248,1.0000198713919801,-19.960856052514185
7.874999808,1.000016894002846,-21.03236740434406
7.91666688,1.0000139015780827,-22.104021417944562
7.95833344,1.0000109236957087,-23.175763295967702
8.0,1.0000074852834226,-24.247582315073004
8.04166656,1.0000041589913118,-25.319477823273026
8.08333312,1.0000008706782613,-26.391494389918954
8.125000192,0.9999976539149809,-27.463622146302292
8.166666752,0.999994545882396,-28.53581617634443
8.208333312,0.9999914735829144,-29.60810818337459
8.249999872,0.9999886195233388,-30.680542953875168
8.291666432,0.9999861555410002,-31.753046561438293
8.333333504,0.9999838552880808,-32.82566131416937
8.375000064,0.9999818682275697,-33.89836446851123
8.416666624,0.9999802352483728,-34.97120225498806
8.458333184,0.9999790141360034,-36.04414606486354
8.499999744,0.9999781058871136,-37.11720175542087
8.541666816,0.9999775852926113,-38.19038049017477
8.583333376,0.9999776671476442,-39.263673181952505
8.625000448,0.9999779392781286,-40.33708985082844
8.666667008,0.9999788119658473,-41.410641286953755
8.708333568,0.9999799940365006,-42.48428478215335
8.750000128,0.9999814999669103,-43.55812750706756
8.791666688,0.999983510920529,-44.63207656894864
8.833333248,0.999985864084862,-45.7061622864676
8.874999808,0.9999885183866295,-46.78040370248583
8.916666368,0.9999913500099129,-47.85478910351391
8.958332928,0.9999946352119193,-48.9292985340865
8.999999488,0.9999979011454948,-50.003989593797606
9.041667072,1.0000013538810961,-51.0788111228194
9.083333632,1.0000049414776553,-52.153777962562835
9.125000192,1.0000085922326458,-53.22892209701682
9.166666752,1.0000121074866528,-54.30421562623182
9.208333312,1.0000156460331773,-55.37967338567101
9.249999872,1.00001897952957,-56.45527888994512
9.291666432,1.0000222921274828,-57.531005217610385
9.333332992,1.0000252364315132,-58.6069322803004
9.374999552,1.0000280067811391,-59.68297876669189
9.416667136,1.0000304247611698,-60.759154641040084
9.458333696,1.0000325498544442,-61.83552060280799
9.500000256,1.000034176223855,-62.91201224630398
9.541666816,1.0000355445488815,-63.98866110223399
9.583333376,1.0000363032884838,-65.06541497872264
9.624999936,1.0000366798778284,-66.14233488830139
9.666666496,1.0000366030260572,-67.21940115414174
9.708333056,1.000036071051423,-68.2965725095767
9.749999616,1.0000350266607037,-69.37387666146988
9.791666176,1.0000335789176462,-70.4513109985433
9.83333376,1.000031707567655,-71.52887299284804
9.87500032,1.000029403889872,-72.60655790406491
9.91666688,1.0000266262580186,-73.68435433787918
9.95833344,1.0000237098578921,-74.7622596942633
10.0,1.000020365075253,-75.84027120129443
10.04166656,1.0000167379624763,-76.91841463295918
10.08333312,1.0000130130634892,-77.99666395674959
10.12499968,1.000009069579476,-79.07499999684998
10.16666624,1.0000050476270534,-80.15346848427785
10.208333824,1.0000009723613827,-81.23202123083733
10.250000384,0.9999969134477027,-82.31071570696167
10.291666944,0.9999929513720076,-83.38949042072021
10.333333504,0.9999891641105351,-84.46837619619933
10.375000064,0.9999856459042709,-85.54737355634843
10.416666624,0.9999823072155781,-86.62648270374471
10.458333184,0.9999792271800195,-87.70571181130828
10.499999744,0.9999764975765296,-88.78504779937221
10.541666304,0.9999742452136267,-89.86451245841913
10.583332864,0.9999724318963826,-90.94409619302675
10.625000448,0.9999710774974656,-92.02381679572206
10.666667008,0.9999701780064348,-93.10364831206857
10.708333568,0.9999698125080222,-94.18361458266592
10.750000128,0.999970015037213,-95.26373258611237
10.791666688,0.9999706854050903,-96.34397243759484
10.833333248,0.9999718700240793,-97.42436260630075
10.874999808,0.9999735315076856,-98.50491025668352
10.916666368,0.9999757752435535,-99.58558789926828
10.958332928,0.999978448122752,-100.66643095070026
11.000000512,0.9999814588337249,-101.74743074361554
11.041667072,0.9999850405080398,-102.82860339497485
11.083333632,0.9999887155255591,-103.90993803123246
11.125000192,0.9999928383668352,-104.99142308568707
11.166666752,0.9999970627484572,-106.07309530176249
11.208333312,1.0000016081566034,-107.15490438944762
11.249999872,1.000006145014608,-108.23692340986273
11.291666432,1.0000107362282915,-109.31907956817946
11.333332992,1.0000152851502364,-110.40143768925705
11.374999552,1.0000197418113115,-111.48395513033302
11.416667136,1.0000239844704188,-112.5666411797235
11.458333696,1.0000280613705859,-113.64950098503746
11.500000256,1.0000318375355624,-114.73253237149535
11.541666816,1.0000352362777658,-115.81572538348176
11.583333376,1.00003814615489,-116.8990679663355
11.624999936,1.0000407204678503,-117.98260054885276
11.666666496,1.000042732925234,-119.0662618113358
11.708333056,1.0000441907417852,-120.15010379593484
11.749999616,1.0000451547486873,-121.23407124220267
11.791666176,1.0000454267430505,-122.31820636659761
11.83333376,1.0000451384569424,-123.40248231915922
11.87500032,1.000044296422648,-124.4868997773125
11.91666688,1.0000427923910817,-125.57142583166221
11.95833344,1.0000408058414816,-126.65609841327588
12.0,1.0000381038155823,-127.7409137826826
12.04166656,1.0000350623500234,-128.82583555005345
12.08333312,1.0000314537602895,-129.91088231627407
12.12499968,1.000027380368862,-130.99602991072916
12.16666624,1.0000229126175704,-132.0812981819648
12.208333824,1.0000181969878528,-133.16668815126505
12.250000384,1.000013213588907,-134.25218380336545
12.291666944,1.00000804566804,-135.3377744998656
12.333333504,1.000002684716089,-136.42347141560904
12.375000064,0.9999973411138595,-137.50928056091053
12.416666624,0.9999921222069612,-138.59518568689995
12.458333184,0.9999869423217275,-139.6811998789998
12.499999744,0.9999819731328431,-140.76730580534056
12.541666304,0.9999772346948195,-141.85354671274143
12.583332864,0.9999729545242068,-142.93988838628772
12.625000448,0.999969037654966,-144.0263195688516
12.666667008,0.9999655898482251,-145.1128852746797
12.708333568,0.9999626505894356,-146.19955661018378
12.750000128,0.999960369038653,-147.28634366606644
12.791666688,0.9999586622695317,-148.37328031734205
12.833333248,0.9999577346177884,-149.4603384702224
12.874999808,0.9999573985636521,-150.5475196924385
12.916666368,0.9999576941492868,-151.63483976540644
12.958332928,0.999958779771026,-152.7223195723354
12.999999488,0.9999606142868852,-153.80992950543003
13.041667072,0.9999630673896174,-154.89769567075783
13.083333632,0.9999662182100553,-155.98563992606276
13.125000192,0.9999699271262253,-157.07371289564864
13.166666752,0.9999743358653232,-158.16196388193586
13.208333312,0.9999790546073766,-159.2503972393622
13.249999872,0.9999843892821386,-160.33900016724584
13.291666432,0.9999900835752022,-161.4277872480068
13.333332992,0.9999960975214949,-162.5167269914332
13.374999552,1.000002299072837,-163.60587022122388
13.416667136,1.0000086261583463,-164.69518955449294
13.458333696,1.0000151116109222,-165.78471086139913
13.500000256,1.0000213421825375,-166.8743962315695
13.541666816,1.0000276153952459,-167.96426571857455
13.583333376,1.000033622918793,-169.05432533607043
13.624999936,1.000039286456421,-170.14456670850157
13.666666496,1.0000444918861628,-171.23498777667817
13.708333056,1.0000492769748504,-172.32556834388694
13.749999616,1.0000533795725173,-173.4163290676558
13.791666176,1.000056914250636,-174.50725557352155
13.83333376,1.0000597518825305,-175.59835768281528
13.87500032,1.000061796295731,-176.68961400971918
13.91666688,1.0000630150836998,-177.78102464362487
13.95833344,1.0000635461816647,-178.87257552372128
14.0,1.0000628984678441,-179.9642767067183
