freq,mag,phase
6.0,0.9999967962068275,-179.73031779247208
6.008,0.9999963852598022,179.8600283371524
6.016,0.9999959806495766,179.4504299681834
6.024,0.999995582327182,179.04088290377967
6.032,0.999995190243799,178.6313829380286
6.04,0.999994804350761,178.22192585609224
6.048,0.9999944245995563,177.81250743435194
6.056,0.9999940509418287,177.4031234405514
6.064,0.999993683329382,176.99376963393877
6.072,0.9999933217141806,176.58444176540704
6.08,0.9999929660483509,176.17513557763354
6.088,0.9999926162841835,175.76584680521822
6.096,0.9999922723741369,175.35657117482054
6.104,0.9999919342708362,174.94730440529548
6.112,0.9999916019270759,174.5380422078284
6.12,0.9999912752958227,174.1287802860687
6.128,0.9999909543302166,173.7195143362629
6.136,0.9999906389835691,173.31024004738612
6.144,0.9999903292093703,172.90095310127322
6.152,0.9999900249612862,172.49164917274885
6.16,0.9999897261931605,172.08232392975646
6.168,0.9999894328590175,171.67297303348673
6.176,0.9999891449130613,171.26359213850535
6.184,0.999988862309678,170.85417689287962
6.192,0.9999885850034373,170.44472293830486
6.2,0.9999883129490925,170.03522591022988
6.208,0.9999880461015825,169.6256814379819
6.216,0.9999877844160302,169.21608514489103
6.224,0.9999875278477471,168.80643264841402
6.232,0.9999872763522316,168.39671956025776
6.24,0.9999870298851706,167.98694148650216
6.248,0.9999867884024409,167.5770940277227
6.256,0.9999865518601059,167.1671727791126
6.264,0.9999863202144242,166.7571733306049
6.272,0.9999860934218417,166.3470912669937
6.28,0.9999858714389982,165.93692216805596
6.288,0.9999856542227242,165.52666160867247
6.296,0.9999854417300443,165.1163051589489
6.304,0.9999852339181734,164.70584838433692
6.312,0.9999850307445239,164.29528684575496
6.32,0.9999848321666985,163.88461609970912
6.328,0.9999846381424969,163.47383169841427
6.336,0.99998444862991,163.06292918991483
6.344,0.9999842635871266,162.65190411820606
6.352,0.9999840829725293,162.24075202335524
6.36,0.9999839067446941,161.82946844162328
6.368,0.9999837348623961,161.41804890558632
6.376,0.9999835672846019,161.00648894425794
6.384,0.9999834039704756,160.59478408321152
6.392,0.9999832448793773,160.18292984470287
6.4,0.9999830899708603,159.7709217477936
6.408,0.9999829392046765,159.35875530847474
6.416,0.9999827925407715,158.94642603979105
6.424,0.9999826499392862,158.53392945196558
6.432,0.9999825113605582,158.12126105252528
6.44,0.9999823767651209,157.70841634642704
6.448,0.9999822461136991,157.29539083618423
6.456,0.9999821193672177,156.88218002199446
6.464,0.9999819964867923,156.4687794018678
6.472,0.9999818774337358,156.05518447175592
6.48,0.9999817621695544,155.64139072568213
6.4879999999999995,0.9999816506559479,155.22739365587248
6.496,0.9999815428548106,154.8131887528874
6.504,0.9999814387282311,154.39877150575538
6.5120000000000005,0.9999813382384892,153.98413740210617
6.52,0.9999812413480598,153.56928192830676
6.5280000000000005,0.9999811480196092,153.15420056959726
6.536,0.9999810582159964,152.73888881022896
6.5440000000000005,0.9999809719002716,152.32334213360252
6.552,0.9999808890356756,151.90755602240918
6.5600000000000005,0.9999808095856425,151.4915259587712
6.568,0.9999807335137947,151.07524742438588
6.5760000000000005,0.9999806607839455,150.65871590066897
6.584,0.9999805913600984,150.24192686890174
6.592,0.9999805252064445,149.82487581037745
6.6,0.9999804622873646,149.40755820655116
6.608,0.9999804025674272,148.9899695391902
6.616,0.9999803460113885,148.5721052905268
6.624,0.9999802925841905,148.15396094341207
6.632,0.9999802422509636,147.7355319814724
6.64,0.9999801949770227,147.31681388926708
6.648,0.9999801507278684,146.89780215244812
6.656,0.9999801094691863,146.47849225792206
6.664,0.9999800711668452,146.0588796940137
6.672,0.999980035786898,145.63895995063186
6.68,0.9999800032955806,145.21872851943712
6.688,0.9999799736593109,144.79818089401226
6.696,0.9999799468446886,144.37731257003392
6.704,0.9999799228184942,143.95611904544754
6.712,0.9999799015476886,143.5345958206439
6.72,0.9999798829994128,143.1127383986382
6.728,0.9999798671409861,142.69054228525175
6.736,0.9999798539399065,142.26800298929575
6.744,0.9999798433638496,141.84511602275774
6.752,0.9999798353806688,141.42187690099067
6.76,0.9999798299583929,140.99828114290437
6.768,0.9999798270652267,140.57432427115984
6.776,0.99997982666955,140.15000181236613
6.784,0.999979828739917,139.72530929727998
6.792,0.9999798332450549,139.30024226100818
6.8,0.9999798401538655,138.87479624321296
6.808,0.9999798494354207,138.4489667883201
6.816,0.9999798610589651,138.02274944572991
6.824,0.9999798749939142,137.59613977003153
6.832,0.999979891209853,137.16913332121985
6.84,0.999979909676537,136.74172566491563
6.848,0.9999799303638885,136.31391237258913
6.856,0.9999799532420003,135.8856890217863
6.864,0.999979978281131,135.45705119635866
6.872,0.9999800054517064,135.0279944866962
6.88,0.9999800347243175,134.59851448996378
6.888,0.9999800660697219,134.16860681034078
6.896,0.9999800994588405,133.73826705926416
6.904,0.9999801348627587,133.3074908556751
6.912,0.9999801722527251,132.87627382626894
6.92,0.9999802116001509,132.44461160574906
6.928,0.9999802528766089,132.01249983708368
6.936,0.999980296053833,131.57993417176732
6.944,0.9999803411037179,131.14691027008473
6.952,0.9999803879983187,130.71342380137963
6.96,0.9999804367098479,130.27947044432665
6.968,0.9999804872106788,129.84504588720728
6.976,0.9999805394733404,129.41014582818946
6.984,0.9999805934705213,128.9747659756116
6.992,0.9999806491750641,128.53890204826985
7.0,0.9999807065599695,128.1025497757101
7.008,0.9999807655983927,127.66570489852324
7.016,0.9999808262636423,127.22836316864532
7.024,0.999980888529185,126.7905203496612
7.032,0.9999809523686363,126.35217221711262
7.04,0.9999810177557682,125.91331455881038
7.048,0.9999810846645019,125.47394317515084
7.056,0.9999811530689136,125.03405387943675
7.064,0.9999812229432284,124.59364249820214
7.072,0.9999812942618233,124.1527048715418
7.08,0.9999813669992246,123.711236853445
7.088,0.9999814411301078,123.2692343121338
7.096,0.9999815166292991,122.82669313040559
7.104,0.9999815934717715,122.38360920598019
7.112,0.999981671632647,121.93997845185164
7.12,0.9999817510871946,121.49579679664421
7.128,0.9999818318108302,121.05106018497335
7.136,0.9999819137791162,120.60576457781089
7.144,0.9999819969677619,120.15990595285508
7.152,0.9999820813526212,119.71348030490549
7.16,0.9999821669096933,119.266483646242
7.168,0.9999822536151222,118.81891200700906
7.176,0.9999823414451967,118.37076143560459
7.184,0.9999824303763486,117.92202799907328
7.192,0.999982520385153,117.4727077835051
7.2,0.9999826114483298,117.02279689443843
7.208,0.99998270354274,116.57229145726787
7.216,0.9999827966453871,116.1211876176572
7.224,0.999982890733418,115.66948154195687
7.232,0.9999829857841188,115.21716941762654
7.24,0.9999830817749195,114.76424745366239
7.248,0.9999831786833895,114.31071188102946
7.256,0.9999832764872391,113.85655895309868
7.264,0.9999833751643202,113.40178494608895
7.272,0.9999834746926235,112.94638615951415
7.28,0.9999835750502818,112.49035891663488
7.288,0.9999836762155637,112.03369956491522
7.296,0.9999837781668822,111.5764044764847
7.304,0.9999838808827862,111.11847004860441
7.312,0.9999839843419651,110.65989270413895
7.32,0.9999840885232464,110.20066889203254
7.328,0.9999841934055967,109.74079508779045
7.336,0.9999842989681222,109.28026779396524
7.344,0.9999844051900663,108.81908354064763
7.352,0.9999845120508115,108.35723888596273
7.36,0.9999846195298783,107.89473041657043
7.368,0.9999847276069255,107.43155474817134
7.376,0.9999848362617496,106.96770852601695
7.384,0.9999849454742868,106.50318842542495
7.392,0.9999850552246096,106.03799115229917
7.4,0.9999851654929292,105.5721134436541
7.4079999999999995,0.9999852762595941,105.10555206814452
7.416,0.9999853875050932,104.63830382659911
7.4239999999999995,0.9999854992100506,104.17036555255982
7.432,0.9999856113552298,103.70173411282417
7.4399999999999995,0.9999857239215325,103.2324064079941
7.448,0.9999858368899992,102.76237937302726
7.4559999999999995,0.9999859502418078,102.29164997779476
7.464,0.9999860639582746,101.82021522764141
7.4719999999999995,0.9999861780208557,101.3480721639521
7.48,0.9999862924111448,100.87521786472091
7.4879999999999995,0.9999864071108753,100.40164944512591
7.496,0.9999865221019183,99.92736405810656
7.504,0.9999866373662858,99.45235889494708
7.5120000000000005,0.9999867528861289,98.97663118586186
7.52,0.9999868686437371,98.50017820058676
7.5280000000000005,0.9999869846215421,98.02299724897259
7.536,0.9999871008021136,97.54508568158407
7.5440000000000005,0.9999872171681625,97.06644089030075
7.552,0.9999873337025416,96.58706030892353
7.5600000000000005,0.9999874503882428,96.10694141378266
7.568,0.9999875672084009,95.62608172435141
7.5760000000000005,0.9999876841462911,95.14447880386093
7.584,0.9999878011853328,94.66213025992039
7.5920000000000005,0.9999879183090855,94.17903374513858
7.6,0.9999880355012527,93.69518695775007
7.6080000000000005,0.9999881527456811,93.21058764224288
7.616,0.9999882700263595,92.72523358999057
7.6240000000000006,0.9999883873274233,92.23912263988531
7.632,0.9999885046331506,91.75225267897532
7.640000000000001,0.9999886219279651,91.2646216431032
7.648,0.9999887391964349,90.77622751754801
7.656000000000001,0.9999888564232757,90.28706833766813
7.664,0.9999889735933479,89.79714218954781
7.672,0.99998909069166,89.30644721064394
7.68,0.9999892077033669,88.81498159043609
7.688,0.9999893246137717,88.32274357107727
7.696,0.9999894414083268,87.82973144804649
7.704,0.9999895580726323,87.33594357080263
7.712,0.9999896745924391,86.84137834343946
7.72,0.999989790953647,86.34603422534158
7.728,0.9999899071423081,85.84990973184127
7.736,0.9999900231446246,85.35300343487597
7.744,0.9999901389469514,84.85531396364618
7.752,0.9999902545357953,84.35684000527363
7.76,0.9999903698978172,83.85758030545966
7.768,0.9999904850198316,83.35753366914338
7.776,0.9999905998888067,82.85669896115957
7.784,0.9999907144918672,82.35507510689604
7.792,0.9999908288162929,81.85266109295044
7.8,0.99999094284952,81.3494559677859
7.808,0.9999910565791424,80.84545884238588
7.816,0.9999911699929115,80.34066889090724
7.824,0.9999912830787379,79.83508535133225
7.832,0.9999913958246904,79.32870752611834
7.84,0.9999915082189987,78.82153478284613
7.848,0.9999916202500534,78.31356655486508
7.856,0.9999917319064052,77.80480234193661
7.864,0.9999918431767689,77.29524171087468
7.872,0.9999919540500197,76.78488429618302
7.88,0.9999920645151992,76.27372980068957
7.888,0.9999921745615106,75.76177799617693
7.896,0.9999922841783241,75.24902872400959
7.904,0.9999923933551745,74.73548189575666
7.912,0.9999925020817637,74.22113749381069
7.92,0.9999926103479602,73.70599557200165
7.928,0.999992718143801,73.19005625620638
7.936,0.9999928254594916,72.6733197449526
7.944,0.9999929322854066,72.15578631001789
7.952,0.9999930386120905,71.63745629702271
7.96,0.9999931444302596,71.11833012601771
7.968,0.9999932497308,70.59840829206456
7.976,0.9999933545047712,70.07769136581045
7.984,0.9999934587434056,69.55617999405564
7.992,0.9999935624381084,69.03387490031395
8.0,0.9999936655804595,68.51077688536573
8.008,0.9999937681622134,67.98688682780327
8.016,0.9999938701753001,67.46220568456769
8.024000000000001,0.9999939716118265,66.93673449147839
8.032,0.9999940724640747,66.41047436375291
8.04,0.9999941727245064,65.8834264965181
8.048,0.9999942723857596,65.35559216531206
8.056000000000001,0.9999943714406517,64.82697272657694
8.064,0.9999944698821785,64.29756961814098
8.072,0.9999945677035169,63.7673843596904
8.08,0.9999946648980232,63.23641855323134
8.088000000000001,0.9999947614592348,62.70467388354061
8.096,0.9999948573808699,62.17215211860499
8.104,0.9999949526568295,61.63885511004892
8.112,0.9999950472811964,61.10478479355066
8.120000000000001,0.9999951412482359,60.569943189246466
8.128,0.9999952345523971,60.03433240212156
8.136,0.9999953271883122,59.497954622388384
8.144,0.999995419150798,58.96081212585207
8.152000000000001,0.9999955104348549,58.422907274262435
8.16,0.9999956010356681,57.88424251565172
8.168,0.999995690948609,57.34482038465797
8.176,0.9999957801692323,56.80464350283468
8.184000000000001,0.9999958686932799,56.26371457894548
8.192,0.9999959565166783,55.722036409243174
8.2,0.9999960436355411,55.17961187773344
8.208,0.9999961300461666,54.63644395642322
8.216000000000001,0.9999962157450404,54.09253570555297
8.224,0.9999963007288345,53.547890273812094
8.232,0.9999963849944065,53.002510898537615
8.24,0.9999964685388008,52.45640090589642
8.248000000000001,0.9999965513592488,51.909563711050055
8.256,0.9999966334531679,51.36200281830144
8.264,0.9999967148181612,50.813721821223865
8.272,0.9999967954520197,50.26472440277188
8.280000000000001,0.9999968753527184,49.71501433537409
8.288,0.9999969545184195,49.1645954810063
8.296,0.9999970329474709,48.61347179124596
8.304,0.999997110638405,48.06164730730742
8.312,0.9999971875899407,47.50912616005788
8.32,0.9999972638009799,46.9559125700122
8.328,0.9999973392706104,46.40201084730943
8.336,0.999997413998103,45.847425391666796
8.344,0.9999974879829129,45.29216069231542
8.352,0.9999975612246763,44.73622132791262
8.36,0.9999976337232142,44.179611966435615
8.368,0.9999977054785275,43.622337365051536
8.376,0.9999977764907986,43.06440236996796
8.384,0.9999978467603909,42.505811916259795
8.392,0.9999979162878473,41.94657102767601
8.4,0.9999979850738884,41.38668481642221
8.408,0.9999980531194137,40.826158482922956
8.416,0.9999981204254996,40.2649973155595
8.424,0.9999981869933993,39.70320669038658
8.432,0.9999982528245392,39.14079207082481
8.44,0.9999983179205217,38.577759007331515
8.448,0.9999983822831217,38.01411313704672
8.456,0.999998445914285,37.44986018341778
8.464,0.9999985088161287,36.885005955798476
8.472,0.9999985709909395,36.319556349026605
8.48,0.9999986324411716,35.753517342976124
8.488,0.999998693169446,35.18689500208719
8.496,0.9999987531785497,34.619695474870724
8.504,0.9999988124714324,34.051924993390884
8.512,0.9999988710512067,33.483589872721666
8.52,0.9999989289211456,32.914696510381575
8.528,0.9999989860846827,32.345251385742145
8.536,0.9999990425454067,31.775261059414525
8.544,0.999999098307064,31.204732172609933
8.552,0.999999153373554,30.633671446478093
8.56,0.9999992077489281,30.062085681419664
8.568,0.9999992614373897,29.48998175637655
8.576,0.9999993144432876,28.917366628096396
8.584,0.9999993667711198,28.344247330374948
8.592,0.9999994184255272,27.770630973272784
8.6,0.9999994694112929,27.19652474231009
8.608,0.9999995197333412,26.621935897635833
8.616,0.9999995693967334,26.046871773175308
8.624,0.9999996184066666,25.471339775752288
8.632,0.9999996667684722,24.895347384189712
8.64,0.9999997144876118,24.318902148385313
8.648,0.9999997615696763,23.7420116883661
8.656,0.999999808020383,23.16468369331807
8.664,0.999999853845573,22.586925920595153
8.672,0.9999998990512089,22.00874619470374
8.68,0.9999999436433714,21.430152406266878
8.688,0.9999999876282591,20.851152510964493
8.696,1.0,20.271754528453705
8.704,1.0,19.69196654126571
8.712,0.9999999999999999,19.111796693683203
8.72,0.9999999999999999,18.531253190594956
8.728,0.9999999999999999,17.95034429633155
8.736,1.0,17.36907833347872
8.744,1.0,16.787463681672616
8.752,0.9999999999999999,16.20550877637329
8.76,0.9999999999999998,15.623222107620625
8.768,1.0,15.040612218769459
8.776,1.0,14.457687705207672
8.784,1.0,13.874457213054143
8.792,1.0,13.29092943784078
8.8,1.0,12.707113123174855
8.808,1.0,12.12301705938637
8.815999999999999,1.0,11.538650082156757
8.824,1.0,10.954021071132605
8.832,0.9999999999999999,10.369138948523476
8.84,1.0,9.784012677683803
8.847999999999999,1.0,9.198651261679949
8.856,1.0,8.613063741843334
8.864,1.0,8.02725919630972
8.872,1.0,7.441246738544464
8.879999999999999,1.0,6.855035515854944
8.888,0.9999999999999999,6.2686347078910725
8.896,0.9999999999999999,5.682053525133953
8.904,0.9999999999999999,5.095301207372694
8.911999999999999,1.0,4.508387022170413
8.92,1.0,3.921320263320531
8.928,1.0,3.3341102492933934
8.936,1.0,2.7467663216732094
8.943999999999999,0.9999999999999999,2.1592978435865002
8.952,1.0,1.5717141981230254
8.96,1.0,0.9840247867493563
8.968,1.0,0.39623902771510816
8.975999999999999,0.9999999999999999,-0.19163364554705936
8.984,1.0,-0.7795837860265203
8.992,1.0,-1.3676019347448043
9.0,1.0,-1.955678622370657
9.008,1.0,-2.543804370838892
9.016,0.9999999999999999,-3.131969694971958
9.024000000000001,1.0,-3.72016510410409
9.032,1.0,-4.308381103707947
9.04,1.0,-4.896608197022628
9.048,0.9999999999999999,-5.484836886681933
9.056000000000001,1.0,-6.07305767634273
9.064,0.9999999999999999,-6.661261072313372
9.072,1.0,-7.24943758518102
9.08,1.0,-7.837577731436764
9.088000000000001,1.0,-8.425672035098339
9.096,0.9999999999999999,-9.013711029330508
9.104,1.0,-9.601685258061863
9.112,1.0,-10.189585277596935
9.120000000000001,1.0,-10.777401658223576
9.128,1.0,-11.365124985815473
9.136,1.0,-11.952745863428762
9.144,0.9999999999999999,-12.540254912891479
9.152000000000001,1.0,-13.127642776385942
9.16,1.0,-13.714900118023943
9.168,1.0,-14.302017625413583
9.176,1.0,-14.88898601121677
9.184000000000001,1.0,-15.475796014697245
9.192,1.0,-16.06243840325917
9.2,0.9999999999999999,-16.64890397397515
9.208,1.0,-17.23518355510259
9.216000000000001,0.9999999999999998,-17.821268007588614
9.224,1.0,-18.40714822656306
9.232,1.0,-18.99281514281906
9.24,1.0,-19.578259724279764
9.248000000000001,1.0,-20.16347297745147
9.256,0.9999999999999999,-20.748445948863015
9.264,1.0,-21.333169726490492
9.272,1.0,-21.917635441166453
9.280000000000001,1.0,-22.50183426797334
9.288,1.0,-23.085757427621445
9.296,1.0,-23.669396187810438
9.304,1.0,-24.252741864573377
9.312000000000001,1.0,-24.835785823603416
9.32,1.0,-25.41851948156322
9.328,0.9999999999999999,-26.000934307376365
9.336,1.0,-26.583021823499585
9.344,1.0,-27.16477360717598
9.352,1.0,-27.746181291670315
9.36,1.0,-28.327236567482807
9.368,1.0,-28.907931183544907
9.376,1.0,-29.488256948392912
9.384,1.0,-30.068205731322934
9.392,1.0,-30.64776946352312
9.4,0.9999999999999999,-31.22694013918647
9.408,1.0,-31.805709816600633
9.416,1.0,-32.38407061921767
9.424,0.9999999999999999,-32.96201473670002
9.432,1.0,-33.53953442594654
9.44,1.0,-34.11662201209375
9.448,1.0,-34.693269889496946
9.456,1.0,-35.26947052268628
9.464,1.0,-35.84521644730204
9.472,0.9999999999999999,-36.42050027100489
9.48,1.0,-36.9953146743647
9.488,1.0,-37.56965241172415
9.496,1.0,-38.14350631204082
9.504,0.9999999999999998,-38.71686927970359
9.512,0.9999999999999999,-39.28973429532753
9.52,1.0,-39.86209441652283
9.528,1.0,-40.43394277864192
9.536,1.0,-41.0052725955007
9.544,1.0,-41.57607716007794
9.552,1.0,-42.14634984518853
9.56,1.0,-42.716084104134765
9.568,1.0,-43.285273471331735
9.576,0.9999999999999999,-43.8539115629106
9.584,1.0,-44.42199207729599
9.592,1.0,-44.98950879576132
9.6,1.0,-45.55645558295834
9.608,1.0,-46.12282638742489
9.616,0.9999999999999999,-46.688615242066504
9.624,1.0,-47.25381626461681
9.632,0.9999999999999998,-47.818423658071914
9.64,1.0,-48.38243171110353
9.648,0.9999999999999999,-48.94583479844648
9.656,0.9999999999999999,-49.50862738126507
9.664,1.0,-50.07080400749417
9.672,0.9999999999999999,-50.63235931215948
9.68,1.0,-51.193288017672565
9.688,1.0000000000000002,-51.75358493410557
9.696,1.0,-52.31324495944112
9.704,0.9999999999999999,-52.87226307980198
9.712,1.0,-53.430634369656396
9.72,0.9999999999999999,-53.988353992003695
9.728,1.0,-54.545417198535745
9.736,1.0,-55.10181932977918
9.744,1.0,-55.65755581521406
9.752,0.9999999999999999,-56.212622173373404
9.76,0.9999999999999999,-56.767014011919954
9.768,1.0,-57.320727027704116
9.776,1.0,-57.873757006799565
9.784,1.0,-58.42609982452072
9.792,1.0,-58.97775144541821
9.8,1.0,-59.52870792325681
9.808,1.0,-60.078965400971875
9.816,1.0,-60.628520110608825
9.824,1.0,-61.17736837324174
9.832,1.0,-61.72550659887535
9.84,0.9999999999999999,-62.272931286326894
9.847999999999999,1.0,-62.81963902309195
9.856,0.9999999999999999,-63.36562648519108
