freq,mag,phase
6.0,0.9999943022197666,-113.27611441815601
6.008,0.9999967206888145,-113.65764542684822
6.016,0.999999049762303,-114.03889111675359
6.024,0.9999999999999999,-114.41985211901466
6.032,1.0,-114.80052907853533
6.04,1.0000000000000002,-115.18092265386323
6.048,0.9999999999999998,-115.56103351707226
6.056,0.9999999999999999,-115.9408623536453
6.064,0.9999999999999999,-116.32040986235725
6.072,1.0,-116.69967675515826
6.08,0.9999999999999999,-117.07866375705736
6.088,1.0,-117.45737160600608
6.096,0.9999999999999999,-117.83580105278261
6.104,1.0,-118.21395286087639
6.112,1.0,-118.59182780637254
6.12,1.0,-118.96942667783703
6.128,1.0,-119.34675027620207
6.136,0.9999999999999999,-119.72379941465186
6.144,0.9999999999999999,-120.10057491850849
6.152,1.0,-120.47707762511861
6.16,1.0,-120.85330838374023
6.168,1.0,-121.22926805542969
6.176,1.0,-121.60495751292959
6.184,1.0000000000000002,-121.98037764055667
6.192,1.0,-122.35552933409022
6.2,1.0,-122.73041350066089
6.208,1.0,-123.10503105864024
6.216,1.0,-123.47938293753008
6.224,0.9999999999999999,-123.85347007785296
6.232,1.0,-124.22729343104275
6.24,1.0,-124.60085395933564
6.248,1.0,-124.97415263566184
6.256,0.9999999999999998,-125.34719044353743
6.264,1.0,-125.7199683769572
6.272,0.9999999999999999,-126.0924874402875
6.28,1.0,-126.46474864815963
6.288,1.0,-126.83675302536427
6.296,0.9999999999999998,-127.20850160674561
6.304,0.9999999999999999,-127.5799954370968
6.312,1.0000000000000002,-127.95123557105514
6.32,1.0,-128.32222307299847
6.328,1.0,-128.69295901694184
6.336,0.9999999999999999,-129.06344448643452
6.344,0.9999999999999999,-129.43368057445775
6.352,1.0,-129.80366838332327
6.36,1.0,-130.1734090245718
6.368,0.9999999999999998,-130.5429036188727
6.376,1.0,-130.91215329592373
6.384,1.0,-131.28115919435177
6.392,1.0,-131.64992246161367
6.4,1.0,-132.01844425389805
6.408,1.0,-132.38672573602753
6.416,1.0,-132.75476808136136
6.424,1.0,-133.1225724716992
6.432,1.0,-133.4901400971846
6.44,1.0,-133.85747215620978
6.448,0.9999999999999999,-134.22456985532105
6.456,1.0,-134.591434409124
6.464,1.0,-134.95806704019023
6.472,0.9999999999999999,-135.32446897896423
6.48,0.9999999999999999,-135.6906414636707
6.4879999999999995,1.0,-136.05658574022277
6.496,1.0,-136.4223030621311
6.504,1.0,-136.78779469041228
6.5120000000000005,1.0,-137.1530618934999
6.52,1.0,-137.51810594715406
6.5280000000000005,1.0,-137.88292813437332
6.536,0.9999999999999999,-138.2475297453057
6.5440000000000005,1.0,-138.61191207716178
6.552,1.0,-138.97607643412692
6.5600000000000005,1.0,-139.34002412727537
6.568,0.9999999999999999,-139.7037564744841
6.5760000000000005,1.0,-140.06727480034792
6.584,1.0,-140.43058043609423
6.592,0.9999999999999999,-140.79367471949976
6.6,0.9999999999999999,-141.15655899480674
6.608,1.0,-141.51923461264002
6.616,0.9999999999999999,-141.88170292992518
6.624,1.0,-142.24396530980667
6.632,1.0,-142.60602312156695
6.64,0.9999999999999999,-142.96787774054607
6.648,1.0,-143.32953054806194
6.656,1.0,-143.69098293133104
6.664,0.9999999999999999,-144.05223628338993
6.672,1.0,-144.41329200301718
6.68,1.0,-144.77415149465617
6.688,1.0,-145.13481616833803
6.696,0.9999999999999998,-145.4952874396056
6.704,1.0,-145.85556672943775
6.712,1.0,-146.21565546417455
6.72,1.0,-146.57555507544254
6.728,1.0,-146.93526700008115
6.736,0.9999999999999999,-147.29479268006932
6.744,1.0,-147.6541335624528
6.752,0.9999999999999999,-148.0132910992721
6.76,1.0,-148.37226674749107
6.768,1.0,-148.73106196892573
6.776,1.0,-149.08967823017406
6.784,1.0,-149.44811700254616
6.792,1.0,-149.806379761995
6.8,1.0000000000000002,-150.16446798904784
6.808,1.0,-150.5223831687379
6.816,0.9999999999999999,-150.88012679053708
6.824,0.9999999999999999,-151.2377003482887
6.832,0.9999999999999999,-151.5951053401414
6.84,0.9999999999999999,-151.95234326848285
6.848,0.9999999999999999,-152.30941563987463
6.856,1.0,-152.6663239649874
6.864,1.0,-153.0230697585367
6.872,1.0,-153.37965453921905
6.88,0.9999999999999999,-153.73607982964884
6.888,1.0,-154.09234715629566
6.896,0.9999995108681525,-154.44845804942227
6.904,0.999998905337326,-154.8044140430228
6.912,0.9999983062798633,-155.16021667476176
6.92,0.9999977138859798,-155.51586748591336
6.928,0.9999971283388019,-155.87136802130158
6.936,0.9999965498144746,-156.2267198292405
6.944,0.9999959784822671,-156.58192446147527
6.952,0.9999954145046805,-156.93698347312346
6.96,0.9999948580375523,-157.29189842261715
6.968,0.9999943092301593,-157.64667087164526
6.976,0.9999937682253249,-158.00130238509644
6.984,0.9999932351595174,-158.35579453100254
6.992,0.9999927101629562,-158.71014888048234
7.0,0.99999219335971,-159.06436700768612
7.008,0.9999916848677995,-159.41845048974028
7.016,0.9999911847992959,-159.77240090669267
7.024,0.9999906932604204,-160.12621984145844
7.032,0.9999902103516423,-160.47990887976613
7.04,0.9999897361677754,-160.83346961010446
7.048,0.9999892707980771,-161.1869036236692
7.056,0.9999888143263412,-161.54021251431095
7.064,0.9999883668309948,-161.8933978784831
7.072,0.9999879283851916,-162.24646131519023
7.08,0.9999874990569065,-162.59940442593685
7.088,0.9999870789090264,-162.95222881467694
7.096,0.9999866679994437,-163.3049360877634
7.104,0.9999862663811464,-163.65752785389844
7.112,0.9999858741023084,-164.01000572408384
7.12,0.9999854912063801,-164.36237131157216
7.128,0.9999851177321751,-164.71462623181793
7.136,0.999984753713959,-165.06677210242947
7.144,0.9999843991815373,-165.41881054312103
7.152,0.9999840541603408,-165.7707431756653
7.16,0.99998371867151,-166.12257162384634
7.168,0.9999833927319827,-166.47429751341298
7.176,0.999983076354575,-166.82592247203237
7.184,0.999982769548066,-167.17744812924406
7.192,0.9999824723172791,-167.52887611641447
7.2,0.9999821846631662,-167.8802080666916
7.208,0.9999819065828833,-168.2314456149602
7.216,0.9999816380698767,-168.58259039779733
7.224,0.9999813791139573,-168.93364405342797
7.232,0.9999811297013814,-169.28460822168145
7.24,0.9999808898149279,-169.6354845439478
7.248,0.999980659433974,-169.98627466313462
7.256,0.9999804385345749,-170.33698022362427
7.264,0.9999802270895339,-170.68760287123135
7.272,0.9999800250684817,-171.03814425316054
7.28,0.9999798324379469,-171.38860601796466
7.288,0.9999796491614307,-171.7389898155031
7.296,0.9999794751994793,-172.08929729690055
7.304,0.9999793105097545,-172.43953011450617
7.312,0.9999791550471051,-172.7896899218526
7.32,0.9999790087636368,-173.13977837361594
7.328,0.9999788716087807,-173.48979712557525
7.336,0.9999787435293634,-173.83974783457307
7.344,0.9999786244696737,-174.18963215847552
7.352,0.9999785143715294,-174.5394517561333
7.36,0.9999784131743442,-174.88920828734257
7.368,0.9999783208151933,-175.2389034128059
7.376,0.9999782372288776,-175.58853879409418
7.384,0.9999781623479884,-175.93811609360807
7.392,0.9999780961029712,-176.28763697454002
7.4,0.999978038422186,-176.6371031008364
7.4079999999999995,0.9999779892319732,-176.98651613716012
7.416,0.9999779484567112,-177.33587774885314
7.4239999999999995,0.999977916018878,-177.68518960189925
7.432,0.9999778918391119,-178.03445336288755
7.4399999999999995,0.9999778758362701,-178.38367069897515
7.448,0.9999778679274871,-178.73284327785146
7.4559999999999995,0.9999778680282306,-179.08197276770105
7.464,0.9999778760523624,-179.43106083716842
7.4719999999999995,0.9999778919121908,-179.78010915532124
7.48,0.9999779155185283,179.87088060838445
7.4879999999999995,0.9999779467807468,179.52190678414064
7.496,0.9999779856068295,179.172967701822
7.504,0.9999780319034278,178.82406169102157
7.5120000000000005,0.9999780855759113,178.47518708108535
7.52,0.9999781465284212,178.12634220114762
7.5280000000000005,0.999978214663923,177.77752538016503
7.536,0.999978289884255,177.42873494695186
7.5440000000000005,0.9999783720901807,177.07996923021366
7.552,0.9999784611814366,176.73122655858222
7.5600000000000005,0.9999785570567825,176.38250526064908
7.568,0.9999786596140492,176.03380366500002
7.5760000000000005,0.9999787687501864,175.68512010024847
7.584,0.9999788843613094,175.33645289506967
7.5920000000000005,0.9999790063427454,174.98780037823386
7.6,0.9999791345890798,174.63916087864027
7.6080000000000005,0.9999792689942008,174.29053272534998
7.616,0.9999794094513441,173.9419142476199
7.6240000000000006,0.9999795558531359,173.59330377493507
7.632,0.999979708091638,173.2446996370428
7.640000000000001,0.9999798660583891,172.89610016398473
7.648,0.999980029644447,172.5475036861306
7.656000000000001,0.9999801987404296,172.1989085342104
7.664,0.9999803732365565,171.8503130393478
7.672,0.9999805530226895,171.50171553309227
7.68,0.999980737988371,171.15311434745226
7.688,0.9999809280228636,170.80450781492746
7.696,0.9999811230151895,170.45589426854158
7.704,0.9999813228541664,170.1072720418746
7.712,0.9999815274284467,169.75863946909553
7.72,0.9999817366265532,169.4099948849945
7.728,0.9999819503369153,169.06133662501546
7.736,0.9999821684479048,168.7126630252883
7.744,0.9999823908478709,168.36397242266133
7.752,0.9999826174251747,168.01526315473347
7.76,0.9999828480682232,167.66653355988672
7.768,0.999983082665502,167.31778197731816
7.776,0.9999833211056083,166.9690067470726
7.784,0.9999835632772848,166.6202062100745
7.792,0.9999838090694495,166.2713787081606
7.8,0.9999840583712258,165.92252258411185
7.808,0.9999843110719777,165.57363618168603
7.816,0.9999845670613343,165.2247178456499
7.824,0.9999848262292239,164.8757659218116
7.832,0.9999850884659011,164.526778757053
7.84,0.9999853536619748,164.17775469936214
7.848,0.9999856217084375,163.82869209786563
7.856,0.9999858924966925,163.47958930286117
7.864,0.9999861659185806,163.13044466585006
7.872,0.9999864418664071,162.7812565395698
7.88,0.999986720232967,162.4320232780266
7.888,0.9999870009115716,162.08274323652833
7.896,0.999987283796073,161.73341477171698
7.904,0.9999875687808885,161.3840362416017
7.912,0.9999878557610249,161.03460600559157
7.92,0.9999881446321024,160.6851224245286
7.928,0.9999884352903771,160.33558386072087
7.936,0.9999887276327638,159.98598867797554
7.944,0.9999890215568584,159.6363352416321
7.952,0.9999893169609598,159.28662191859584
7.96,0.9999896137440903,158.936847077371
7.968,0.9999899118060176,158.58700908809462
7.976,0.9999902110472738,158.23710632256984
7.984,0.9999905113691762,157.88713715429995
7.992,0.9999908126738464,157.53709995852205
8.0,0.9999911148642291,157.186993112241
8.008,0.9999914178441112,156.83681499426376
8.016,0.9999917215181395,156.48656398523332
8.024000000000001,0.999992025791838,156.1362384676633
8.032,0.9999923305716258,155.7858368259725
8.04,0.9999926357648334,155.4353574465191
8.048,0.9999929412797196,155.08479871763592
8.056000000000001,0.9999932470254868,154.73415902966522
8.064,0.9999935529122969,154.38343677499378
8.072,0.9999938588512862,154.03263034808808
8.08,0.9999941647545808,153.68173814552964
8.088000000000001,0.9999944705353097,153.33075856605092
8.096,0.9999947761076192,152.9796900105708
8.104,0.9999950813866867,152.62853088223045
8.112,0.9999953862887336,152.2772795864296
8.120000000000001,0.999995690731038,151.92593453086263
8.128,0.9999959946319467,151.57449412555545
8.136,0.9999962979108866,151.22295678290143
8.144,0.9999966004883782,150.87132091769885
8.152000000000001,0.9999969022860441,150.5195849471877
8.16,0.9999972032266216,150.16774729108707
8.168,0.9999975032339724,149.81580637163222
8.176,0.9999978022330924,149.46376061361252
8.184000000000001,0.9999981001501215,149.11160844440948
8.192,0.9999983969123527,148.75934829403445
8.2,0.9999986924482417,148.40697859516703
8.208,0.9999989866874139,148.0544977831936
8.216000000000001,0.9999992795606739,147.7019042962462
8.224,0.9999995710000125,147.34919657524134
8.232,0.9999998609386148,146.99637306391918
8.24,1.0,146.64343220888293
8.248000000000001,0.9999999999999998,146.2903724596388
8.256,0.9999999999999999,145.9371922686357
8.264,0.9999999999999999,145.5838900913053
8.272,1.0,145.23046438610265
8.280000000000001,0.9999999999999999,144.87691361454677
8.288,1.0,144.52323624126163
8.296,0.9999999999999999,144.1694307340172
8.304,1.0,143.81549556377078
8.312,1.0,143.46142920470936
8.32,0.9999999999999999,143.1072301342906
8.328,0.9999999999999999,142.75289683328594
8.336,1.0,142.39842778582258
8.344,1.0,142.0438214794267
8.352,0.9999999999999999,141.68907640506598
8.36,1.0,141.3341910571936
8.368,1.0,140.97916393379134
8.376,1.0,140.623993536414
8.384,0.9999999999999998,140.26867837023306
8.392,1.0,139.91321694408188
8.4,1.0,139.55760777049974
8.408,1.0,139.20184936577783
8.416,0.9999999999999999,138.84594025000376
8.424,1.0,138.48987894710805
8.432,0.9999999999999999,138.13366398490965
8.44,1.0,137.7772938951626
8.448,1.0,137.42076721360237
8.456,0.9999999999999999,137.06408247999323
8.464,1.0,136.70723823817505
8.472,1.0,136.35023303611135
8.48,0.9999999999999999,135.99306542593683
8.488,1.0,135.635733964006
8.496,0.9999999999999999,135.27823721094123
8.504,1.0,134.9205737316823
8.512,0.9999999999999998,134.562742095535
8.52,1.0,134.20474087622114
8.528,0.9999999999999999,133.84656865192804
8.536,1.0,133.4882240053592
8.544,1.0,133.12970552378428
8.552,1.0,132.77101179909064
8.56,0.9999999999999999,132.41214142783397
8.568,0.9999999999999999,132.05309301129031
8.576,1.0,131.69386515550764
8.584,1.0,131.33445647135844
8.592,0.9999999999999999,130.97486557459186
8.6,1.0,130.61509108588717
8.608,1.0,130.25513163090662
8.616,1.0,129.8949858403495
8.624,0.9999999999999998,129.5346523500055
8.632,1.0,129.17412980080985
8.64,1.0,128.8134168388972
8.648,1.0,128.4525121156575
8.656,1.0,128.09141428779046
8.664,0.9999999999999999,127.73012201736213
8.672,1.0,127.36863397186048
8.68,1.0,127.00694882425215
8.688,1.0,126.6450652530389
8.696,1.0,126.28298194231535
8.704,1.0,125.92069758182575
8.712,1.0,125.55821086702264
8.72,0.9999999999999999,125.19552049912434
8.728,1.0,124.83262518517425
8.736,0.9999999999999999,124.46952363809905
8.744,0.9999999999999999,124.10621457676879
8.752,1.0,123.74269672605571
8.76,1.0,123.37896881689504
8.768,0.9999999999999999,123.01502958634464
8.776,0.9999999999999999,122.65087777764644
8.784,1.0,122.28651214028682
8.792,1.0,121.92193143005852
8.8,1.0,121.55713440912211
8.808,1.0,121.19211984606848
8.815999999999999,1.0,120.82688651598082
8.824,1.0,120.4614332004978
8.832,1.0,120.09575868787671
8.84,1.0,119.72986177305697
8.847999999999999,1.0,119.36374125772385
8.856,1.0,118.99739595037265
8.864,1.0,118.63082466637371
8.872,1.0,118.26402622803685
8.879999999999999,1.0,117.89699946467665
8.888,1.0,117.52974321267808
8.896,1.0,117.1622563155626
8.904,1.0,116.7945376240542
8.911999999999999,0.9999999999999999,116.42658599614593
8.92,1.0,116.05840029716683
8.928,1.0,115.6899793998493
8.936,1.0,115.32132218439669
8.943999999999999,0.9999999999999999,114.95242753855084
8.952,1.0,114.58329435766035
8.96,0.9999999999999999,114.21392154474954
8.968,0.9999999999999999,113.84430801058686
8.975999999999999,1.0,113.47445267375393
8.984,0.9999999999999999,113.10435446071519
8.992,0.9999999999999999,112.73401230588773
9.0,1.0,112.36342515171123
9.008,1.0,111.99259194871806
9.016,1.0,111.62151165560417
9.024000000000001,1.0,111.25018323930007
9.032,1.0,110.87860567504197
9.04,1.0,110.50677794644301
9.048,1.0,110.13469904556526
9.056000000000001,1.0,109.76236797299181
9.064,0.9999999999999999,109.3897837378991
9.072,1.0,109.01694535812908
9.08,0.9999999999999999,108.64385186026239
9.088000000000001,0.9999999999999999,108.27050227969151
9.096,1.0,107.89689566069393
9.104,1.0,107.52303105650562
9.112,1.0,107.14890752939483
9.120000000000001,0.9999999999999999,106.77452415073655
9.128,1.0,106.39988000108642
9.136,1.0,106.02497417025508
9.144,0.9999999999999999,105.64980575738315
9.152000000000001,1.0,105.2743738710162
9.16,0.9999999999999999,104.8986776291797
9.168,1.0,104.52271615945433
9.176,1.0,104.14648859905147
9.184000000000001,0.9999999999999999,103.76999409488914
9.192,1.0,103.39323180366775
9.2,1.0,103.01620089194584
9.208,0.9999999999999999,102.6389005362167
9.216000000000001,0.9999999999999999,102.2613299229846
9.224,1.0,101.88348824884143
9.232,1.0,101.505374720543
9.24,1.0,101.1269885550861
9.248000000000001,0.9999999999999999,100.7483289797855
9.256,1.0,100.36939523235097
9.264,1.0,99.99018656096415
9.272,0.9999999999999999,99.61070222435603
9.280000000000001,1.0,99.23094149188444
9.288,0.9999999999999999,98.85090364361137
9.296,1.0,98.47058797038034
9.304,1.0,98.08999377389405
9.312000000000001,1.0,97.70912036679235
9.32,1.0,97.32796707272966
9.328,0.9999999999999999,96.94653322645263
9.336,1.0,96.56481817387804
9.344,1.0,96.1828212721709
9.352,0.9999999999999999,95.80054188982164
9.36,0.9999999999999999,95.41797940672465
9.368,1.0,95.03513321425541
9.376,1.0,94.65200271534898
9.384,1.0,94.26858732457704
9.392,1.0,93.88488646822645
9.4,1.0,93.50089958437614
9.408,0.9999999999999999,93.11662612297549
9.416,1.0,92.73206554592119
9.424,0.9999999999999999,92.34721732713548
9.432,0.9999999999999999,91.96208095264282
9.44,1.0,91.57665592064784
9.448,1.0000000000000002,91.19094174161195
9.456,1.0,90.80493793833101
9.464,0.9999999999999999,90.41864404601161
9.472,0.9999999999999999,90.03205961234848
9.48,0.9999999999999999,89.64518419760051
9.488,0.9999999999999999,89.25801737466786
9.496,1.0,88.87055872916747
9.504,0.9999999999999999,88.48280785950992
9.512,0.9999999999999999,88.09476437697451
9.52,1.0,87.70642790578562
9.528,1.0,87.31779808318745
9.536,0.9999999999999999,86.92887455951984
9.544,1.0,86.53965699829239
9.552,0.9999999999999999,86.1501450762599
9.56,0.9999999999999999,85.76033848349593
9.568,0.9999999999999999,85.3702369234675
9.576,1.0,84.97984011310815
9.584,1.0,84.589147782892
9.592,0.9999999999999999,84.19815967690609
9.6,1.0,83.80687555292367
9.608,1.0,83.41529518247597
9.616,0.9999999999999998,83.0234183509247
9.624,0.9999999999999999,82.63124485753288
9.632,1.0,82.23877451553665
9.64,0.9999999999999999,81.84600715221528
9.648,1.0,81.45294260896199
9.656,1.0,81.05958074135316
9.664,1.0,80.6659214192182
9.672,0.9999999999999999,80.27196452670769
9.68,1.0,79.87770996236237
9.688,1.0,79.48315763918022
9.696,1.0,79.08830748468436
9.704,0.9999999999999999,78.69315944098908
9.712,1.0,78.29771346486659
9.72,1.0,77.9019695278119
9.728,1.0,77.50592761610844
9.736,1.0,77.10958773089156
9.744,1.0000000000000002,76.71294988821312
9.752,1.0,76.3160141191036
9.76,1.0,75.91878046963531
9.768,0.9999999999999999,75.52124900098326
9.776,1.0,75.12341978948695
9.784,1.0,74.72529292670984
9.792,1.0,74.32686851949964
9.8,1.0,73.92814669004636
9.808,1.0,73.52912757594112
9.816,1.0,73.12981133023251
9.824,1.0,72.73019812148392
9.832,0.9999999999999999,72.33028813382835
9.84,1.0,71.93008156702395
9.847999999999999,0.9999999999999999,71.52957863650734
9.856,1.0,71.12877957344689
9.864,0.9999999999999999,70.7276846247952
9.872,1.0,70.32629405334013
9.879999999999999,0.9999999999999999,69.92460813775497
9.888,1.0,69.52262717264816
9.896,1.0,69.12035146861182
9.904,1.0,68.71778135226918
9.911999999999999,1.0,68.31491716632088
9.92,0.9999999999999999,67.9117592695907
9.928,0.9999999999999999,67.50830803707017
9.936,1.0,67.10456385996189
9.943999999999999,1.0,66.7005271457218
9.952,0.9999999999999999,66.29619831810056
9.96,1.0,65.8915778171841
9.968,1.0,65.48666609943248
9.975999999999999,0.9999999999999999,65.0814636377177
9.984,1.0,64.67597092136083
9.992,1.0,64.27018845616774
10.0,1.0,63.864116764463596
10.008,1.0,63.45775638512586
10.016,1.0,63.051107873616694
10.024000000000001,1.0,62.64417180201392
10.032,1.0,62.23694875904062
10.04,1.0,61.82943935009316
10.048,0.9999999999999999,61.421644197268584
10.056000000000001,1.0,61.0135639393905
10.064,1.0,60.605199232033556
10.072,1.0,60.19655074754619
10.08,1.0,59.78761917507278
10.088000000000001,1.0,59.3784052205742
10.096,1.0,58.9689096068468
10.104,1.0,58.55913307353973
10.112,1.0,58.14907637717158
10.120000000000001,1.0,57.738740291145255
10.128,1.0,57.32812560576133
10.136,0.9999999999999999,56.9172331282296
10.144,1.0,56.50606368267995
10.152000000000001,0.9999999999999998,56.094618110171375
