freq,mag,phase
6.0,0.999293602435474,17.39537140637667
6.005351424,0.9992255006911591,17.25287440023011
6.010702336,0.9992029999188687,17.110975449591674
6.01605376,0.9992274746516134,16.969076316531677
6.021404672,0.9992975118421,16.82647978113835
6.026756096,0.999408997958516,16.682566980841283
6.032107008,0.999555324853452,16.53688631798514
6.037458432,0.9997280210826348,16.388869757958762
6.042809344,0.9999168326834188,16.238318005194145
6.048160768,1.0001106211184623,16.08514965983576
6.05351168,1.0002980987117287,15.929192411305998
6.058863104,1.0004681554914843,15.770759469963226
6.064214016,1.0006107817188201,15.610075974666762
6.06956544,1.0007175511875337,15.447670727657949
6.074916352,1.0007822690912622,15.284024531615202
6.080267776,1.000800982165906,15.11972942957414
6.085618688,1.0007726321935173,14.9555050277008
6.090970112,1.0006988788016107,14.791982803980803
6.096321024,1.000583989207793,14.629733579124967
6.101672448,1.0004347136553209,14.469320442900282
6.10702336,1.0002598363197919,14.311143700457212
6.112374784,1.0000695110458995,14.155477241851933
6.117725696,0.9998749866132844,14.002539767059474
6.12307712,0.9996878267720548,13.852181995637475
6.128428032,0.9995188583248915,13.704340029966145
6.133779456,0.9993781512452474,13.558640899007793
6.139130368,0.999274189797375,13.414613248221464
6.144481792,0.9992127801684423,13.271743259450533
6.149832704,0.999197774567404,13.129378092547842
6.155184128,0.9992299885423819,12.986889313416285
6.16053504,0.9993076456919158,12.843645811695218
6.165886464,0.9994262645610045,12.698920849215602
6.171237376,0.9995786433368292,12.552352017331295
6.1765888,0.9997560329994752,12.403406476847465
6.181939712,0.9999478999242652,12.251885745883312
6.187291136,1.000142882102467,12.097580279923939
6.192642048,1.0003297433851497,11.940592024350021
6.197993472,1.0004972717317742,11.781125876848654
6.203344384,1.0006356055781873,11.619493454272462
6.208695808,1.0007367188116927,11.456173260098835
6.21404672,1.000794563707754,11.291691618517705
6.219398144,1.0008057902666823,11.126714399014892
6.224749056,1.000769677453011,10.96187865945996
6.23010048,1.000688226214574,10.797821140514964
6.235451392,1.000566323174568,10.635156513938359
6.240802816,1.0004111447537105,10.474405672822874
6.246153728,1.0002316103918318,10.316007971145472
6.251505152,1.0000383785762623,10.1601588924634
6.256856064,0.9998428305448841,10.006991875399338
6.262207488,0.999656489596915,9.856541149933937
6.2675584,0.9994901287622454,9.70847485340918
6.272909824,0.9993537296169014,9.562545620986104
6.278260736,0.9992554260676574,9.418210854957486
6.28361216,0.9992011200828967,9.274961787222432
6.288963072,0.9991935962747769,9.132095515331038
6.294314496,0.999233665435315,8.989003151277895
6.299665408,0.9993190012660569,8.844992082881912
6.305016832,0.9994444993986744,8.699478927166332
6.310367744,0.9996029251291907,8.551967163309593
6.315719168,0.9997847547193358,8.402037245301262
6.32107008,0.9999793490192175,8.249457356044395
6.326421504,1.000175359281509,8.094119869738176
6.331772416,1.000361239313799,7.936089482308436
6.33712384,1.000525977165816,7.7755991038157015
6.342474752,1.000659829245479,7.612944940774713
6.347826176,1.0007550435186408,7.448680524360342
6.353177088,1.000805972301364,7.283376093918998
6.358528512,1.00080960913354,7.1176772340193795
6.363879424,1.0007656105864782,6.952214659833378
6.369230848,1.0006765437912184,6.787666536472895
6.37458176,1.0005478415200941,6.624566891238307
6.379933184,1.0003867816192804,6.463531007256339
6.385284096,1.0002028121701605,6.304874498910001
6.39063552,1.000006882615088,6.148792386781792
6.395986432,0.9998104365483249,5.995479988584517
6.401337856,0.9996250519031604,5.844796016580433
6.406688768,0.9994616715027709,5.696532194857899
6.412040192,0.9993298504546247,5.55034849962376
6.417391104,0.9992375094067152,5.4057141585155
6.422742528,0.9991900655830062,5.26201112244062
6.42809344,0.999190272317362,5.118610061314957
6.433444864,0.9992382361562058,4.97487888661704
6.438795776,0.9993311048238133,4.830131178103256
6.4441472,0.9994635172252214,4.683762402531922
6.449498112,0.9996276908193721,4.53532269138531
6.454849536,0.999813799173508,4.384374395776411
6.460200448,1.00001104531493,4.230720007950885
6.465551872,1.0002077442153647,4.074318646736109
6.470902784,1.0003924424296953,3.915152897542771
6.476254208,1.0005540645890116,3.7536227167714045
6.48160512,1.0006833842196974,3.5899667168507245
6.486956544,1.000772589678186,3.4248413098417294
6.492307456,1.0008164381893159,3.2586701284969037
6.49765888,1.0008123906393276,3.0922360773062763
6.503009792,1.0007605673182518,2.926136586241483
6.508361216,1.0006640014528978,2.7610318180573667
6.513712128,1.000528379395066,2.5975637115716417
6.519063552,1.0003616716307437,2.436172883900022
6.524414464,1.0001735070957503,2.2772397274020553
6.529765888,0.9999751812824414,2.1209777688926406
6.535117312,0.9997780481731989,1.9674662788284667
6.540468224,0.9995940620587519,1.8165985582261572
6.545819648,0.9994336797083977,1.6680925419987989
6.55117056,0.9993067254487994,1.5215992502128965
6.556521984,0.999220570538257,1.3765937609039565
6.561872896,0.9991801909308363,1.2324283366931608
6.56722432,0.9991881804148822,1.0884739802334855
6.572575232,0.9992440105532606,0.9440498952732271
6.577926656,0.9993444328239618,0.7985556687862145
6.583277568,0.999483605520791,0.6512897269379645
6.588628992,0.9996533619142277,0.5018656195704952
6.593979904,0.9998435252159362,0.3498951313928615
6.599331328,1.0000432338593461,0.19517430654634418
6.60468224,1.0002403032992604,0.03763580644336937
6.610033664,1.000423574776672,-0.12256956180509099
6.615384576,1.0005819787964134,-0.28521130073748097
6.620736,1.0007064053334116,-0.44986983272448827
6.626086912,1.0007894254595031,-0.6159921636622069
6.631438336,1.0008261041799793,-0.7829556159598249
6.636789248,1.000814240278534,-0.9501414481988514
6.642140672,1.0007545730910101,-1.116840901211877
6.647491584,1.0006504821464104,-1.2824574816483927
6.652843008,1.0005081899737984,-1.4463557121317703
6.65819392,1.000335923768132,-1.608108396192664
6.663545344,1.0001438121012904,-1.7673118422886893
6.668896256,0.9999431368055822,-1.9238181756793085
6.67424768,0.9997457373775478,-2.077540788089674
6.679598592,0.999563190644005,-2.2286278467757596
6.684950016,0.9994062650718034,-2.3773754107792313
6.690300928,0.9992842518342704,-2.5241695511983706
6.695652352,0.9992042487003533,-2.6696114815541607
6.701003264,0.9991711104813461,-2.81426881353868
6.706354688,0.9991870093573911,-2.9587950910949665
6.7117056,0.9992507658868862,-3.1038989690788688
6.717057024,0.9993585792840419,-3.250287105119183
6.722407936,0.9995044870563148,-3.398416329867904
6.72775936,0.9996795525627684,-3.548842854680214
6.733110272,0.9998736172715287,-3.701902082443944
6.738461696,1.0000753911602835,-3.857726502279425
6.743812608,1.0002728068018683,-4.0163791427775895
6.749164032,1.000454496171589,-4.177713582383551
6.754514944,1.0006093974398858,-4.3414327161230695
6.759866368,1.0007287903238082,-4.5070764890925
6.76521728,1.000805352714157,-4.674144599234463
6.770568704,1.0008346945981956,-4.84196875344676
6.775919616,1.0008151028380743,-5.009885747514763
6.78127104,1.0007475072655956,-5.177251312623224
6.786621952,1.000636040019264,-5.343373727951564
6.791973376,1.0004871585182602,-5.5077072002922
6.797324288,1.0003095202496757,-5.669823751883973
6.802675712,1.0001136854747648,-5.829327175742545
6.808026624,0.9999109050864329,-5.986067199434001
6.813378048,0.999713392517,-6.140027744750589
6.81872896,0.9995326721452839,-6.291354894067996
6.824080384,0.9993792525756932,-6.440386020403483
6.829431296,0.9992623602234656,-6.587527390737334
6.83478272,0.9991889204745387,-6.733365932394622
6.840133632,0.9991631968178015,-6.878509737138637
6.845485056,0.999186792513283,-7.0237008949865665
6.850835968,0.9992583748465729,-7.169541186578754
6.856187392,0.9993737629703958,-7.316761434378695
6.861538304,0.9995260419338421,-7.4658651534735405
6.866889728,0.9997064715267635,-7.617334848600149
6.87224064,0.9999043145502828,-7.771461141385512
6.877592064,1.0001078874110148,-7.9284230254385655
6.882942976,1.0003053531447408,-8.088230641502925
6.8882944,1.0004850495795934,-8.250681462393525
6.893645312,1.0006364455855494,-8.415495275236571
6.898996736,1.0007504790297805,-8.58217581108588
6.904347648,1.0008205114557083,-8.750184625481223
6.909699072,1.0008424810922163,-8.918845924818983
6.915049984,1.0008149166003153,-9.087578659392772
6.920401408,1.0007395023083765,-9.255532810313419
6.92575232,1.00062075014774,-9.422205406602492
6.931103744,1.0004652762952706,-9.586977673282595
6.936454656,1.000282440489223,-9.749435586544731
6.94180608,1.000082912961753,-9.909237075218247
6.947156992,0.9998784135540257,-10.066215514137923
6.952508416,0.9996809239294796,-10.220422646780628
6.957859328,0.999502085738093,-10.372056757846389
6.963210752,0.9993525084511503,-10.521370297110002
6.968561664,0.9992410707973387,-10.668879438847103
6.973913088,0.9991742347058562,-10.815160603904241
6.979264,0.9991559746605826,-10.960881811491525
6.984615424,0.9991874511796955,-11.10672111109647
6.989966336,0.9992668965265773,-11.253334838671488
6.99531776,0.9993895107119882,-11.401434733112513
7.000668672,0.9995482580954017,-11.551531424026015
7.006020096,0.9997337856203624,-11.704026473358162
7.011371008,0.9999352778400652,-11.859254362486146
7.016722432,1.0001404557070284,-12.017405208069908
7.022073344,1.000337714484216,-12.178325805905763
7.027424768,1.0005153150455375,-12.341969109277063
7.03277568,1.000662721040555,-12.50786661264121
7.038127104,1.0007713365993316,-12.675639003808623
7.043478016,1.0008348493931014,-12.844600046729429
7.04882944,1.0008491460705042,-13.014132879971438
7.054180352,1.0008138145554746,-13.18355749462978
7.059531776,1.0007306691746654,-13.352218938533294
7.064882688,1.0006044447849862,-13.519415061612928
7.070234112,1.0004426387444703,-13.684632943244694
7.075585536,1.0002548048122337,-13.84745616392458
7.080936448,1.0000518871812019,-14.007544981054268
7.086287872,0.9998457087353996,-14.164835161934962
7.091638784,0.9996486037339467,-14.319301815491254
7.096990208,0.9994720488773521,-14.471186222531157
7.10234112,0.9993264102026075,-14.62083308579591
7.107692544,0.9992204566097934,-14.768728492184392
7.113043456,0.9991604145195286,-14.915517019719335
7.11839488,0.9991497245357643,-15.061799872895806
7.123745792,0.9991891975716201,-15.208341309512615
7.129097216,0.9992763914473278,-15.355777610904083
7.134448128,0.9994063117839411,-15.504744200921248
7.139799552,0.9995713669758655,-15.655855047017445
7.145150464,0.9997618514128693,-15.809464156272004
7.150501888,0.9999664864571618,-15.965837120102545
7.1558528,1.000173342327797,-16.125142426263988
7.161204224,1.0003701337817703,-16.287283490004363
7.166555136,1.0005454366591668,-16.45203981360841
7.17190656,1.0006886910716033,-16.61908564431546
7.177257472,1.0007916618625377,-16.78789426722765
7.182608896,1.0008482873524855,-16.957823453570455
7.187959808,1.0008551553960796,-17.128254434589113
7.193311232,1.0008117834086652,-17.298445018349053
7.198662144,1.0007207226615993,-17.467733510366426
7.204013568,1.0005873235750162,-17.635467034680012
7.20936448,1.0004193730898279,-17.801145479397647
7.214715904,1.0002266130000812,-17.964326881437596
7.220066816,1.0000203744338019,-18.124800198532895
7.22541824,0.9998129893753737,-18.282341307987203
7.230769152,0.9996163392655836,-18.437100364291446
7.236120576,0.9994422407977128,-18.58928888829844
7.241471488,0.9993008487380021,-18.739290894670443
7.246822912,0.9992006412617176,-18.88762394694486
7.252173824,0.9991474357040117,-19.034918958409506
7.257525248,0.999144377771321,-19.18181237284867
7.26287616,0.9991917520357949,-19.329082107864796
7.268227584,0.9992868850012782,-19.47736193545991
7.273578496,0.9994240449638125,-19.62726459724185
7.27892992,0.999595295513165,-19.779379001894803
7.284280832,0.9997905769888702,-19.934124792749778
7.289632256,0.999998302856782,-20.09164464405273
7.294983168,1.000206285431873,-20.252147211021157
7.300334592,1.0004024640065177,-20.41550844462596
7.305685504,1.0005750429047024,-20.581480711792008
7.311036928,1.000714247174132,-20.749635906550118
7.31638784,1.0008113367201381,-20.91951054346078
7.321739264,1.0008610193937897,-21.090443430227868
7.327090176,1.0008602193205234,-21.261728781222086
7.3324416,1.000808865355018,-21.43266558523812
7.337792512,1.0007099313590324,-21.602634483839367
7.343143936,1.0005694821644961,-21.770941786953557
7.348494848,1.0003953838242292,-21.937064892224956
7.353846272,1.0001979050213257,-22.100656320704434
7.359197184,0.9999887372057894,-22.261398160341205
7.364548608,0.9997800315465335,-22.41929578546132
7.36989952,0.9995842359875966,-22.57435091819731
7.375250944,0.999412766672476,-22.726875214935447
7.380601856,0.9992757957024299,-22.877233253461032
7.38595328,0.9991814572560037,-23.02603226394331
7.391304192,0.9991351278139672,-23.173837854942875
7.396655616,0.9991398625585991,-23.321425396406216
7.402006528,0.9991952757209323,-23.469404344629538
7.407357952,0.9992982448091455,-23.618539517299425
7.412708864,0.9994425345590161,-23.769470109220045
7.418060288,0.9996199036329988,-23.9226476465555
7.4234112,0.9998196698099712,-24.078488071283818
7.428762624,1.000030363185441,-24.23723554216136
7.434113536,1.0002395043721384,-24.398957021700834
7.43946496,1.0004347602664032,-24.563546044631945
7.444815872,1.0006045156050372,-24.73071815945074
7.450167296,1.0007390837442416,-24.9000525561657
7.455518208,1.0008303037605197,-25.070970266763574
7.460869632,1.00087292807309,-25.242882824421798
7.466220544,1.0008643935691108,-25.41502749631685
7.471571968,1.0008050464645228,-25.586757920624514
7.47692288,1.0006983693087386,-25.75739179266523
7.482274304,1.0005507803786642,-25.926239741708496
7.487625216,1.0003706343697052,-26.09288912036391
7.49297664,1.000168594724012,-26.256866659742453
7.498327552,0.9999565817997955,-26.417961771117245
7.503678976,0.9997469347349376,-26.576175621494066
7.509029888,0.9995521621358102,-26.731542626601264
7.514381312,0.9993836035155987,-26.8843939982199
7.519732224,0.9992511427587409,-27.035206486612214
7.525083648,0.999162845930104,-27.184425108168554
7.53043456,0.9991237241422715,-27.332856810833615
7.535785984,0.9991363275492537,-27.481077456159177
7.541136896,0.9991997171236172,-27.629879302523566
7.54648832,0.9993104115416475,-27.779923595855507
7.551839232,0.9994617711486772,-27.93180269066805
7.557190656,0.9996450614882453,-28.086092680700276
7.562541568,0.9998493923198951,-28.243132018462525
7.567892992,1.0000628077063713,-28.403065836713054
7.573243904,1.0002727228276924,-28.566048025030707
7.578595328,1.000466802516534,-28.73187204782855
7.58394624,1.0006336691971598,-28.900252201244612
7.589297664,1.0007635506535069,-29.070758817769615
7.594648576,1.0008486155403016,-29.242771796986545
7.6,1.0008840755932769,-29.4156727268823
7.605351424,1.0008676109162857,-29.58874286550156
7.610702336,1.000800340406796,-29.761253727378797
7.61605376,1.0006858989398797,-29.93252946832489
7.621404672,1.0005311892583937,-30.101983063114456
7.626756096,1.0003452302595521,-30.269051932059927
7.632107008,1.0001388810717577,-30.43345129167424
7.637458432,0.9999241461474521,-30.594917347602223
7.642809344,0.9997138581783306,-30.753422473053416
7.648160768,0.9995201628682571,-30.90919731734776
7.65351168,0.999354663022445,-31.062421893053358
7.658863104,0.999227146433481,-31.213601688967
7.664214016,0.9991449709352666,-31.363373288595366
7.66956544,0.9991131309224752,-31.51237251153513
7.674916352,0.9991334758797783,-31.661319777593064
7.680267776,0.9992050105132737,-31.810963882533414
7.685618688,0.9993234370246359,-31.961899025911297
7.690970112,0.9994817875820237,-32.11483364826594
7.696321024,0.9996709055993708,-32.27023651624156
7.701672448,0.9998795051929688,-32.42847620957009
7.70702336,1.0000955207899285,-32.58967969336446
7.712374784,1.000306010980968,-32.75392575226959
7.717725696,1.0004988409014908,-32.92100034083095
7.72307712,1.000662550423256,-33.09061046257206
7.728428032,1.000787551853858,-33.262272748139345
7.733779456,1.0008663680273093,-33.43538689712696
7.739130368,1.0008945382479908,-33.60929631635084
7.744481792,1.0008701694523108,-33.783248355032015
7.749832704,1.0007947011921412,-33.95657505568154
7.755184128,1.0006726887632416,-34.128505388967575
7.76053504,1.0005109920477937,-34.29855646519253
7.765886464,1.0003191691206421,-34.46611748697199
7.771237376,1.000108545107783,-34.63093124544579
7.7765888,0.9998914594536114,-34.792789938979375
7.781939712,0.9996806203609931,-34.95166536553696
7.787291136,0.9994884006264688,-35.10777279967079
7.792642048,0.9993261829754287,-35.26139564321152
7.797993472,0.9992035294195867,-35.41307195266511
7.803344384,0.9991276541749126,-35.56335530906263
7.808695808,0.9991031500455315,-35.71298784602397
7.81404672,0.9991316120016408,-35.8626704997645
7.819398144,0.9992110662723942,-36.01311369124949
7.824749056,0.9993373487769577,-36.16502016134495
7.83010048,0.9995024843300803,-36.31908685538746
7.835451392,0.999697226660444,-36.4756240671023
7.840802816,0.9999099932486228,-36.635036869999574
7.846153728,1.000128387680111,-36.797519891161386
7.851505152,1.0003393282510045,-36.96305512791606
7.856856064,1.0005306052109761,-37.131433208771334
7.862207488,1.0006908791982654,-37.30226819967368
7.8675584,1.0008108426360276,-37.475098870874476
7.872909824,1.0008832389481754,-37.64936789685239
7.878260736,1.0009039334835472,-37.8242674253632
7.88361216,1.0008716559551658,-37.9991601351681
7.888963072,1.0007882505548606,-38.17325451712335
7.894314496,1.000658409774844,-38.3459208795887
7.899665408,1.000489931800028,-38.516517519720175
7.905016832,1.0002924851036894,-38.68463261814146
7.910367744,1.000077880924662,-38.84983642234722
7.915719168,0.9998584035701844,-39.01208241779941
7.92107008,0.9996471944202953,-39.17133293862274
7.926421504,0.9994565934667912,-39.327809211949344
7.931772416,0.9992978570903355,-39.48184500474993
7.93712384,0.9991803841920025,-39.63398787906876
7.942474752,0.9991110700435644,-39.78485156549201
7.947826176,0.9990940524747086,-39.93512613943866
7.953177088,0.9991304159228642,-40.08559046327642
7.958528512,0.9992180436053318,-40.2369387284579
7.963879424,0.9993518270132833,-40.389861223281216
7.969230848,0.9995240119265576,-40.54494856784886
7.97458176,0.9997242687182513,-40.70268930097159
7.979933184,0.9999410845727283,-40.8633568930309
7.985284096,1.0001615324518938,-41.02716052616645
7.99063552,1.0003727081185942,-41.193978849597656
7.995986432,1.000562305596239,-41.36364124103416
8.001337856,1.00071897785561,-41.535771853798394
8.006688768,1.0008336812035639,-41.70982279840522
8.012040192,1.0008995597986976,-41.885185622743926
8.017391104,1.0009128721316207,-42.061121961236715
8.022742528,1.0008724947461407,-42.23690413209732
8.02809344,1.000780798791383,-42.41182673168403
8.033444864,1.0006435097610806,-42.585173813273116
8.038795776,1.0004682378466303,-42.75639107233063
8.0441472,1.000265262312695,-42.92498423310093
8.049498112,1.0000466683389393,-43.090657714172075
8.054849536,0.9998251402752908,-43.253306489643016
8.060200448,0.9996137507219506,-43.41294563497196
8.065551872,0.9994249832076856,-43.56979851143956
8.070902784,0.9992699391768205,-43.72429669799083
8.076254208,0.9991576813268899,-43.876921111623844
8.08160512,0.9990950570867363,-44.028404128682745
8.086956544,0.999085586751946,-44.17934348939075
8.092307456,0.9991300257181928,-44.33059653724055
8.09765888,0.9992258185136822,-44.482846571436475
8.103009792,0.9993671659316725,-44.6367912229648
8.108361216,0.9995460926498912,-44.793021725065174
8.113712128,0.9997518784984736,-44.95196905227796
8.119063552,0.9999724568558366,-45.11392554152076
8.124414464,1.0001948435077,-45.279010079797715
8.129765888,1.0004061925494991,-45.44718827027289
8.135117312,1.0005938198543007,-45.61816183531229
8.140468224,1.0007467404996446,-45.79157293022631
8.145819648,1.000856153545411,-45.9668552244509
