freq,mag,phase
6.0,1.0,45.028510349751855
6.008,0.9999999999999999,44.82583996501573
6.016,0.9999991841284729,44.623093367486916
6.024,0.9999974496949018,44.420270635328635
6.032,0.9999957436164152,44.21737184714478
6.04,0.9999940656770624,44.014397081981066
6.048,0.9999924156613484,43.81134641932622
6.056,0.9999907933542371,43.60821993911305
6.064,0.9999891985411564,43.40501772171964
6.072,0.9999876310080016,43.201739847970394
6.08,0.9999860905411404,42.9983863991373
6.088,0.999984576927416,42.7949574569409
6.096,0.9999830899541522,42.59145310355141
6.104,0.9999816294091565,42.38787342158996
6.112,0.9999801950807253,42.18421849412953
6.12,0.9999787867576473,41.980488404696096
6.128,0.9999774042292077,41.77668323726974
6.136,0.9999760472851922,41.572803076285645
6.144,0.9999747157158914,41.368848006635254
6.152,0.9999734093121038,41.16481811366732
6.16,0.9999721278651423,40.96071348318879
6.168,0.9999708711668341,40.75653420146615
6.176,0.999969639009529,40.55228035522617
6.184,0.9999684311861002,40.34795203165712
6.192,0.9999672474899511,40.14354931840975
6.2,0.9999660877150153,39.93907230359819
6.208,0.9999649516557646,39.734521075801176
6.216,0.9999638391072113,39.529895724062875
6.224,0.9999627498649103,39.325196337893914
6.232,0.9999616837249666,39.120423007272336
6.24,0.9999606404840358,38.91557582264479
6.248,0.99995961993933,38.71065487492717
6.256,0.9999586218886208,38.50566025550576
6.264,0.9999576461302437,38.30059205623825
6.272,0.9999566924631008,38.09545036945447
6.28,0.9999557606866663,37.890235287957495
6.288,0.9999548506009877,37.68494690502464
6.296,0.9999539620066932,37.479585314408034
6.304,0.9999530947049907,37.27415061033597
6.312,0.9999522484976766,37.06864288751341
6.32,0.9999514231871364,36.863062241123245
6.328,0.9999506185763478,36.657408766826855
6.336,0.9999498344688864,36.45168256076519
6.344,0.9999490706689291,36.2458837195596
6.352,0.9999483269812566,36.04001234031255
6.36,0.9999476032112571,35.83406852060867
6.368,0.9999468991649308,35.62805235851555
6.376,0.9999462146488939,35.42196395258439
6.384,0.9999455494703791,35.215803401851055
6.392,0.9999449034372426,35.00957080583681
6.4,0.9999442763579669,34.80326626454901
6.408,0.9999436680416631,34.59688987848202
6.416,0.9999430782980738,34.39044174861796
6.424,0.9999425069375796,34.18392197642749
6.432,0.9999419537711994,33.97733066387057
6.44,0.999941418610596,33.77066791339712
6.448,0.9999409012680777,33.563933827947984
6.456,0.9999404015566016,33.357128510955306
6.464,0.9999399192897811,33.15025206634378
6.472,0.9999394542818825,32.94330459853076
6.48,0.9999390063478341,32.73628621242744
6.4879999999999995,0.9999385753032259,32.52919701343932
6.496,0.9999381609643149,32.32203710746683
6.504,0.999937763148027,32.11480660090632
6.5120000000000005,0.9999373816719618,31.907505600650246
6.52,0.9999370163543941,31.7001342140883
6.5280000000000005,0.9999366670142766,31.49269254910772
6.536,0.9999363334712479,31.285180714094047
6.5440000000000005,0.9999360155456284,31.07759881793174
6.552,0.9999357130584288,30.869946970004783
6.5600000000000005,0.9999354258313511,30.66222528019715
6.568,0.999935153686792,30.454433858893708
6.5760000000000005,0.9999348964478447,30.246572816980375
6.584,0.9999346539383069,30.038642265845098
6.592,0.9999344259826752,29.83064231737809
6.6,0.9999342124061572,29.62257308397247
6.608,0.9999340130346672,29.41443467852492
6.616,0.9999338276948327,29.206227214435955
6.624,0.9999336562139999,28.99795080561066
6.632,0.9999334984202285,28.78960556645906
6.64,0.9999333541423028,28.581191611896646
6.648,0.9999332232097305,28.372709057344842
6.656,0.9999331054527464,28.164158018731367
6.664,0.9999330007023147,27.9555386124909
6.672,0.9999329087901316,27.746850955565236
6.68,0.9999328295486295,27.53809516540407
6.688,0.9999327628109786,27.329271359965002
6.696,0.9999327084110902,27.120379657714178
6.704,0.999932666183618,26.911420177626656
6.712,0.9999326359639613,26.702393039186788
6.72,0.9999326175882699,26.493298362388437
6.728,0.999932610893443,26.284136267735573
6.736,0.9999326157171341,26.074906876242387
6.744,0.9999326318977535,25.865610309433684
6.752,0.9999326592744694,25.656246689345224
6.76,0.9999326976872116,25.44681613852413
6.768,0.9999327469766746,25.23731878002882
6.776,0.9999328069843175,25.027754737429767
6.784,0.9999328775523694,24.818124134809242
6.792,0.9999329585238288,24.608427096762032
6.8,0.9999330497424688,24.39866374839541
6.808,0.9999331510528382,24.18883421532933
6.816,0.9999332623002629,23.97893862369681
6.824,0.9999333833308497,23.76897710014396
6.832,0.9999335139914879,23.55894977183029
6.84,0.99993365412985,23.3488567664288
6.848,0.999933803594399,23.13869821212609
6.856,0.9999339622343819,22.928474237622687
6.864,0.9999341298998411,22.71818497213294
6.872,0.9999343064416103,22.507830545385303
6.88,0.9999344917113193,22.297411087622365
6.888,0.999934685561395,22.08692672960089
6.896,0.9999348878450639,21.876377602592022
6.904,0.9999350984163532,21.66576383838123
6.912,0.999935317130095,21.455085569268316
6.92,0.9999355438419255,21.244342928067656
6.928,0.9999357784082891,21.033536048107887
6.936,0.9999360206864384,20.822665063232247
6.944,0.9999362705344375,20.611730107798333
6.952,0.9999365278111633,20.400731316678197
6.96,0.9999367923763076,20.189668825258174
6.968,0.9999370640903783,19.978542769438974
6.976,0.9999373428147011,19.7673532856355
6.984,0.9999376284114222,19.55610051077686
6.992,0.9999379207435092,19.344784582306136
7.0,0.9999382196747517,19.133405638180445
7.008,0.9999385250697657,18.921963816870583
7.016,0.9999388367939928,18.710459257361137
7.024,0.9999391547137021,18.49889209915012
7.032,0.9999394786959933,18.28726248224886
7.04,0.9999398086087958,18.07557054718191
7.048,0.999940144320872,17.863816434986667
7.056,0.999940485701819,17.652000287213337
7.064,0.9999408326220667,17.440122245924503
7.072,0.9999411849528842,17.228182453695048
7.08,0.9999415425663772,17.016181053611838
7.088,0.9999419053354908,16.804118189273396
7.096,0.9999422731340112,16.59199400478965
7.104,0.9999426458365664,16.379808644781644
7.112,0.9999430233186263,16.167562254381036
7.12,0.9999434054565063,15.955254979230151
7.128,0.9999437921273667,15.742886965481167
7.136,0.999944183209214,15.530458359796048
7.144,0.9999445785809026,15.317969309346038
7.152,0.9999449781221359,15.105419961811279
7.16,0.9999453817134665,14.892810465380308
7.168,0.9999457892362978,14.68014096874988
7.176,0.9999462005728851,14.467411621124176
7.184,0.9999466156063356,14.254622572214592
7.192,0.9999470342206112,14.041773972239112
7.2,0.999947456300527,13.828865971921951
7.208,0.9999478817317538,13.615898722492833
7.216,0.9999483104008183,13.402872375686657
7.224,0.9999487421951045,13.189787083742868
7.232,0.999949177002853,12.976642999404861
7.24,0.9999496147131638,12.763440275919477
7.248,0.9999500552159946,12.550179067036353
7.256,0.9999504984021637,12.336859527007316
7.264,0.9999509441633488,12.123481810585817
7.272,0.999951392392089,11.91004607302616
7.28,0.9999518429817844,11.69655247008299
7.288,0.9999522958266969,11.483001158010511
7.296,0.9999527508219511,11.269392293561825
7.304,0.9999532078635334,11.055726033988226
7.312,0.9999536668482946,10.842002537038484
7.32,0.9999541276739479,10.628221960958077
7.328,0.9999545902390717,10.414384464488442
7.336,0.9999550544431073,10.200490206866201
7.344,0.9999555201863615,9.986539347822413
7.352,0.9999559873700051,9.772532047581644
7.36,0.9999564558960752,9.558468466861253
7.368,0.9999569256674717,9.34434876687054
7.376,0.9999573965879622,9.130173109309824
7.384,0.9999578685621788,8.915941656369634
7.392,0.9999583414956189,8.701654570729731
7.4,0.9999588152946457,8.487312015558338
7.4079999999999995,0.9999592898664879,8.272914154511051
7.416,0.9999597651192396,8.05846115172996
7.4239999999999995,0.9999602409618614,7.843953171842842
7.432,0.999960717304178,7.629390379961811
7.4399999999999995,0.9999611940568804,7.414772941682791
7.448,0.9999616711315241,7.200101023084083
7.4559999999999995,0.99996214844053,6.985374790725662
7.464,0.9999626258971839,6.770594411647871
7.4719999999999995,0.9999631034156355,6.555760053370581
7.48,0.9999635809108997,6.3408718838919
7.4879999999999995,0.9999640582988544,6.125930071687332
7.496,0.9999645354962419,5.910934785708322
7.504,0.9999650124206665,5.695886195381535
7.5120000000000005,0.9999654889905968,5.480784470607282
7.52,0.9999659651253625,5.2656297817587605
7.5280000000000005,0.9999664407451561,5.050422299680469
7.536,0.9999669157710305,4.835162195687447
7.5440000000000005,0.9999673901249001,4.619849641563584
7.552,0.9999678637295386,4.404484809560852
7.5600000000000005,0.9999683365085806,4.189067872397631
7.568,0.9999688083865185,3.9735990032578066
7.5760000000000005,0.9999692792887034,3.758078375789152
7.584,0.9999697491413434,3.542506164102376
7.5920000000000005,0.9999702178715043,3.326882542769388
7.6,0.9999706854071069,3.1112076868224436
7.6080000000000005,0.9999711516769275,2.895481771752285
7.616,0.9999716166105973,2.679704973507236
7.6240000000000006,0.9999720801385996,2.4638774684913853
7.632,0.9999725421922716,2.2479994335635944
7.640000000000001,0.999973002703801,2.0320710460356746
7.648,0.9999734616062264,1.8160924836713124
7.656000000000001,0.9999739188334361,1.600063924684267
7.664,0.9999743743201666,1.383985547737239
7.672,0.9999748280020018,1.1678575319400384
7.68,0.9999752798153723,0.9516800568483358
7.688,0.9999757296975531,0.7354533024620084
7.696,0.9999761775866636,0.5191774492236245
7.704,0.9999766234216659,0.30285267801687576
7.712,0.9999770671423633,0.08647917016499534
7.72,0.9999775086893996,-0.12994289257082073
7.728,0.9999779480042572,-0.34641332799304886
7.736,0.9999783850292562,-0.5629319534694739
7.744,0.9999788197075525,-0.779498585934803
7.752,0.9999792519831373,-0.9961130418923737
7.76,0.9999796818008344,-1.2127751374158235
7.768,0.9999801091063001,-1.4294846881507632
7.776,0.9999805338460201,-1.6462415093165323
7.784,0.9999809559673097,-1.863045415707922
7.792,0.9999813754183109,-2.079896221696913
7.8,0.9999817921479912,-2.296793741234466
7.808,0.9999822061061424,-2.5137377878522895
7.816,0.9999826172433777,-2.7307281746646654
7.824,0.9999830255111322,-2.947764714370238
7.832,0.9999834308616584,-3.164847219253891
7.84,0.9999838332480272,-3.381975501188563
7.848,0.9999842326241234,-3.5991493716371474
7.856,0.999984628944646,-3.816368641654376
7.864,0.9999850221651055,-4.033633121888708
7.872,0.9999854122418217,-4.250942622584278
7.88,0.9999857991319228,-4.468296953582812
7.888,0.9999861827933421,-4.685695924325607
7.896,0.9999865631848174,-4.903139343855485
7.904,0.9999869402658874,-5.120627020818795
7.912,0.9999873139968918,-5.338158763467409
7.92,0.9999876843389667,-5.55573437966077
7.928,0.9999880512540447,-5.773353676867898
7.936,0.9999884147048511,-5.991016462169481
7.944,0.9999887746549039,-6.208722542259919
7.952,0.9999891310685082,-6.426471723449442
7.96,0.9999894839107576,-6.644263811666203
7.968,0.9999898331475296,-6.862098612458399
7.976,0.9999901787454847,-7.079975930996421
7.984,0.9999905206720623,-7.297895572075007
7.992,0.9999908588954807,-7.515857340115415
8.0,0.9999911933847331,-7.733861039167606
8.008,0.9999915241095854,-7.951906472912449
8.016,0.9999918510405745,-8.169993444664028
8.024000000000001,0.999992174149005,-8.3881217573717
8.032,0.9999924934069477,-8.606291213622445
8.04,0.9999928087872361,-8.824501615643248
8.048,0.9999931202634644,-9.042752765303284
8.056000000000001,0.9999934278099848,-9.261044464116122
8.064,0.9999937314019052,-9.47937651324215
8.072,0.9999940310150861,-9.69774871349099
8.08,0.9999943266261386,-9.916160865323773
8.088000000000001,0.9999946182124209,-10.134612768855401
8.096,0.9999949057520364,-10.353104223857015
8.104,0.9999951892238313,-10.57163502975851
8.112,0.9999954686073897,-10.79020498565084
8.120000000000001,0.9999957438830339,-11.008813890288348
8.128,0.9999960150318197,-11.227461542091314
8.136,0.999996282035534,-11.446147739148516
8.144,0.9999965448766918,-11.6648722792196
8.152000000000001,0.9999968035385338,-11.883634959737481
8.16,0.9999970580050231,-12.102435577810944
8.168,0.9999973082608428,-12.321273930227262
8.176,0.9999975542913928,-12.540149813454638
8.184000000000001,0.9999977960827864,-12.759063023644654
8.192,0.9999980336218484,-12.97801335663494
8.2,0.999998266896111,-13.197000607951848
8.208,0.9999984958938114,-13.416024572812972
8.216000000000001,0.9999987206038894,-13.635085046129612
8.224,0.9999989410159829,-13.85418182250956
8.232,0.9999991571204259,-14.07331469625979
8.24,0.9999993689082449,-14.292483461389029
8.248000000000001,0.9999995763711568,-14.51168791161034
8.256,0.9999997795015638,-14.730927840343895
8.264,0.9999999782925532,-14.950203040719744
8.272,1.0,-15.169513305580496
8.280000000000001,1.0,-15.388858427483875
8.288,1.0,-15.608238198705562
8.296,1.0,-15.827652411242118
8.304,0.9999999999999999,-16.047100856813575
8.312,1.0,-16.26658332686611
8.32,1.0,-16.486099612575163
8.328,1.0,-16.705649504847848
8.336,1.0,-16.9252327943262
8.344,1.0,-17.14484927138955
8.352,0.9999999999999999,-17.364498726157862
8.36,1.0,-17.5841809484941
8.368,1.0,-17.80389572800755
8.376,0.9999999999999999,-18.023642854056284
8.384,1.0,-18.243422115750498
8.392,1.0,-18.463233301954947
8.4,1.0,-18.68307620129232
8.408,1.0,-18.902950602145797
8.416,0.9999999999999999,-19.122856292662327
8.424,0.9999999999999999,-19.342793060755223
8.432,1.0,-19.562760694107535
8.44,0.9999999999999999,-19.782758980174627
8.448,1.0,-20.002787706187565
8.456,1.0,-20.222846659155714
8.464,0.9999999999999999,-20.44293562587016
8.472,1.0,-20.66305439290636
8.48,1.0,-20.883202746627518
8.488,1.0,-21.103380473187283
8.496,0.9999999999999999,-21.32358735853321
8.504,1.0,-21.543823188409394
8.512,0.9999999999999999,-21.76408774835996
8.52,1.0,-21.984380823731755
8.528,0.9999999999999999,-22.204702199677854
8.536,0.9999999999999999,-22.425051661160264
8.544,1.0,-22.645428992953416
8.552,0.9999999999999998,-22.865833979646933
8.56,0.9999999999999998,-23.086266405649123
8.568,1.0,-23.30672605518974
8.576,0.9999999999999999,-23.527212712323553
8.584,0.9999999999999999,-23.74772616093308
8.592,1.0,-23.968266184732173
8.6,0.9999999999999999,-24.188832567268793
8.608,0.9999999999999999,-24.409425091928576
8.616,0.9999999999999999,-24.630043541937653
8.624,1.0,-24.85068770036623
8.632,1.0,-25.071357350131397
8.64,1.0,-25.29205227400075
8.648,0.9999999999999999,-25.512772254595184
8.656,1.0,-25.733517074392566
8.664,1.0,-25.95428651573052
8.672,1.0,-26.17508036081009
8.68,0.9999999999999999,-26.39589839169856
8.688,1.0,-26.616740390333117
8.696,1.0,-26.837606138523714
8.704,1.0,-27.058495417956706
8.712,1.0,-27.27940801019772
8.72,1.0,-27.500343696695314
8.728,1.0,-27.721302258783847
8.736,1.0,-27.942283477687173
8.744,1.0,-28.163287134521465
8.752,1.0,-28.384313010298946
8.76,1.0,-28.605360885930715
8.768,1.0,-28.82643054223049
8.776,0.9999999999999999,-29.04752175991742
8.784,0.9999999999999999,-29.26863431961982
8.792,0.9999999999999999,-29.489768001878044
8.8,0.9999999999999999,-29.710922587148133
8.808,0.9999999999999999,-29.932097855804752
8.815999999999999,1.0,-30.153293588144777
8.824,1.0,-30.374509564390465
8.832,0.9999999999999999,-30.59574556469256
8.84,1.0,-30.817001369133813
8.847999999999999,1.0,-31.03827675773216
8.856,1.0,-31.259571510444065
8.864,1.0,-31.48088540716759
8.872,1.0,-31.702218227745817
8.879999999999999,0.9999999999999999,-31.92356975197013
8.888,1.0,-32.14493975958347
8.896,0.9999999999999999,-32.366328030283356
8.904,1.0,-32.58773434372536
8.911999999999999,1.0,-32.80915847952635
8.92,1.0,-33.03060021726764
8.928,0.9999999999999999,-33.252059336498085
8.936,1.0,-33.47353561673746
8.943999999999999,1.0,-33.695028837479654
8.952,1.0,-33.91653877819585
8.96,1.0,-34.138065218337566
8.968,0.9999999999999999,-34.359607937339874
8.975999999999999,0.9999999999999999,-34.58116671462475
8.984,1.0,-34.80274132960403
8.992,0.9999999999999998,-35.02433156168247
9.0,0.9999999999999999,-35.24593719026097
9.008,1.0,-35.4675579947397
9.016,1.0,-35.68919375452116
9.024000000000001,0.9999999999999999,-35.910844249013145
9.032,1.0,-36.132509257631796
9.04,0.9999999812945602,-36.3541885598048
9.048,0.9999998192510816,-36.575881934974284
9.056000000000001,0.9999996550898164,-36.79758916259972
9.064,0.9999994888609194,-37.019310022160944
9.072,0.9999993206152629,-37.24104429316122
9.08,0.999999150404454,-37.462791755130056
9.088000000000001,0.9999989782808564,-37.68455218762604
9.096,0.9999988042976129,-37.906325370239784
9.104,0.9999986285086697,-38.12811108259687
9.112,0.9999984509688018,-38.3499091043606
9.120000000000001,0.9999982717336402,-38.57171921523465
9.128,0.999998090859703,-38.793541194966025
9.136,0.9999979084044257,-39.01537482334782
9.144,0.9999977244261933,-39.23721988022194
9.152000000000001,0.9999975389843808,-39.45907614548163
9.16,0.999997352139387,-39.68094339907427
9.168,0.9999971639526773,-39.902821421004155
9.176,0.9999969744868288,-40.12470999133493
9.184000000000001,0.9999967838055739,-40.34660889019222
9.192,0.9999965919738548,-40.568517897766185
9.2,0.9999963990578723,-40.79043679431423
9.208,0.9999962051251456,-41.012365360163514
9.216000000000001,0.999996010244572,-41.23430337571319
9.224,0.9999958144864924,-41.45625062143715
9.232,0.9999956179227599,-41.67820687788664
9.24,0.9999954206268153,-41.90017192569248
9.248000000000001,0.9999952226737642,-42.122145545567605
9.256,0.999995024140463,-42.34412751830957
9.264,0.999994825105609,-42.566117624803155
9.272,0.9999946256498359,-42.78811564602275
9.280000000000001,0.999994425855817,-43.010121363034784
9.288,0.9999942258083766,-43.23213455700039
9.296,0.9999940255946065,-43.45415500917814
9.304,0.9999938253039903,-43.676182500926515
9.312000000000001,0.9999936250285408,-43.8982168137066
9.32,0.9999934248629411,-44.12025772908495
9.328,0.9999932249046991,-44.34230502873665
9.336,0.9999930252543117,-44.564358494448264
9.344,0.99999282601544,-44.786417908120804
9.352,0.9999926272950976,-45.00848305177356
9.36,0.9999924292038507,-45.23055370754722
9.368,0.9999922318560339,-45.45262965770812
9.376,0.9999920353699788,-45.67471068465202
9.384,0.9999918398682609,-45.89679657090893
9.392,0.9999916454779628,-46.11888709914758
9.4,0.9999914523309542,-46.340982052181104
9.408,0.9999912605641958,-46.56308121297252
9.416,0.9999910703200583,-46.785184364641545
9.424,0.99999088174667,-47.007291290471336
9.432,0.9999906949982837,-47.22940177391672
9.44,0.9999905102356722,-47.451515598612716
9.448,0.9999903276265498,-47.673632548384674
9.456,0.9999901473460234,-47.89575240725893
9.464,0.999989969577075,-48.11787495947564
9.472,0.9999897945110751,-48.33999998950207
9.48,0.9999896223483354,-48.56212728204876
9.488,0.9999894532986932,-48.784256622086694
9.496,0.9999892875821396,-49.00638779486743
9.504,0.999989125429486,-49.22852058594515
9.512,0.9999889670830746,-49.450654781202246
9.52,0.9999888127975355,-49.672790166877405
9.528,0.9999886628405888,-49.89492652959828
9.536,0.9999885174938984,-50.11706365641736
9.544,0.9999883770539723,-50.33920133485353
9.552,0.9999882418331199,-50.561339352938134
9.56,0.9999881121604557,-50.78347749926773
9.568,0.99998798838296,-51.00561556306309
9.576,0.9999878708665881,-51.22775333423635
9.584,0.9999877599974294,-51.44989060346634
9.592,0.999987656182916,-51.67202716228417
9.6,0.999987559853069,-51.89416280316889
9.608,0.9999874714617828,-52.11629731965642
9.616,0.9999873914881352,-52.33843050646108
9.624,0.9999873204377113,-52.56056215961344
9.632,0.9999872588439246,-52.78269207661429
9.64,0.9999872072693186,-53.004820056608594
9.648,0.9999871663068186,-53.22694590057946
9.656,0.9999871365809068,-53.449069411566626
9.664,0.9999871187486766,-53.67119039490955
9.672,0.9999871135007216,-53.89330865851983
9.68,0.9999871215617991,-54.11542401318349
9.688,0.9999871436911945,-54.337536272897836
9.696,0.9999871806827053,-54.55964525524354
9.704,0.9999872333641388,-54.781750781796354
9.712,0.9999873025962029,-55.00385267857881
9.72,0.9999873892706491,-55.225950776555806
