freq,mag,phase
6.0,0.9999938978491343,66.22377794742061
6.008,0.999994068112669,66.0530648597592
6.016,0.9999942334335136,65.88227897267703
6.024,0.999994393933759,65.71142019898744
6.032,0.9999945497336534,65.54048845177093
6.04,0.9999947009516162,65.36948364437613
6.048,0.9999948477042514,65.19840569042101
6.056,0.999994990106361,65.027254503794
6.064,0.9999951282709579,64.85602999865499
6.072,0.9999952623092813,64.68473208943661
6.08,0.9999953923308088,64.5133606908452
6.088,0.9999955184432693,64.34191571786195
6.096,0.9999956407526588,64.17039708574406
6.104,0.9999957593632517,63.99880471002577
6.112,0.9999958743776157,63.827138506519496
6.12,0.9999959858966244,63.65539839131688
6.128,0.9999960940194716,63.48358428078997
6.136,0.9999961988436834,63.31169609159218
6.144,0.999996300465134,63.13973374065952
6.152,0.9999963989780566,62.9676971452116
6.16,0.9999964944750582,62.79558622275268
6.168,0.9999965870471331,62.62340089107282
6.176,0.9999966767836754,62.451141068248944
6.184,0.9999967637724938,62.27880667264587
6.192,0.9999968480998235,62.10639762291744
6.2,0.9999969298503405,61.933913838007555
6.208,0.9999970091071745,61.76135523715121
6.216,0.9999970859519226,61.58872173987561
6.224,0.9999971604646622,61.41601326600127
6.232,0.999997232723965,61.24322973564291
6.24,0.9999973028069091,61.07037106921071
6.248,0.9999973707890935,60.897437187411214
6.256,0.9999974367446508,60.724428011248484
6.264,0.9999975007462603,60.551343462025024
6.272,0.9999975628651611,60.37818346134296
6.28,0.9999976231711667,60.204947931104996
6.288,0.9999976817326751,60.03163679351547
6.296,0.9999977386166863,59.85824997108142
6.304,0.999997793888811,59.68478738661356
6.312,0.9999978476132871,59.511248963227374
6.32,0.9999978998529909,59.33763462434406
6.328,0.9999979506694509,59.16394429369168
6.336,0.9999980001228608,58.99017789530605
6.344,0.9999980482720919,58.81633535353184
6.352,0.9999980951747077,58.64241659302353
6.36,0.9999981408869753,58.468421538746504
6.368,0.9999981854638783,58.29435011597805
6.376,0.9999982289591319,58.12020225030821
6.384,0.9999982714251928,57.945977867641
6.392,0.9999983129132746,57.77167689419528
6.4,0.9999983534733591,57.59729925650584
6.408,0.9999983931542101,57.42284488142427
6.416,0.9999984320033856,57.248313696120064
6.424,0.9999984700672514,57.073705628081576
6.432,0.9999985073909925,56.89902060511696
6.44,0.9999985440186273,56.72425855535527
6.448,0.9999985799930198,56.54941940724728
6.456,0.9999986153558913,56.37450308956661
6.464,0.9999986501478351,56.19950953141059
6.472,0.9999986844083275,56.02443866220131
6.48,0.9999987181757408,55.84929041168652
6.4879999999999995,0.9999987514873562,55.67406470994065
6.496,0.9999987843793766,55.498761487365705
6.504,0.9999988168869373,55.323380674692366
6.5120000000000005,0.9999988490441218,55.14792220298073
6.52,0.9999988808839706,54.97238600362147
6.5280000000000005,0.9999989124384967,54.79677200833658
6.536,0.9999989437386958,54.6210801491806
6.5440000000000005,0.9999989748145599,54.445310358541185
6.552,0.9999990056950894,54.26946256914044
6.5600000000000005,0.9999990364083052,54.09353671403551
6.568,0.9999990669812612,53.91753272661979
6.5760000000000005,0.999999097440056,53.74145054062362
6.584,0.9999991278098461,53.565290090115425
6.592,0.999999158114857,53.38905130950247
6.6,0.9999991883783966,53.21273413353184
6.608,0.9999992186228657,53.03633849729138
6.616,0.9999992488697712,52.859864336210606
6.624,0.9999992791397384,52.683311586061556
6.632,0.9999993094525218,52.50668018295976
6.64,0.9999993398270177,52.32997006336509
6.648,0.9999993702812771,52.15318116408273
6.656,0.9999994008325154,51.97631342226398
6.664,0.9999994314971264,51.79936677540722
6.672,0.9999994622906926,51.6223411613588
6.68,0.9999994932279984,51.44523651831384
6.688,0.9999995243230402,51.26805278481722
6.696,0.9999995555890394,51.09078989976438
6.704,0.9999995870384536,50.91344780240223
6.712,0.9999996186829876,50.73602643233006
6.72,0.9999996505336066,50.55852572950028
6.728,0.9999996826005463,50.380945634219444
6.736,0.9999997148933245,50.20328608714897
6.744,0.9999997474207533,50.025547029306125
6.752,0.9999997801909497,49.84772840206476
6.76,0.9999998132113482,49.669830147156226
6.768,0.9999998464887103,49.49185220667025
6.776,0.9999998800291378,49.31379452305566
6.784,0.999999913838082,49.13565703912137
6.792,0.9999999479203567,48.957439698037085
6.8,0.9999999822801485,48.77914244333423
6.808,1.0,48.600765218906744
6.816,1.0,48.42230796901188
6.824,1.0,48.24377063827101
6.832,0.9999999999999999,48.065153171670545
6.84,1.0,47.88645551456262
6.848,1.0,47.70767761266601
6.856,1.0,47.52881941206684
6.864,1.0,47.34988085921945
6.872,1.0,47.17086190094719
6.88,0.9999999999999999,46.99176248444318
6.888,1.0,46.81258255727111
6.896,0.9999999999999998,46.633322067366045
6.904,1.0,46.453980963035214
6.912,1.0,46.27455919295871
6.92,1.0,46.09505670619042
6.928,1.0,45.9154734521586
6.936,1.0,45.735809380666794
6.944,1.0,45.55606444189452
6.952,1.0,45.37623858639805
6.96,1.0,45.196331765111196
6.968,1.0,45.016343929345986
6.976,1.0,44.836275030793466
6.984,1.0,44.656125021524424
6.992,1.0,44.47589385399017
7.0,1.0,44.29558148102317
7.008,1.0,44.11518785583788
7.016,0.9999999999999999,43.93471293203141
7.024,1.0,43.754156663584276
7.032,1.0,43.5735190048611
7.04,0.9999999999999999,43.39279991061132
7.048,0.9999999999999999,43.21199933596993
7.056,0.9999999999999999,43.03111723645815
7.064,0.9999999999999999,42.85015356798411
7.072,1.0,42.66910828684364
7.08,1.0,42.487981349720826
7.088,1.0,42.30677271368882
7.096,0.9999999999999999,42.125482336210474
7.104,1.0000000000000002,41.94411017513897
7.112,1.0,41.76265618871857
7.12,1.0,41.581120335585275
7.128,1.0000000000000002,41.39950257476746
7.136,1.0,41.21780286568654
7.144,1.0,41.03602116815765
7.152,1.0,40.85415744239028
7.16,1.0,40.67221164898892
7.168,1.0,40.49018374895375
7.176,1.0,40.30807370368122
7.184,1.0,40.12588147496467
7.192,1.0,39.94360702499506
7.2,1.0,39.76125031636153
7.208,1.0,39.57881131205196
7.216,0.9999999999999999,39.396289975453726
7.224,1.0,39.2136862703542
7.232,1.0,39.03100016094143
7.24,1.0,38.84823161180468
7.248,1.0,38.665380587935054
7.256,0.9999999999999998,38.482447054726144
7.264,1.0,38.299430977974524
7.272,1.0,38.11633232388039
7.28,1.0,37.93315105904816
7.288,1.0,37.749887150487
7.296,1.0,37.56654056561141
7.304,0.9999999999999999,37.38311127224183
7.312,1.0,37.1995992386051
7.32,1.0,37.01600443333514
7.328,1.0,36.83232682547346
7.336,0.9999999999999999,36.64856638446963
7.344,1.0,36.46472308018196
7.352,1.0,36.280796882877866
7.36,0.9999999999999999,36.09678776323462
7.368,1.0,35.91269569233963
7.376,0.9999999999999999,35.72852064169119
7.384,1.0,35.54426258319882
7.392,1.0,35.35992148918393
7.4,1.0,35.175497332380175
7.4079999999999995,1.0,34.99099008593411
7.416,1.0,34.80639972340551
7.4239999999999995,0.9999999999999999,34.62172621876812
7.432,1.0,34.4369695464098
7.4399999999999995,1.0,34.25212968113339
7.448,1.0,34.06720659815682
7.4559999999999995,1.0,33.88220027311395
7.464,1.0,33.697110682054635
7.4719999999999995,0.9999999999999999,33.51193780144557
7.48,1.0,33.32668160817045
7.4879999999999995,1.0,33.14134207953067
7.496,0.9999999999999999,32.9559191932455
7.504,0.9999999999999998,32.77041292745288
7.5120000000000005,1.0,32.5848232607094
7.52,1.0,32.39915017199126
7.5280000000000005,1.0,32.21339364069417
7.536,1.0,32.027553646634246
7.5440000000000005,1.0,31.84163017004798
7.552,1.0,31.65562319159312
7.5600000000000005,1.0,31.469532692348583
7.568,0.9999999999999999,31.28335865381532
7.5760000000000005,1.0,31.097101057916298
7.584,1.0,30.91075988699729
7.5920000000000005,1.0,30.724335123826837
7.6,1.0,30.537826751597056
7.6080000000000005,1.0,30.351234753923567
7.616,1.0,30.16455911484637
7.6240000000000006,1.0,29.97779981882962
7.632,0.9999999999999998,29.79095685076261
7.640000000000001,1.0,29.60403019595953
7.648,1.0,29.41701984016033
7.656000000000001,1.0,29.229925769530592
7.664,0.9999999999999999,29.042747970662315
7.672,0.9999999999999998,28.855486430573862
7.68,0.9999999999999999,28.668141136710506
7.688,0.9999999999999999,28.4807120769447
7.696,1.0,28.29319923957636
7.704,1.0000000000000002,28.10560261333318
7.712,1.0,27.917922187370984
7.72,1.0,27.730157951273934
7.728,0.9999999999999999,27.542309895054892
7.736,1.0,27.354378009155678
7.744,1.0,27.16636228444733
7.752,1.0,26.978262712230443
7.76,1.0,26.790079284235336
7.768,1.0,26.601811992622405
7.776,1.0,26.413460829982345
7.784,0.9999999999999999,26.22502578933637
7.792,1.0,26.03650686413648
7.8,0.9999999999999999,25.847904048265747
7.808,0.9999999999999999,25.659217336038466
7.816,0.9999999999999998,25.470446722200418
7.824,0.9999999999999999,25.28159220192912
7.832,0.9999999999999999,25.09265377083398
7.84,0.9999999999999999,24.903631424956558
7.848,1.0,24.714525160770737
7.856,0.9999999999999999,24.525334975182936
7.864,0.9999999999999999,24.336060865532286
7.872,1.0,24.14670282959084
7.88,1.0,23.957260865563715
7.888,1.0,23.76773497208932
7.896,0.9999999999999999,23.57812514823944
7.904,0.9999999999999999,23.38843139351949
7.912,1.0,23.198653707868594
7.92,0.9999999999999999,23.008792091659778
7.928,0.9999999999999999,22.81884654570011
7.936,1.0,22.62881707123078
7.944,1.0,22.438703669927328
7.952,1.0,22.248506343899678
7.96,0.9999999999999999,22.058225095692308
7.968,0.9999999999999998,21.867859928284336
7.976,0.9999999999999999,21.677410845089632
7.984,1.0,21.486877849956926
7.992,0.9999999999999999,21.29626094716988
8.0,1.0,21.105560141447203
8.008,1.0,20.914775437942712
8.016,0.9999999999999999,20.723906842245363
8.024000000000001,1.0,20.532954360379403
8.032,1.0,20.341917998804462
8.04,1.0,20.15079776441539
8.048,1.0,19.959593664542492
8.056000000000001,0.9999999999999999,19.76830570695158
8.064,1.0,19.576933899843986
8.072,0.9999999999999999,19.385478251856444
8.08,1.0,19.193938772061237
8.088000000000001,0.9999999999999999,19.002315469966298
8.096,1.0,18.810608355515107
8.104,1.0,18.618817439086627
8.112,1.0,18.42694273149538
8.120000000000001,1.0,18.234984243991523
8.128,0.9999999999999999,18.04294198826075
8.136,1.0,17.850815976424162
8.144,1.0000000000000002,17.658606221038333
8.152000000000001,0.9999999999999999,17.46631273509539
8.16,1.0,17.273935532022808
8.168,1.0,17.081474625683338
8.176,1.0,16.888930030375025
8.184000000000001,0.9999999999999999,16.696301760831197
8.192,1.0,16.50358983222033
8.2,1.0,16.310794260145908
8.208,0.9999999999999999,16.11791506064635
8.216000000000001,1.0,15.924952250195076
8.224,1.0,15.731905845700306
8.232,0.9999999999999999,15.538775864504835
8.24,0.9999999999999999,15.345562324386043
8.248000000000001,1.0,15.152265243555833
8.256,1.0,14.95888464066044
8.264,0.9999999999999999,14.7654205347802
8.272,1.0,14.571872945429496
8.280000000000001,1.0,14.378241892556698
8.288,1.0,14.184527396543906
8.296,1.0,13.990729478206749
8.304,1.0,13.796848158794223
8.312,0.9999999999999999,13.602883459988716
8.32,0.9999999999999999,13.408835403905487
8.328,0.9999999999999999,13.214704013092838
8.336,1.0,13.02048931053154
8.344,0.9999999999999999,12.826191319635004
8.352,0.9999999999999999,12.63181006424872
8.36,0.9999999999999999,12.43734556865036
8.368,1.0,12.24279785754921
8.376,1.0,12.04816695608632
8.384,1.0,11.853452889833855
8.392,1.0,11.658655684795242
8.4,1.0,11.463775367404539
8.408,1.0,11.268811964526513
8.416,1.0,11.073765503456068
8.424,1.0,10.878636011918234
8.432,1.0,10.683423518067613
8.44,1.0,10.488128050488381
8.448,1.0,10.292749638193634
8.456,1.0,10.097288310625492
8.464,0.9999999999999999,9.90174409765434
8.472,1.0,9.70611702957893
8.48,1.0,9.510407137125654
8.488,0.9999999999999998,9.31461445144858
8.496,1.0,9.11873900412872
8.504,1.0,8.922780827174075
8.512,1.0,8.726739953018873
8.52,0.9999999862662929,8.53061641452358
8.528,0.9999999157517895,8.33441024497415
8.536,0.9999998452061868,8.138121478082002
8.544,0.9999997746542005,7.941750147983272
8.552,0.9999997041207711,7.745296289238762
8.56,0.9999996336310589,7.548759936833165
8.568,0.9999995632104421,7.352141126175025
8.576,0.9999994928845095,7.155439893095928
8.584,0.999999422679058,6.958656273850448
8.592,0.9999993526200869,6.76179030511533
8.6,0.9999992827337946,6.564842023989402
8.608,0.999999213046573,6.367811467992763
8.616,0.9999991435850031,6.170698675066672
8.624,0.9999990743758502,5.973503683572715
8.632,0.9999990054460591,5.776226532292675
8.64,0.9999989368227499,5.578867260427691
8.648,0.9999988685332116,5.381425907598108
8.656,0.9999988006048991,5.183902513842627
8.664,0.9999987330654264,4.986297119618115
8.672,0.9999986659425623,4.78860976579877
8.68,0.9999985992642256,4.590840493675892
8.688,0.9999985330584797,4.392989344957033
8.696,0.999998467353527,4.195056361765773
8.704,0.9999984021777034,3.99704158664082
8.712,0.9999983375594742,3.7989450625357897
8.72,0.9999982735274279,3.6007668328182896
8.728,0.9999982101102699,3.402506941269672
8.736,0.9999981473368195,3.2041654320841038
8.744,0.9999980852360013,3.0057423498683105
8.752,0.9999980238368426,2.807237739640616
8.76,0.999997963168465,2.6086516468306784
8.768,0.9999979032600811,2.4099841172785084
8.776,0.9999978441409871,2.211235197234191
8.784,0.999997785840558,2.012404933356884
8.792,0.9999977283882416,1.813493372714515
8.8,0.9999976718135525,1.6145005627827795
8.808,0.9999976161460661,1.4154265514448106
8.815999999999999,0.9999975614154129,1.2162713869901938
8.824,0.9999975076512728,1.0170351181144146
8.832,0.9999974548833687,0.8177177939182451
8.84,0.9999974031414605,0.6183194639069526
8.847999999999999,0.9999973524553387,0.4188401779894939
8.856,0.9999973028548197,0.2192799864778777
8.864,0.9999972543697372,0.01963894008652393
8.872,0.9999972070299384,-0.18008291006857202
8.879999999999999,0.9999971608652766,-0.3798855124706775
8.888,0.999997115905605,-0.5797688152029952
8.896,0.9999970721807705,-0.779732765949346
8.904,0.9999970297206074,-0.9797773119950365
8.911999999999999,0.9999969885549312,-1.1799024002277363
8.92,0.9999969487135318,-1.3801079771381892
8.928,0.9999969102261678,-1.5803939888209304
8.936,0.999996873122559,-1.780760380975194
8.943999999999999,0.9999968374323809,-1.9812070989058268
8.952,0.9999968031852576,-2.1817340875240365
8.96,0.9999967704107563,-2.38234129134815
8.968,0.9999967391383782,-2.5830286545045555
8.975999999999999,0.9999967093975553,-2.7837961207286566
8.984,0.9999966812176413,-2.9846436333656596
8.992,0.9999966546279061,-3.1855711353713665
9.0,0.9999966296575291,-3.3865785693131594
9.008,0.9999966063355913,-3.587665877370995
9.016,0.9999965846910714,-3.7888330013382236
9.024000000000001,0.9999965647528354,-3.99007988262243
9.032,0.999996546549633,-4.191406462246456
9.04,0.9999965301100896,-4.392812680849425
9.048,0.999996515462699,-4.594298478687613
9.056000000000001,0.9999965026358171,-4.795863795635329
9.064,0.9999964916576565,-4.997508571185956
9.072,0.9999964825562767,-5.199232744453051
9.08,0.9999964753595807,-5.40103625417123
9.088000000000001,0.9999964700953053,-5.6029190386970935
9.096,0.9999964667910157,-5.804881036010322
9.104,0.999996465474099,-6.006922183714794
9.112,0.9999964661717565,-6.209042419039534
9.120000000000001,0.999996468910996,-6.411241678839669
9.128,0.999996473718628,-6.613519899597565
9.136,0.9999964806212552,-6.8158770174239915
9.144,0.9999964896452688,-7.018312968059103
9.152000000000001,0.9999965008168388,-7.220827686873441
9.16,0.9999965141619086,-7.423421108869122
9.168,0.9999965297061895,-7.626093168681038
9.176,0.9999965474751499,-7.828843800577871
9.184000000000001,0.9999965674940132,-8.031672938463146
9.192,0.9999965897877469,-8.234580515876479
9.2,0.9999966143810581,-8.437566465994772
9.208,0.9999966412983862,-8.64063072163333
9.216000000000001,0.9999966705638942,-8.843773215246944
9.224,0.9999967022014656,-9.046993878931115
9.232,0.9999967362346942,-9.250292644423403
9.24,0.999996772686878,-9.45366944310451
9.248000000000001,0.9999968115810142,-9.657124205999406
9.256,0.9999968529397892,-9.86065686377867
9.264,0.9999968967855751,-10.064267346759797
9.272,0.999996943140421,-10.267955584908382
9.280000000000001,0.9999969920260456,-10.471721507839272
9.288,0.9999970434638338,-10.675565044817946
9.296,0.9999970974748249,-10.879486124761888
9.304,0.9999971540797103,-11.083484676241786
9.312000000000001,0.9999972132988248,-11.287560627482769
9.32,0.9999972751521405,-11.491713906365796
9.328,0.9999973396592587,-11.695944440429107
9.336,0.9999974068394059,-11.900252156869447
9.344,0.9999974767114249,-12.104636982543312
9.352,0.9999975492937693,-12.309098843968618
9.36,0.9999976246044961,-12.513637667325721
9.368,0.999997702661261,-12.718253378459188
9.376,0.9999977834813092,-12.922945902878824
9.384,0.9999978670814712,-13.127715165761442
9.392,0.9999979534781553,-13.332561091951964
9.4,0.9999980426873419,-13.53748360596517
9.408,0.9999981347245757,-13.742482631986848
9.416,0.9999982296049609,-13.947558093875578
9.424,0.9999983273431537,-14.152709915163895
9.432,0.9999984279533579,-14.357938019060061
9.44,0.9999985314493159,-14.563242328449306
9.448,0.9999986378443048,-14.76862276589563
9.456,0.9999987471511292,-14.974079253643005
9.464,0.9999988593821155,-15.17961171361728
9.472,0.9999989745491054,-15.385220067427339
9.48,0.9999990926634503,-15.590904236367075
9.488,0.9999992137360054,-15.796664141416585
9.496,0.999999337777123,-16.00249970324413
9.504,0.9999994647966481,-16.208410842207364
9.512,0.9999995948039101,-16.414397478355358
9.52,0.9999997278077202,-16.6204595314298
9.528,0.9999998638163632,-16.826596920867086
9.536,1.0,-17.032809565799532
9.544,0.9999999999999999,-17.239097385057516
9.552,0.9999999999999999,-17.44546029717069
9.56,1.0,-17.651898220370086
9.568,1.0,-17.858411072589522
9.576,1.0,-18.06499877146759
9.584,1.0,-18.271661234349132
9.592,0.9999999999999999,-18.478398378287288
9.6,1.0,-18.68521012004492
9.608,1.0,-18.892096376096816
9.616,1.0,-19.099057062631
9.624,0.9999999999999999,-19.306092095551044
9.632,1.0,-19.513201390477455
9.64,1.0,-19.720384862749867
9.648,1.0,-19.927642427428577
9.656,1.0,-20.134973999296765
9.664,1.0,-20.342379492861987
9.672,0.9999999999999998,-20.54985882235847
9.68,0.9999999999999999,-20.757411901748654
9.688,1.0,-20.965038644725468
9.696,0.9999999999999999,-21.172738964713933
9.704,0.9999999999999999,-21.38051277487345
9.712,1.0,-21.58835998809946
9.72,0.9999999999999999,-21.796280517025743
9.728,1.0,-22.00427427402609
9.736,0.9999999999999998,-22.212341171216703
9.744,1.0,-22.420481120457794
9.752,1.0,-22.62869403335609
9.76,0.9999999999999999,-22.836979821266464
9.768,1.0,-23.045338395294426
9.776,1.0,-23.25376966629782
9.784,1.0,-23.462273544889335
9.792,0.9999999999999999,-23.670849941438266
9.8,1.0,-23.879498766072988
9.808,1.0,-24.08821992868278
9.816,1.0,-24.29701333892037
9.824,0.9999999999999999,-24.505878906203794
9.832,0.9999999999999999,-24.714816539718885
9.84,1.0,-24.923826148421238
9.847999999999999,1.0,-25.13290764103867
9.856,1.0,-25.34206092607346
9.864,1.0,-25.551285911804424
9.872,0.9999999999999999,-25.76058250628941
9.879999999999999,0.9999999999999999,-25.969950617367562
9.888,1.0,-26.1793901526617
9.896,1.0,-26.388901019580516
9.904,0.9999999999999999,-26.598483125320975
9.911999999999999,1.0,-26.808136376870912
9.92,1.0,-27.01786068101121
9.928,1.0,-27.227655944318226
9.936,0.9999999999999999,-27.43752207316623
9.943999999999999,0.9999999999999998,-27.647458973730043
9.952,0.9999999999999999,-27.85746655198734
9.96,0.9999999999999999,-28.067544713721066
9.968,1.0,-28.277693364522065
9.975999999999999,1.0,-28.487912409791672
9.984,0.9999999999999999,-28.698201754744176
9.992,1.0,-28.908561304409247
10.0,0.9999999999999999,-29.118990963634698
10.008,1.0,-29.329490637089084
10.016,0.9999999999999998,-29.540060229264313
10.024000000000001,1.0,-29.750699644478097
10.032,0.9999999999999998,-29.961408786876824
10.04,0.9999999999999999,-30.172187560438175
10.048,0.9999999999999999,-30.38303586897391
10.056000000000001,1.0,-30.593953616132307
10.064,0.9999999999999999,-30.804940705401137
