freq,mag,phase
6.0,1.000037436345342,42.84297248775107
6.010840064,1.000064244101388,42.59296783849249
6.021680128,1.000088140064105,42.342630506294626
6.032520192,1.0001074903369132,42.09202837991116
6.043360256,1.0001215557189909,41.84115316996984
6.05420032,1.0001294728722097,41.590157437145095
6.065040896,1.000130801933609,41.3390735804327
6.07588096,1.0001256394207536,41.08800586667889
6.086721024,1.000114005988651,40.83709236104956
6.097561088,1.0000967848521065,40.58630079340897
6.108401152,1.0000745689038915,40.33578010386728
6.119241216,1.0000486874455397,40.08555283541229
6.13008128,1.0000201949627514,39.835651216839075
6.140921344,0.9999906591969732,39.5861502279073
6.151761408,0.9999616095681391,39.336963781174816
6.162601472,0.9999344591971173,39.08820317101964
6.173441536,0.9999104697738532,38.83970592603531
6.1842816,0.9998910223496155,38.59151302915837
6.195122176,0.9998770621891142,38.343520567691904
6.20596224,0.9998691439600453,38.0956445580803
6.216802304,0.9998678683034005,37.84786988610202
6.227642368,0.9998732322705965,37.60001921157923
6.238482432,0.9998849752563863,37.35206633418262
6.249322496,0.9999024561657901,37.10388173666906
6.26016256,0.9999249535479702,36.85550262474045
6.271002624,0.9999510624809052,36.606730313455756
6.281842688,0.9999798253498967,36.357636789545204
6.292682752,1.0000095360070063,36.10813742473199
6.303522816,1.0000387322823487,35.858250602400986
6.314363392,1.0000661270836857,35.60801938215317
6.325203456,1.000090134737622,35.357379837699106
6.33604352,1.0001096271356487,35.10651589758408
6.346883584,1.0001236638097577,34.855367500194674
6.357723648,1.0001314022350272,34.60410275254771
6.368563712,1.0001326551224805,34.352790841988046
6.379403776,1.0001271429905096,34.10147047003094
6.39024384,1.0001152211216968,33.85024150576688
6.401083904,1.0000974942803669,33.59919757300476
6.411923968,1.0000749515455023,33.34842548606565
6.422764032,1.0000484264749037,33.097989329138066
6.433604096,1.000019594164856,32.84781649085453
6.444444672,0.9999896212781343,32.59808654562305
6.455284736,0.9999602016255317,32.348688293277604
6.4661248,0.9999327769077399,32.099691856556284
6.476964864,0.9999086874436846,31.85098671857404
6.487804928,0.9998891232750514,31.60257046020974
6.498644992,0.9998751393280692,31.35433062776389
6.509485056,0.9998673389214716,31.10626837529185
6.52032512,0.9998662898749648,30.858215594353787
6.531165184,0.9998719176929822,30.61017907750196
6.542005248,0.9998839806666455,30.36195339014085
6.552845312,0.9999019067373845,30.11358678737377
6.563685888,0.999924813982348,29.864925961387492
6.574525952,0.9999515018997365,29.615897389285575
6.585366016,0.9999805575773442,29.366541681985545
6.59620608,1.0000107365968176,29.116804282110213
6.607046144,1.000040336095131,28.86663657127703
6.617886208,1.000067986893803,28.616071584653277
6.628726272,1.0000921715110525,28.36520534663129
6.639566336,1.000111832389296,28.11403987542866
6.6504064,1.0001258573328193,27.86264336193998
6.661246464,1.0001335171165884,27.611097679171827
6.672086528,1.0001345136567208,27.359445383376407
6.682926592,1.0001287463209845,27.107879779251174
6.693767168,1.0001164739748682,26.85636944648809
6.704607232,1.0000983931810776,26.605107707636073
6.715447296,1.0000752774180814,26.354019851092747
6.72628736,1.000048297326729,26.103300942844186
6.737127424,1.0000189685933616,25.852936776238295
6.747967488,0.9999887158660693,25.602919201605665
6.758807552,0.9999588737112156,25.353310171417025
6.769647616,0.9999310690740046,25.104042073455027
6.78048768,0.9999067050110884,24.855108134870434
6.791327744,0.9998869859707726,24.606436901032776
6.802167808,0.9998730295180946,24.3579609610429
6.813008384,0.9998653604745485,24.109702734005506
6.823848448,0.9998644991846872,23.861423689394645
6.834688512,0.9998703822303816,23.613081210996825
6.845528576,0.999882910483883,23.364669181128708
6.85636864,0.9999012512758696,23.116030409380503
6.867208704,0.9999245889744993,22.86708177627331
6.878048768,0.9999517460869172,22.617828139885454
6.888888832,0.9999813854428606,22.36818826161482
6.899728896,1.00001194651358,22.11814431529242
6.91056896,1.0000419527894802,21.86772474811857
6.921409024,1.0000699320787179,21.61692128534522
6.932249088,1.0000944277935047,21.365707330797303
6.943089664,1.0001141155657918,21.11425334770666
6.953929728,1.0001281456442355,20.862587149663725
6.964769792,1.0001358186335154,20.610692085825487
6.975609856,1.0001366055655208,20.35880218381497
6.98644992,1.0001305214478524,20.10689978517955
6.997289984,1.0001178432541236,19.855148886284766
7.008130048,1.0000992403174804,19.60353071656721
7.018970112,1.000075682571144,19.352209450125372
7.029810176,1.0000482269160154,19.101195740278417
7.04065024,1.0000184419706646,18.850556207713538
7.051490304,0.9999875979451046,18.60027976101965
7.062330368,0.9999573716066218,18.350415519907873
7.073170944,0.999929217995413,18.100912192877715
7.084011008,0.9999046532141797,17.851728108284266
7.094851072,0.9998848434960116,17.602802853626283
7.105691136,0.9998707814685261,17.354145054752124
7.1165312,0.9998632555949928,17.105564206516735
7.127371264,0.9998625608324575,16.857037222597523
7.138211328,0.999868744937028,16.608456562250662
7.149051392,0.9998816205023481,16.359795788359918
7.159891456,0.9999004284060361,16.11088856660088
7.17073152,0.9999242862123335,15.861657648183488
7.181571584,0.999951972830357,15.6121282184187
7.19241216,0.999982047636636,15.362228384078254
7.203252224,1.0000131232305252,15.111891388546981
7.214092288,1.0000436652518618,14.861159363722487
7.224932352,1.0000719661249267,14.610024069658369
7.235772416,1.000096673964952,14.358540817424052
7.24661248,1.00011655357758,14.106780050889194
7.257452544,1.0001305678369639,13.854748011388258
7.268292608,1.0001381936956577,13.60258672799765
7.279132672,1.0001387523640948,13.350381258154647
7.289972736,1.0001323140836467,13.098181064483404
7.3008128,1.0001193404662154,12.84610739813153
7.311652864,1.0001003210297348,12.594205029613127
7.32249344,1.0000762372552805,12.34258804682458
7.333333504,1.0000482230477497,12.091291540506582
7.344173568,1.0000178734614182,11.840347850204443
7.355013632,0.9999864689418152,11.589825038221987
7.365853696,0.9999559018946589,11.339695530065635
7.37669376,0.9999273015040582,11.089885797101273
7.387533824,0.9999024238579619,10.840468110934049
7.398373888,0.9998824639244761,10.591295582166367
7.409213952,0.9998683989210516,10.342349410560598
7.420054016,0.9998609247138243,10.093519314848903
7.43089408,0.9998604590558634,9.844752561293108
7.441734656,0.9998669948067539,9.595929240412397
7.45257472,0.9998801830745602,9.346965905543065
7.463414784,0.9998994652734413,9.097759310447492
7.474254848,0.9999239166163101,8.84830339531265
7.485094912,0.9999520991499403,8.598464369354105
7.495934976,0.9999828199011258,8.34825716654004
7.50677504,1.0000143850417529,8.097616748207964
7.517615104,1.0000453994702931,7.8465922155042875
7.528455168,1.0000740354887396,7.595129325453884
7.539295232,1.0000990038381798,7.3433505804158585
7.550135296,1.000119133081029,7.091227604912543
7.56097536,1.000133262314384,6.838904027439822
7.571815936,1.0001407021917919,6.586421292130943
7.582656,1.000141067937987,6.333860604508152
7.593496064,1.0001343626821646,6.081331991781376
7.604336128,1.000120920867325,5.828949337223494
7.615176192,1.000101381341332,5.576745624070743
7.626016256,1.0000767727974866,5.324817096680462
7.63685632,1.000048210156069,5.073220621230558
7.647696384,1.0000172994823848,4.821994631864052
7.658536448,0.9999853871457235,4.57117350481729
7.669376512,0.9999542603051279,4.320727698324256
7.680216576,0.999925299913501,4.0706804164495365
7.691057152,0.9999002160394911,3.8209861097644082
7.701897216,0.9998800022936493,3.5715336446858617
7.71273728,0.9998658318248594,3.322297741945855
7.723577344,0.9998584332728768,3.0732174368755008
7.734417408,0.999858198259669,2.824165761994864
7.745257472,0.9998650781723073,2.575089834767769
7.756097536,0.9998786714631678,2.325836323350873
7.7669376,0.9998984546087549,2.0763614427226824
7.777777664,0.9999233649501607,1.826591775365568
7.788617728,0.9999522435177628,1.5764531300979343
7.799457792,0.9999833847028039,1.3259359098038987
7.810297856,1.0000156080058025,1.0749840224809273
7.821138432,1.000047054971392,0.8236202981539988
7.831978496,1.0000761560770155,0.5718534684433607
7.84281856,1.0001015201729313,0.3197159433161966
7.853658624,1.000121805975093,0.06727085898624029
7.864498688,1.000136009073684,-0.18540785889316438
7.875338752,1.0001433395600798,-0.4382450736832688
7.886178816,1.0001435721355192,-0.6911317723555797
7.89701888,1.0001364532140844,-0.9439816890171654
7.907858944,1.0001227219782085,-1.1967281456340648
7.918699008,1.0001026018036288,-1.4492651693262364
7.929539072,1.0000773223399204,-1.7015372414555514
7.940379648,1.0000482989871178,-1.9534294009704478
7.951219712,1.0000166943305833,-2.2049466935908315
7.962059776,0.9999842560277853,-2.4560764471567067
7.97289984,0.9999526044907732,-2.706800030887656
7.983739904,0.9999232123884015,-2.957138600974727
7.994579968,0.999897709774608,-3.207144237471948
8.005420032,0.999877346933071,-3.4568886139804573
8.016260096,0.9998631318972002,-3.70636695257752
8.02710016,0.9998558508283951,-3.9557371643557295
8.037940224,0.9998556677133422,-4.205053006312155
8.048780288,0.9998628781575443,-4.454452553027818
8.059620352,0.9998769790016148,-4.703987572878644
8.070460928,0.9998972732848304,-4.953769231129345
8.081300992,0.999922781088881,-5.203822730082586
8.092141056,0.9999522521160805,-5.454294583206062
8.10298112,0.9999841894352134,-5.705130871056296
8.113821184,1.000016917001809,-5.956420118764063
8.124661248,1.0000488837412986,-6.20811454858987
8.135501312,1.00007847866094,-6.460236172992565
8.146341376,1.0001042112714809,-6.712718083615312
8.15718144,1.000124668075252,-6.965512749062207
8.168021504,1.000138881160424,-7.218565187726723
8.178861568,1.0001461331446193,-7.471754861733113
8.189702144,1.0001462250202444,-7.724968448748686
8.200542208,1.0001388663215607,-7.978217854630217
8.211382272,1.000124507886571,-8.231283171902351
8.222222336,1.000104033131988,-8.484159843975949
8.2330624,1.0000780806816976,-8.736752105371002
8.243902464,1.0000484014808884,-8.989005876171168
8.254742528,1.0000161261962242,-9.240865692022684
8.265582592,0.9999831151821403,-9.49230322897567
8.276422656,0.999950791699118,-9.74332710182094
8.28726272,0.999920975652707,-9.993974279167816
8.298102784,0.9998951759528495,-10.244254565448452
8.308942848,0.9998745404572535,-10.494288633809003
8.319783424,0.9998602441441893,-10.744083099566796
8.330623488,0.9998529036827386,-10.993728781798074
8.341463552,0.9998530431992355,-11.243351189145336
8.352303616,0.9998605948331365,-11.493034709530079
8.36314368,0.9998751303548511,-11.742857927256873
8.373983744,0.9998959472665013,-11.992967207908194
8.384823808,0.9999221323305738,-12.24332931092974
8.395663872,0.9999521949848229,-12.494096674619016
8.406503936,0.9999847809573624,-12.745306524674975
8.417344,1.0000181846456178,-12.996922547216217
8.428184064,1.0000507203698044,-13.248977317412482
8.43902464,1.0000807575792992,-13.501472047056337
8.449864704,1.0001069696980593,-13.75432277559591
8.460704768,1.0001276095661547,-14.00748338430296
8.471544832,1.0001420063606903,-14.260906023364225
8.482384896,1.00014921923426,-14.514460049368047
8.49322496,1.0001491682914632,-14.76809135699761
8.504065024,1.0001413733473878,-15.021664320682982
8.514905088,1.0001265818561789,-15.275115962610236
8.525745152,1.0001055236654919,-15.528357676295139
8.536585216,1.00007899796154,-15.781307377591045
8.54742528,1.0000485147041407,-16.03389309280483
8.558265344,1.000015596742802,-16.286072690989442
8.56910592,0.9999819188959614,-16.537858414859578
8.579945984,0.9999489579763267,-16.789210738889818
8.590785536,0.9999186632627539,-17.040167605882857
8.6016256,0.9998923745051657,-17.290788554806706
8.612465664,0.999871509254691,-17.541085890841885
8.623305728,0.999857065626984,-17.79116255286535
8.634146816,0.999849768960165,-18.04114409793334
8.64498688,0.9998501138406624,-18.29106510834823
8.655826944,0.999858024552177,-18.541053693184047
8.666667008,0.9998729631466057,-18.791217136823633
8.677507072,0.9998944635543524,-19.041617324601166
8.688347136,0.9999212155360075,-19.29233031480943
8.6991872,0.9999521310281073,-19.543434886760476
8.710027264,0.9999853535247646,-19.794985538564926
8.720867328,1.0000195361482747,-20.046966567665038
8.731707392,1.0000526771862273,-20.29938109978661
8.742547456,1.000083309579855,-20.552228339647787
8.75338752,1.0001097117195443,-20.8054707276856
8.764227584,1.000130780857689,-21.059023836451342
8.775067648,1.000145258716407,-21.312851284749282
8.785907712,1.0001525034770509,-21.566795473911387
8.796747776,1.0001521228190522,-21.820788272100334
8.80758784,1.0001441119312913,-22.07476534165908
8.818427904,1.0001288474922712,-22.32861965902454
8.829267968,1.0001071305734759,-22.582218086060642
8.840108032,1.0000798529320523,-22.835532737368013
8.850948096,1.0000487909322875,-23.08847210446923
8.86178816,1.000015010479787,-23.341024765021956
8.872628224,0.9999807033633118,-23.593138707101932
8.883469312,0.99994709841572,-23.844822828763046
8.894309376,0.9999161842724631,-24.096106486987072
8.90514944,0.9998894664286135,-24.347054119850483
8.915989504,0.9998682775025525,-24.59767169039688
8.926829568,0.9998537339318918,-24.848074979573692
8.937669632,0.9998465350817607,-25.098347398786167
8.948509696,0.999847074459881,-25.348603321489236
8.95934976,0.9998552098430111,-25.59890421555118
8.970189824,0.999870871596456,-25.84937282562025
8.981029888,0.9998928056089903,-26.100105417352147
8.991869952,0.9999202817068635,-26.351187398705108
9.002710016,0.9999519425757916,-26.60264537584694
9.01355008,0.9999859622694081,-26.85453650350261
9.024390144,1.0000207165513044,-27.1069029028748
9.035230208,1.0000546817046791,-27.359708883563574
9.046070272,1.0000858614685493,-27.612936116571753
9.056910336,1.0001128733106797,-27.866584351354824
9.0677504,1.0001340904603941,-28.120534495559266
9.078590464,1.0001488415635107,-28.374752945028373
9.089430528,1.0001560674636232,-28.62909605946244
9.100270592,1.0001554065282912,-28.88354797838582
9.111110656,1.0001470881923846,-29.13790214762606
9.12195072,1.0001311958454666,-29.39215231207714
9.132791808,1.0001088490039844,-29.646148213091934
9.143631872,1.0000810290003899,-29.89985957845547
9.154471936,1.000049073875895,-30.153175739032907
9.165312,1.0000146534966015,-30.406081169694204
9.176152064,0.9999793979434654,-30.65854189754457
9.186992128,0.9999451243495816,-30.910601037486618
9.197832192,0.9999136056865832,-31.16220201805603
9.208672256,0.9998865202490842,-31.41346923142057
9.21951232,0.9998649425528554,-31.664439682586714
9.230352384,0.9998500913191,-31.915148557789788
9.241192448,0.9998430137821568,-32.16577356339676
9.252032512,0.9998436487031399,-32.416335395711364
9.262872576,0.9998522932189465,-32.667000127229294
9.27371264,0.9998683737265371,-32.91777647965044
9.284552704,0.9998910564106278,-33.16887539764336
9.295392768,0.9999192256211441,-33.42030488366539
9.306232832,0.9999516692931743,-33.67211481578323
9.317072896,0.9999864654263997,-33.924380162991326
9.32791296,1.0000222012530018,-34.17710942313121
9.338753024,1.0000567475880726,-34.43034909649651
9.349593088,1.0000886311023118,-34.68397295928854
9.360433152,1.0001160921279306,-34.9380328738367
9.371273216,1.000137820447249,-35.19241041235418
9.382114304,1.00015266101693,-35.447039383857415
9.392954368,1.0001597972976624,-35.70184841914619
9.403794432,1.0001589694314976,-35.95669652349294
9.414634496,1.0001501765239846,-36.21147256576132
9.42547456,1.0001339319481426,-36.46614827815051
9.436314624,1.0001109006350666,-36.720547364852614
9.447154688,1.0000822925575472,-36.97464642753111
9.457994752,1.0000494004728229,-37.22838251263625
9.468834816,1.0000140973670744,-37.48165200241995
9.47967488,0.9999780069223544,-37.73452301802246
9.490514944,0.9999430189282351,-37.98690799501239
9.501355008,0.9999108727167182,-38.23887951135599
9.512195072,0.999883154968782,-38.49046831137576
9.523035136,0.9998612218290188,-38.7417846051249
9.5338752,0.9998463331578533,-38.99284656817921
9.544715264,0.9998391155301708,-39.24379362541447
9.555555328,0.9998400081025582,-39.49470018888464
9.566395392,0.999849075766555,-39.74567692765052
9.577235456,0.9998656090517635,-39.99683764680749
9.58807552,0.9998889828142371,-40.2482631585239
9.598915584,0.9999180731948708,-40.50004707618714
9.609755648,0.9999512673162578,-40.75226014943819
9.620595712,0.9999870450340764,-41.00491695779555
9.6314368,1.0000235718943544,-41.25805424030372
9.642276864,1.0000589269947449,-41.51168368216625
9.653116928,1.0000915470718252,-41.765759658141754
9.663956992,1.0001194647315885,-42.02024913091661
9.674797056,1.0001416440783613,-42.27505360381326
9.68563712,1.0001565640863377,-42.5301180888454
9.696477184,1.0001637904801803,-42.785377154528206
9.707317248,1.0001628466014885,-43.04065952025477
9.718157312,1.0001536541267413,-43.295896650238106
9.728997376,1.0001368768475272,-43.55100670768841
9.73983744,1.0001130112776135,-43.80582971619718
9.750677504,1.0000835558084586,-44.060355876331
9.761517568,1.000049940462646,-44.31447717824806
9.772357632,1.0000136343300832,-44.568166240317076
9.783197696,0.9999766878499667,-44.821384576985416
9.79403776,0.9999408878708383,-45.07416886479213
9.804877824,0.9999079854926947,-45.32650805129751
9.815717888,0.9998796158977189,-45.57846903850733
9.826557952,0.9998573065979856,-45.83010990242422
9.837398016,0.99984219285712,-46.0815214138231
9.84823808,0.9998349795031287,-46.332805867366
9.859078144,0.9998360754135172,-46.58408467713584
9.869918208,0.999845424638305,-46.835409673964506
9.880759296,0.9998626715453423,-47.086932486464455
9.89159936,0.9998867856422217,-47.33873909321158
9.902439424,0.9999166238143143,-47.59089995079353
9.913279488,0.9999508567877828,-47.84348968987844
9.924119552,0.9999874826319695,-48.09656227489731
9.934959616,1.0000249573486977,-48.35010935872669
9.94579968,1.0000612221707594,-48.60415751718733
9.956639744,1.0000945284819605,-48.85866896226588
9.967479808,1.0001231486864544,-49.1136003610342
9.978319872,1.0001456713095185,-49.36887244771447
9.989159936,1.000160834302396,-49.62441150548956
10.0,1.000168110127789,-49.88011480323988
10.010840064,1.000166884732256,-50.13587320017734
10.021680128,1.0001573321106378,-50.391564059823494
10.032520192,1.000139862227187,-50.64712609580199
10.043360256,1.0001153706382355,-50.902402348400564
10.05420032,1.0000850783137865,-51.157344305501134
10.065040384,1.0000504596179969,-51.411888274532735
10.075880448,1.0000132508517425,-51.666003580505425
10.086720512,0.9999752172129417,-51.919616097811236
10.097560576,0.9999385729431939,-52.17278761361082
10.10840064,0.9999048279177902,-52.42550264989744
10.119240704,0.9998759268760504,-52.67784067452206
10.130081792,0.9998531256532851,-52.92984827087871
10.140921856,0.999837731163364,-53.18161922626705
10.15176192,0.999830509703046,-53.43327280125734
10.162601984,0.9998318294771376,-53.684892180074414
10.173442048,0.9998416113190087,-53.936574207583504
10.184282112,0.9998593022038005,-54.18847918614752
10.195122176,0.9998842957495725,-54.44065876801631
10.20596224,0.9999150698960486,-54.69321109851318
10.216802304,0.9999502266893142,-54.94621040923404
10.227642368,0.9999879743467235,-55.19969495441329
10.238482432,1.0000263739633155,-55.45368197106907
10.249322496,1.0000635929615846,-55.70818225265118
10.26016256,1.0000977111555172,-55.963130824005574
10.271002624,1.0001270007981766,-56.21853863785984
10.281842688,1.0001499787308619,-56.47429248012346
10.292682752,1.000165510453032,-56.73031561662457
10.303522816,1.0001727412138022,-56.98648687145676
10.31436288,1.0001713499756706,-57.24272334625398
10.325202944,1.0001613224932657,-57.49890610590186
10.336043008,1.0001433644924935,-57.75491135205987
10.346883072,1.0001180344622715,-58.01066305117154
10.357723136,1.0000867176666923,-58.266070576245234
