freq,mag,phase
6.0,0.9998865869526478,45.97039671194249
6.002285568,0.9998714590611149,45.81049964070316
6.004571648,0.9998647760733917,45.65072656036996
6.006857216,0.999867095835917,45.490988212535754
6.009142784,0.9998780559629774,45.331089743189715
6.011428352,0.9998970845569379,45.170932730903374
6.013714432,0.9999230814409974,45.01042565132442
6.016,0.9999542908657967,44.84946652522101
6.018285568,0.9999887619934742,44.68800290067387
6.020571648,1.000024301178692,44.525985773215396
6.022857216,1.0000587108064145,44.36343714242385
6.025142784,1.0000898354663943,44.20036068079256
6.027428352,1.0001157008595367,44.036857806270866
6.029714432,1.0001346281893053,43.87296857661373
6.032,1.0001454374488836,43.708836413073904
6.034285568,1.0001474338066034,43.54458534760971
6.036571648,1.0001404122678599,43.38032044310043
6.038857216,1.0001249730976134,43.216177083986395
6.041142784,1.000101985256993,43.05228921925008
6.043428352,1.0000728019385439,42.88871756813452
6.045714432,1.0000395626401393,42.72558841602794
6.048,1.0000039254932667,42.56290510611354
6.050285568,0.9999684512046967,42.40070344908681
6.052571648,0.9999353130166861,42.238971538113425
6.054857216,0.9999065384935568,42.07762832846397
6.057142784,0.9998840997560773,41.916625310858855
6.059428352,0.9998692292557932,41.75586201561593
6.061714432,0.9998630015918549,41.59520670708651
6.064,0.999865694622233,41.4345471838171
6.066285568,0.9998772710781687,41.27373386638771
6.068571648,0.9998969705670452,41.11268201321145
6.070857216,0.9999235682820824,40.95121729314485
6.073142784,0.9999553460456858,40.78931251305095
6.075428352,0.9999903712625335,40.62688269701668
6.077714432,1.000026299157005,40.463907490996
6.08,1.0000610730804462,40.30037360023491
6.082285568,1.0000922917727744,40.13630101428569
6.084571648,1.0001181581422718,39.97180812735634
6.086857216,1.0001369200039782,39.80691547671236
6.089142784,1.0001474318781356,39.64178634276668
6.091428352,1.000148964312393,39.47651777403165
6.093714432,1.0001414769843817,39.311261315847425
6.096,1.000125386590624,39.14613251126729
6.098285568,1.0001018295423503,38.98123468426989
6.100571648,1.000072107820332,38.81668523527324
6.102857216,1.0000381418507143,38.65257739540008
6.105142784,1.000002108091776,38.48891027404752
6.107428352,0.9999663188809681,38.32572181629174
6.109714432,0.9999329082072266,38.16301141443729
6.112,0.9999041320785917,38.00068339702615
6.114285568,0.9998816582738025,37.838726817460824
6.116571648,0.9998669800358617,37.67694545000503
6.118857216,0.9998611616755162,37.515311027107415
6.121142784,0.9998643791308092,37.353633133127275
6.123428352,0.9998765548890233,37.191789882991
6.125714432,0.9998968511402286,37.02970183113169
6.128,0.9999240409387664,36.86721249451873
6.130285568,0.9999564361672965,36.704241035574775
6.132571648,0.9999919804350756,36.54073886625159
6.134857216,1.0000284229076668,36.376668926085735
6.137142784,1.0000634751015862,36.21204112737661
6.139428352,1.0000948337441216,36.04686861418102
6.141714432,1.0001206852676738,35.88123107705033
6.144,1.000139292403912,35.715249410416035
6.146285568,1.000149433581167,35.549004399781886
6.148571648,1.000150615735567,35.38264198968989
6.150857216,1.0001425764362295,35.21626379402738
6.153142784,1.0001259119244732,35.05001930919434
6.155428352,1.0001017106510615,34.88404171052268
6.157714432,1.0000713611764185,34.71840206753736
6.16,1.0000368852242416,34.553184157982855
6.162285568,1.0000003597627736,34.38842477385869
6.164571648,0.9999641677199317,34.22415815273796
6.166857216,0.9999305940864736,34.060345326579096
6.169142784,0.9999016836026723,33.896946049044416
6.171428352,0.9998792570259936,33.73386459144577
6.173714432,0.9998649060715538,33.57101585771514
6.176,0.9998593683548981,33.408258704433855
6.178285568,0.9998630813790054,33.24543622131778
6.180571648,0.9998757838643205,33.082496505057705
6.182857216,0.9998967653614188,32.919233661011134
6.185142784,0.9999245842463739,32.75559979502977
6.187428352,0.9999575405752206,32.591458620358324
6.189714432,0.9999935999063582,32.426754718798215
6.192,1.0000304845632682,32.26148496793174
6.194285568,1.0000657664436658,32.09565016083166
6.196571648,1.00009734529716,31.929286032151946
6.198857216,1.000123222381507,31.76241097591543
6.201142784,1.0001416406483485,31.595201731223266
6.203428352,1.0001514793849786,31.42774623549078
6.205714432,1.0001522145855837,31.26015019689511
6.208,1.000143679296911,31.0925417377335
6.210285568,1.0001264461299604,30.925082269603607
6.212571648,1.0001015164433436,30.75789797201517
6.214857216,1.0000706114903075,30.591026981626992
6.217142784,1.0000355520135906,30.424600039361614
6.219428352,0.9999985309347511,30.258652777480556
6.221714432,0.9999619887917378,30.093186222649447
6.224,0.9999281640437183,29.928162411562987
6.226285568,0.9998991994935864,29.763562032189274
6.228571648,0.999876920619243,29.599279452118413
6.230857216,0.9998627695915187,29.43518999060945
6.233142784,0.9998575193341528,29.27121767092545
6.235428352,0.9998617482890269,29.107188175125795
6.237714432,0.9998750002192182,28.942979043540184
6.24,0.9998965344105729,28.77846362967254
6.242285568,0.9999250176188662,28.613549708577676
6.244571648,0.9999585426842036,28.44811015802401
6.246857216,0.9999951371733004,28.282122196111025
6.249142784,1.0000323883236764,28.115550189209685
6.251428352,1.0000680511235662,27.948388737741258
6.253714432,1.00009974075427,27.780681487355487
6.256,1.0001255950676524,27.61250653649442
6.258285568,1.0001439398869036,27.443955771217365
6.260571648,1.0001534747359377,27.275148636684705
6.262857216,1.0001537294335232,27.106216940256424
6.265142784,1.0001446970438959,26.937272111655275
6.267428352,1.0001268706151087,26.768485018711644
6.269714432,1.0001014400486383,26.599981036562415
6.272,1.0000698260173475,26.43179324904051
6.274285568,1.0000342200863237,26.264046067910286
6.276571648,0.9999967323667668,26.09678902568508
6.278857216,0.9999598208022672,25.93001376075525
6.281142784,0.9999257989225494,25.76365694012205
6.283428352,0.999896719301487,25.597726789151203
6.285714432,0.9998744365700025,25.432145601679878
6.288,0.9998605431998933,25.266731117399594
6.290285568,0.9998556849719131,25.10141528931403
6.292571648,0.9998603837055633,24.93603247567088
6.294857216,0.9998741541596747,24.770467482382717
6.297142784,0.9998963271155665,24.604595229608364
6.299428352,0.999925358822951,24.43830052304861
6.301714432,0.9999595173819953,24.271465142996135
6.304,0.9999966265980651,24.104043478845835
6.306285568,1.00003431986746,23.936055196896568
6.308571648,1.000070254015325,23.767471021468644
6.310857216,1.0001021701242268,23.598321466844737
6.313142784,1.0001279991531793,23.428695733007732
6.315428352,1.0001461781680767,23.258690943557326
6.317714432,1.0001555104546176,23.088428930953913
6.32,1.0001553521112614,22.91803890363593
6.322285568,1.0001458147139077,22.747677085279985
6.324571648,1.000127431309037,22.577455661791312
6.326857216,1.0001012718044886,22.407466562901487
6.329142784,1.0000691674951339,22.237848739512923
6.331428352,1.000032992181895,22.06867074666302
6.333714432,0.9999950810516357,21.89999700996578
6.336,0.9999577033030663,21.73176609278098
6.338285568,0.9999234324849379,21.56401616111509
6.340571648,0.9998942410056157,21.396662893206184
6.342857216,0.9998721294847515,21.229624885182357
6.345142784,0.9998583490762308,21.0627840814561
6.347428352,0.9998538725514208,20.89599698024436
6.349714432,0.9998589549294115,20.72917163310426
6.352,0.9998733853497632,20.562151910630053
6.354285568,0.9998960758730007,20.39475902771263
6.356571648,0.9999256915747702,20.226966903892393
6.358857216,0.9999604220428638,20.05863320056258
6.361142784,0.9999981122675158,19.889705668018532
6.363428352,1.0000362601731585,19.72015427812014
6.365714432,1.0000725419706236,19.55003619928721
6.368,1.0001045573611984,19.379344935277764
6.370285568,1.0001304639174853,19.20815341278793
6.372571648,1.0001485188357577,19.03659418256003
6.374857216,1.0001575621894458,18.864784782753674
6.377142784,1.0001570857234312,18.692817983470995
6.379428352,1.0001470067193667,18.520883862317405
6.381714432,1.0001280802159744,18.349107180620404
6.384,1.0001013109303414,18.17757389012975
6.386285568,1.0000686232583782,18.00640345762799
6.388571648,1.0000318289041836,17.8356788550972
6.390857216,0.9999934292586862,17.6654427557916
6.393142784,0.999955806438327,17.495696803682026
6.395428352,0.9999211542737747,17.32638682574022
6.397714432,0.9998919240609436,17.157505836908314
6.4,0.9998697850388846,16.988901526796067
6.402285568,0.9998562243724253,16.820512049244872
6.404571648,0.9998520782652304,16.652197031019114
6.406857216,0.9998576577438425,16.483781541777194
6.409142784,0.9998725065082535,16.31515239785214
6.411428352,0.9998958235959616,16.14619689891587
6.413714432,0.999926135558344,15.976774162672134
6.416,0.9999614468136738,15.806818719201646
6.418285568,0.9999995796195322,15.63626157327461
6.420571648,1.0000381438224324,15.465074818322291
6.422857216,1.000074784998995,15.293286840715675
6.425142784,1.0001070311688172,15.120913719426465
6.427428352,1.0001329299058825,14.948081950659919
6.429714432,1.0001508897003357,14.774840133726283
6.432,1.0001596289469912,14.601333262143315
6.434285568,1.0001588365532197,14.427709142159815
6.436571648,1.00014826585876,14.25409544065308
6.438857216,1.000128719873604,14.080641132592914
6.441142784,1.0001015169399547,13.907451941213004
6.443428352,1.0000681156248699,13.734629612016425
6.445714432,1.0000308747716595,13.562248385316177
6.448,0.999991851589686,13.390330142322684
6.450285568,0.9999539106357577,13.218932012807004
6.452571648,0.9999189808736295,13.047975512042878
6.454857216,0.9998896851550324,12.87743067024993
6.457142784,0.9998675420252165,12.707173377354813
6.459428352,0.9998541058581958,12.537114548879343
6.461714432,0.9998503834616168,12.367113830379802
6.464,0.999856310497432,12.197014613368633
6.466285568,0.9998717410234946,12.026711419405475
6.468571648,0.9998955606073623,11.85602771769268
6.470857216,0.9999264705301623,11.684893496406058
6.473142784,0.9999623198193016,11.513199192295057
6.475428352,1.0000009961685075,11.340890202161095
6.477714432,1.000040096002849,11.167963491630033
6.48,1.0000769316721632,10.994401855683767
6.482285568,1.000109439351825,10.820262837269789
6.484571648,1.000135433509294,10.645624512854964
6.486857216,1.0001532125923391,10.470605817919768
6.489142784,1.0001618278024385,10.295321545162794
6.491428352,1.0001605966195388,10.11992095425583
6.493714432,1.0001495766176713,9.944508639751968
6.496,1.0001295333116231,9.769251317950712
6.498285568,1.0001016744037117,9.594273528376073
6.500571648,1.000067719714157,9.419678254507396
6.502857216,1.0000299085062647,9.245526610009957
6.505142784,0.9999905586521074,9.071870958409976
6.507428352,0.9999520996405822,8.8986777883095
6.509714432,0.9999169972837398,8.725948727044647
6.512,0.9998874818282574,8.55364338883057
6.514285568,0.9998654335257455,8.381606854031558
6.516571648,0.9998521458770375,8.209774304450187
6.518857216,0.99984861932966,8.037981673894471
6.521142784,0.9998549159025866,7.866086225056894
6.523428352,0.9998708824926431,7.693968716313793
6.525714432,0.9998952835483591,7.521472550497203
6.528,0.9999266613842857,7.348513645261307
6.530285568,0.9999631720515623,7.174959496847671
6.532571648,1.000002358026939,7.000796979870711
6.534857216,1.0000418509150755,6.826023548376487
6.537142784,1.0000791119498416,6.650580249310613
6.539428352,1.0001118232901496,6.474541572296614
6.541714432,1.0001378417324023,6.298016897106266
6.544,1.0001555796472439,6.121103168957773
6.546285568,1.0001638902916234,5.943919574366735
6.548571648,1.0001622957448286,5.766604873449462
6.550857216,1.0001508373700834,5.589303811941162
6.553142784,1.000130314277012,5.412168020241708
6.555428352,1.0001019468497478,5.2352971747826045
6.557714432,1.0000674399215923,5.058809845948104
6.56,1.000028976199586,4.882762547522142
6.562285568,0.9999891368904296,4.707208006156231
6.564571648,0.9999502434619776,4.532150966271246
6.566857216,0.9999148546835384,4.3575522568900995
6.569142784,0.9998850258069802,4.183347974940736
6.571428352,0.9998630898375896,4.009447205315977
6.573714432,0.9998499617172142,3.8357062739529515
6.576,0.9998465762355685,3.662025822800885
6.578285568,0.999853391769188,3.4882321069644084
6.580571648,0.9998698097368388,3.314191483046184
6.582857216,0.999894663438008,3.139769860186525
6.585142784,0.999926730879654,2.9648710777641205
6.587428352,0.999963774785573,2.78937239019043
6.589714432,1.0000035475674018,2.6132525776538937
6.592,1.000043314386066,2.4364684436549724
6.594285568,1.0000809375030808,2.2590480500066255
6.596571648,1.0001138630008521,2.081028998458132
6.598857216,1.0001400371105869,1.9025004994395367
6.601142784,1.0001577604377148,1.7235807590484828
6.603428352,1.0001659600444295,1.5443795076966533
6.605714432,1.0001640357639177,1.3650542931940608
6.608,1.0001522406819512,1.1857456749891107
6.610285568,1.0001311556227175,1.006599149832659
6.612571648,1.000102153827839,0.8277221849561844
6.614857216,1.000067067416636,0.6492538438100675
6.617142784,1.0000281564970805,0.47120807586176605
6.619428352,0.999987802054598,0.29365657800786527
6.621714432,0.9999486055250765,0.11660778130772703
6.624,0.9999128693622944,-0.05997434415752152
6.626285568,0.9998829070378472,-0.23616749190188052
6.628571648,0.9998608750265354,-0.4120868695418756
6.630857216,0.9998478755511152,-0.5878109879105108
6.633142784,0.9998448139285361,-0.7635222441027556
6.635428352,0.9998518907070221,-0.9393014619570946
6.637714432,0.9998687769176088,-1.115373140700186
6.64,0.9998942450958564,-1.2918275680612101
6.642285568,0.9999267993015366,-1.4687773948090166
6.644571648,0.9999643720145134,-1.6463359092966605
6.646857216,1.0000046919366825,-1.8245278374883416
6.649142784,1.0000449668875522,-2.0033957608779636
6.651428352,1.0000829581882518,-2.182904926621622
6.653714432,1.000116131131386,-2.3630354191871485
6.656,1.0001424652506699,-2.5436683371795366
6.658285568,1.0001601695325697,-2.7247067650018955
6.660571648,1.0001681749448805,-2.906018792046521
6.662857216,1.000166031094663,-3.08746448984464
6.665142784,1.0001537239995038,-3.2688946317520844
6.667428352,1.0001321684606939,-3.450166731667981
6.669714432,1.0001027215532616,-3.6311346157554825
6.672,1.0000671170486526,-3.8117464260727765
6.674285568,1.0000275954228086,-3.9918842511127344
6.676571648,0.999986741511618,-4.171531833399062
6.678857216,0.9999470430049059,-4.350690694700266
6.681142784,0.9999110067581963,-4.529374164802737
6.683428352,0.9998809379884025,-4.707659414033114
6.685714432,0.9998587650405156,-4.885678739128923
6.688,0.9998458795410109,-5.063506784612699
6.690285568,0.9998429626861967,-5.241323923748708
6.692571648,0.9998504551443426,-5.419249373172034
6.694857216,0.9998677484160108,-5.597438523078152
6.697142784,0.9998937053419134,-5.776033705001333
6.699428352,0.9999268358193764,-5.955131407082989
6.701714432,0.9999648839676494,-6.1348567785082615
6.704,1.0000057198930816,-6.315232021302881
6.706285568,1.0000465812600507,-6.496291929906225
6.708571648,1.0000847965448494,-6.677996275662831
6.710857216,1.0001183353171745,-6.86033029339359
6.713142784,1.0001447508673924,-7.04317272149962
6.715428352,1.0001624496596384,-7.2264489659509294
6.717714432,1.0001704017423958,-7.409970721035772
6.72,1.0001679658026714,-7.59363245437667
6.722285568,1.0001553404908523,-7.77728790711036
6.724571648,1.0001333217381494,-7.960777870642556
6.726857216,1.0001033247181672,-8.143988040786512
6.729142784,1.0000671383169104,-8.326794512705337
6.731428352,1.0000271498291655,-8.509150391516512
6.733714432,0.999985749290597,-8.69101206167561
6.736,0.999945667389476,-8.872374201956152
6.738285568,0.9999092776291479,-9.05327509722117
6.740571648,0.9998790615795333,-9.233765077030299
6.742857216,0.9998566876748686,-9.413983595962241
6.745142784,0.999843833771024,-9.594020615727537
6.747428352,0.9998412046235582,-9.774057007830097
6.749714432,0.9998488765871216,-9.954193155198286
6.752,0.9998665564838086,-10.134636615561568
6.754285568,0.9998930373036948,-10.315464545105723
6.756571648,0.9999266913189317,-10.496825611870918
6.758857216,0.9999653884881463,-10.678798973546865
6.761142784,1.0000066658037285,-10.861469197698305
6.763428352,1.000047975460267,-11.044802917775163
6.765714432,1.0000867087927885,-11.228823256750717
6.768,1.000120493673066,-11.413465541167524
6.770285568,1.0001470917377842,-11.598623347094751
6.772571648,1.0001647925352735,-11.784209801070409
6.774857216,1.000172643648012,-11.970069704034714
6.777142784,1.0001699510059785,-12.1560781722643
6.779428352,1.000157020925848,-12.342028933056675
6.781714432,1.000134619665298,-12.527862064101516
6.784,1.0001040374239776,-12.713374456263667
6.786285568,1.0000674004012047,-12.89850631811057
6.788571648,1.000026824851165,-13.083182163075934
6.790857216,0.9999849149564767,-13.267343507496534
6.793142784,0.9999443634374354,-13.451027713112028
6.795428352,0.9999076395341703,-13.634215371193042
6.797714432,0.9998770902646212,-13.817029354134116
6.8,0.9998546462449602,-13.999545234173384
6.802285568,0.9998417631934496,-14.181906828842452
6.804571648,0.9998392630498935,-14.36424551097279
6.806857216,0.9998472405368588,-14.5467288845976
6.809142784,0.9998652936819116,-14.729475132044895
6.811428352,0.99989212172586,-14.912668974029389
6.813714432,0.999926364136746,-15.096382661285169
6.816,0.9999655640597899,-15.280728105575925
6.818285568,1.0000073747578948,-15.465746819491299
6.820571648,1.0000491725481857,-15.651486677140385
6.822857216,1.0000884143089084,-15.83788637219592
6.825142784,1.0001224461649032,-16.024929013822373
6.827428352,1.000149200803995,-16.212508138759993
6.829714432,1.0001670607599482,-16.400514475004652
6.832,1.000174866909963,-16.58880149626044
6.834285568,1.0001720450954545,-16.777211127461097
6.836571648,1.0001587938811978,-16.96560908972884
6.838857216,1.0001359945806794,-17.15386619616182
6.841142784,1.0001049551355243,-17.341810419445277
6.843428352,1.0000677841051757,-17.529364511559162
6.845714432,1.0000265718290933,-17.71644959784503
6.848,0.9999842580630159,-17.903039112615524
6.850285568,0.999943191222056,-18.089111613663956
6.852571648,0.9999061260660475,-18.274715226765203
6.854857216,0.9998752725158976,-18.459919249812042
6.857142784,0.999852727841049,-18.64484428682419
6.859428352,0.999839835334563,-18.829615636741423
6.861714432,0.9998373373315526,-19.014368228788
6.864,0.9998455715366367,-19.1992686350829
6.866285568,0.999863912592186,-19.384443603377836
6.868571648,0.9998912202001122,-19.570054974118424
6.870857216,0.9999258546812737,-19.756220205208344
6.873142784,0.9999656491328209,-19.94302044420518
6.875428352,1.0000079606665264,-20.13051066611609
6.877714432,1.000050375004363,-20.318712323360963
6.88,1.000089943211302,-20.507614724301085
6.882285568,1.0001243400322597,-20.697159415869976
6.884571648,1.000151329809363,-20.8872381911134
6.886857216,1.000169300303125,-21.077765065505652
6.889142784,1.0001771214834487,-21.268559872116438
6.891428352,1.0001741579648005,-21.459493640002954
6.893714432,1.000160674403412,-21.65041491136912
6.896,1.0001374640579916,-21.841188497134347
6.898285568,1.0001059937379504,-22.03164196315276
6.900571648,1.0000682577583004,-22.221717525807765
6.902857216,1.0000266136374263,-22.411300754590222
6.905142784,0.999983652726173,-22.600391234600504
6.907428352,0.9999421138593568,-22.78896261961152
6.909714432,0.9999046529811381,-22.977081072839006
6.912,0.999873523107479,-23.164763413172828
6.914285568,0.9998506883205501,-23.352201281438948
6.916571648,0.999837711020737,-23.53947488843523
6.918857216,0.9998353700070788,-23.726711462167547
6.921142784,0.99984375835991,-23.91411372872573
6.923428352,0.9998624017942063,-24.101814009790985
6.925714432,0.9998901297611064,-24.289935666507773
6.928,0.9999252930634569,-24.478646186314382
6.930285568,0.9999655619697985,-24.66797537548359
6.932571648,1.0000085245833643,-24.85802494822144
6.934857216,1.000051226961151,-25.048796769942022
