freq,mag,phase
6.0,0.9999916624050379,-113.51615719225555
6.008,0.9999931276516068,-113.908843058065
6.016,0.9999945443936046,-114.30128657032432
6.024,0.9999959134636263,-114.69348805000847
6.032,0.9999972356864182,-115.08544783175093
6.04,0.9999985118788886,-115.47716626374707
6.048,0.9999997428501157,-115.86864370765755
6.056,1.0,-116.25988053851157
6.064,1.0,-116.6508771446098
6.072,1.0000000000000002,-117.04163392742765
6.08,1.0,-117.43215130151816
6.088,1.0,-117.82242969441502
6.096,1.0,-118.21246954653546
6.104,1.0,-118.60227131108316
6.112,1.0,-118.99183545395114
6.12,0.9999999999999999,-119.38116245362467
6.128,1.0,-119.77025280108413
6.136,1.0,-120.15910699970819
6.144,1.0,-120.54772556517642
6.152,1.0,-120.93610902537264
6.16,1.0,-121.324257920288
6.168,1.0,-121.71217280192394
6.176,1.0,-122.09985423419573
6.184,1.0,-122.4873027928357
6.192,1.0,-122.87451906529668
6.2,1.0,-123.26150365065564
6.208,1.0,-123.64825715951751
6.216,0.9999999999999999,-124.03478021391884
6.224,0.9999999999999999,-124.42107344723193
6.232,0.9999999999999999,-124.80713750406903
6.24,0.9999999999999999,-125.19297304018656
6.248,1.0,-125.5785807223897
6.256,0.9999999999999999,-125.96396122843697
6.264,1.0,-126.3491152469453
6.272,0.9999999999999999,-126.73404347729506
6.28,1.0,-127.11874662953521
6.288,1.0,-127.50322542428901
6.296,1.0,-127.88748059265961
6.304,0.9999999999999999,-128.27151287613628
6.312,1.0,-128.65532302650035
6.32,1.0,-129.03891180573189
6.328,1.0,-129.4222799859164
6.336,0.9999999999999998,-129.80542834915173
6.344,0.9999999999999999,-130.1883576874555
6.352,1.0,-130.5710688026727
6.36,0.9999999999999999,-130.9535625063831
6.368,1.0,-131.33583961981003
6.376,1.0,-131.71790097372843
6.384,1.0,-132.09974740837367
6.392,1.0,-132.48137977335057
6.4,0.9999999999999999,-132.86279892754285
6.408,1.0,-133.2440057390228
6.416,0.9999999999999999,-133.62500108496124
6.424,0.9999999999999998,-134.00578585153815
6.432,1.0,-134.3863609338529
6.44,1.0000000000000002,-134.76672723583576
6.448,0.9999999999999999,-135.14688567015898
6.456,1.0,-135.52683715814877
6.464,1.0,-135.9065826296972
6.472,1.0,-136.28612302317484
6.48,1.0,-136.66545928534345
6.4879999999999995,0.9999999999999999,-137.04459237126943
6.496,0.9999999999999998,-137.4235232442372
6.504,0.9999999999999999,-137.802252875663
6.5120000000000005,0.9999999999999999,-138.18078224500985
6.52,1.0000000000000002,-138.5591123397015
6.5280000000000005,1.0,-138.93724415503837
6.536,1.0,-139.3151786941123
6.5440000000000005,0.9999999999999999,-139.69291696772305
6.552,0.9999999999999999,-140.07045999429423
6.5600000000000005,0.9999999999999999,-140.44780879979044
6.568,1.0,-140.82496441763374
6.5760000000000005,1.0,-141.2019278886221
6.584,1.0,-141.57870026084632
6.592,1.0,-141.95528258960928
6.6,1.0,-142.33167593734413
6.608,0.9999999999999999,-142.70788137353375
6.616,1.0,-143.0838999746302
6.624,0.9999999999999999,-143.45973282397495
6.632,1.0,-143.83538101171908
6.64,1.0,-144.2108456347444
6.648,1.0,-144.58612779658452
6.656,1.0,-144.96122860734673
6.664,1.0,-145.33614918363415
6.672,1.0,-145.71089064846822
6.68,0.9999999999999999,-146.0854541312118
6.688,1.0,-146.45984076749258
6.696,1.0,-146.83405169912686
6.704,0.9999999999999999,-147.20808807404407
6.712,1.0,-147.58195104621137
6.72,1.0,-147.95564177555883
6.728,0.9999999999999998,-148.32916142790495
6.736,1.0,-148.70251117488303
6.744,1.0,-149.0756921938672
6.752,1.0,-149.44870566789967
6.76,1.0,-149.821552785618
6.768,0.9999999999999999,-150.1942347411827
6.776,1.0,-150.56675273420566
6.784,1.0,-150.93910796967876
6.792,1.0,-151.31130165790285
6.8,0.9999999999999999,-151.68333501441734
6.808,1.0,-152.0552092599301
6.816,1.0,-152.42692562024794
6.824,1.0,-152.79848532620724
6.832,1.0,-153.16988961360536
6.84,1.0,-153.54113972313226
6.848,0.9999999999999999,-153.91223690030247
6.856,1.0,-154.28318239538783
6.864,1.0,-154.65397746335026
6.872,0.999999596132695,-155.02462336377522
6.88,0.9999991626325343,-155.39512136080546
6.888,0.9999987308780667,-155.76547272307528
6.896,0.9999983010287529,-156.13567872364516
6.904,0.9999978732401769,-156.50574063993685
6.912,0.9999974476640912,-156.87565975366869
6.92,0.9999970244484582,-157.24543735079172
6.928,0.9999966037374937,-157.61507472142586
6.936,0.9999961856717099,-157.98457315979664
6.944,0.9999957703879561,-158.35393396417237
6.952,0.9999953580194642,-158.7231584368016
6.96,0.9999949486958876,-159.09224788385126
6.968,0.9999945425433447,-159.46120361534466
6.976,0.9999941396844615,-159.8300269451006
6.984,0.9999937402384113,-160.19871919067236
6.992,0.9999933443209572,-160.56728167328717
7.0,0.9999929520444948,-160.93571571778637
7.008,0.9999925635180889,-161.3040226525656
7.016,0.9999921788475202,-161.6722038095156
7.024,0.9999917981353211,-162.04026052396318
7.032,0.9999914214808189,-162.40819413461296
7.04,0.9999910489801758,-162.7760059834892
7.048,0.999990680726426,-163.1436974158779
7.056,0.9999903168095223,-163.51126978026974
7.064,0.9999899573163674,-163.87872442830277
7.072,0.99998960233086,-164.24606271470617
7.08,0.9999892519339304,-164.6132859972438
7.088,0.9999889062035816,-164.98039563665836
7.096,0.9999885652149263,-165.34739299661598
7.104,0.9999882290402273,-165.71427944365107
7.112,0.9999878977489344,-166.08105634711148
7.12,0.9999875714077231,-166.44772507910426
7.128,0.9999872500805336,-166.8142870144413
7.136,0.9999869338286066,-167.180743530586
7.144,0.9999866227105217,-167.54709600759958
7.152,0.9999863167822365,-167.9133458280883
7.16,0.9999860160971196,-168.2794943771506
7.168,0.9999857207059906,-168.64554304232496
7.176,0.999985430657156,-169.01149321353776
7.184,0.9999851459964451,-169.37734628305165
7.192,0.9999848667672466,-169.74310364541418
7.2,0.999984593010544,-170.10876669740694
7.208,0.9999843247649514,-170.47433683799454
7.216,0.9999840620667486,-170.83981546827474
7.224,0.9999838049499178,-171.2052039914279
7.232,0.9999835534461767,-171.57050381266748
7.24,0.9999833075850135,-171.93571633919072
7.248,0.9999830673937218,-172.30084298012915
7.256,0.9999828328974347,-172.66588514650007
7.264,0.9999826041191606,-173.03084425115802
7.272,0.9999823810798111,-173.39572170874638
7.28,0.9999821637982427,-173.76051893564951
7.288,0.9999819522912832,-174.1252373499451
7.296,0.9999817465737681,-174.48987837135684
7.304,0.9999815466585729,-174.85444342120724
7.312,0.9999813525566442,-175.21893392237095
7.32,0.9999811642770338,-175.58335129922813
7.328,0.9999809818269304,-175.9476969776181
7.336,0.9999808052116897,-176.31197238479365
7.344,0.9999806344348676,-176.67617894937493
7.352,0.999980469498251,-177.0403181013043
7.36,0.9999803104018893,-177.40439127180082
7.368,0.9999801571441229,-177.7683998933155
7.376,0.9999800097216176,-178.13234539948652
7.384,0.9999798681293923,-178.49622922509474
7.392,0.9999797323608484,-178.8600528060194
7.4,0.9999796024078009,-179.2238175791943
7.4079999999999995,0.9999794782605096,-179.58752498256376
7.416,0.9999793599077043,-179.95117645503962
7.4239999999999995,0.9999792473366168,179.68522656354298
7.432,0.9999791405330097,179.32168263246757
7.4399999999999995,0.9999790394812036,178.95819031018024
7.448,0.9999789441641068,178.59474815433143
7.4559999999999995,0.9999788545632404,178.23135472181912
7.464,0.9999787706587716,177.86800856883042
7.4719999999999995,0.9999786924295357,177.50470825088414
7.48,0.999978619853067,177.1414523228721
7.4879999999999995,0.9999785529056241,176.7782393391014
7.496,0.999978491562217,176.415067853335
7.504,0.9999784357966346,176.05193641883398
7.5120000000000005,0.9999783855814709,175.68884358839767
7.52,0.9999783408881499,175.32578791440534
7.5280000000000005,0.9999783016869521,174.96276794885617
7.536,0.9999782679470413,174.5997822434105
7.5440000000000005,0.9999782396364882,174.23682934942948
7.552,0.9999782167222969,173.87390781801605
7.5600000000000005,0.999978199170429,173.5110162000542
7.568,0.9999781869458287,173.14815304624958
7.5760000000000005,0.9999781800124469,172.7853169071685
7.584,0.999978178333266,172.42250633327828
7.5920000000000005,0.9999781818703235,172.05971987498597
7.6,0.9999781905847357,171.69695608267824
7.6080000000000005,0.9999782044367207,171.33421350675997
7.616,0.9999782233856231,170.9714906976938
7.6240000000000006,0.9999782473899356,170.60878620603862
7.632,0.9999782764073225,170.24609858248854
7.640000000000001,0.9999783103946421,169.8834263779114
7.648,0.9999783493079691,169.52076814338744
7.656000000000001,0.9999783931026166,169.1581224302474
7.664,0.9999784417331585,168.7954877901113
7.672,0.9999784951534499,168.43286277492606
7.68,0.9999785533166499,168.0702459370039
7.688,0.9999786161752421,167.7076358290603
7.696,0.9999786836810557,167.34503100425178
7.704,0.9999787557852864,166.9824300162137
7.712,0.9999788324385165,166.61983141909795
7.72,0.9999789135907362,166.25723376761053
7.728,0.9999789991913619,165.8946356170492
7.736,0.9999790891892576,165.53203552334068
7.744,0.9999791835327546,165.1694320430783
7.752,0.9999792821696698,164.80682373355899
7.76,0.9999793850473258,164.44420915282078
7.768,0.9999794921125691,164.08158685967973
7.776,0.9999796033117903,163.71895541376722
7.784,0.9999797185909408,163.35631337556686
7.792,0.9999798378955528,162.99365930645152
7.8,0.999979961170756,162.6309917687203
7.808,0.9999800883612969,162.2683093256353
7.816,0.9999802194115552,161.90561054145869
7.824,0.9999803542655628,161.5428939814893
7.832,0.9999804928670192,161.18015821209946
7.84,0.9999806351593106,160.81740180077176
7.848,0.999980781085525,160.45462331613578
7.856,0.9999809305884706,160.09182132800478
7.864,0.9999810836106902,159.72899440741224
7.872,0.9999812400944792,159.36614112664864
7.88,0.9999813999819013,159.00326005929804
7.888,0.9999815632148039,158.64034978027465
7.896,0.9999817297348338,158.27740886585957
7.904,0.9999818994834532,157.9144358937372
7.912,0.9999820724019545,157.55142944303202
7.92,0.9999822484314754,157.18838809434516
7.928,0.999982427513014,156.8253104297908
7.936,0.9999826095874438,156.4621950330331
7.944,0.9999827945955266,156.09904048932262
7.952,0.9999829824779292,155.73584538553303
7.96,0.9999831731752353,155.3726083101977
7.968,0.999983366627961,155.00932785354658
7.976,0.9999835627765674,154.64600260754253
7.984,0.9999837615614752,154.2826311659185
7.992,0.9999839629230768,153.91921212421397
8.0,0.999984166801751,153.5557440798119
8.008,0.9999843731378741,153.19222563197545
8.016,0.9999845818718345,152.8286553818848
8.024000000000001,0.9999847929440439,152.46503193267452
8.032,0.9999850062949511,152.10135388946998
8.04,0.9999852218650532,151.7376198594245
8.048,0.9999854395949078,151.37382845175654
8.056000000000001,0.9999856594251452,151.00997827778687
8.064,0.99998588129648,150.64606795097555
8.072,0.9999861051497227,150.28209608695926
8.08,0.9999863309257911,149.91806130358847
8.088000000000001,0.9999865585657212,149.55396222096513
8.096,0.9999867880106786,149.1897974614799
8.104,0.9999870192019693,148.8255656498495
8.112,0.9999872520810499,148.46126541315434
8.120000000000001,0.9999874865895386,148.09689538087667
8.128,0.9999877226692256,147.73245418493772
8.136,0.9999879602620831,147.36794045973573
8.144,0.999988199310275,147.0033528421838
8.152000000000001,0.9999884397561671,146.63868997174805
8.16,0.9999886815423373,146.27395049048576
8.168,0.9999889246115838,145.9091330430831
8.176,0.9999891689069352,145.54423627689377
8.184000000000001,0.9999894143716604,145.17925884197746
8.192,0.9999896609492761,144.81419939113817
8.2,0.9999899085835572,144.4490565799626
8.208,0.9999901572185439,144.08382906685907
8.216000000000001,0.999990406798552,143.7185155130964
8.224,0.9999906572681803,143.35311458284275
8.232,0.9999909085723184,142.9876249432042
8.24,0.9999911606561563,142.62204526426447
8.248000000000001,0.9999914134651907,142.25637421912404
8.256,0.9999916669452342,141.89061048393924
8.264,0.9999919210424217,141.52475273796202
8.272,0.9999921757032184,141.1587996635792
8.280000000000001,0.9999924308744275,140.7927499463528
8.288,0.9999926865031968,140.4266022750595
8.296,0.9999929425370273,140.06035534173046
8.304,0.9999931989237767,139.69400784169176
8.312,0.9999934556116694,139.32755847360485
8.32,0.9999937125493021,138.9610059395062
8.328,0.9999939696856504,138.59434894484878
8.336,0.9999942269700736,138.22758619854184
8.344,0.9999944843523235,137.86071641299256
8.352,0.9999947417825482,137.4937383041461
8.36,0.9999949992112999,137.12665059152752
8.368,0.9999952565895383,136.75945199828257
8.376,0.9999955138686388,136.39214125121924
8.384,0.9999957710003959,136.02471708084911
8.392,0.99999602793703,135.65717822142938
8.4,0.9999962846311918,135.28952341100427
8.408,0.9999965410359675,134.9217513914476
8.416,0.9999967971048839,134.55386090850425
8.424,0.9999970527919134,134.1858507118331
8.432,0.999997308051479,133.81771955504897
8.44,0.999997562838457,133.44946619576578
8.448,0.9999978171081837,133.08108939563874
8.456,0.9999980708164586,132.71258792040786
8.464,0.9999983239195483,132.34396053994058
8.472,0.9999985763741925,131.97520602827547
8.48,0.9999988281376044,131.60632316366522
8.488,0.9999990791674779,131.23731072862074
8.496,0.9999993294219891,130.86816750995436
8.504,0.9999995788598008,130.49889229882442
8.512,0.9999998274400661,130.12948389077852
8.52,1.0,129.7599410857988
8.528,0.9999999999999998,129.39026268834547
8.536,1.0000000000000002,129.0204475074021
8.544,0.9999999999999999,128.6504943565198
8.552,1.0,128.28040205386273
8.56,1.0,127.91016942225282
8.568,0.9999999999999999,127.53979528921528
8.576,1.0,127.16927848702383
8.584,0.9999999999999999,126.79861785274682
8.592,1.0,126.42781222829227
8.6,0.9999999999999999,126.05686046045477
8.608,1.0,125.6857614009607
8.616,1.0,125.31451390651543
8.624,1.0,124.94311683884908
8.632,1.0,124.57156906476378
8.64,0.9999999999999999,124.19986945618004
8.648,1.0,123.82801689018426
8.656,1.0,123.45601024907528
8.664,1.0,123.08384842041256
8.672,1.0,122.71153029706286
8.68,0.9999999999999999,122.33905477724873
8.688,1.0000000000000002,121.9664207645957
8.696,1.0,121.59362716818094
8.704,0.9999999999999999,121.22067290258092
8.712,0.9999999999999999,120.84755688792038
8.72,1.0,120.47427804992026
8.728,1.0,120.10083531994704
8.736,1.0,119.72722763506106
8.744,0.9999999999999999,119.3534539380661
8.752,1.0,118.97951317755816
8.76,1.0,118.60540430797525
8.768,1.0,118.23112628964647
8.776,1.0,117.85667808884224
8.784,1.0,117.48205867782367
8.792,1.0,117.10726703489316
8.8,0.9999999999999999,116.7323021444438
8.808,0.9999999999999999,116.35716299701063
8.815999999999999,0.9999999999999999,115.98184858932036
8.824,1.0,115.60635792434238
8.832,1.0,115.23069001133958
8.84,1.0,114.85484386591936
8.847999999999999,0.9999999999999999,114.47881851008434
8.856,1.0,114.10261297228384
8.864,1.0,113.7262262874655
8.872,1.0,113.34965749712654
8.879999999999999,1.0,112.97290564936532
8.888,1.0,112.59596979893325
8.896,1.0,112.21884900728698
8.904,0.9999999999999999,111.84154234264017
8.911999999999999,1.0,111.46404888001562
8.92,0.9999999999999999,111.08636770129776
8.928,0.9999999999999999,110.70849789528516
8.936,1.0,110.33043855774305
8.943999999999999,0.9999999999999999,109.95218879145578
8.952,0.9999999999999999,109.57374770627976
8.96,0.9999999999999999,109.1951144191966
8.968,1.0000000000000002,108.81628805436596
8.975999999999999,0.9999999999999999,108.43726774317841
8.984,0.9999999999999999,108.05805262430901
8.992,0.9999999999999999,107.67864184377063
9.0,1.0000000000000002,107.29903455496733
9.008,0.9999999999999999,106.91922991874766
9.016,1.0,106.53922710345843
9.024000000000001,0.9999999999999999,106.15902528499862
9.032,0.9999999999999999,105.77862364687294
9.04,1.0,105.39802138024557
9.048,0.9999999999999999,105.01721768399418
9.056000000000001,1.0,104.63621176476418
9.064,1.0,104.25500283702257
9.072,0.9999999999999999,103.87359012311194
9.08,1.0,103.49197285330476
9.088000000000001,1.0,103.1101502658578
9.096,1.0,102.72812160706636
9.104,1.0,102.34588613131825
9.112,0.9999999999999999,101.96344310114851
9.120000000000001,1.0,101.58079178729385
9.128,0.9999999999999999,101.19793146874696
9.136,0.9999999999999999,100.81486143281084
9.144,1.0,100.43158097515341
9.152000000000001,0.9999999999999999,100.0480893998622
9.16,1.0,99.66438601949868
9.168,1.0,99.28047015515259
9.176,1.0,98.8963411364966
9.184000000000001,1.0,98.51199830184107
9.192,1.0,98.12744099818835
9.2,1.0,97.74266858128696
9.208,1.0,97.35768041568642
9.216000000000001,1.0,96.97247587479167
9.224,0.9999999999999999,96.5870543409174
9.232,1.0000000000000002,96.20141520534219
9.24,1.0,95.81555786836302
9.248000000000001,0.9999999999999999,95.42948173934961
9.256,0.9999999999999999,95.04318623679855
9.264,1.0,94.65667078838719
9.272,1.0,94.26993483102791
9.280000000000001,0.9999999999999999,93.88297781092224
9.288,1.0000000000000002,93.49579918361458
9.296,0.9999999999999999,93.10839841404588
9.304,0.9999999999999999,92.72077497660746
9.312000000000001,0.9999999999999999,92.33292835519485
9.32,0.9999999999999999,91.94485804326104
9.328,1.0,91.55656354386971
9.336,0.9999999999999999,91.16804436974867
9.344,1.0,90.77930004334323
9.352,1.0,90.39033009686851
9.36,1.0,90.00113407236303
9.368,1.0,89.61171152174065
9.376,1.0,89.22206200684374
9.384,1.0,88.83218509949496
9.392,1.0,88.44208038154994
9.4,1.0,88.05174744494865
9.408,1.0,87.66118589176784
9.416,1.0,87.27039533427207
9.424,1.0,86.87937539496548
9.432,0.9999999999999999,86.48812570664258
9.44,1.0,86.0966459124396
9.448,0.9999999999999999,85.70493566588463
9.456,1.0,85.31299463094881
9.464,1.0,84.9208224820957
9.472,1.0,84.52841890433197
9.48,1.0,84.13578359325643
9.488,0.9999999999999999,83.74291625511006
9.496,1.0,83.34981660682446
9.504,0.9999999999999999,82.9564843760713
9.512,1.0,82.56291930131027
9.52,1.0,82.16912113183787
9.528,1.0,81.7750896278346
9.536,1.0,81.38082456041326
9.544,0.9999999999999999,80.98632571166544
9.552,0.9999999999999999,80.59159287470912
9.56,1.0,80.1966258537344
9.568,1.0,79.80142446405043
9.576,1.0,79.40598853213041
9.584,1.0,79.01031789565775
9.592,1.0,78.61441240357027
9.6,1.0,78.21827191610551
9.608,1.0,77.82189630484429
9.616,1.0,77.42528545275499
9.624,1.0,77.02843925423628
9.632,1.0,76.63135761516068
9.64,0.9999999999999999,76.2340404529162
9.648,1.0,75.83648769644911
9.656,0.9999999999999999,75.43869928630465
9.664,0.9999999999999999,75.04067517466868
9.672,1.0,74.64241532540758
9.68,1.0,74.24391971410894
9.688,1.0,73.84518832812029
9.696,1.0,73.44622116658883
9.704,1.0,73.04701824049907
9.712,1.0,72.6475795727116
9.72,1.0,72.24790519799954
9.728,1.0,71.84799516308614
9.736,1.0,71.4478495266802
9.744,0.9999999999999999,71.04746835951246
9.752,0.9999999999999999,70.64685174436987
9.76,1.0,70.2459997761307
9.768,1.0,69.84491256179776
9.776,0.9999999999999999,69.44359022053209
9.784,1.0,69.04203288368497
9.792,1.0,68.64024069483041
9.8,1.0,68.23821380979578
9.808,1.0,67.835952396693
9.816,1.0,67.43345663594782
9.824,1.0,67.03072672032961
9.832,0.9999999999999999,66.62776285497931
9.84,1.0,66.22456525743786
9.847999999999999,0.9999999999999999,65.82113415767266
9.856,1.0,65.41746979810424
9.864,1.0,65.013572433632
9.872,0.9999999999999999,64.60944233165894
9.879999999999999,1.0,64.20507977211555
9.888,0.9999999999999998,63.8004850474834
9.896,0.9999999999999999,63.39565846281777
9.904,0.9999999999999999,62.99060033576932
9.911999999999999,1.0,62.58531099660479
9.92,1.0,62.17979078822747
9.928,0.9999999999999999,61.774040066196534
9.936,0.9999999999999999,61.36805919874553
9.943999999999999,1.0,60.96184856679971
9.952,1.0,60.55540856399311
9.96,0.9999999999999999,60.14873959668466
9.968,1.0,59.74184208397303
9.975999999999999,1.0,59.334716457710705
9.984,1.0,58.927363162517395
9.992,1.0,58.519782655792646
10.0,1.0,58.11197540772719
10.008,0.9999999999999999,57.70394190131324
10.016,0.9999999999999999,57.2956826323544
10.024000000000001,1.0,56.88719810947444
10.032,0.9999999999999999,56.47848885412493
10.04,1.0,56.069555400591845
10.048,0.9999999999999998,55.66039829600156
