freq,mag,phase
6.0,0.999999013568103,100.4309887436867
6.008,0.9999991824082789,100.31630302995953
6.016,0.9999993446484731,100.20158329684581
6.024,0.9999995004124701,100.0868294974519
6.032,0.9999996498230055,99.97204158489897
6.04,0.999999793001769,99.85721951232337
6.048,0.9999999300694086,99.74236323287674
6.056,1.0,99.62747269972633
6.064,1.0,99.51254786605523
6.072,1.0,99.39758868506267
6.08,1.0,99.28259510996418
6.088,1.0000000000000002,99.1675670939919
6.096,1.0,99.05250459039483
6.104,0.9999999999999999,98.93740755243903
6.112,0.9999999999999999,98.82227593340791
6.12,0.9999999999999999,98.70710968660245
6.128,1.0,98.59190876534147
6.136,1.0000000000000002,98.47667312296186
6.144,1.0,98.36140271281883
6.152,0.9999999999999999,98.24609748828617
6.16,0.9999999999999999,98.13075740275642
6.168,1.0,98.01538240964123
6.176,0.9999999999999999,97.89997246237154
6.184,1.0,97.7845275143978
6.192,0.9999999999999999,97.66904751919024
6.2,0.9999999999999999,97.55353243023914
6.208,1.0,97.43798220105504
6.216,1.0,97.32239678516893
6.224,1.0,97.20677613613266
6.232,1.0,97.09112020751894
6.24,1.0,96.97542895292185
6.248,0.9999999999999999,96.85970232595676
6.256,0.9999999999999999,96.74394028026092
6.264,1.0,96.62814276949341
6.272,1.0,96.51230974733554
6.28,1.0,96.39644116749106
6.288,1.0000000000000002,96.28053698368633
6.296,1.0,96.16459714967067
6.304,1.0,96.04862161921645
6.312,1.0,95.9326103461195
6.32,0.9999999999999999,95.81656328419919
6.328,1.0,95.70048038729878
6.336,1.0,95.58436160928555
6.344,0.9999999999999999,95.46820690405116
6.352,1.0,95.35201622551176
6.36,0.9999999999999999,95.2357895276083
6.368,1.0,95.11952676430676
6.376,1.0,95.0032278895983
6.384,1.0,94.88689285749963
6.392,0.9999999999999998,94.77052162205315
6.4,1.0,94.65411413732717
6.408,1.0,94.5376703574162
6.416,1.0,94.42119023644116
6.424,1.0,94.30467372854956
6.432,0.9999999999999999,94.18812078791582
6.44,0.9999999999999999,94.0715313687414
6.448,1.0,93.95490542525513
6.456,1.0,93.83824291171337
6.464,1.0,93.7215437824002
6.472,1.0,93.6048079916278
6.48,1.0,93.4880354937365
6.4879999999999995,1.0,93.37122624309515
6.496,0.9999999999999999,93.25438019410116
6.504,1.0,93.13749730118103
6.5120000000000005,1.0,93.02057751879022
6.52,1.0,92.90362080141367
6.5280000000000005,0.9999999999999999,92.78662710356576
6.536,1.0,92.66959637979086
6.5440000000000005,1.0,92.5525285846632
6.552,1.0,92.43542367278732
6.5600000000000005,0.9999999999999999,92.31828159879822
6.568,1.0,92.20110231736167
6.5760000000000005,1.0,92.0838857831742
6.584,0.9999999999999998,91.96663195096359
6.592,0.9999999999999999,91.84934077548893
6.6,1.0,91.73201221154086
6.608,1.0,91.6146462139419
6.616,1.0,91.49724273754646
6.624,1.0,91.37980173724124
6.632,1.0,91.26232316794541
6.64,0.9999999999999999,91.14480698461072
6.648,1.0,91.0272531422219
6.656,1.0,90.90966159579666
6.664,1.0,90.79203230038614
6.672,1.0,90.67436521107489
6.68,1.0,90.55666028298126
6.688,0.9999999599048857,90.43891747125754
6.696,0.9999999128831286,90.32113673109018
6.704,0.9999998663969979,90.20331801770001
6.712,0.9999998204918527,90.08546128634248
6.72,0.9999997752122929,89.96756649230778
6.728,0.9999997306021583,89.84963359092114
6.736,0.9999996867045361,89.73166253754304
6.744,0.9999996435617621,89.61365328756936
6.752,0.9999996012154255,89.49560579643162
6.76,0.9999995597063729,89.37752001959721
6.768,0.9999995190747107,89.2593959125696
6.776,0.9999994793598103,89.14123343088846
6.784,0.9999994406003112,89.02303253013001
6.792,0.9999994028341237,88.90479316590711
6.8,0.9999993660984348,88.7865152938695
6.808,0.9999993304297107,88.66819886970406
6.816,0.9999992958637001,88.54984384913492
6.824,0.9999992624354384,88.43145018792374
6.832,0.9999992301792523,88.31301784186988
6.84,0.9999991991287617,88.19454676681062
6.848,0.9999991693168859,88.07603691862134
6.856,0.9999991407758452,87.95748825321577
6.864,0.9999991135371659,87.8389007265461
6.872,0.999999087631683,87.72027429460329
6.88,0.9999990630895462,87.6016089134172
6.888,0.9999990399402205,87.48290453905682
6.896,0.9999990182124935,87.36416112763044
6.904,0.999998997934476,87.24537863528589
6.912,0.9999989791336078,87.1265570182107
6.92,0.9999989618366614,87.00769623263237
6.928,0.999998946069745,86.8887962348184
6.936,0.9999989318583068,86.76985698107673
6.944,0.9999989192271387,86.6508784277557
6.952,0.9999989082003805,86.53186053124439
6.96,0.9999988988015233,86.41280324797282
6.968,0.9999988910534139,86.29370653441201
6.976,0.9999988849782577,86.17457034707432
6.984,0.9999988805976238,86.0553946425136
6.992,0.9999988779324473,85.93617937732533
7.0,0.9999988770030355,85.81692450814685
7.008,0.9999988778290692,85.6976299916576
7.016,0.999998880429608,85.57829578457921
7.024,0.9999988848230947,85.45892184367577
7.032,0.9999988910273577,85.33950812575397
7.04,0.9999988990596158,85.22005458766334
7.048,0.9999989089364817,85.1005611862964
7.056,0.9999989206739668,84.98102787858883
7.064,0.999998934287484,84.86145462151974
7.072,0.9999989497918522,84.74184137211174
7.08,0.9999989672012999,84.62218808743123
7.088,0.9999989865294697,84.50249472458852
7.096,0.9999990077894214,84.382761240738
7.104,0.9999990309936366,84.26298759307846
7.112,0.9999990561540225,84.1431737388531
7.12,0.9999990832819157,84.02331963534976
7.128,0.9999991123880856,83.9034252399012
7.136,0.9999991434827397,83.78349050988514
7.144,0.9999991765755266,83.66351540272458
7.152,0.99999921167554,83.54349987588786
7.16,0.9999992487913225,83.4234438868889
7.168,0.9999992879308701,83.30334739328737
7.176,0.9999993291016362,83.18321035268886
7.184,0.9999993723105345,83.06303272274508
7.192,0.9999994175639448,82.94281446115399
7.2,0.999999464867715,82.82255552566006
7.208,0.9999995142271662,82.70225587405433
7.216,0.9999995656470965,82.58191546417468
7.224,0.9999996191317847,82.461534253906
7.232,0.9999996746849956,82.34111220118024
7.24,0.9999997323099815,82.22064926397678
7.248,0.999999792009488,82.10014540032246
7.256,0.9999998537857583,81.97960056829176
7.264,0.9999999176405355,81.85901472600708
7.272,0.999999983575068,81.73838783163875
7.28,1.0,81.61771984340531
7.288,1.0,81.49701071957368
7.296,1.0,81.37626041845928
7.304,0.9999999999999999,81.2554688984262
7.312,1.0,81.1346361178874
7.32,1.0,81.01376203530486
7.328,1.0,80.89284660918976
7.336,1.0,80.77188979810256
7.344,1.0,80.65089156065335
7.352,0.9999999999999999,80.52985185550179
7.36,1.0,80.40877064135744
7.368,1.0,80.28764787697983
7.376,1.0,80.16648352117868
7.384,1.0,80.04527753281403
7.392,1.0,79.92402987079636
7.4,0.9999999999999999,79.80274049408688
7.4079999999999995,1.0,79.68140936169752
7.416,1.0,79.56003643269118
7.4239999999999995,1.0,79.43862166618193
7.432,1.0,79.31716502133504
7.4399999999999995,1.0,79.1956664573673
7.448,1.0,79.07412593354697
7.4559999999999995,1.0,78.95254340919412
7.464,1.0,78.8309188436807
7.4719999999999995,1.0,78.70925219643073
7.48,1.0,78.5875434269203
7.4879999999999995,1.0,78.46579249467806
7.496,1.0,78.34399935928492
7.504,1.0,78.22216398037465
7.5120000000000005,1.0,78.10028631763363
7.52,0.9999999999999999,77.97836633080134
7.5280000000000005,1.0,77.85640397967022
7.536,1.0,77.73439922408608
7.5440000000000005,1.0,77.61235202394795
7.552,1.0,77.4902623392086
7.5600000000000005,0.9999999999999999,77.36813012987425
7.568,0.9999999999999999,77.24595535600513
7.5760000000000005,1.0,77.12373797771527
7.584,0.9999999999999999,77.00147795517294
7.5920000000000005,1.0,76.87917524860055
7.6,0.9999999999999999,76.75682981827498
7.6080000000000005,1.0,76.63444162452754
7.616,1.0,76.51201062774433
7.6240000000000006,1.0,76.3895367883661
7.632,0.9999999999999998,76.2670200668887
7.640000000000001,1.0,76.14446042386291
7.648,0.9999999999999999,76.02185781989486
7.656000000000001,1.0,75.8992122156459
7.664,1.0,75.77652357183301
7.672,1.0000000000000002,75.65379184922861
7.68,1.0,75.53101700866101
7.688,1.0,75.40819901101437
7.696,1.0,75.28533781722881
7.704,1.0000000000000002,75.16243338830068
7.712,1.0,75.03948568528254
7.72,1.0,74.91649466928338
7.728,1.0,74.79346030146871
7.736,0.9999999999999999,74.67038254306071
7.744,1.0,74.54726135533836
7.752,1.0,74.42409669963749
7.76,0.9999999999999999,74.30088853735107
7.768,1.0,74.17763682992914
7.776,0.9999999999999998,74.05434153887907
7.784,0.9999999999999999,73.93100262576561
7.792,1.0,73.80762005221106
7.8,1.0,73.68419377989538
7.808,0.9999999999999999,73.56072377055628
7.816,1.0,73.43720998598936
7.824,1.0,73.31365238804824
7.832,1.0,73.19005093864465
7.84,0.9999999999999999,73.06640559974859
7.848,1.0,72.94271633338838
7.856,0.9999999999999999,72.81898310165086
7.864,1.0,72.69520586668143
7.872,0.9999999999999999,72.5713845906842
7.88,1.0,72.44751923592209
7.888,1.0,72.32360976471695
7.896,1.0,72.19965613944967
7.904,1.0,72.07565832256029
7.912,0.9999999999999999,71.95161627654808
7.92,1.0,71.82752996397173
7.928,1.0,71.70339934744938
7.936,1.0,71.5792243896587
7.944,1.0,71.45500505333716
7.952,0.9999999999999999,71.33074130128189
7.96,1.0,71.20643309635001
7.968,1.0,71.08208040145861
7.976,1.0,70.95768317958488
7.984,1.0,70.83324139376619
7.992,1.0,70.7087550071003
8.0,1.0,70.58422398274524
8.008,0.9999999999999999,70.45964828391968
8.016,1.0000000000000002,70.33502787390277
8.024000000000001,0.9999999999999999,70.21036271603447
8.032,1.0,70.08565277371545
8.04,1.0,69.96089801040738
8.048,1.0,69.83609838963271
8.056000000000001,1.0,69.71125387497518
8.064,1.0,69.58636443007964
8.072,0.9999999999999999,69.46143001865217
8.08,0.9999999999999999,69.33645060446018
8.088000000000001,1.0,69.2114261513326
8.096,1.0,69.08635662315992
8.104,1.0,68.96124198389417
8.112,0.9999999999999999,68.83608219754905
8.120000000000001,0.9999999999999999,68.71087722820018
8.128,0.9999999999999999,68.58562703998506
8.136,1.0,68.46033159710308
8.144,1.0,68.33499086381568
8.152000000000001,1.0,68.2096048044465
8.16,1.0,68.0841733833814
8.168,0.9999999999999999,67.95869656506851
8.176,0.9999999999999999,67.83317431401828
8.184000000000001,0.9999999999999999,67.70760659480374
8.192,1.0,67.5819933720604
8.2,1.0,67.45633461048637
8.208,0.9999999999999999,67.33063027484245
8.216000000000001,1.0,67.20488032995225
8.224,1.0,67.07908474070223
8.232,1.0,66.95324347204172
8.24,1.0,66.82735648898303
8.248000000000001,1.0,66.70142375660157
8.256,1.0,66.57544524003592
8.264,0.9999999999999999,66.44942090448782
8.272,0.9999999999999999,66.3233507152222
8.280000000000001,1.0,66.19723463756752
8.288,1.0,66.07107263691549
8.296,0.9999999999999998,65.94486467872139
8.304,1.0,65.81861072850397
8.312,0.9999999999999999,65.69231075184565
8.32,1.0,65.56596471439248
8.328,0.9999999999999999,65.43957258185426
8.336,0.9999999999999999,65.31313432000456
8.344,1.0,65.18664989468088
8.352,1.0,65.06011927178452
8.36,0.9999999999999999,64.93354241728086
8.368,0.9999999999999999,64.80691929719926
8.376,0.9999999999999999,64.68024987763319
8.384,1.0,64.55353412474022
8.392,1.0,64.42677200474223
8.4,1.0,64.2999634839252
8.408,0.9999999999999999,64.1731085286396
8.416,0.9999999999999999,64.04620710530007
8.424,1.0,63.91925918038586
8.432,1.0,63.79226472044049
8.44,1.0000000000000002,63.665223692072175
8.448,1.0,63.538136061953516
8.456,1.0,63.411001796821886
8.464,1.0,63.28382086347917
8.472,1.0,63.1565932287921
8.48,1.0,63.029318859692
8.488,0.9999999999999999,62.90199772317512
8.496,0.9999999999999999,62.77462978630244
8.504,0.9999999999999999,62.6472150161999
8.512,1.0,62.51975338005826
8.52,1.0,62.39224484513334
8.528,1.0,62.26468937874584
8.536,1.0,62.13708694828162
8.544,0.9999999999999999,62.00943752119148
8.552,1.0,61.881741064991424
8.56,1.0,61.7539975472625
8.568,0.9999999999999999,61.62620693565107
8.576,0.9999999999999999,61.498369197868506
8.584,0.9999999999999999,61.37048430169163
8.592,1.0,61.24255221496234
8.6,0.9999999999999999,61.11457290558799
8.608,1.0,60.98654634154114
8.616,1.0,60.858472490859796
8.624,0.9999999999999999,60.730351321647255
8.632,1.0,60.602182802072356
8.64,1.0,60.47396690036918
8.648,1.0,60.34570358483747
8.656,0.9999999999999999,60.21739282384229
8.664,0.9999999999999998,60.08903458581432
8.672,0.9999999999999999,59.960628839249644
8.68,1.0,59.83217555271004
8.688,1.0,59.70367469482269
8.696,0.9999999999999999,59.57512623428048
8.704,1.0,59.4465301398418
8.712,1.0,59.31788638033073
8.72,1.0,59.1891949246369
8.728,1.0,59.06045574171569
8.736,1.0,58.93166880058799
8.744,1.0,58.80283407034049
8.752,0.9999999999999999,58.67395152012547
8.76,1.0,58.54502111916097
8.768,1.0,58.41604283673061
8.776,1.0,58.28701664218386
8.784,1.0,58.157942504935775
8.792,0.9999999999999999,58.02882039446723
8.8,0.9999999999999999,57.8996502803247
8.808,1.0,57.77043213212053
8.815999999999999,0.9999999999999999,57.641165919532675
8.824,0.9999999999999999,57.51185161230483
8.832,1.0,57.38248918024649
8.84,1.0,57.25307859323286
8.847999999999999,1.0,57.12361982120481
8.856,0.9999999999999999,56.99411283416899
8.864,1.0,56.864557602197735
8.872,1.0,56.7349540954292
8.879999999999999,0.9999999999999999,56.60530228406712
8.888,1.0,56.47560213838097
8.896,1.0,56.345853628705974
8.904,1.0,56.21605672544303
8.911999999999999,1.0,56.086211399058705
8.92,0.9999999999999999,55.95631762008518
8.928,1.0000000000000002,55.82637535912037
8.936,1.0000000000000002,55.69638458682786
8.943999999999999,1.0,55.5663452739368
8.952,1.0,55.436257391241895
8.96,1.0,55.306120909603585
8.968,1.0,55.1759357999479
8.975999999999999,1.0,55.0457020332663
8.984,1.0,54.91541958061587
8.992,0.9999999999999999,54.78508841311923
9.0,1.0,54.65470850196453
9.008,0.9999999999999999,54.524279818405326
9.016,1.0000000000000002,54.39380233376069
9.024000000000001,1.0,54.2632760194151
9.032,0.9999999999999999,54.13270084681854
9.04,0.9999999999999999,54.00207678748624
9.048,1.0,53.871403812998835
9.056000000000001,1.0,53.740681895002346
9.064,1.0,53.60991100520807
9.072,1.0,53.47909111539254
9.08,0.9999999999999999,53.348222197397526
9.088000000000001,1.0,53.21730422313005
9.096,1.0,53.08633716456231
9.104,0.9999999999999999,52.95532099373156
9.112,1.0,52.824255682740244
9.120000000000001,1.0,52.69314120375579
9.128,1.0,52.56197752901081
9.136,1.0,52.43076463080272
9.144,0.9999999999999999,52.299502481493946
9.152000000000001,1.0000000000000002,52.16819105351185
9.16,1.0,52.0368303193487
9.168,1.0,51.9054202515615
9.176,0.9999999999999999,51.77396082277207
9.184000000000001,0.9999999999999999,51.64245200566693
9.192,1.0,51.510893772997406
9.2,0.9999999999999999,51.37928609757933
9.208,1.0,51.247628952293155
9.216000000000001,1.0,51.11592231008391
9.224,1.0,50.984166143961176
9.232,1.0,50.852360426998814
9.24,0.9999999999999999,50.72050513233519
9.248000000000001,1.0,50.58860023317299
9.256,1.0,50.456645702779184
9.264,1.0,50.324641514484924
9.272,0.9999999999999999,50.19258764168556
9.280000000000001,1.0,50.06048405784056
9.288,1.0,49.928330736473434
9.296,1.0,49.796127651171716
9.304,1.0,49.66387477558675
9.312000000000001,1.0000000000000002,49.53157208343388
9.32,0.9999999999999999,49.39921954849223
9.328,0.9999999999999999,49.266817144604666
9.336,1.0,49.13436484567761
9.344,0.9999999999999999,49.00186262568128
9.352,0.9999999999999999,48.86931045864929
9.36,0.9999999999999999,48.73670831867883
9.368,1.0,48.6040561799304
9.376,1.0,48.47135401662793
9.384,1.0,48.338601803058495
9.392,0.9999999999999999,48.205799513572515
9.4,1.0,48.07294712258333
9.408,0.9999999999999999,47.940044604567504
9.416,1.0,47.80709193406443
9.424,1.0,47.674089085676506
9.432,1.0,47.541036034068796
9.44,0.9999999999999999,47.407932753969256
9.448,0.9999999999999999,47.27477922016833
9.456,1.0,47.14157540751916
9.464,0.9999999999999999,47.008321290937296
9.472,1.0,46.875016845400744
9.48,1.0,46.74166204594976
9.488,0.9999999999999999,46.608256867686926
9.496,1.0,46.47480128577684
9.504,0.9999999999999999,46.34129527544631
9.512,0.9999999999999998,46.20773881198398
9.52,0.9999999999999999,46.074131870740466
9.528,0.9999999999999999,45.94047442712809
9.536,1.0,45.80676645662099
9.544,1.0,45.673007934754736
9.552,1.0,45.53919883712658
9.56,1.0,45.40533913939504
9.568,0.9999999999999999,45.27142881728011
9.576,1.0,45.13746784656279
9.584,0.9999999999999999,45.00345620308546
9.592,1.0,44.869393862751274
9.6,0.9999999999999999,44.7352808015245
9.608,1.0,44.60111699543007
9.616,0.9999999999999999,44.466902420553765
9.624,1.0,44.33263705304186
9.632,1.0,44.198320869101245
9.64,1.0,44.063953844999126
9.648,1.0,43.929535957063074
9.656,1.0,43.79506718168073
9.664,1.0,43.66054749530001
9.672,0.9999999999999999,43.525976874428544
9.68,0.9999999999999999,43.39135529563406
9.688,0.9999999999999999,43.25668273554382
9.696,1.0,43.12195917084487
9.704,0.9999999999999999,42.98718457828367
9.712,1.0,42.85235893466614
9.72,1.0,42.71748221685741
9.728,0.9999999999999999,42.582554401781906
9.736,1.0,42.44757546642286
9.744,1.0,42.3125453878227
9.752,1.0,42.17746414308246
9.76,0.9999999999999999,42.04233170936195
9.768,0.9999999999999999,41.907148063879454
9.776,1.0,41.77191318391179
9.784,1.0,41.63662704679398
9.792,1.0,41.5012896299193
9.8,1.0000000000000002,41.36590091073901
9.808,0.9999999999999999,41.23046086676238
9.816,0.9999999999999999,41.09496947555633
9.824,0.9999999999999999,40.9594267147456
9.832,0.9999999999999999,40.82383256201233
9.84,0.9999999999999999,40.68818699509611
9.847999999999999,1.0,40.5524899917938
9.856,1.0,40.41674152995931
9.864,1.0,40.28094158750362
9.872,0.9999999999999999,40.14509014239455
9.879999999999999,1.0,40.00918717265657
9.888,1.0,39.87323265637072
9.896,1.0,39.73722657167452
9.904,1.0,39.60116889676179
9.911999999999999,0.9999999999999999,39.4650596098824
9.92,1.0,39.32889868934227
9.928,1.0,39.19268611350316
9.936,1.0,39.05642186078259
9.943999999999999,1.0,38.92010590965355
9.952,1.0,38.783738238644425
9.96,0.9999999999999998,38.64731882633893
9.968,1.0,38.51084765137589
9.975999999999999,0.9999999999999999,38.374324692449015
9.984,0.9999999999999998,38.237749928306805
9.992,1.0,38.10112333775246
10.0,1.0,37.96444489964369
10.008,1.0,37.82771459289243
10.016,0.9999999999999999,37.690932396464824
10.024000000000001,0.9999999999999999,37.554098289381066
10.032,1.0,37.41721225071521
10.04,1.0,37.28027425959494
10.048,1.0000000000000002,37.14328429520145
10.056000000000001,0.9999999999999999,37.006242336769354
10.064,1.0,36.8691483635865
10.072,1.0,36.732002354993654
10.08,1.0,36.59480429038447
10.088000000000001,1.0,36.457554149205336
10.096,1.0,36.320251910955186
10.104,1.0,36.18289755518522
10.112,1.0,36.04549106149884
10.120000000000001,1.0,35.908032409551495
10.128,1.0,35.77052157905044
10.136,1.0,35.632958549754605
10.144,1.0,35.4953433014743
10.152000000000001,1.0,35.35767581407125
10.16,1.0,35.219956067458256
10.168,1.0,35.08218404159905
10.176,1.0,34.944359716508075
10.184000000000001,0.9999999999999998,34.806483072250415
10.192,1.0,34.66855408894157
10.2,0.9999999999999999,34.530572746747126
10.208,1.0,34.39253902588271
10.216000000000001,0.9999999999999999,34.25445290661385
10.224,0.9999999999999999,34.116314369255704
10.232,1.0,33.9781233941728
10.24,1.0,33.839879961778905
10.248000000000001,0.9999999999999999,33.70158405253693
10.256,1.0,33.56323564695867
10.264,1.0,33.424834725604484
10.272,1.0,33.28638126908321
10.280000000000001,1.0,33.14787525805206
10.288,0.9999999999999999,33.00931667321629
10.296,1.0000000000000002,32.870705495328956
10.304,0.9999999999999998,32.73204170519078
10.312000000000001,1.0,32.59332528365007
10.32,1.0,32.454556211602316
10.328,1.0,32.31573446999006
10.336,0.9999999999999999,32.17686003980267
10.344000000000001,1.0,32.03793290207619
10.352,1.0,31.89895303789315
10.36,0.9999999999999999,31.759920428382173
10.368,0.9999999999999999,31.62083505471793
10.376000000000001,1.0,31.481696898120912
10.384,1.0,31.342505939857194
10.392,1.0,31.203262161238165
10.4,1.0,31.0639655436203
10.408000000000001,1.0,30.92461606840513
10.416,1.0,30.78521371703881
10.424,1.0,30.645758471011945
10.432,1.0,30.506250311859358
10.440000000000001,1.0,30.366689221159998
10.448,1.0,30.227075180536573
