freq,mag,phase
6.0,0.9999926129540282,-122.06563654658702
6.008,0.9999921219039543,-122.48038872265316
6.016,0.9999916512431107,-122.89496578434894
6.024,0.9999912004904243,-123.30936782211866
6.032,0.999990769171132,-123.7235949382003
6.04,0.9999903568167535,-124.13764724655329
6.048,0.9999899629650657,-124.5515248727863
6.056,0.9999895871600716,-124.96522795408453
6.064,0.9999892289519754,-125.37875663913682
6.072,0.9999888878971517,-125.7921110880625
6.08,0.9999885635581128,-126.20529147233826
6.088,0.9999882555034852,-126.61829797472438
6.096,0.9999879633079717,-127.03113078919127
6.104,0.9999876865523251,-127.44379012084518
6.112,0.9999874248233153,-127.85627618585458
6.12,0.9999871777136938,-128.26858921137554
6.128,0.9999869448221668,-128.68072943547736
6.136,0.9999867257533553,-129.09269710706823
6.144,0.9999865201177681,-129.5044924858202
6.152,0.999986327531763,-129.91611584209465
6.16,0.9999861476175137,-130.3275674568672
6.168,0.9999859800029752,-130.73884762165252
6.176,0.9999858243218475,-131.14995663842947
6.184,0.9999856802135408,-131.5608948195656
6.192,0.9999855473231398,-131.97166248774184
6.2,0.9999854253013647,-132.38225997587733
6.208,0.9999853138045369,-132.79268762705357
6.216,0.9999852124945412,-133.2029457944392
6.224,0.9999851210387863,-133.61303484121427
6.232,0.9999850391101711,-134.02295514049467
6.24,0.9999849663870432,-134.43270707525653
6.248,0.999984902553158,-134.84229103826044
6.256,0.999984847297646,-135.2517074319758
6.264,0.9999848003149685,-135.66095666850526
6.272,0.999984761304882,-136.07003916950885
6.28,0.9999847299723962,-136.4789553661284
6.288,0.9999847060277354,-136.88770569891173
6.296,0.9999846891862958,-137.29629061773736
6.304,0.9999846791686082,-137.70471058173845
6.312,0.9999846757002953,-138.11296605922743
6.32,0.9999846785120337,-138.5210575276207
6.328,0.9999846873395088,-138.92898547336264
6.336,0.9999847019233756,-139.33675039185064
6.344,0.99998472200922,-139.7443527873595
6.352,0.9999847473475101,-140.15179317296634
6.36,0.9999847776935623,-140.5590720704751
6.368,0.9999848128074968,-140.9661900103417
6.376,0.9999848524541903,-141.37314753159885
6.384,0.9999848964032425,-141.77994518178122
6.392,0.999984944428927,-142.1865835168504
6.4,0.9999849963101526,-142.59306310112052
6.408,0.9999850518304173,-142.99938450718338
6.416,0.9999851107777701,-143.4055483158338
6.424,0.9999851729447661,-143.81155511599573
6.432,0.9999852381284212,-144.2174055046476
6.44,0.9999853061301719,-144.6231000867483
6.448,0.9999853767558345,-145.0286394751634
6.456,0.9999854498155543,-145.4340242905911
6.464,0.9999855251237725,-145.8392551614888
6.472,0.9999856024991743,-146.2443327239992
6.48,0.9999856817646521,-146.64925762187738
6.4879999999999995,0.9999857627472564,-147.05403050641732
6.496,0.9999858452781583,-147.45865203637916
6.504,0.9999859291926024,-147.86312287791577
6.5120000000000005,0.9999860143298653,-148.26744370450086
6.52,0.999986100533211,-148.6716151968558
6.5280000000000005,0.9999861876498477,-149.0756380428779
6.536,0.999986275530886,-149.4795129375676
6.5440000000000005,0.9999863640312945,-149.88324058295743
6.552,0.9999864530098562,-150.2868216880393
6.5600000000000005,0.9999865423291265,-150.6902569686938
6.568,0.9999866318553876,-151.09354714761838
6.5760000000000005,0.9999867214586093,-151.49669295425645
6.584,0.9999868110124025,-151.89969512472624
6.592,0.9999869003939774,-152.30255440175048
6.6,0.9999869894841003,-152.70527153458556
6.608,0.999987078167052,-153.10784727895148
6.616,0.9999871663305816,-153.51028239696166
6.624,0.9999872538658678,-153.9125776570533
6.632,0.9999873406674737,-154.31473383391761
6.64,0.9999874266333061,-154.7167517084306
6.648,0.999987511664569,-155.1186320675838
6.656,0.9999875956657278,-155.52037570441564
6.664,0.999987678544461,-155.92198341794244
6.672,0.9999877602116201,-156.32345601309024
6.68,0.9999878405811893,-156.72479430062666
6.688,0.9999879195702416,-157.12599909709272
6.696,0.9999879970988967,-157.52707122473544
6.704,0.9999880730902811,-157.92801151144025
6.712,0.9999881474704858,-158.3288207906638
6.72,0.9999882201685235,-158.72949990136715
6.728,0.9999882911162898,-159.13004968794894
6.736,0.9999883602485207,-159.53047100017903
6.744,0.9999884275027516,-159.93076469313237
6.752,0.999988492819277,-160.33093162712302
6.76,0.9999885561411105,-160.73097266763847
6.768,0.9999886174139417,-161.13088868527444
6.776,0.9999886765860996,-161.53068055566945
6.784,0.99998873360851,-161.9303491594401
6.792,0.9999887884346562,-162.3298953821166
6.8,0.9999888410205394,-162.72932011407815
6.808,0.9999888913246391,-163.12862425048897
6.816,0.9999889393078737,-163.52780869123458
6.824,0.9999889849335611,-163.9268743408582
6.832,0.999989028167381,-164.3258221084973
6.84,0.9999890689773331,-164.72465290782083
6.848,0.9999891073337019,-165.12336765696628
6.856,0.9999891432090167,-165.5219672784774
6.864,0.9999891765780131,-165.9204526992418
6.872,0.999989207417596,-166.318824850429
6.88,0.999989235706801,-166.71708466742896
6.888,0.9999892614267575,-167.1152330897905
6.896,0.999989284560651,-167.51327106116022
6.904,0.9999893050936858,-167.9111995292216
6.912,0.9999893230130493,-168.3090194456345
6.92,0.9999893383078734,-168.70673176597467
6.928,0.9999893509691995,-169.10433744967384
6.936,0.9999893609899426,-169.50183745995992
6.944,0.9999893683648537,-169.89923276379741
6.952,0.9999893730904854,-170.29652433182818
6.96,0.999989375165157,-170.6937131383125
6.968,0.999989374588916,-171.0908001610703
6.976,0.999989371363508,-171.48778638142275
6.984,0.999989365492338,-171.8846727841341
6.992,0.9999893569804365,-172.2814603573537
7.0,0.999989345834427,-172.67815009255838
7.008,0.9999893320624911,-173.07474298449512
7.016,0.9999893156743332,-173.4712400311239
7.024,0.9999892966811491,-173.8676422335608
7.032,0.9999892750955915,-174.2639505960214
7.04,0.9999892509317377,-174.66016612576468
7.048,0.9999892242050558,-175.05628983303652
7.056,0.999989194932373,-175.4523227310143
7.064,0.9999891631318434,-175.8482658357512
7.072,0.9999891288229149,-176.24412016612078
7.08,0.9999890920262997,-176.63988674376222
7.088,0.9999890527639395,-177.03556659302535
7.096,0.9999890110589776,-177.43116074091606
7.104,0.9999889669357258,-177.8266702170423
7.112,0.9999889204196343,-178.22209605355988
7.12,0.9999888715372618,-178.61743928511868
7.128,0.9999888203162439,-179.01270094880923
7.136,0.9999887667852649,-179.40788208410947
7.144,0.9999887109740268,-179.80298373283156
7.152,0.9999886529132205,179.80199306093067
7.16,0.9999885926344975,179.40704725085433
7.168,0.9999885301704394,179.01217778843989
7.176,0.9999884655545296,178.6173836230629
7.184,0.9999883988211263,178.22266370202615
7.192,0.9999883300054344,177.828016970611
7.2,0.9999882591434757,177.43344237212878
7.208,0.9999881862720622,177.03893884797176
7.216,0.9999881114287712,176.64450533766427
7.224,0.9999880346519155,176.250140778913
7.232,0.999987955980517,175.85584410765762
7.24,0.9999878754542825,175.4616142581208
7.248,0.9999877931135743,175.0674501628582
7.256,0.9999877089993878,174.67335075280823
7.264,0.9999876231533228,174.27931495734137
7.272,0.9999875356175604,173.8853417043096
7.28,0.9999874464348365,173.49142992009538
7.288,0.9999873556484169,173.09757852966032
7.296,0.9999872633020752,172.70378645659406
7.304,0.999987169440065,172.31005262316245
7.312,0.9999870741070984,171.91637595035567
7.32,0.999986977348321,171.52275535793652
7.328,0.9999868792092903,171.12918976448768
7.336,0.9999867797359504,170.73567808745983
7.344,0.999986678974609,170.3422192432184
7.352,0.9999865769719176,169.9488121470911
7.36,0.9999864737748454,169.55545571341474
7.368,0.9999863694306604,169.16214885558193
7.376,0.999986263986905,168.7688904860876
7.384,0.9999861574913766,168.37567951657547
7.392,0.9999860499921049,167.98251485788396
7.4,0.999985941537331,167.58939542009233
7.4079999999999995,0.9999858321754876,167.19632011256647
7.416,0.9999857219551774,166.8032878440042
7.4239999999999995,0.9999856109251535,166.410297522481
7.432,0.9999854991342987,166.0173480554949
7.4399999999999995,0.9999853866316066,165.62443835001187
7.448,0.9999852734661627,165.23156731251015
7.4559999999999995,0.9999851596871232,164.83873384902552
7.464,0.9999850453436984,164.44593686519514
7.4719999999999995,0.9999849304851315,164.05317526630247
7.48,0.9999848151606834,163.66044795732086
7.4879999999999995,0.9999846994196107,163.2677538429581
7.496,0.9999845833111529,162.87509182769952
7.504,0.9999844668845091,162.4824608158525
7.5120000000000005,0.9999843501888241,162.0898597115889
7.52,0.9999842332731718,161.69728741898942
7.5280000000000005,0.9999841161865348,161.30474284208594
7.536,0.999983998977793,160.91222488490504
7.5440000000000005,0.9999838816957023,160.51973245151046
7.552,0.999983764388881,160.1272644460462
7.5600000000000005,0.9999836471057942,159.73481977277848
7.568,0.9999835298947374,159.3423973361389
7.5760000000000005,0.9999834128038209,158.94999604076577
7.584,0.9999832958809561,158.55761479154717
7.5920000000000005,0.9999831791738393,158.16525249366194
7.6,0.9999830627299374,157.7729080526224
7.6080000000000005,0.9999829465964742,157.38058037431523
7.616,0.9999828308204155,156.98826836504364
7.6240000000000006,0.9999827154484568,156.59597093156827
7.632,0.9999826005270073,156.203686981149
7.640000000000001,0.9999824861021784,155.8114154215853
7.648,0.99998237221977,155.41915516125823
7.656000000000001,0.9999822589252575,155.02690510917046
7.664,0.9999821462637798,154.6346641749876
7.672,0.9999820342801262,154.24243126907842
7.68,0.9999819230187244,153.8502053025557
7.688,0.9999818125236289,153.4579851873165
7.696,0.9999817028385088,153.06576983608232
7.704,0.9999815940066373,152.67355816243955
7.712,0.99998148607088,152.28134908087927
7.72,0.9999813790736823,151.88914150683723
7.728,0.9999812730570624,151.4969343567339
7.736,0.9999811680625973,151.10472654801387
7.744,0.9999810641314136,150.71251699918574
7.752,0.9999809613041785,150.32030462986157
7.76,0.9999808596210884,149.92808836079627
7.768,0.9999807591218608,149.5358671139268
7.776,0.9999806598457232,149.1436398124117
7.784,0.9999805618314059,148.75140538066998
7.792,0.9999804651171316,148.3591627444202
7.8,0.9999803697406072,147.96691083071948
7.808,0.9999802757390156,147.57464856800226
7.816,0.9999801831490068,147.1823748861192
7.824,0.9999800920066904,146.79008871637566
7.832,0.9999800023476275,146.3977889915705
7.84,0.9999799142068234,146.0054746460345
7.848,0.9999798276187196,145.61314461566872
7.856,0.9999797426171878,145.22079783798299
7.864,0.9999796592355208,144.82843325213412
7.872,0.9999795775064285,144.43604979896406
7.88,0.999979497462029,144.0436464210381
7.888,0.9999794191338428,143.65122206268293
7.896,0.9999793425527888,143.25877567002445
7.904,0.9999792677491746,142.86630619102584
7.912,0.999979194752694,142.47381257552544
7.92,0.9999791235924205,142.0812937752744
7.928,0.9999790542968005,141.6887487439744
7.936,0.9999789868936497,141.2961764373154
7.944,0.9999789214101497,140.90357581301313
7.952,0.9999788578728391,140.51094583084668
7.96,0.9999787963076131,140.11828545269586
7.968,0.9999787367397164,139.72559364257873
7.976,0.9999786791937411,139.3328693666889
7.984,0.9999786236936209,138.94011159343287
7.992,0.9999785702626288,138.5473192934671
8.0,0.9999785189233728,138.15449143973547
8.008,0.9999784696977929,137.7616270075063
8.016,0.9999784226071575,137.36872497440913
8.024000000000001,0.9999783776720613,136.97578432047243
8.032,0.9999783349124215,136.58280402816018
8.04,0.9999782943474753,136.18978308240858
8.048,0.9999782559957782,135.7967204706634
8.056000000000001,0.9999782198752016,135.4036151829167
8.064,0.9999781860029293,135.0104662117437
8.072,0.9999781543954582,134.61727255233936
8.08,0.9999781250685941,134.2240332025551
8.088000000000001,0.9999780980374513,133.83074716293586
8.096,0.9999780733164522,133.43741343675663
8.104,0.999978050919324,133.04403103005868
8.112,0.999978030859099,132.6505989516865
8.120000000000001,0.999978013148114,132.25711621332445
8.128,0.9999779977980087,131.8635818295331
8.136,0.9999779848197264,131.46999481778562
8.144,0.9999779742235121,131.07635419850425
8.152000000000001,0.9999779660189136,130.682658995097
8.16,0.9999779602147817,130.2889082339939
8.168,0.9999779568192688,129.89510094468312
8.176,0.9999779558398308,129.50123615974738
8.184000000000001,0.9999779572832275,129.1073129149006
8.192,0.9999779611555217,128.71333024902387
8.2,0.9999779674620818,128.31928720420157
8.208,0.9999779762075824,127.92518282575773
8.216000000000001,0.9999779873960046,127.53101616229246
8.224,0.9999780010306377,127.13678626571777
8.232,0.9999780171140817,126.7424921912938
8.24,0.9999780356482468,126.34813299766476
8.248000000000001,0.9999780566343569,125.95370774689553
8.256,0.9999780800729511,125.55921550450732
8.264,0.9999781059638851,125.16465533951364
8.272,0.9999781343063342,124.77002632445642
8.280000000000001,0.999978165098795,124.37532753544225
8.288,0.9999781983390884,123.98055805217811
8.296,0.9999782340243617,123.58571695800714
8.304,0.9999782721510923,123.19080333994482
8.312,0.999978312715089,122.79581628871505
8.32,0.999978355711497,122.40075489878541
8.328,0.9999784011347995,122.00561826840378
8.336,0.9999784489788218,121.6104054996334
8.344,0.999978499236735,121.21511569838944
8.352,0.9999785519010589,120.8197479744741
8.36,0.9999786069636655,120.42430144161294
8.368,0.999978664415784,120.02877521749018
8.376,0.999978724248004,119.63316842378478
8.384,0.9999787864502804,119.23748018620583
8.392,0.9999788510119358,118.84170963452854
8.4,0.999978917921667,118.44585590262952
8.408,0.9999789871675484,118.0499181285229
8.416,0.999979058737037,117.65389545439525
8.424,0.9999791326169767,117.25778702664202
8.432,0.9999792087936032,116.86159199590224
8.44,0.9999792872525498,116.4653095170948
8.448,0.9999793679788516,116.0689387494533
8.456,0.9999794509569511,115.67247885656208
8.464,0.9999795361707031,115.27592900639128
8.472,0.999979623603381,114.87928837133259
8.48,0.9999797132376819,114.48255612823425
8.488,0.9999798050557314,114.08573145843698
8.496,0.999979899039091,113.68881354780862
8.504,0.999979995168763,113.29180158678024
8.512,0.9999800934251962,112.8946947703806
8.52,0.9999801937882932,112.49749229827216
8.528,0.9999802962374152,112.1001933747857
8.536,0.9999804007513896,111.70279720895594
8.544,0.9999805073085147,111.3053030145563
8.552,0.9999806158865686,110.90771001013451
8.56,0.9999807264628132,110.51001741904707
8.568,0.9999808390140033,110.11222446949498
8.576,0.9999809535163913,109.71433039455803
8.584,0.9999810699457351,109.31633443223052
8.592,0.9999811882773058,108.9182358254554
8.6,0.9999813084858932,108.52003382215992
8.608,0.999981430545814,108.12172767528979
8.616,0.9999815544309184,107.72331664284458
8.624,0.9999816801145986,107.32479998791183
8.632,0.9999818075697952,106.9261769787025
8.64,0.9999819367690033,106.52744688858486
8.648,0.9999820676842841,106.12860899611975
8.656,0.9999822002872684,105.72966258509457
8.664,0.999982334549167,105.33060694455835
8.672,0.999982470440777,104.93144136885559
8.68,0.999982607932491,104.53216515766125
8.688,0.9999827469943032,104.1327776160145
8.696,0.9999828875958195,103.73327805435353
8.704,0.9999830297062652,103.33366578854925
8.712,0.9999831732944905,102.93394013994
8.72,0.9999833183289832,102.53410043536495
8.728,0.9999834647778738,102.13414600719884
8.736,0.9999836126089444,101.73407619338519
8.744,0.9999837617896383,101.33389033747098
8.752,0.9999839122870672,100.93358778863954
8.76,0.9999840640680207,100.53316790174517
8.768,0.9999842170989738,100.132630037346
8.776,0.9999843713460973,99.73197356173827
8.784,0.9999845267752648,99.3311978469891
8.792,0.9999846833520627,98.93030227097059
8.8,0.9999848410417975,98.52928621739248
8.808,0.9999849998095071,98.12814907583603
8.815999999999999,0.9999851596199679,97.72689024178655
8.824,0.9999853204377035,97.32550911666671
8.832,0.9999854822269961,96.92400510786966
8.84,0.999985644951892,96.52237762879169
8.847999999999999,0.9999858085762144,96.12062609886485
8.856,0.9999859730635696,95.7187499435897
8.864,0.9999861383773583,95.31674859456805
8.872,0.9999863044807833,94.91462148953526
8.879999999999999,0.9999864713368599,94.51236807239229
8.888,0.9999866389084247,94.10998779323816
8.896,0.9999868071581448,93.70748010840217
8.904,0.9999869760485276,93.3048444804757
8.911999999999999,0.9999871455419295,92.90208037834387
8.92,0.999987315600566,92.49918727721746
8.928,0.999987486186521,92.09616465866469
8.936,0.9999876572617563,91.69301201064242
8.943999999999999,0.9999878287881204,91.28972882752741
8.952,0.9999880007273594,90.88631461014758
8.96,0.9999881730411249,90.48276886581331
8.968,0.9999883456909848,90.07909110834817
8.975999999999999,0.9999885186384326,89.6752808581194
8.984,0.999988691844897,89.27133764206883
8.992,0.9999888652717502,88.86726099374343
9.0,0.99998903888032,88.46305045332545
9.008,0.9999892126318972,88.0587055676624
9.016,0.9999893864877462,87.65422589029714
9.024000000000001,0.9999895604091144,87.24961098149795
9.032,0.9999897343572419,86.84486040828799
9.04,0.9999899082933714,86.43997374447444
9.048,0.999990082178757,86.0349505706782
9.056000000000001,0.9999902559746748,85.62979047436303
9.064,0.9999904296424321,85.22449304986426
9.072,0.9999906031433768,84.81905789841753
9.08,0.999990776438907,84.4134846281873
9.088000000000001,0.9999909494904807,84.00777285429557
9.096,0.9999911222596262,83.60192219884969
9.104,0.99999129470795,83.19593229097032
9.112,0.9999914667971483,82.78980276681918
9.120000000000001,0.999991638489014,82.38353326962682
9.128,0.9999918097454492,81.97712344971984
9.136,0.9999919805284732,81.5705729645478
9.144,0.9999921508002304,81.16388147871012
9.152000000000001,0.9999923205230032,80.75704866398317
9.16,0.9999924896592187,80.35007419934637
9.168,0.9999926581714591,79.9429577710082
9.176,0.9999928260224707,79.53569907243244
9.184000000000001,0.9999929931751742,79.12829780436401
9.192,0.9999931595926723,78.72075367485425
9.2,0.999993325238261,78.31306639928603
9.208,0.9999934900754373,77.90523570039886
9.216000000000001,0.9999936540679081,77.49726130831378
9.224,0.9999938171796015,77.08914296055768
9.232,0.9999939793746735,76.68088040208728
9.24,0.9999941406175191,76.27247338531326
9.248000000000001,0.999994300872779,75.86392167012407
9.256,0.999994460105351,75.45522502390911
9.264,0.9999946182803974,75.04638322158165
9.272,0.9999947753633539,74.63739604560183
9.280000000000001,0.9999949313199394,74.22826328599936
9.288,0.9999950861161641,73.8189847403955
9.296,0.9999952397183375,73.40956021402485
9.304,0.9999953920930784,72.99998951975714
9.312000000000001,0.9999955432073232,72.59027247811868
9.32,0.999995693028333,72.18040891731319
9.328,0.9999958415237041,71.77039867324238
9.336,0.999995988661375,71.36024158952634
9.344,0.9999961344096354,70.94993751752399
9.352,0.9999962787371336,70.53948631635197
9.36,0.9999964216128857,70.12888785290494
9.368,0.9999965630062836,69.71814200187372
9.376,0.999996702887102,69.30724864576476
9.384,0.9999968412255069,68.89620767491779
9.392,0.9999969779920651,68.4850189875245
9.4,0.9999971131577482,68.07368248964539
9.408,0.9999972466939443,67.66219809522784
9.416,0.9999973785724632,67.25056572612222
9.424,0.9999975087655453,66.83878531209929
9.432,0.9999976372458674,66.42685679086539
9.44,0.9999977639865518,66.0147801080792
9.448,0.9999978889611725,65.60255521736622
9.456,0.9999980121437632,65.19018208033465
9.464,0.9999981335088227,64.77766066658914
9.472,0.9999982530313243,64.36499095374582
9.48,0.9999983706867205,63.952172927445396
9.488,0.9999984864509512,63.53920658136726
9.496,0.9999986003004498,63.12609191724177
9.504,0.9999987122121499,62.71282894486357
9.512,0.999998822163491,62.29941768210299
9.52,0.9999989301324267,61.88585815491864
9.528,0.9999990360974292,61.4721503973678
9.536,0.999999140037496,61.058294451618224
9.544,0.9999992419321558,60.64429036795776
9.552,0.9999993417614755,60.23013820480506
9.56,0.9999994395060644,59.815838028718524
