freq,mag,phase
6.0,1.0,-5.934323797553267
6.008,1.0,-6.22195012803721
6.016,1.0,-6.509629771143962
6.024,0.9999999999999999,-6.797362144113776
6.032,1.0,-7.085146663234881
6.04,1.0,-7.37298274386032
6.048,0.9999999999999999,-7.660869800424889
6.056,1.0,-7.948807246462109
6.064,0.9999993881107774,-8.236794494621332
6.072,0.9999987248361323,-8.524830956684806
6.08,0.9999980722144112,-8.812916043584947
6.088,0.999997430216115,-9.101049165421538
6.096,0.9999967988099694,-9.389229731479094
6.104,0.9999961779629561,-9.677457150244214
6.112,0.9999955676403431,-9.965730829423073
6.12,0.9999949678057134,-10.25405017595892
6.128,0.9999943784209967,-10.542414596049642
6.136,0.9999937994464986,-10.830823495165392
6.144,0.9999932308409296,-11.11927627806629
6.152,0.9999926725614361,-11.407772348820156
6.16,0.9999921245636295,-11.696311110820316
6.168,0.999991586801614,-11.984891966803495
6.176,0.9999910592280195,-12.273514318867631
6.184,0.999990541794027,-12.562177568489917
6.192,0.9999900344494003,-12.850881116544798
6.2,0.9999895371425132,-13.13962436332201
6.208,0.9999890498203801,-13.428406708544694
6.216,0.9999885724286832,-13.71722755138758
6.224,0.999988104911802,-14.006086290495118
6.232,0.9999876472128416,-14.294982323999827
6.24,0.9999871992736601,-14.583915049540524
6.248,0.9999867610348988,-14.872883864280647
6.256,0.9999863324360078,-15.161888164926673
6.264,0.9999859134152761,-15.45092734774652
6.272,0.9999855039098584,-15.740000808587945
6.28,0.9999851038558025,-16.02910794289718
6.288,0.9999847131880777,-16.318248145737286
6.296,0.9999843318406005,-16.607420811806847
6.304,0.9999839597462646,-16.896625335458513
6.312,0.9999835968369648,-17.185861110717642
6.32,0.999983243043626,-17.475127531300977
6.328,0.9999828982962291,-17.76442399063533
6.336,0.9999825625238391,-18.053749881876275
6.344,0.9999822356546286,-18.343104597927
6.352,0.9999819176159066,-18.63248753145696
6.36,0.9999816083341441,-18.921898074920747
6.368,0.9999813077349999,-19.21133562057697
6.376,0.9999810157433455,-19.50079956050697
6.384,0.9999807322832924,-19.790289286633843
6.392,0.999980457278217,-20.07980419074122
6.4,0.9999801906507848,-20.369343664492277
6.408,0.999979932322977,-20.658907099448555
6.416,0.9999796822161147,-20.948493887089054
6.424,0.9999794402508844,-21.23810341882906
6.432,0.999979206347361,-21.527735086039204
6.44,0.9999789804250349,-21.817388280064442
6.448,0.9999787624028337,-22.10706239224302
6.456,0.9999785521991473,-22.39675681392557
6.464,0.9999783497318523,-22.68647093649406
6.472,0.9999781549183347,-22.976204151380838
6.48,0.999977967675515,-23.26595585008773
6.4879999999999995,0.9999777879198692,-23.555725424204947
6.496,0.9999776155674549,-23.845512265430404
6.504,0.9999774505339311,-24.135315765588352
6.5120000000000005,0.9999772927345837,-24.42513531664896
6.52,0.9999771420843467,-24.714970310746775
6.5280000000000005,0.9999769984978248,-25.00482014020038
6.536,0.9999768618893158,-25.294684197530906
6.5440000000000005,0.9999767321728321,-25.584561875481562
6.552,0.9999766092621243,-25.87445256703617
6.5600000000000005,0.9999764930707001,-26.164355665438755
6.568,0.999976383511848,-26.454270564212035
6.5760000000000005,0.9999762804986569,-26.744196657176957
6.584,0.9999761839440391,-27.034133338471193
6.592,0.9999760937607485,-27.324080002568653
6.6,0.9999760098614036,-27.61403604429806
6.608,0.999975932158507,-27.904000858862144
6.616,0.9999758605644651,-28.193973841856547
6.624,0.999975794991609,-28.483954389288773
6.632,0.9999757353522142,-28.773941897597112
6.64,0.9999756815585188,-29.063935763669573
6.648,0.9999756335227451,-29.353935384862712
6.656,0.9999755911571179,-29.643940159020573
6.664,0.999975554373882,-29.933949484493493
6.672,0.9999755230853236,-30.223962760156958
6.68,0.9999754972037864,-30.513979385430336
6.688,0.9999754766416923,-30.80399876029575
6.696,0.9999754613115568,-31.094020285316695
6.704,0.9999754511260092,-31.384043361656893
6.712,0.9999754459978094,-31.674067391098912
6.72,0.9999754458398656,-31.9640917760628
6.728,0.9999754505652508,-32.25411591962474
6.736,0.9999754600872212,-32.54413922553565
6.744,0.9999754743192315,-32.83416109823972
6.752,0.999975493174953,-33.12418094289298
6.76,0.9999755165682891,-33.41419816538169
6.768,0.9999755444133914,-33.704212172340895
6.776,0.9999755766246762,-33.99422237117278
6.784,0.9999756131168396,-34.28422817006502
6.792,0.9999756538048744,-34.57422897800914
6.8,0.9999756986040829,-34.86422420481879
6.808,0.9999757474300948,-35.154213261148
6.816,0.9999758001988795,-35.4441955585093
6.824,0.9999758568267634,-35.73417050929201
6.832,0.9999759172304414,-36.02413752678017
6.84,0.9999759813269937,-36.31409602517077
6.848,0.9999760490338981,-36.604045419591586
6.856,0.9999761202690439,-36.89398512611925
6.864,0.9999761949507467,-37.18391456179708
6.872,0.9999762729977605,-37.473833144653
6.88,0.9999763543292901,-37.763740293717284
6.888,0.999976438865007,-38.05363542904027
6.896,0.999976526525058,-38.34351797171011
6.904,0.9999766172300805,-38.63338734387031
6.912,0.9999767109012135,-38.92324296873742
6.92,0.9999768074601103,-39.21308427061843
6.928,0.9999769068289496,-39.50291067492823
6.936,0.9999770089304469,-39.79272160820704
6.944,0.9999771136878663,-40.08251649813772
6.952,0.999977221025032,-40.37229477356302
6.96,0.9999773308663372,-40.66205586450276
6.968,0.9999774431367577,-40.951799202170946
6.976,0.9999775577618596,-41.24152421899292
6.984,0.9999776746678106,-41.53123034862223
6.992,0.9999777937813911,-41.820917025957606
7.0,0.9999779150300017,-42.110583687159895
7.008,0.999978038341674,-42.40022976966866
7.016,0.9999781636450799,-42.68985471221914
7.024,0.9999782908695409,-42.97945795485859
7.032,0.9999784199450364,-43.269038938963135
7.04,0.9999785508022128,-43.558597107254066
7.048,0.9999786833723907,-43.84813190381434
7.056,0.9999788175875757,-44.137642774104926
7.064,0.9999789533804639,-44.42712916498095
7.072,0.9999790906844508,-44.716590524708074
7.08,0.9999792294336387,-45.006026302978405
7.088,0.9999793695628441,-45.29543595092665
7.096,0.999979511007605,-45.584818921145995
7.104,0.9999796537041872,-45.874174667703976
7.112,0.999979797589592,-46.163502646158264
7.12,0.9999799426015612,-46.45280231357235
7.128,0.9999800886785859,-46.742073128531146
7.136,0.999980235759909,-47.03131455115651
7.144,0.9999803837855351,-47.32052604312273
7.152,0.9999805326962327,-47.60970706767178
7.16,0.9999806824335419,-47.89885708962867
7.168,0.9999808329397779,-48.18797557541655
7.176,0.9999809841580385,-48.47706199307185
7.184,0.9999811360322057,-48.76611581225924
7.192,0.999981288506953,-49.0551365042865
7.2,0.999981441527749,-49.34412354211945
7.208,0.9999815950408609,-49.63307640039647
7.216,0.9999817489933591,-49.92199455544337
7.224,0.9999819033331213,-50.21087748528769
7.232,0.9999820580088357,-50.49972466967324
7.24,0.9999822129700046,-50.78853559007448
7.248,0.9999823681669471,-51.077309729710684
7.256,0.9999825235508031,-51.366046573560105
7.264,0.9999826790735354,-51.65474560837405
7.272,0.9999828346879325,-51.943406322690805
7.28,0.9999829903476112,-52.23202820684952
7.288,0.999983146007018,-52.520610753003936
7.296,0.9999833016214327,-52.809153455136
7.304,0.9999834571469695,-53.097655809069465
7.312,0.9999836125405773,-53.386117312483364
7.32,0.9999837677600438,-53.67453746492528
7.328,0.9999839227639951,-53.962915767824676
7.336,0.9999840775118969,-54.25125172450594
7.344,0.9999842319640565,-54.53954484020149
7.352,0.9999843860816217,-54.82779462206474
7.36,0.9999845398265832,-55.11600057918283
7.368,0.9999846931617739,-55.40416222258943
7.376,0.99998484605087,-55.69227906527728
7.384,0.9999849984583893,-55.9803506222108
7.392,0.9999851503496939,-56.26837641033844
7.4,0.9999853016909869,-56.556355948604974
7.4079999999999995,0.999985452449314,-56.84428875796361
7.416,0.9999856025925621,-57.13217436138837
7.4239999999999995,0.9999857520894578,-57.42001228388556
7.432,0.9999859009095678,-57.70780205250618
7.4399999999999995,0.999986049023297,-57.9955431963572
7.448,0.9999861964018869,-58.2832352466136
7.4559999999999995,0.9999863430174146,-58.57087773652954
7.464,0.9999864888427905,-58.85847020145018
7.4719999999999995,0.9999866338517582,-59.14601217882248
7.48,0.9999867780188904,-59.43350320820697
7.4879999999999995,0.9999869213195872,-59.72094283128834
7.496,0.9999870637300757,-60.008330591886846
7.504,0.9999872052274051,-60.295666035968644
7.5120000000000005,0.9999873457894456,-60.58294871165715
7.52,0.9999874853948851,-60.870178169243125
7.5280000000000005,0.9999876240232267,-61.15735396119569
7.536,0.9999877616547853,-61.44447564217217
7.5440000000000005,0.9999878982706845,-61.731542769029005
7.552,0.9999880338528538,-62.01855490083135
7.5600000000000005,0.9999881683840238,-62.30551159886364
7.568,0.9999883018477244,-62.592412426639115
7.5760000000000005,0.9999884342282798,-62.87925694990999
7.584,0.999988565510805,-63.16604473667685
7.5920000000000005,0.9999886956812015,-63.45277535719866
7.6,0.9999888247261538,-63.73944838400173
7.6080000000000005,0.9999889526331246,-64.02606339188966
7.616,0.9999890793903505,-64.31261995795202
7.6240000000000006,0.9999892049868373,-64.59911766157401
7.632,0.9999893294123561,-64.88555608444501
7.640000000000001,0.9999894526574374,-65.17193481056795
7.648,0.9999895747133669,-65.45825342626756
7.656000000000001,0.9999896955721805,-65.74451152019964
7.664,0.9999898152266586,-66.03070868335898
7.672,0.9999899336703215,-66.31684450908843
7.68,0.9999900508974233,-66.60291859308664
7.688,0.9999901669029475,-66.88893053341668
7.696,0.9999902816826003,-67.17487993051388
7.704,0.9999903952328048,-67.46076638719389
7.712,0.9999905075506963,-67.74658950866049
7.72,0.9999906186341156,-68.03234890251339
7.728,0.9999907284816033,-68.31804417875573
7.736,0.9999908370923928,-68.60367494980161
7.744,0.9999909444664051,-68.88924083048354
7.752,0.9999910506042419,-69.17474143805961
7.76,0.9999911555071797,-69.46017639222062
7.768,0.9999912591771625,-69.74554531509717
7.776,0.9999913616167954,-70.03084783126654
7.784,0.9999914628293387,-70.31608356775942
7.792,0.9999915628186996,-70.60125215406667
7.8,0.9999916615894267,-70.88635322214574
7.808,0.9999917591467024,-71.17138640642727
7.816,0.9999918554963353,-71.45635134382128
7.824,0.9999919506447545,-71.74124767372338
7.832,0.9999920445990009,-72.02607503802089
7.84,0.9999921373667207,-72.31083308109879
7.848,0.9999922289561576,-72.59552144984555
7.856,0.9999923193761455,-72.88013979365887
7.864,0.9999924086361014,-73.1646877644513
7.872,0.9999924967460173,-73.44916501665571
7.88,0.9999925837164518,-73.7335712072307
7.888,0.9999926695585244,-74.01790599566581
7.896,0.9999927542839058,-74.30216904398674
7.904,0.9999928379048105,-74.58636001676032
7.912,0.9999929204339891,-74.87047858109945
7.92,0.999993001884721,-75.15452440666789
7.928,0.9999930822708046,-75.43849716568494
7.936,0.9999931616065507,-75.72239653293003
7.944,0.9999932399067738,-76.00622218574713
7.952,0.999993317186784,-76.28997380404913
7.96,0.9999933934623783,-76.57365107032206
7.968,0.9999934687498326,-76.85725366962916
7.976,0.9999935430658937,-77.14078128961489
7.984,0.9999936164277704,-77.42423362050889
7.992,0.9999936888531252,-77.7076103551296
8.0,0.9999937603600655,-77.99091118888806
8.008,0.9999938309671357,-78.27413581979133
8.016,0.9999939006933081,-78.55728394844606
8.024000000000001,0.9999939695579741,-78.84035527806166
8.032,0.9999940375809366,-79.1233495144535
8.04,0.9999941047823999,-79.40626636604622
8.048,0.9999941711829627,-79.68910554387661
8.056000000000001,0.9999942368036071,-79.97186676159622
8.064,0.999994301665692,-80.25454973547444
8.072,0.9999943657909428,-80.53715418440109
8.08,0.9999944292014434,-80.819679829889
8.088000000000001,0.9999944919196279,-81.10212639607619
8.096,0.999994553968269,-81.38449360972837
8.104,0.999994615370473,-81.6667812002413
8.112,0.9999946761496682,-81.94898889964274
8.120000000000001,0.9999947363295966,-82.23111644259431
8.128,0.9999947959343051,-82.51316356639353
8.136,0.999994854988137,-82.79513001097573
8.144,0.9999949135157221,-83.0770155189156
8.152000000000001,0.9999949715419689,-83.35881983542862
8.16,0.9999950290920538,-83.64054270837265
8.168,0.9999950861914145,-83.92218388824944
8.176,0.9999951428657392,-84.20374312820572
8.184000000000001,0.9999951991409581,-84.48522018403426
8.192,0.9999952550432349,-84.76661481417504
8.2,0.9999953105989572,-85.04792677971626
8.208,0.999995365834728,-85.32915584439516
8.216000000000001,0.9999954207773558,-85.6103017745985
8.224,0.9999954754538468,-85.89136433936343
8.232,0.9999955298913956,-86.17234331037811
8.24,0.9999955841173748,-86.45323846198198
8.248000000000001,0.9999956381593296,-86.73404957116603
8.256,0.9999956920449643,-87.01477641757307
8.264,0.9999957458021368,-87.29541878349814
8.272,0.9999957994588476,-87.57597645388819
8.280000000000001,0.9999958530432329,-87.85644921634211
8.288,0.9999959065835545,-88.13683686111055
8.296,0.9999959601081897,-88.41713918109583
8.304,0.9999960136456251,-88.6973559718515
8.312,0.9999960672244459,-88.97748703158153
8.32,0.9999961208733281,-89.25753216114045
8.328,0.999996174621029,-89.53749116403198
8.336,0.9999962284963786,-89.8173638464089
8.344,0.9999962825282718,-90.09715001707171
8.352,0.9999963367456576,-90.37684948746815
8.36,0.9999963911775328,-90.65646207169168
8.368,0.9999964458529323,-90.93598758648095
8.376,0.9999965008009196,-91.21542585121801
8.384,0.9999965560505806,-91.4947766879275
8.392,0.9999966116310118,-91.77403992127482
8.4,0.9999966675713156,-92.05321537856508
8.408,0.9999967239005881,-92.33230288974117
8.416,0.9999967806479139,-92.61130228738236
8.424,0.9999968378423547,-92.8902134067023
8.432,0.9999968955129441,-93.16903608554753
8.44,0.9999969536886767,-93.44777016439512
8.448,0.9999970123985013,-93.7264154863511
8.456,0.9999970716713119,-94.00497189714798
8.464,0.9999971315359403,-94.28343924514294
8.472,0.999997192021147,-94.56181738131514
8.48,0.9999972531556146,-94.84010615926383
8.488,0.9999973149679375,-95.11830543520544
8.496,0.9999973774866172,-95.39641506797156
8.504,0.9999974407400508,-95.67443491900586
8.512,0.9999975047565256,-95.95236485236184
8.52,0.9999975695642104,-96.23020473469963
8.528,0.9999976351911483,-96.50795443528364
8.536,0.9999977016652477,-96.78561382597908
8.544,0.9999977690142761,-97.06318278124958
8.552,0.9999978372658522,-97.34066117815344
8.56,0.9999979064474376,-97.61804889634111
8.568,0.99999797658633,-97.89534581805141
8.576,0.999998047709656,-98.17255182810868
8.584,0.9999981198443629,-98.44966681391894
8.592,0.9999981930172124,-98.7266906654669
8.6,0.9999982672547726,-99.00362327531195
8.608,0.9999983425834114,-99.28046453858498
8.616,0.9999984190292887,-99.55721435298423
8.624,0.999998496618351,-99.83387261877209
8.632,0.9999985753763224,-100.11043923877068
8.64,0.9999986553286985,-100.38691411835845
8.648,0.9999987365007406,-100.66329716546578
8.656,0.9999988189174673,-100.93958829057135
8.664,0.9999989026036492,-101.21578740669756
8.672,0.9999989875838013,-101.4918944294069
8.68,0.9999990738821771,-101.76790927679708
8.688,0.9999991615227616,-102.04383186949732
8.696,0.999999250529266,-102.3196621306634
8.704,0.9999993409251199,-102.59539998597374
8.712,0.9999994327334661,-102.87104536362433
8.72,0.9999995259771549,-103.14659819432474
8.728,0.9999996206787357,-103.42205841129288
8.736,0.9999997168604541,-103.69742595025083
8.744,0.9999998145442435,-103.97270074941957
8.752,0.9999999137517209,-104.2478827495146
8.76,0.9999999999999998,-104.52297189374063
8.768,1.0,-104.79796812778699
8.776,0.9999999999999999,-105.07287139982223
8.784,1.0,-105.34768166048951
8.792,0.9999999999999999,-105.6223988629009
8.8,0.9999999999999999,-105.89702296263275
8.808,1.0,-106.17155391771986
8.815999999999999,1.0,-106.44599168865076
8.824,0.9999999999999999,-106.72033623836195
8.832,1.0,-106.9945875322325
8.84,1.0,-107.26874553807863
8.847999999999999,1.0,-107.54281022614829
8.856,0.9999999999999999,-107.8167815691155
8.864,1.0,-108.09065954207459
8.872,0.9999999999999999,-108.3644441225345
8.879999999999999,0.9999999999999999,-108.63813529041332
8.888,1.0,-108.91173302803229
8.896,1.0,-109.18523732010985
8.904,1.0,-109.45864815375585
8.911999999999999,1.0,-109.7319655184657
8.92,0.9999999999999999,-110.00518940611433
8.928,0.9999999999999999,-110.27831981094992
8.936,1.0,-110.5513567295881
8.943999999999999,0.9999999999999999,-110.82430016100565
8.952,1.0,-111.09715010653451
8.96,1.0,-111.36990656985523
8.968,1.0,-111.64256955699086
8.975999999999999,0.9999999999999998,-111.91513907630079
8.984,1.0,-112.18761513847423
8.992,1.0,-112.45999775652366
9.0,0.9999999999999999,-112.73228694577858
9.008,0.9999999999999999,-113.0044827238791
9.016,0.9999999999999999,-113.27658511076923
9.024000000000001,1.0,-113.54859412869031
9.032,1.0,-113.82050980217444
9.04,1.0,-114.09233215803789
9.048,0.9999999999999999,-114.36406122537448
9.056000000000001,1.0,-114.63569703554855
9.064,0.9999999999999999,-114.9072396221884
9.072,0.9999999999999999,-115.17868902117957
9.08,1.0,-115.45004527065792
9.088000000000001,0.9999999999999999,-115.72130841100265
9.096,1.0,-115.99247848482945
9.104,0.9999999999999999,-116.26355553698372
9.112,0.9999999999999999,-116.53453961453349
9.120000000000001,1.0,-116.8054307667622
9.128,0.9999999999999999,-117.07622904516191
9.136,1.0,-117.34693450342628
9.144,1.0,-117.6175471974433
9.152000000000001,1.0,-117.88806718528811
9.16,0.9999999999999999,-118.15849452721592
9.168,0.9999999999999999,-118.42882928565494
9.176,1.0,-118.69907152519897
9.184000000000001,1.0,-118.96922131260021
9.192,1.0,-119.23927871676185
9.2,1.0,-119.50924380873107
9.208,1.0,-119.77911666169148
9.216000000000001,1.0,-120.04889735095568
9.224,0.9999999999999998,-120.31858595395809
9.232,0.9999999999999999,-120.58818255024738
9.24,1.0,-120.85768722147915
9.248000000000001,0.9999999999999999,-121.12710005140838
9.256,1.0,-121.39642112588183
9.264,1.0,-121.66565053283084
9.272,1.0,-121.9347883622636
9.280000000000001,1.0,-122.20383470625757
9.288,0.9999999999999999,-122.47278965895187
9.296,1.0,-122.74165331653994
9.304,0.9999999999999999,-123.01042577726172
9.312000000000001,1.0,-123.27910714139595
9.32,0.9999999999999999,-123.54769751125264
9.328,1.0,-123.81619699116534
9.336,1.0,-124.08460568748367
9.344,1.0,-124.35292370856513
9.352,0.9999999999999999,-124.62115116476788
9.36,1.0,-124.88928816844253
9.368,0.9999999999999999,-125.15733483392495
9.376,1.0,-125.42529127752779
9.384,1.0,-125.6931576175334
9.392,0.9999999999999999,-125.96093397418535
9.4,1.0,-126.22862046968129
9.408,1.0,-126.49621722816438
9.416,1.0,-126.76372437571625
9.424,1.0,-127.03114204034831
9.432,0.9999999999999999,-127.29847035199458
9.44,1.0,-127.5657094425033
9.448,0.9999999999999999,-127.8328594456294
9.456,1.0,-128.09992049702626
9.464,1.0,-128.3668927342381
9.472,1.0,-128.6337762966918
9.48,1.0,-128.90057132568919
9.488,1.0,-129.1672779643988
9.496,1.0,-129.4338963578483
9.504,1.0,-129.7004266529161
9.512,1.0,-129.9668689983238
9.52,1.0,-130.23322354462778
9.528,1.0,-130.4994904442116
9.536,0.9999999999999999,-130.76566985127772
9.544,0.9999999999999999,-131.0317619218398
9.552,1.0,-131.29776681371422
9.56,1.0,-131.5636846865127
9.568,0.9999999999999999,-131.82951570163354
9.576,0.9999999999999999,-132.09526002225434
9.584,0.9999999999999999,-132.3609178133234
9.592,0.9999999999999999,-132.62648924155212
9.6,1.0,-132.8919744754065
9.608,1.0,-133.15737368509963
9.616,1.0,-133.42268704258314
9.624,1.0,-133.68791472153964
9.632,1.0,-133.9530568973742
9.64,1.0000000000000002,-134.2181137472068
9.648,1.0,-134.48308544986372
9.656,1.0,-134.74797218587014
9.664,0.9999999999999999,-135.0127741374414
9.672,0.9999999999999999,-135.27749148847556
9.68,1.0,-135.54212442454494
9.688,1.0,-135.8066731328884
9.696,1.0,-136.0711378024028
9.704,0.9999999999999999,-136.33551862363566
9.712,0.9999999999999999,-136.5998157887764
9.72,0.9999999999999999,-136.86402949164892
9.728,1.0,-137.1281599277029
9.736,1.0,-137.39220729400654
9.744,1.0,-137.6561717892378
