freq,mag,phase
6.0,1.000406115603653,87.56431125812854
6.002287616,1.0003821792207919,87.37846612349546
6.004575232,1.0003341625567057,87.19316414778794
6.006862848,1.000265252786002,87.00872082359766
6.009150464,1.0001797916016704,86.82542048695845
6.011438592,1.0000829829084126,86.64346273604215
6.013726208,0.9999811862274566,86.46293568879933
6.016013824,0.9998806550891616,86.2839040955757
6.01830144,0.9997877371890809,86.10629713304388
6.020589056,0.9997082388641277,85.929968956735
6.022876672,0.9996472000469278,85.75465682130512
6.025164288,0.9996084797523904,85.58008908016666
6.027451904,0.9995945237831353,85.40593807621528
6.029740032,0.9996062216654125,85.23180403757381
6.032027648,0.9996428863239726,85.05735889492212
6.034315264,0.9997022091826715,84.88220847687286
6.03660288,0.9997804204522324,84.70609945478272
6.038890496,0.9998726065293506,84.52877755484674
6.041178112,0.9999731140803426,84.35006515806928
6.043465728,1.0000754773998999,84.16988982979144
6.045753344,1.0001732444079334,83.98830747449678
6.04804096,1.000260299221943,83.80540782366937
6.050329088,1.0003312619040226,83.62135034202682
6.052616704,1.0003815291832527,83.43645372163581
6.05490432,1.0004080354124256,83.2510383244203
6.057191936,1.000408976605492,83.06541545622004
6.059479552,1.0003843234424201,82.87998475469236
6.061767168,1.0003357223224751,82.69508096875897
6.064054784,1.0002660717412462,82.51106354676793
6.0663424,1.0001798996163063,82.32818045341381
6.068630016,1.0000823816169737,82.14666593471354
6.070918144,0.9999798743254221,81.96660007679239
6.07320576,0.9998786323168768,81.78802991510429
6.075493376,0.9997852409243038,81.61089858167495
6.077780992,0.9997054971311604,81.43502346450656
6.080068608,0.9996442079729937,81.2602056505769
6.082356224,0.9996056011276515,81.08612459023566
6.08464384,0.9995918596672696,80.91241985159837
6.086931456,0.9996040570442818,80.73874647711851
6.089219584,0.9996412905524277,80.56475892912971
6.0915072,0.9997013176562698,80.3900783492948
6.093794816,0.999780182961781,80.2144185158771
6.096082432,0.9998732305805236,80.03750284242052
6.098370048,0.9999743585076807,79.85922436683721
6.100657664,1.0000774398761543,79.67946869730362
6.10294528,1.0001757980079786,79.49827672934552
6.105232896,1.0002632113299312,79.31574671495386
6.107520512,1.0003343600524492,79.13211353981224
6.10980864,1.0003846588491008,78.94757324660166
6.112096256,1.0004109443675795,78.76254377988242
6.114383872,1.0004115733753,78.57729294318263
6.116671488,1.0003864388717434,78.3922524134827
6.118959104,1.000337183275686,78.20776432034235
6.12124672,1.000266819807407,78.02415921255492
6.123534336,1.000179808399527,77.84170590005682
6.125821952,1.0000815850808662,77.66059705893827
6.128109568,0.9999783096408202,77.48097369498753
6.130397696,0.9998765575225372,77.30286814935776
6.132685312,0.9997827094883383,77.126181051035
6.134972928,0.9997025383508459,76.95076181873384
6.137260544,0.999641202299058,76.77641301797948
6.13954816,0.999602664427722,76.60279650105244
6.141835776,0.9995892421985185,76.4295626659158
6.144123392,0.999601788736029,76.25636475298093
6.146411008,0.9996396726299774,76.08281951570619
6.148699136,0.9997003205737096,75.90857059963787
6.150986752,0.99978010472383,75.73332105811541
6.153274368,0.9998738602837873,75.55684050502694
6.155561984,0.9999758700306812,75.3789601356069
6.1578496,1.0000794456643618,75.19959252994978
6.160137216,1.0001783485566085,75.01877838323732
6.162424832,1.0002662896316095,74.83662824306136
6.164712448,1.0003375892164446,74.65334809079424
6.167000064,1.0003878958194303,74.46918793025064
6.169288192,1.0004140628878033,74.28451571608707
6.171575808,1.000414292206347,74.09964571652928
6.173863424,1.000388625356379,73.91497920963324
6.17615104,1.0003386523011102,73.73088805312914
6.178438656,1.0002675764654516,73.54766913220973
6.180726272,1.0001796156633163,73.36561724603592
6.183013888,1.000080652583296,73.18492672059466
6.185301504,0.9999766660931582,73.00574702318936
6.18758912,0.9998743390289456,72.82806102446696
6.189877248,0.9997798794981176,72.65182994619563
6.192164864,0.9996994608852321,72.47685738959524
6.19445248,0.9996380378558288,72.30295322071402
6.196740096,0.9995995546304314,72.12978378060069
6.199027712,0.9995864141476793,71.95700409682863
6.201315328,0.9995995266818076,71.78423766563866
6.203602944,0.9996379699958159,71.61111358943508
6.20589056,0.999699486392226,71.43729806099363
6.208178688,0.999779966408405,71.26247255478252
6.210466304,0.9998745974552433,71.08638190736463
6.21275392,0.9999772831868882,70.90887484445024
6.215041536,1.0000816538002062,70.72989817760667
6.217329152,1.0001811617228331,70.54943551501124
6.219616768,1.0002694228288458,70.36765372597483
6.221904384,1.0003409597616548,70.18471611432521
6.224192,1.0003912517756839,70.0009350216513
6.226479616,1.0004171193580342,69.81660710386058
6.228767744,1.0004170309075051,69.63207571533121
6.23105536,1.0003908133502726,69.44779406058167
6.233342976,1.0003400725248048,69.26404617657299
6.235630592,1.0002681987548512,69.08120359958667
6.237918208,1.000179520747475,68.89955521089024
6.240205824,1.000079657292381,68.7192787734837
6.24249344,0.9999749892559195,68.54048630843903
6.244781056,0.9998719154016613,68.36323305766948
6.247068672,0.9997770240361777,68.18742160811074
6.2493568,0.9996963655567142,68.01289278805768
6.251644416,0.9996348474766971,67.83944009478306
6.253932032,0.9995964867323938,67.66669424839516
6.256219648,0.9995837515190957,67.4943442876659
6.258507264,0.9995972362154344,67.32201036460046
6.26079488,0.9996363614109246,67.14932539296751
6.263082496,0.999698601447088,66.97588937097203
6.265370112,0.9997799751077144,66.80146353332198
6.26765824,0.9998754344435838,66.62573969188591
6.269945856,0.9999789366242527,66.44861443972621
6.272233472,1.000084016432546,66.26998752693041
6.274521088,1.0001840534669262,66.08987837676369
6.276808704,1.0002726985144132,65.90843380745393
6.27909632,1.0003444024947674,65.72583974632357
6.281383936,1.0003946975048994,65.54238392587465
6.283671552,1.0004204880950713,65.35836764772407
6.285959168,1.000419819915866,65.17420830948514
6.288247296,1.0003929856030844,64.99022803474786
6.290534912,1.0003415428586864,64.80685884059865
6.292822528,1.000268871966079,64.62438973309143
6.295110144,1.0001793130357188,64.44310831925337
6.29739776,1.0000787183761237,64.26321267919157
6.299685376,0.9999731211735365,64.08482425461737
6.301972992,0.9998694087070661,63.90797386220625
6.304260608,0.9997740538013429,63.73259048279528
6.306548224,0.9996931154977442,63.55848853640055
6.308836352,0.9996315089551892,63.38542389211486
6.311123968,0.999593271744212,63.21312495698965
6.313411584,0.9995807713426508,63.041178522601584
6.3156992,0.9995949160547182,62.86925612896548
6.317986816,0.9996347553908704,62.69695367018589
6.320274432,0.9996977815222156,62.52392917136624
6.322562048,0.9997799763939643,62.34987250211966
6.324849664,0.9998762784157673,62.1745184045773
6.327137792,0.999980573061371,61.99773260741394
6.329425408,1.0000864001969987,61.81943861185098
6.331713024,1.0001870139918867,61.63967391271644
6.33400064,1.0002760925336378,61.45855437435357
6.336288256,1.000348015223297,61.27626444742483
6.338575872,1.000398151673189,61.093110412551425
6.340863488,1.0004236988336213,60.909410390349706
6.343151104,1.000422635821243,60.725560519383514
6.34543872,1.0003951785327054,60.54193458899677
6.347726848,1.0003429947118354,60.35888991247621
6.350014464,1.0002694681982824,60.176749742713106
6.35230208,1.0001790488404776,59.9958362993467
6.354589696,1.0000775854186517,59.81631690299123
6.356877312,0.9999711970457996,59.63830631505787
6.359164928,0.9998668995357894,59.46184788721567
6.361452544,0.9997710161916925,59.286855463804315
6.36374016,0.9996897249018076,59.11315007738782
6.366027776,0.9996280592127302,58.940504138071944
6.368315904,0.9995899860079278,58.768594697199845
6.37060352,0.9995779107812726,58.59706439369249
6.372891136,0.9995925695079638,58.42554410133875
6.375178752,0.9996331185349066,58.25363052991026
6.377466368,0.999696874366767,58.08096788737957
6.379753984,0.9997800344486358,57.907256522231265
6.3820416,0.999877233347372,57.732252545371765
6.384329216,0.9999823837123409,57.55579754369098
6.386617344,1.0000889408493403,57.37783645493374
6.38890496,1.000190126303871,57.19836942044793
6.391192576,1.0002795430813005,57.01754000921549
6.393480192,1.0003516682208573,56.835557482143706
6.395767808,1.0004018149004732,56.65268048905656
6.398055424,1.000426947607878,56.46929438961215
6.40034304,1.0004254814458065,56.28574239802437
6.402630656,1.000397336388168,56.102427409348564
6.404918272,1.0003444810591404,55.91968685664387
6.4072064,1.0002700388988157,55.7379078125246
6.409494016,1.0001787251830545,55.55729740183019
6.411781632,1.0000762965478125,55.378138461283456
6.414069248,0.9999692317963735,55.20050405059959
6.416356864,0.9998641853166981,55.02440876870706
6.41864448,0.9997678917218077,54.84980009264313
6.420932096,0.9996862786267741,54.67648385207811
6.423219712,0.9996245263462384,54.504233405117404
6.425507328,0.999586684857131,54.33269714154814
6.427795456,0.9995749786101726,54.16154859600485
6.430083072,0.9995902769448316,53.990394986683405
6.432370688,0.9996314686825578,53.81883806519752
6.434658304,0.9996961766904064,53.646532243609364
6.43694592,0.9997801947400099,53.47316868888564
6.439233536,0.999878302267814,53.298496131981324
6.441521152,0.9999842854450157,53.12235133365837
6.443808768,1.000091520749985,52.94468004750788
6.446096896,1.0001933554289246,52.765494297671104
6.448384512,1.0002831499636249,52.58493506579544
6.450672128,1.0003555030337254,52.403228686388154
6.452959744,1.000405556324308,52.220653834398064
6.45524736,1.0004304167931657,52.03751969772299
6.457534976,1.0004283872788637,51.85425086711971
6.459822592,1.000399624865123,51.67122837608991
6.462110208,1.0003458549453204,51.48879105350571
6.464397824,1.0002705037771704,51.30729945976911
6.466685952,1.0001782815047686,51.12703079324643
6.468973568,1.0000749898824963,50.948200779026045
6.471261184,0.9999670656425437,50.77091153023515
6.4735488,0.9998614101271104,50.59518225202704
6.475836416,0.999764571393328,50.420927399899576
6.478124032,0.999682711717288,50.24797109964745
6.480411648,0.9996209354365827,50.07608904540404
6.482699264,0.9995832389452455,49.90493751741796
6.48498688,0.9995719176299565,49.73414749296496
6.487275008,0.9995878124671943,49.56334394467045
6.489562624,0.9996298396705153,49.39213947000811
6.49185024,0.9996954315061888,49.2201768834808
6.494137856,0.9997803489317855,49.04711902005966
6.496425472,0.9998794132341368,48.87273399762122
6.498713088,0.9999862996894314,48.69688528587424
6.501000704,1.0000943123483097,48.51948903809215
6.50328832,1.0001966860538187,48.34057544771053
6.505576448,1.0002868471148987,48.16028517118226
6.507864064,1.0003592728504098,47.978828030541564
6.51015168,1.0004093026893317,47.796484372804414
6.512439296,1.0004338425520451,47.61361603839087
6.514726912,1.000431301581859,47.430614801535306
6.517014528,1.000401836506228,47.247842908624555
6.519302144,1.0003472276674836,47.0656930583249
6.52158976,1.0002709896589541,46.884502836062836
6.523877376,1.000177782746067,46.704528414118
6.526165504,1.0000735134655827,46.52602035686558
6.52845312,0.9999648840365962,46.349044161895044
6.530740736,0.9998584479571596,46.17364383135756
6.533028352,0.9997611757559413,45.99973961120174
6.535315968,0.9996790578939422,45.827139045235036
6.537603584,0.9996172739183544,45.655601141470704
6.5398912,0.9995796934411668,45.48479720894247
6.542178816,0.9995689041885327,45.31436770392492
6.544466432,0.9995853755652987,45.14389230642351
6.54675456,0.9996281478654496,44.973008993683464
6.549042176,0.9996946526518218,44.801350032398986
6.551329792,0.9997805408401709,44.62858889000472
6.553617408,0.9998806352154672,44.45448026945759
6.555905024,0.9999883911753448,44.278916892495495
6.55819264,1.000097168028039,44.10176992774104
6.560480256,1.0002000776133158,43.92311080091035
6.562767872,1.0002907039002273,43.74305959573835
6.565056,1.0003632358924068,43.56183387954274
6.567343616,1.0004132529531065,43.37972392701088
6.569631232,1.000437458374504,43.19707905369845
6.571918848,1.0004342979416345,43.01430272900082
6.574206464,1.000404041988452,42.83176995997093
6.57649408,1.0003485866846413,42.64988176566973
6.578781696,1.0002713243094716,42.468952906470534
6.581069312,1.000177204442296,42.2892714185966
6.583356928,1.000071978984624,42.11105673458386
6.585645056,0.9999624049640534,41.934400455533456
6.587932672,0.9998553512891007,41.75931005928816
6.590220288,0.9997575345146031,41.58574175061789
6.592507904,0.9996751547406273,41.413482664911314
6.59479552,0.9996133475990353,41.242261833641756
6.597083136,0.9995760745738045,41.071782623807195
6.599370752,0.9995656280144334,40.90168333980129
6.601658368,0.9995828159126136,40.73153655930803
6.603945984,0.9996264605100715,40.56094983051409
6.606234112,0.9996938029620173,40.389570797138326
6.608521728,0.9997807629270757,40.217104132212725
6.610809344,0.9998817068875839,40.04325838893655
6.61309696,0.9999904971663933,39.86793912546199
6.615384576,1.0000999747424328,39.69101298770303
6.617672192,1.0002035264375309,39.51256510840074
6.619959808,1.0002945530527638,39.33273170652852
6.622247424,1.0003672551353178,39.15170226854906
6.624535552,1.00041709067362,38.96980802878569
6.626823168,1.0004409524396265,38.787386053986054
6.629110784,1.000437238752523,38.60482968783158
6.6313984,1.000406279824165,38.422517645571794
6.633686016,1.000349934587262,38.24086906424741
6.635973632,1.000271654969152,38.06018991240493
6.638261248,1.0001765339542337,37.880764634321096
6.640548864,1.0000703737345868,37.702821549491595
6.64283648,0.9999599471517836,37.52644516467849
6.645124608,0.9998521698575472,37.35167500076299
6.647412224,0.999753889116617,37.178403866224116
6.64969984,0.9996711870232333,37.00645220277879
6.651987456,0.9996094234063923,36.835557749717545
6.654275072,0.9995723731188535,36.6654040596696
6.656562688,0.9995624228565434,36.49558162569521
6.658850304,0.9995802870385511,36.3257184637065
6.66113792,0.9996247594229782,36.155425284174115
6.663426048,0.9996931032207608,35.98432433544018
6.665713664,0.9997810322636234,35.81209936709712
6.66800128,0.999883076850946,35.63849542629567
6.670288896,0.9999926640856551,35.46337254814508
6.672576512,1.000103080925674,35.286672730150556
6.674864128,1.000207193727224,35.10843422411785
6.677151744,1.0002985206613781,34.92876784992119
6.67943936,1.0003713744551093,34.747954821169294
6.681726976,1.0004211846204243,34.56622546354632
6.684015104,1.0004446578969883,34.38399024488997
6.68630272,1.0004403391157888,34.201631431252544
6.688590336,1.0004085873470554,34.019526688388495
6.690877952,1.0003511820859745,33.838090701133915
6.693165568,1.000272009275875,33.65763932770214
6.695453184,1.000175795348909,33.47846516096935
6.6977408,1.00006868597241,33.30076371063185
6.700028416,0.9999574404533169,33.124673916436244
6.702316032,0.9998489907259488,32.9501816164708
6.70460416,0.9997501040939657,32.77717413381178
6.706891776,0.9996672525973281,32.60551467926323
6.709179392,0.9996053589792879,32.434921943771045
6.711467008,0.9995686613612417,32.26504380573828
6.713754624,0.9995591786260912,32.09552062402611
6.71604224,0.9995777180968136,31.925927344991656
6.718329856,0.9996231442004595,31.75589151241666
6.720617472,0.9996925179519942,31.585034158902392
6.7229056,0.9997814775900686,31.41304313114826
6.725193216,0.9998844967783319,31.239658291372237
6.727480832,0.9999950783322047,31.064743040337916
6.729768448,1.0001062241306338,30.88821834063389
6.732056064,1.0002109339899976,30.710151847873835
6.73434368,1.0003027589441718,30.530674238000827
6.736631296,1.0003757063789198,30.350005887263865
6.738918912,1.000425291301183,30.168441085678158
6.741206528,1.0004483535867,29.9863744246147
6.743494656,1.0004434848702102,29.80416910028571
6.745782272,1.0004108332398285,29.622255580615192
6.748069888,1.0003525698297024,29.441001843220892
6.750357504,1.0002724034040191,29.260768663000047
6.75264512,1.000175125218919,29.08180066714026
6.754932736,1.0000669577309045,28.90435189091154
6.757220352,0.9999548141654375,28.72849605066146
6.759507968,0.9998455753148152,28.55425997389733
6.761795584,0.9997462860778329,28.381520704059284
6.764083712,0.9996630651277837,28.2101448871997
6.766371328,0.9996013584666072,28.039804106108143
6.768658944,0.999564745319563,27.8701974476914
6.77094656,0.999555876570262,27.700932702534324
6.773234176,0.9995751350606311,27.531604877444238
6.775521792,0.9996214952303383,27.361807417777747
6.777809408,0.9996918512261599,27.191168175197657
6.780097024,0.9997818802992924,27.019385462958994
6.782385152,0.999886009762445,26.846202544758544
6.784672768,0.9999975005406557,26.671447710162752
6.786960384,1.00010953006142,26.495091220931887
6.789248,1.0002147984268235,26.3171884494073
6.791535616,1.0003069897897054,26.137835648527364
6.793823232,1.0003800971915855,25.95729551656918
6.796110848,1.0004294931741369,25.775894429977555
6.798398464,1.0004521520293834,25.59397355946475
6.80068608,1.0004466337059597,25.411920938634967
6.802974208,1.0004132761497109,25.23015803712943
6.805261824,1.0003539673581576,25.04906636449751
6.80754944,1.000272611438936,24.86901269041273
6.809837056,1.0001743619836203,24.69025478292601
6.812124672,1.0000652154996226,24.51300274647011
6.814412288,0.9999521655180543,24.337371122301622
6.816699904,0.999842218608723,24.163375684461872
6.81898752,0.9997423850665583,23.990911793031255
6.821275136,0.9996589908184722,23.819753783694523
6.823563264,0.9995972078913045,23.649667529336433
6.82585088,0.9995609474563538,23.480326443784847
6.828138496,0.999552616330199,23.311283514424467
6.830426112,0.9995726471172992,23.14218112974599
6.832713728,0.9996199166672315,22.972590316347368
6.835001344,0.9996912631157444,22.802179098614918
6.83728896,0.999782462742211,22.630555468941782
6.839576576,0.9998875837818323,22.45755015607887
6.841864704,1.0000000204931963,22.282962356532806
6.84415232,1.0001128727742383,22.106738411852366
6.846439936,1.000218806905663,21.928966281192398
6.848727552,1.000311391216619,21.74973143670104
6.851015168,1.0003845392490778,21.569315557547128
6.853302784,1.000433807275983,21.388001402198974
6.8555904,1.0004560373097058,21.20620121670551
6.857878016,1.0004497850643712,21.024270372718004
6.860165632,1.0004154908952971,20.84265725133328
6.86245376,1.0003552316609634,20.661716544216503
6.864741376,1.000272818173626,20.48180956054989
6.867028992,1.0001734471293922,20.30324225339539
6.869316608,1.0000632554396793,20.126174349744357
6.871604224,0.9999492527639521,19.95077312680618
6.87389184,0.9998385677156841,19.776962836600227
6.876179456,0.9997382824127932,19.604703070731315
6.878467072,0.9996546668110885,19.433793808666465
6.880754688,0.9995929089629564,19.263947768171207
6.883042816,0.999556916286386,19.09481549755543
6.885330432,0.9995490524843009,18.926011439540627
6.887618048,0.999569978330023,18.75712677712845
6.889905664,0.9996181582683278,18.587728690036347
6.89219328,0.9996906676151608,18.417463919998177
6.894480896,0.9997828921186134,18.246019744652916
6.896768512,0.999889081307207,18.073144316810943
6.899056128,1.0000026171882337,17.89869597122004
6.901344256,1.0001162877407475,17.72259554709063
6.903631872,1.000222889818551,17.544904006282483
6.905919488,1.000315722035379,17.365782314339583
6.908207104,1.0003890153159727,17.18544967442267
6.91049472,1.000438071589626,17.004236902598876
6.912782336,1.0004598941979421,16.822524209544245
6.915069952,1.0004529510127658,16.640700317606317
6.917357568,1.0004177806296781,16.4591856557725
6.919645184,1.0003565349322412,16.27837076969048
6.921933312,1.0002730045026444,16.098621196233527
6.924220928,1.0001724554167104,15.920194836157924
6.926508544,1.0000612215039315,15.743317756276731
6.92879616,0.999946360315803,15.568061340598543
6.931083776,0.9998348903770788,15.394458214715062
6.933371392,0.9997340907233162,15.222419700078136
6.935659008,0.999650103382363,15.051694229979894
