freq,mag,phase
6.0,0.9999961205057756,-134.40446665280885
6.008,0.9999966214436645,-134.7219778703973
6.016,0.9999970912722879,-135.0388672715753
6.024,0.9999975308123664,-135.3551393071556
6.032,0.9999979408704859,-135.6707984214612
6.04,0.9999983222392744,-135.98584905219744
6.048,0.9999986756975761,-136.30029563032926
6.056,0.9999990020106229,-136.6141425799623
6.064,0.9999993019302095,-136.927394318229
6.072,0.999999576194861,-137.24005525517876
6.08,0.9999998255300035,-137.55212979367246
6.088,1.0,-137.86362232928133
6.096,0.9999999999999999,-138.17453725018967
6.104,0.9999999999999998,-138.48487893710197
6.112,1.0,-138.794651763154
6.12,1.0,-139.1038600938275
6.128,1.0,-139.41250828686913
6.136,1.0,-139.7206006922132
6.144,1.0,-140.0281416519078
6.152,1.0,-140.33513550004497
6.16,1.0,-140.64158656269447
6.168,1.0,-140.94749915784064
6.176,0.9999999999999999,-141.25287759532338
6.184,1.0,-141.55772617678213
6.192,1.0,-141.8620491956033
6.2,1.0,-142.16585093687112
6.208,0.9999999999999999,-142.46913567732153
6.216,1.0,-142.77190768529948
6.224,1.0,-143.07417122071914
6.232,0.9999999999999999,-143.37593053502735
6.24,1.0,-143.67718987117
6.248,1.0,-143.97795346356125
6.256,0.9999999999999999,-144.27822553805606
6.264,1.0,-144.57801031192494
6.272,1.0,-144.87731199383208
6.28,0.9999998297963989,-145.17613478381594
6.288,0.9999996465058154,-145.47448287327242
6.296,0.9999994535023817,-145.77236044494106
6.304,0.9999992512079654,-146.0697716728934
6.312,0.9999990400356507,-146.3667207225243
6.32,0.9999988203898625,-146.66321175054517
6.328,0.9999985926664965,-146.9592489049804
6.336,0.9999983572530406,-147.25483632516548
6.344,0.9999981145287024,-147.54997814174797
6.352,0.9999978648645269,-147.84467847669063
6.36,0.9999976086235213,-148.13894144327654
6.368,0.9999973461607755,-148.43277114611692
6.376,0.9999970778235762,-148.72617168116068
6.384,0.9999968039515269,-149.01914713570645
6.392,0.9999965248766619,-149.31170158841658
6.4,0.9999962409235637,-149.603839109333
6.408,0.999995952409472,-149.89556375989525
6.416,0.9999956596443982,-150.18687959296062
6.424,0.9999953629312351,-150.4777906528261
6.432,0.999995062565866,-150.76830097525198
6.44,0.999994758837272,-151.05841458748765
6.448,0.9999944520276403,-151.34813550829915
6.456,0.9999941424124675,-151.63746774799833
6.464,0.9999938302606642,-151.92641530847388
6.472,0.9999935158346596,-152.214982183224
6.48,0.9999931993905011,-152.50317235739104
6.4879999999999995,0.999992881177955,-152.790989807797
6.496,0.9999925614406072,-153.07843850298184
6.504,0.999992240415959,-153.365522403242
6.5120000000000005,0.9999919183355244,-153.65224546067174
6.52,0.9999915954249281,-153.93861161920483
6.5280000000000005,0.9999912719039961,-154.22462481465885
6.536,0.9999909479868515,-154.5102889747797
6.5440000000000005,0.9999906238820058,-154.79560801928892
6.552,0.9999902997924497,-155.0805858599309
6.5600000000000005,0.9999899759157433,-155.36522640052291
6.568,0.9999896524441046,-155.64953353700508
6.5760000000000005,0.9999893295644967,-155.93351115749297
6.584,0.9999890074587143,-156.21716314233026
6.592,0.9999886863034693,-156.50049336414364
6.6,0.9999883662704747,-156.78350568789813
6.608,0.9999880475265286,-157.06620397095423
6.616,0.9999877302335944,-157.34859206312572
6.624,0.9999874145488842,-157.6306738067391
6.632,0.9999871006249365,-157.9124530366936
6.64,0.9999867886096971,-158.19393358052272
6.648,0.9999864786465957,-158.47511925845674
6.656,0.999986170874623,-158.7560138834861
6.664,0.9999858654284073,-159.03662126142584
6.672,0.9999855624382878,-159.3169451909814
6.68,0.9999852620303906,-159.59698946381474
6.688,0.9999849643266999,-159.87675786461213
6.696,0.9999846694451301,-160.15625417115223
6.704,0.999984377499598,-160.43548215437568
6.712,0.9999840886000912,-160.71444557845498
6.72,0.9999838028527387,-160.99314820086582
6.728,0.9999835203598779,-161.2715937724587
6.736,0.9999832412201219,-161.54978603753193
6.744,0.9999829655284271,-161.8277287339051
6.752,0.9999826933761568,-162.1054255929934
6.76,0.9999824248511467,-162.38288033988272
6.768,0.9999821600377694,-162.6600966934056
6.776,0.9999818990169949,-162.9370783662178
6.784,0.9999816418664551,-163.21382906487582
6.792,0.9999813886605028,-163.4903524899147
6.8,0.9999811394702731,-163.76665233592698
6.808,0.9999808943637427,-164.04273229164204
6.816,0.9999806534057881,-164.3185960400062
6.824,0.999980416658243,-164.59424725826352
6.832,0.9999801841799567,-164.86968961803706
6.84,0.9999799560268486,-165.14492678541086
6.848,0.9999797322519648,-165.41996242101263
6.856,0.9999795129055321,-165.69480018009682
6.864,0.9999792980350116,-165.96944371262836
6.872,0.9999790876851531,-166.24389666336697
6.88,0.9999788818980454,-166.51816267195193
6.888,0.9999786807131695,-166.7922453729875
6.896,0.999978484167449,-167.0661483961289
6.904,0.9999782922953009,-167.3398753661684
6.912,0.9999781051286821,-167.61342990312244
6.92,0.9999779226971433,-167.88681562231903
6.928,0.9999777450278715,-168.16003613448524
6.936,0.9999775721457416,-168.4330950458359
6.944,0.9999774040733606,-168.705995958162
6.952,0.9999772408311149,-168.97874246892
6.96,0.9999770824372143,-169.2513381713213
6.968,0.999976928907739,-169.5237866544224
6.976,0.9999767802566798,-169.79609150321517
6.984,0.9999766364959867,-170.0682562987175
6.992,0.9999764976356061,-170.34028461806474
7.0,0.9999763636835274,-170.612180034601
7.008,0.9999762346458221,-170.88394611797116
7.016,0.9999761105266852,-171.155586434213
7.024,0.9999759913284769,-171.4271045458499
7.032,0.9999758770517597,-171.69850401198357
7.04,0.9999757676953404,-171.9697883883875
7.048,0.9999756632563053,-172.2409612276003
7.056,0.9999755637300631,-172.51202607901968
7.064,0.999975469110377,-172.78298648899639
7.072,0.9999753793894052,-173.05384600092893
7.08,0.9999752945577358,-173.32460815535813
7.088,0.9999752146044244,-173.5952764900619
7.096,0.9999751395170254,-173.86585454015085
7.104,0.9999750692816316,-174.1363458381635
7.112,0.999975003882905,-174.40675391416204
7.12,0.9999749433041114,-174.67708229582848
7.128,0.9999748875271561,-174.9473345085606
7.136,0.9999748365326123,-175.21751407556854
7.144,0.9999747902997558,-175.48762451797145
7.152,0.9999747488065979,-175.75766935489412
7.16,0.9999747120299145,-176.02765210356435
7.168,0.9999746799452771,-176.29757627940992
7.176,0.999974652527085,-176.5674453961562
7.184,0.9999746297485927,-176.83726296592351
7.192,0.9999746115819423,-177.10703249932527
7.2,0.9999745979981891,-177.37675750556565
7.208,0.9999745889673336,-177.64644149253766
7.216,0.9999745844583462,-177.91608796692174
7.224,0.9999745844391987,-178.18570043428372
7.232,0.999974588876888,-178.4552823991737
7.24,0.9999745977374649,-178.72483736522466
7.248,0.9999746109860602,-178.9943688352511
7.256,0.9999746285869109,-179.26388031134815
7.264,0.9999746505033859,-179.5333752949906
7.272,0.9999746766980108,-179.80285728713193
7.28,0.9999747071324925,179.92767021169632
7.288,0.9999747417677459,179.65820370128517
7.296,0.9999747805639144,179.38873968164896
7.304,0.999974823480397,179.11927465292558
7.312,0.9999748704758697,178.84980511527692
7.32,0.99997492150831,178.5803275687894
7.328,0.9999749765350178,178.31083851337385
7.336,0.9999750355126387,178.04133444866608
7.344,0.9999750983971863,177.77181187392668
7.352,0.9999751651440639,177.50226728794146
7.36,0.9999752357080847,177.23269718892107
7.368,0.9999753100434934,176.9630980744015
7.376,0.9999753881039879,176.6934664411435
7.384,0.9999754698427373,176.42379878503309
7.392,0.9999755552124044,176.15409160098096
7.4,0.999975644165164,175.8843413828229
7.4079999999999995,0.9999757366527218,175.6145446232192
7.416,0.9999758326263352,175.3446978135549
7.4239999999999995,0.9999759320368312,175.07479744383957
7.432,0.9999760348346243,174.80484000260722
7.4399999999999995,0.9999761409697354,174.5348219768164
7.448,0.9999762503918098,174.2647398517497
7.4559999999999995,0.9999763630501344,173.9945901109144
7.464,0.9999764788936559,173.72436923594174
7.4719999999999995,0.9999765978709964,173.4540737064877
7.48,0.9999767199304723,173.18370000013246
7.4879999999999995,0.999976845020109,172.91324459228107
7.496,0.9999769730876578,172.64270395606326
7.504,0.9999771040806128,172.37207456223402
7.5120000000000005,0.9999772379462252,172.10135287907372
7.52,0.9999773746315204,171.83053537228875
7.5280000000000005,0.9999775140833119,171.55961850491173
7.536,0.9999776562482174,171.28859873720253
7.5440000000000005,0.9999778010726734,171.01747252654854
7.552,0.999977948502949,170.7462363273659
7.5600000000000005,0.9999780984851617,170.47488659099992
7.568,0.9999782509652897,170.20341976562668
7.5760000000000005,0.999978405889188,169.93183229615366
7.584,0.9999785632025997,169.66012062412162
7.5920000000000005,0.999978722851172,169.38828118760534
7.6,0.9999788847804673,169.11631042111594
7.6080000000000005,0.999979048935977,168.84420475550206
7.616,0.9999792152631352,168.57196061785208
7.6240000000000006,0.9999793837073299,168.29957443139608
7.632,0.9999795542139159,168.02704261540825
7.640000000000001,0.999979726728229,167.754361585109
7.648,0.9999799011955939,167.4815277515682
7.656000000000001,0.9999800775613401,167.2085375216073
7.664,0.9999802557708118,166.93538729770316
7.672,0.9999804357693787,166.66207347789066
7.68,0.9999806175024482,166.38859245566667
7.688,0.9999808009154777,166.11494061989373
7.696,0.9999809859539833,165.84111435470396
7.704,0.999981172563551,165.56711003940333
7.712,0.9999813606898489,165.29292404837636
7.72,0.999981550278636,165.01855275099084
7.728,0.9999817412757736,164.7439925115029
7.736,0.9999819336272338,164.46923968896252
7.744,0.9999821272791113,164.19429063711917
7.752,0.9999823221776315,163.91914170432796
7.76,0.9999825182691622,163.6437892334558
7.768,0.9999827155002209,163.36822956178847
7.776,0.999982913817485,163.09245902093724
7.784,0.9999831131678016,162.81647393674672
7.792,0.9999833134981952,162.54027062920238
7.8,0.9999835147558778,162.26384541233892
7.808,0.9999837168882572,161.9871945941488
7.816,0.9999839198429449,161.7103144764912
7.824,0.9999841235677656,161.43320135500156
7.832,0.9999843280107656,161.1558515190014
7.84,0.9999845331202196,160.8782612514087
7.848,0.9999847388446401,160.60042682864864
7.856,0.999984945132785,160.3223445205648
7.864,0.999985151933665,160.04401059033117
7.872,0.9999853591965521,159.76542129436422
7.88,0.9999855668709858,159.48657288223566
7.888,0.999985774906782,159.20746159658603
7.896,0.9999859832540399,158.92808367303832
7.904,0.9999861918631481,158.64843534011248
7.912,0.9999864006847932,158.36851281914068
7.92,0.9999866096699663,158.08831232418268
7.928,0.9999868187699693,157.80783006194216
7.936,0.9999870279364221,157.52706223168371
7.944,0.99998723712127,157.24600502515034
7.952,0.9999874462767877,156.96465462648155
7.96,0.9999876553555895,156.68300721213245
7.968,0.9999878643106321,156.40105895079313
7.976,0.9999880730952232,156.11880600330926
7.984,0.9999882816630264,155.83624452260287
7.992,0.9999884899680674,155.5533706535944
8.0,0.9999886979647413,155.27018053312526
8.008,0.9999889056078155,154.98667028988115
8.016,0.9999891128524384,154.7028360443163
8.024000000000001,0.9999893196541438,154.41867390857888
8.032,0.9999895259688564,154.13417998643655
8.04,0.999989731752897,153.84935037320344
8.048,0.9999899369629893,153.56418115566777
8.056000000000001,0.9999901415562633,153.27866841202098
8.064,0.9999903454902617,152.99280821178687
8.072,0.9999905487229449,152.70659661575237
8.08,0.9999907512126961,152.4200296758992
8.088000000000001,0.9999909529183258,152.13310343533664
8.096,0.9999911537990765,151.845813928235
8.104,0.9999913538146293,151.5581571797605
8.112,0.9999915529251062,151.2701292060112
8.120000000000001,0.9999917510910762,150.98172601395405
8.128,0.9999919482735597,150.692943601363
8.136,0.999992144434033,150.40377795675832
8.144,0.9999923395344317,150.11422505934723
8.152000000000001,0.9999925335371576,149.82428087896596
8.16,0.9999927264050796,149.5339413760225
8.168,0.9999929181015412,149.24320250144126
8.176,0.9999931085903618,148.95206019660847
8.184000000000001,0.999993297835843,148.66051039331987
8.192,0.999993485802772,148.36854901372874
8.2,0.9999936724564239,148.076171970296
8.208,0.9999938577625682,147.78337516574152
8.216000000000001,0.9999940416874714,147.49015449299716
8.224,0.9999942241979004,147.19650583516122
8.232,0.9999944052611259,146.90242506545417
8.24,0.9999945848449279,146.60790804717638
8.248000000000001,0.9999947629175971,146.31295063366755
8.256,0.9999949394479398,146.0175486682674
8.264,0.999995114405281,145.72169798427817
8.272,0.9999952877594674,145.42539440492914
8.280000000000001,0.9999954594808712,145.1286337433428
8.288,0.9999956295403929,144.83141180250288
8.296,0.999995797909465,144.53372437522387
8.304,0.9999959645600554,144.23556724412293
8.312,0.9999961294646689,143.93693618159384
8.32,0.9999962925963526,143.63782694978227
8.328,0.9999964539286975,143.33823530056378
8.336,0.9999966134358412,143.03815697552335
8.344,0.9999967710924712,142.73758770593764
8.352,0.9999969268738284,142.43652321275871
8.36,0.9999970807557083,142.13495920660066
8.368,0.9999972327144655,141.8328913877277
8.376,0.9999973827270149,141.53031544604568
8.384,0.9999975307708354,141.2272270610946
8.392,0.9999976768239718,140.9236219020448
8.4,0.9999978208650372,140.61949562769453
8.408,0.9999979628732162,140.31484388647115
8.416,0.9999981028282662,140.00966231643352
8.424,0.9999982407105213,139.70394654527837
8.432,0.9999983765008935,139.3976921903483
8.44,0.9999985101808744,139.09089485864325
8.448,0.9999986417325394,138.783550146834
8.456,0.9999987711385472,138.47565364127925
8.464,0.9999988983821447,138.16720091804498
8.472,0.9999990234471673,137.8581875429272
8.48,0.9999991463180404,137.54860907147724
8.488,0.9999992669797834,137.23846104903075
8.496,0.99999938541801,136.92773901073886
8.504,0.9999995016189303,136.61643848160375
8.512,0.999999615569353,136.30455497651624
8.52,0.9999997272566871,135.99208400029775
8.528,0.9999998366689425,135.67902104774458
8.536,0.9999999437947342,135.36536160367677
8.544,0.9999999999999999,135.0511011429893
8.552,0.9999999999999998,134.736235130708
8.56,1.0,134.42075902204803
8.568,0.9999999999999999,134.10466826247693
8.576,1.0,133.78795828778084
8.584,1.0,133.470624524135
8.592,0.9999999999999999,133.15266238817776
8.6,1.0,132.83406728708906
8.608,1.0000000000000002,132.51483461867238
8.616,1.0,132.19495977144175
8.624,1.0,131.87443812471147
8.632,0.9999999999999998,131.55326504869205
8.64,0.9999999999999998,131.2314359045887
8.648,1.0,130.90894604470566
8.656,1.0,130.58579081255402
8.664,0.9999999999999999,130.26196554296513
8.672,1.0,129.93746556220754
8.68,0.9999999999999999,129.61228618810998
8.688,1.0,129.28642273018806
8.696,0.9999999999999999,128.9598704897769
8.704,0.9999999999999999,128.63262476016786
8.712,1.0,128.30468082675122
8.72,1.0,127.97603396716339
8.728,1.0,127.64667945144002
8.736,1.0,127.31661254217367
8.744,1.0,126.98582849467822
8.752,1.0,126.65432255715726
8.76,1.0,126.3220899708796
8.768,1.0,125.9891259703595
8.776,1.0,125.65542578354344
8.784,1.0,125.32098463200208
8.792,1.0,124.98579773112938
8.8,1.0,124.64986029034638
8.808,0.9999999999999999,124.31316751331278
8.815999999999999,1.0,123.97571459814351
8.824,1.0,123.63749673763245
8.832,0.9999999999999999,123.29850911948277
8.84,0.9999999999999998,122.95874692654361
8.847999999999999,1.0,122.61820533705315
8.856,1.0,122.27687952488931
8.864,1.0,121.93476465982704
8.872,0.9999999999999999,121.5918559078026
8.879999999999999,0.9999999999999999,121.24814843118472
8.888,1.0,120.9036373890536
8.896,1.0,120.55831793748713
8.904,1.0,120.2121852298543
8.911999999999999,1.0,119.8652344171162
8.92,1.0,119.51746064813504
8.928,1.0,119.16885906999099
8.936,1.0,118.81942482830648
8.943999999999999,0.9999999999999999,118.46915306757889
8.952,0.9999999999999999,118.11803893152107
8.96,1.0,117.76607756341082
8.968,1.0,117.4132641064479
8.975999999999999,1.0,117.05959370411966
8.984,1.0,116.70506150057575
8.992,1.0,116.34966264101112
9.0,1.0,115.99339227205805
9.008,1.0,115.63624554218659
9.016,0.9999999999999998,115.27821760211471
9.024000000000001,1.0,114.91930360522741
9.032,0.9999999999999999,114.55949870800491
9.04,1.0,114.19879807046004
9.048,1.0,113.83719685658575
9.056000000000001,0.9999999999999999,113.47469023481179
9.064,0.9999999999999999,113.11127337847122
9.072,1.0,112.74694146627647
9.08,1.0,112.38168968280571
9.088000000000001,0.9999999999999999,112.01551321899954
9.096,1.0,111.64840727266707
9.104,0.9999999999999999,111.2803670490026
9.112,1.0,110.91138776111305
9.120000000000001,1.0,110.54146463055561
9.128,1.0,110.17059288788597
9.136,1.0,109.7987677732171
9.144,1.0,109.42598453678917
9.152000000000001,1.0,109.0522384395506
9.16,1.0,108.67752475374955
9.168,1.0,108.30183876353671
9.176,1.0,107.92517576557967
9.184000000000001,1.0,107.54753106968856
9.192,1.0,107.16889999945288
9.2,1.0,106.78927789288977
9.208,1.0,106.40866010310441
9.216000000000001,0.9999999999999999,106.02704199896199
9.224,1.0,105.64441896577124
9.232,0.9999999999999999,105.26078640597994
9.24,0.9999999999999998,104.87613973988267
9.248000000000001,1.0,104.49047440634065
9.256,1.0,104.10378586351358
9.264,1.0,103.71606958960344
9.272,0.9999999999999999,103.32732108361127
9.280000000000001,0.9999999999999999,102.93753586610619
9.288,0.9999999999999999,102.54670948000656
9.296,1.0,102.1548374913737
9.304,1.0,101.76191549021868
9.312000000000001,0.9999999999999998,101.36793909132162
9.32,1.0,100.97290393506341
9.328,0.999999951920926,100.57680568827041
9.336,0.9999998780908538,100.17964004507205
9.344,0.9999998039212611,99.78140272777165
9.352,0.999999729457791,99.38208948772916
9.36,0.9999996547464034,98.98169610625818
9.368,0.9999995798333664,98.58021839553477
9.376,0.999999504765244,98.17765219952034
9.384,0.999999429588888,97.7739933948966
9.392,0.9999993543514243,97.3692378920147
9.4,0.9999992791002424,96.96338163585615
9.408,0.9999992038829859,96.55642060700832
9.416,0.9999991287475377,96.14835082265148
9.424,0.9999990537420104,95.73916833756044
9.432,0.9999989789147338,95.32886924511796
9.44,0.9999989043142418,94.91744967834245
9.448,0.9999988299892596,94.50490581092741
9.456,0.9999987559886926,94.09123385829534
9.464,0.9999986823616113,93.67643007866324
9.472,0.9999986091572391,93.26049077412232
9.48,0.9999985364249383,92.84341229172938
9.488,0.9999984642141976,92.42519102461233
9.496,0.9999983925746144,92.00582341308714
9.504,0.9999983215558859,91.58530594578889
9.512,0.9999982512077901,91.16363516081391
9.52,0.9999981815801734,90.7408076468762
9.528,0.9999981127229342,90.31682004447445
9.536,0.9999980446860084,89.89166904707311
9.544,0.999997977519355,89.46535140229423
9.552,0.9999979112729378,89.03786391312268
9.56,0.9999978459967113,88.60920343912196
9.568,0.9999977817406036,88.17936689766343
9.576,0.9999977185545018,87.74835126516554
9.584,0.999997656488232,87.31615357834612
9.592,0.9999975955915454,86.88277093548452
9.6,0.9999975359141002,86.44820049769646
9.608,0.9999974775054425,86.01243949021827
9.616,0.9999974204149918,85.57548520370331
9.624,0.9999973646920199,85.13733499552764
9.632,0.999997310385636,84.69798629110731
9.64,0.9999972575447656,84.25743658522433
9.648,0.9999972062181339,83.81568344336388
9.656,0.9999971564542454,83.37272450305976
9.664,0.9999971083013663,82.92855747525037
9.672,0.9999970618075048,82.48318014564248
9.68,0.9999970170203919,82.03659037608492
9.688,0.9999969739874609,81.5887861059495
9.696,0.999996932755829,81.13976535352113
9.704,0.9999968933722765,80.68952621739457
9.712,0.9999968558832263,80.23806687787975
9.72,0.9999968203347236,79.78538559841269
9.728,0.9999967867724167,79.33148072697489
9.736,0.9999967552415342,78.87635069751684
9.744,0.9999967257868652,78.41999403138962
9.752,0.9999966984527389,77.96240933877985
9.76,0.9999966732830016,77.50359532015153
9.768,0.9999966503209964,77.04355076769075
9.776,0.9999966296095417,76.58227456675606
9.784,0.9999966111909097,76.119765697331
