freq,mag,phase
6.0,0.9998611844637261,5.851166997123542
6.01049856,0.9998057363072052,5.543196246808596
6.02099712,0.9997589187394239,5.2358194318398485
6.031496192,0.999723605335991,4.9289516209740425
6.041994752,0.9997017779791286,4.622449782902598
6.052493312,0.9996944689223439,4.316091639870241
6.062991872,0.9997019685537605,4.00976228619379
6.073490944,0.9997242312426706,3.703168896425765
6.083989504,0.9997601660630908,3.3962281143431077
6.094488064,0.9998077940733888,3.0887011651212193
6.104986624,0.9998648942656925,2.780446329813213
6.115485696,0.9999286061853928,2.4714268217028152
6.125984256,0.9999958656226813,2.161450629222399
6.136482816,1.0000632147822588,1.8506563093640684
6.146981376,1.0001272168425603,1.5389514972414067
6.157480448,1.0001846645431065,1.2264403544843054
6.167979008,1.000232786420337,0.913219603122658
6.178477568,1.0002689609478488,0.5994334412249088
6.188976128,1.0002913428545768,0.28521023004680257
6.1994752,1.000298749702526,-0.029259384360459835
6.20997376,1.000290990347313,-0.34373544252771765
6.22047232,1.0002681544804386,-0.6580717153617951
6.23097088,1.000231311027166,-0.9720065923512772
6.241469952,1.000182404110559,-1.285492999484819
6.251968512,1.0001236206172819,-1.5982890353742711
6.262467072,1.0000582099017752,-1.9102942379990275
6.272965632,0.9999892028057716,-2.2214933803538823
6.283464704,0.9999200673945376,-2.5318249303233413
6.293963264,0.9998543247360098,-2.8413121153889938
6.304461824,0.9997953396516336,-3.1499887228117327
6.314960384,0.9997459556761723,-3.4580572274761403
6.325459456,0.999708843378541,-3.765551207203519
6.335958016,0.9996858915522955,-4.07267837250539
6.346456576,0.9996782016196752,-4.3796219463554635
6.356955136,0.999686332699635,-4.686637323195557
6.367454208,0.9997099098562248,-4.993812865939291
6.377952768,0.9997477372803953,-5.301448202498309
6.388451328,0.9997981331985402,-5.6096688407918265
6.398949888,0.9998584978407544,-5.918630862370981
6.40944896,0.9999257381249801,-6.2284545225116945
6.41994752,0.9999966199416058,-6.539199886976341
6.43044608,1.0000676050426804,-6.850889125709896
6.44094464,1.0001350861237568,-7.163485866625748
6.451443712,1.00019563890094,-7.4769393150703465
6.461942272,1.0002463026567616,-7.791153729862762
6.472440832,1.0002842844562179,-8.105998994678082
6.482939392,1.0003078008357855,-8.421269836039402
6.493438464,1.0003155983933862,-8.736766668983517
6.503937024,1.0003070822899152,-9.052340187705449
6.514435584,1.0002828902941499,-9.367661847906797
6.524934144,1.0002438157423759,-9.68268091684308
6.535433216,1.000192121095573,-9.997122492129678
6.545931776,1.0001301255258543,-10.310875296432412
6.556430336,1.0000610803836054,-10.623845737155872
6.566928896,0.9999881831066288,-10.935895275169903
6.577427968,0.9999153683749767,-11.24705672177024
6.587926528,0.9998460634276162,-11.557297665927473
6.598425088,0.9997838843524632,-11.866769092954813
6.608923648,0.9997320203847704,-12.175488845568529
6.61942272,0.9996929514011692,-12.48364865046863
6.62992128,0.9996689682489927,-12.791432636120843
6.64041984,0.9996609950559985,-13.099029822431365
6.6509184,0.9996698016026749,-13.406661873471823
6.661417472,0.999694869023731,-13.714515042833215
6.671916032,0.9997349587713679,-14.022820083473537
6.682414592,0.9997882490342077,-14.331810256695848
6.692913152,0.9998519449676848,-14.64154191168047
6.703412224,0.9999230030141577,-14.95214889607872
6.713910784,0.9999977433428465,-15.263753988231942
6.724409344,1.0000726577335695,-15.5763701118366
6.734907904,1.0001437622916711,-15.889930291705905
6.745406976,1.0002074783963826,-16.204433159716345
6.755905536,1.0002606892302515,-16.519719282631392
6.766404096,1.0003006406429045,-16.835631401227765
6.776902656,1.0003252776201934,-17.1519721283975
6.787401728,1.0003331708494398,-17.468618272363713
6.797900288,1.0003240183808482,-17.785256622041757
6.808398848,1.0002981390922798,-18.101749035484954
6.818897408,1.0002569167991948,-18.41780419740839
6.82939648,1.000202073170032,-18.733354486993907
6.83989504,1.0001366781608743,-19.04808778534321
6.8503936,1.0000636753846048,-19.36197573433693
6.86089216,0.9999867829103244,-19.674949997704257
6.871391232,0.9999098794931,-19.986977070080343
6.881889792,0.9998369397033885,-20.298045236401855
6.892388352,0.9997716458591357,-20.60825883039742
6.902886912,0.9997169267765247,-20.917703791124985
6.913385984,0.9996760786141099,-21.22657767432963
6.923884544,0.9996510469464704,-21.535052895995822
6.934383104,0.9996431248046082,-21.843334338985038
6.944881664,0.9996526434553012,-22.15162370188984
6.955380736,0.99967926516266,-22.4602064610184
6.965879296,0.999721798312415,-22.769254543287925
6.976377856,0.9997782796721593,-23.078976654066032
6.986876416,0.9998455820862954,-23.38950497963777
6.997375488,0.9999206706983077,-23.70100631378983
7.007874048,0.9999995392121432,-24.013526317429513
7.018372608,1.0000784579147701,-24.327090381468576
7.028871168,1.0001533102838636,-24.641679083688324
7.03937024,1.000220520678073,-24.957248725420953
7.0498688,1.0002763159860688,-25.27364253152812
7.06036736,1.0003181856405425,-25.590693272914354
7.07086592,1.0003437114484675,-25.908240309843684
7.081364992,1.000351846033275,-26.22603057455366
7.091863552,1.0003418798877848,-26.543839972690762
7.102362112,1.0003143899287028,-26.861495350613954
7.112860672,1.0002704722209836,-27.17870181733078
7.123359744,1.0002124646843902,-27.495305283213263
7.133858304,1.0001432294104895,-27.81108060262785
7.144356864,1.0000661066736238,-28.126011798701345
7.154855424,0.9999850604845852,-28.439901565864343
7.165354496,0.9999041271360787,-28.75281149441692
7.175853056,0.9998271598843197,-29.064755643273447
7.186351616,0.999758333787068,-29.37575444837101
7.196850176,0.9997010086342505,-29.68598165224146
7.207349248,0.9996582772732473,-29.99559410904848
7.217847808,0.9996320660854308,-30.304746309004315
7.228346368,0.9996239492873821,-30.613765056082944
7.238844928,0.999634411799017,-30.922805767702354
7.249344,0.9996628875595293,-31.23211580027429
7.25984256,0.9997081186082319,-31.541882674435886
7.27034112,0.9997678786359145,-31.852412949611626
7.28083968,0.999839058665359,-32.16382197587824
7.291338752,0.9999183857783305,-32.47621643770298
7.301837312,1.0000016412911328,-32.78969491694477
7.312335872,1.0000849067606843,-33.10429050812278
7.322834432,1.000163823197133,-33.41993995699028
7.333333504,1.0002342894718523,-33.73662835936743
7.343832064,1.000292876066406,-34.05419638994469
7.354330624,1.0003368102860997,-34.372452905100694
7.364829184,1.0003632466928916,-34.69122286934096
7.375328256,1.0003714509497066,-35.0102517085363
7.385826816,1.0003605493809278,-35.32931252679706
7.396325376,1.0003310362078215,-35.64813222142794
7.406823936,1.000284485235118,-35.966530986352595
7.417323008,1.0002229532103348,-36.28427806516258
7.427821568,1.0001498307480876,-36.601181273060575
7.438320128,1.0000682536247782,-36.917149772863425
7.448818688,0.9999827229836581,-37.23205318935167
7.45931776,0.9998973855410421,-37.54590641302213
7.46981632,0.9998163826357648,-37.858684776637354
7.48031488,0.9997441281015446,-38.17052804340111
7.49081344,0.9996839636201637,-38.48156054413229
7.501312512,0.9996391224526184,-38.79194026193033
7.511811072,0.999612043358932,-39.101825743782975
7.522309632,0.9996038590240007,-39.41157839119753
7.532808192,0.9996152276560707,-39.721360800159836
7.543307264,0.9996458927547464,-40.03142197860546
7.553805824,0.9996939799679442,-40.342027418629456
7.564304384,0.9997572198381744,-40.653406368048685
7.574802944,0.9998326595277424,-40.965698150177
7.585302016,0.9999164537748755,-41.27902532290956
7.595800576,1.0000044154666363,-41.593526084317574
7.606299136,1.0000919063046787,-41.90920943065499
7.616797696,1.0001751160313257,-42.22601535088022
7.627296768,1.0002491717355162,-42.54386945382162
7.637795328,1.0003107876494697,-42.86268312366357
7.648293888,1.0003564883318843,-43.18219322165755
7.658792448,1.000384209418861,-43.50223780916307
7.66929152,1.0003922364260176,-43.82255448287164
7.67979008,1.000380221430971,-44.142891709152615
7.69028864,1.000348722000771,-44.463018324035
7.7007872,1.0002990901531357,-44.78263743712349
7.711286272,1.0002339520661214,-45.10156363572022
7.721784832,1.0001564096258544,-45.41963912210029
7.732283392,1.0000703440895469,-45.7367061280328
7.742781952,0.9999800545158876,-46.052656748922836
7.753281024,0.9998899935012387,-46.367444763703446
7.763779584,0.9998047611022078,-46.68117731526447
7.774278144,0.9997287422915212,-46.99388119508914
7.784776704,0.9996655823201461,-47.305709852492036
7.795275776,0.999618867735619,-47.616875280364816
7.805774336,0.9995906633714604,-47.92758480382105
7.816272896,0.9995826573744793,-48.23809300465403
7.826771456,0.999595175012518,-48.548628460609116
7.837270528,0.9996278752769716,-48.85953116533441
7.847769088,0.9996790464160874,-49.17099029309125
7.858267648,0.9997461468746792,-49.48321571218804
7.868766208,0.9998260638961535,-49.79646477545907
7.87926528,0.9999145927795553,-50.11080356614206
7.88976384,1.000007468839933,-50.426352542239535
7.9002624,1.0000997961323752,-50.74318818029568
7.91076096,1.0001872797664184,-51.061151938162595
7.921260032,1.0002652683497353,-51.38026543385218
7.931758592,1.0003298037749524,-51.700352557373925
7.942257152,1.0003776281223975,-52.02118610500877
7.952755712,1.0004062265719194,-52.34259319195704
7.963254784,1.0004141746573605,-52.66428341922344
7.973753344,1.0004010874000555,-52.98593716539692
7.984251904,1.0003671617719903,-53.30739774630698
7.994750464,1.000314419283444,-53.62832083611421
8.005249536,1.0002452886648154,-53.94849619966838
8.015748096,1.0001631267076156,-54.26778152533387
8.026246656,1.0000721357657334,-54.58594529889325
8.036745216,0.9999767750453575,-54.902977297991605
8.047244288,0.9998818994400561,-55.218798350262304
8.057742848,0.99979207997106,-55.5334828300141
8.068241408,0.9997121982176552,-55.847093624292576
8.078739968,0.9996460985136016,-56.15977815763244
8.08923904,0.9995972406120003,-56.47176051257895
8.0997376,0.9995680333604765,-56.783278931764215
8.11023616,0.9995601070189343,-57.0945891869561
8.12073472,0.9995740347666142,-57.40594717950382
8.131233792,0.9996090360349976,-57.71768875098872
8.141732352,0.9996635242576846,-58.030004359014114
8.152230912,0.9997348589694948,-58.3431588499421
8.162729472,0.9998195169370675,-58.65738185963956
8.173228544,0.9999131894272472,-58.97278553923503
8.183727104,1.000011069467254,-59.28945313360907
8.194225664,1.0001085286291596,-59.60741956581651
8.204724224,1.00020063355021,-59.9266757760857
8.215223296,1.000282485564184,-60.24711235374906
8.225721856,1.0003502427935755,-60.56852877685575
8.236220416,1.0004000927854564,-60.89076067566806
8.246718976,1.0004298918468635,-61.21356721249289
8.257218048,1.0004376294042348,-61.53667895824998
8.267716608,1.0004229694039684,-61.85980459167134
8.278215168,1.0003866974998996,-62.18261362738609
8.288713728,1.0003305483872584,-62.5048992103277
8.2992128,1.0002571405087426,-62.826396194329206
8.30971136,1.0001700441520986,-63.146904853035096
8.32020992,1.000073867951258,-63.466267902150236
8.33070848,0.9999731014063514,-63.7844287968604
8.341207552,0.9998730606831764,-64.1013106851665
8.351706112,0.9997786063985187,-64.41696763965285
8.362204672,0.9996946220869356,-64.73151922225348
8.372703232,0.9996252249181926,-65.0451060084395
8.383202304,0.9995741918564327,-65.35796191758217
8.393700864,0.9995438983174909,-65.67029801155229
8.404199424,0.9995362982223862,-65.98244597842185
8.414697984,0.9995516747813086,-66.2946300020394
8.425197056,0.9995891616370555,-66.60722928246784
8.435695616,0.9996472758848249,-66.92048277832681
8.446194176,0.9997229750523898,-67.23460997594272
8.456692736,0.999812493484894,-67.54984819845669
8.467191808,0.9999116043451102,-67.86635463045116
8.477690368,1.000015093624065,-68.18421257594309
8.488188928,1.0001179739649508,-68.50342835555251
8.498687488,1.000214834164224,-68.82397426922425
8.50918656,1.0003009933148832,-69.14578572245775
8.51968512,1.000371914541976,-69.46861310276196
8.53018368,1.0004240834739704,-69.79233494395906
8.54068224,1.0004547279766096,-70.11661876609334
8.551181312,1.000462349870463,-70.44120452543687
8.561679872,1.000446254861398,-70.76576756643362
8.572178432,1.000407382447159,-71.0900784277286
8.582676992,1.000347505694784,-71.41376941697047
8.593175552,1.0002694917104917,-71.73665747939935
8.603674624,1.000177265502438,-72.05845462875415
8.614173696,1.0000753652902923,-72.37907425509574
8.624671744,0.9999689747585074,-72.69837855247755
8.635170816,0.9998634468096537,-73.01636776667588
8.645668864,0.999763905965225,-73.33306682188015
8.656167936,0.999675543282299,-73.64856787517813
8.666667008,0.9996028785283488,-73.96309757584415
8.677165056,0.9995495916482927,-74.27682632299575
8.687664128,0.9995182041158336,-74.59003336930539
8.6981632,0.9995108617450367,-74.9030191048504
8.708661248,0.9995277979452852,-75.21610700086197
8.71916032,0.9995680771170723,-75.529607161208
8.729658368,0.9996301281026625,-75.84379339106307
8.74015744,0.9997104616466126,-76.158955861677
8.750656512,0.9998055068331171,-76.47526074321608
8.76115456,0.9999103682331804,-76.79288982286245
8.771653632,1.0000196186817962,-77.11198379244324
8.782152704,1.0001281658580192,-77.43250938724874
8.792650752,1.000230261506509,-77.75441728373508
8.803149824,1.0003207595908021,-78.07764635205163
8.813647872,1.0003951714064379,-78.40200325828198
8.824146944,1.000449683461692,-78.7272242399795
8.834646016,1.0004813441745994,-79.05306945512693
8.845144064,1.000488632158748,-79.37922500523025
8.855643136,1.0004709382382457,-79.70535620410911
8.866142208,1.0004292169074427,-80.0311463718288
8.876640256,1.0003652828727942,-80.35637114209162
8.887139328,1.0002824338359253,-80.6806324783279
8.897637376,1.000184684798709,-81.00382093184004
8.908136448,1.000076767817023,-81.32573840661071
8.91863552,0.9999643975695576,-81.6462591937139
8.929133568,0.9998530271285486,-81.96538445995003
8.93963264,0.9997481178703305,-82.28315559870586
8.950131712,0.9996552039522909,-82.59968822178345
8.96062976,0.9995789891719893,-82.91513489701664
8.971128832,0.9995233265999829,-83.22979251168702
8.98162688,0.9994910416997608,-83.54389447789393
8.992125952,0.9994839257652548,-83.85779167356152
9.002625024,0.9995025320980535,-84.17179756362366
9.013123072,0.9995458284048491,-84.48620851362942
9.023622144,0.9996118386418762,-84.80138731225438
9.034121216,0.9996973572655109,-85.11757667007234
9.044619264,0.9997981689520895,-85.43500279361679
9.055118336,0.9999090510834266,-85.75386898713903
9.065616384,1.0000247016910393,-86.07422158682826
9.076115456,1.0001392703030396,-86.39608918813293
9.086614528,1.000246840271086,-86.71946880050679
9.097112576,1.0003420635304827,-87.04419853010363
9.107611648,1.0004200703519999,-87.37011719216898
9.11811072,1.0004770951086082,-87.69693387191222
9.128608768,1.000509761068655,-88.02441097756348
9.13910784,1.0005166286205618,-88.35217923076442
9.149605888,1.0004972559633187,-88.67997467128389
9.16010496,1.0004524530574004,-89.00736272253339
9.170604032,1.0003841771597701,-89.33412491267478
9.18110208,1.0002960943372883,-89.65990939027283
9.191601152,1.0001923211440413,-89.98450830485834
9.202100224,1.0000782034914133,-90.3077527802269
9.212598272,0.9999593887620695,-90.62953482644653
9.223097344,0.9998416850024716,-90.94982697924881
9.233595392,0.9997311732816023,-91.26871137662826
9.244094464,0.999633383051919,-91.58628671937018
9.254593536,0.999553352679081,-91.90275718124188
9.265091584,0.9994951357428185,-92.21833192358761
9.275590656,0.9994618070475675,-92.53338479512567
9.286089728,0.9994550771149863,-92.84819498411264
9.296587776,0.9994755047814252,-93.16315425794026
9.307086848,0.9995219511214463,-93.47854022137156
9.317584896,0.9995924432508649,-93.79474455296183
9.328083968,0.9996834836126343,-94.11201299660233
9.33858304,0.9997903394216372,-94.43062535016881
9.349081088,0.9999078560298982,-94.75070456275368
9.35958016,1.0000301856324767,-95.0724011978587
9.370079232,1.0001511535161538,-95.39570966966222
9.38057728,1.000264615241763,-95.72058104419119
9.391076352,1.0003649107755956,-96.04688975127914
9.4015744,1.0004467936096477,-96.37444812723285
9.412073472,1.0005063191362813,-96.7029579012914
9.422572544,1.000540168254559,-97.03213922639642
9.433070592,1.0005466409538606,-97.36163401816906
9.443569664,1.0005252588655833,-97.69110706483987
9.454068736,1.0004771409520998,-98.02019647365547
9.464566784,1.0004043478010138,-98.3485658279809
9.475065856,1.000310681512882,-98.67590334470569
9.485563904,1.0002006281562739,-99.00201156353458
9.496062976,1.000079581432856,-99.32667399396252
9.506562048,0.999953797779545,-99.64976309854548
9.517060096,0.9998294182863259,-99.97129955992017
9.527559168,0.9997128053027086,-100.29134398452736
9.53805824,0.9996098808179099,-100.60999183650986
9.548556288,0.9995258091948798,-100.9274727983739
9.55905536,0.9994649339461995,-101.24404470203152
9.569553408,0.9994304653156322,-101.56003972085891
9.58005248,0.9994241547062381,-101.8758173198028
9.590551552,0.9994464975117766,-102.1917196651998
9.6010496,0.9994965569557914,-102.50812476636946
9.611548672,0.9995718236931569,-102.82537809591088
9.622047744,0.9996686138199311,-103.14379136040264
9.632545792,0.9997820811079587,-103.46360718747945
9.643044864,0.9999067481745828,-103.78498967605958
9.653542912,1.0000361328821779,-104.10808939321427
9.664041984,1.0001640700778232,-104.4328889272065
9.674541056,1.0002837984009858,-104.75933078006027
9.685039104,1.0003894008250824,-105.08731445152952
9.695538176,1.0004755785741004,-105.41655051500263
9.706037248,1.0005376912974417,-105.74685183232725
9.716535296,1.0005727879446051,-106.07782219465908
9.727034368,1.0005787990033774,-106.40911612113219
9.737532416,1.00055552465332,-106.74039561021728
9.748031488,1.0005037269113617,-107.07122679529093
9.75853056,1.0004260482391059,-107.40130044152124
9.769028608,1.0003262672764377,-107.73028393743023
9.77952768,1.0002093701391954,-108.05793266854934
9.790026752,1.0000810315633781,-108.38406634219277
9.8005248,0.9999478075072413,-108.70854136113381
9.811023872,0.999816349826849,-109.03137738579346
9.82152192,0.9996931496960911,-109.35258856103981
9.832020992,0.9995846121532732,-109.67235831851973
9.842520064,0.9994962588545592,-109.99091081097485
9.853018112,0.9994325648239556,-110.30850359491066
9.863517184,0.9993968265082666,-110.62547457936674
9.874016256,0.999391060373578,-110.94223239356164
9.884514304,0.9994155064322131,-111.25912360560923
9.895013376,0.9994691864030438,-111.5765857603087
9.905511424,0.999549588501359,-111.89495136141474
9.916010496,0.9996526817124668,-112.21452270244681
9.926509568,0.9997732951562656,-112.53560199893128
9.937007616,0.999905429502607,-112.85835978024404
9.947506688,1.0000426377622538,-113.18289612233944
9.95800576,1.0001779157191715,-113.50924900426853
9.968503808,1.0003044637837646,-113.83735478985017
9.97900288,1.0004158579487765,-114.16705169748887
9.989500928,1.0005064074263392,-114.49810613872398
10.0,1.0005715947985296,-114.8302627733401
10.010499072,1.0006078982886788,-115.16312623505941
10.02099712,1.000613532058778,-115.49632053820399
10.031496192,1.0005878949035871,-115.82948248688987
10.04199424,1.0005322280704616,-116.16215744854246
10.052493312,1.0004493242844585,-116.49401278286872
10.062992384,1.0003430618163185,-116.82472220906422
10.073490432,1.0002187619030738,-117.15399570954379
10.083989504,1.0000825941215334,-117.48166468208406
10.094488576,0.9999413746498025,-117.80757854980932
10.104986624,0.9998021248645915,-118.13174353179424
10.115485696,0.9996719807242688,-118.45421121227919
10.125983744,0.9995574161807866,-118.77513685481681
10.136482816,0.999464388060093,-119.09476204351839
10.146981888,0.9993975606890256,-119.41339503022597
10.157479936,0.9993605758221076,-119.73139529936465
10.167979008,0.999355205261889,-120.04917063087329
10.17847808,0.9993820180008769,-120.36710104998761
10.188976128,0.9994397624140934,-120.68562291749676
