freq,mag,phase
6.0,0.9999976073669329,-170.39832597659108
6.008,0.9999981017677968,-170.7311729983536
6.016,0.9999985762080277,-171.06386471797242
6.024,0.9999990311534769,-171.3964062852941
6.032,0.9999994670627316,-171.72880285102357
6.04,0.9999998843871947,-172.06105956679463
6.048,1.0,-172.39318158524165
6.056,0.9999999999999998,-172.72517406007407
6.064,1.0,-173.05704214615147
6.072,0.9999999999999999,-173.38879099956134
6.08,1.0000000000000002,-173.72042577769778
6.088,1.0,-174.05195163934218
6.096,1.0,-174.38337374474546
6.104,1.0,-174.7146972557117
6.112,0.9999999999999998,-175.0459273356836
6.12,1.0,-175.37706914982888
6.128,1.0,-175.70812786512883
6.136,1.0,-176.03910865046754
6.144,1.0,-176.3700166767232
6.152,0.9999999999999998,-176.70085711686002
6.16,1.0,-177.0316351460222
6.168,1.0,-177.36235594162852
6.176,1.0,-177.69302468346874
6.184,1.0,-178.02364655380055
6.192,0.9999999999999999,-178.35422673744839
6.2,1.0,-178.68477042190307
6.208,0.9999999999999999,-179.01528279742217
6.216,1.0,-179.34576905713232
6.224,1.0,-179.67623439713174
6.232,0.9999999999999999,179.99331598340575
6.24,0.9999999999999999,179.6628768821259
6.248,1.0,179.33244309338818
6.256,0.9999999999999999,179.00200940815924
6.264,0.9999999999999999,178.67157061390517
6.272,0.9999999999999999,178.341121494483
6.28,1.0,178.0106568300316
6.288,0.9999999999999999,177.68017139686148
6.296,1.0,177.34965996734397
6.304,0.9999999999999999,177.01911730979987
6.312,0.9999999999999999,176.688538188387
6.32,1.0,176.35791736298742
6.328,0.9999999999999999,176.02724958909383
6.336,0.9999999999999999,175.69652961769543
6.344,0.9999999999999998,175.3657521951634
6.352,1.0,175.03491206313544
6.36,0.9999999999999999,174.7040039584002
6.368,1.0,174.3730226127808
6.376,1.0,174.04196275301868
6.384,1.0,173.71081910065595
6.392,1.0,173.37958637191832
6.4,0.9999999999999999,173.0482592775972
6.408,1.0,172.71683252293158
6.416,1.0,172.38530080748967
6.424,1.0,172.0536588250502
6.432,0.9999999999999999,171.72190126348372
6.44,1.0,171.3900228046333
6.448,0.9999999999999999,171.05801812419566
6.456,1.0,170.72588189160152
6.464,1.0,170.39360876989656
6.472,1.0,170.06119341562163
6.48,1.0,169.72863047869347
6.4879999999999995,0.9999999999999999,169.39591460228544
6.496,1.0,169.06304042270762
6.504,0.9999999999999999,168.73000256928808
6.5120000000000005,1.0,168.39679566425318
6.52,1.0,168.06341432260908
6.5280000000000005,1.0,167.72985315202232
6.536,1.0,167.39610675270177
6.5440000000000005,1.0,167.0621697172797
6.552,1.0,166.72803663069442
6.5600000000000005,0.9999999999999999,166.3937020700719
6.568,1.0,166.05916060460893
6.5760000000000005,0.9999999999999998,165.724406795456
6.584,1.0,165.38943519560098
6.592,0.9999999999999999,165.05424034975283
6.6,0.9999999999999998,164.71881679422668
6.608,0.9999999999999999,164.3831590568285
6.616,1.0,164.0472616567412
6.624,1.0,163.71111910441076
6.632,1.0,163.37472590143358
6.64,1.0,163.0380765404442
6.648,0.9999999999999998,162.70116550500387
6.656,0.9999999999999999,162.36398726949025
6.664,1.0000000000000002,162.02653629898734
6.672,1.0,161.68880704917711
6.68,0.9999999999999999,161.3507939662314
6.688,0.9999999999999999,161.01249148670527
6.696,0.9999999999999999,160.6738940374312
6.704,0.9999999999999999,160.3349960354145
6.712,1.0,159.9957918877296
6.72,1.0,159.65627599141803
6.728,1.0,159.3164427333871
6.736,1.0,158.9762864903103
6.744,1.0,158.63580162852878
6.752,0.9999999999999999,158.29498250395443
6.76,1.0,157.9538234619741
6.768,0.9999999999999999,157.61231883735582
6.776,1.0,157.27046295415602
6.784,1.0,156.9282501256288
6.792,1.0,156.5856746541367
6.8,1.0,156.24273083106317
6.808,1.0,155.89941293672686
6.816,1.0,155.55571524029776
6.824,1.0,155.21163199971534
6.832,1.0,154.86715746160846
6.84,0.9999999919114136,154.52228586121743
6.848,0.9999999011720749,154.1770114223183
6.856,0.9999998120305896,153.83132835714892
6.864,0.9999997245210357,153.48523086633767
6.872,0.9999996386756161,153.1387131388342
6.88,0.9999995545246837,152.79176935184256
6.888,0.9999994720967713,152.4443936707569
6.896,0.9999993914186165,152.09658024909953
6.904,0.9999993125151898,151.7483232284615
6.912,0.9999992354097192,151.399616738446
6.92,0.9999991601237181,151.05045489661447
6.928,0.9999990866770097,150.70083180843514
6.936,0.9999990150877539,150.35074156723496
6.944,0.9999989453724708,150.0001782541541
6.952,0.9999988775460674,149.64913593810365
6.96,0.9999988116218617,149.2976086757263
6.968,0.9999987476116072,148.94559051136028
6.976,0.9999986855255176,148.5930754770066
6.984,0.9999986253722892,148.24005759229956
6.992,0.9999985671591273,147.8865308644807
7.0,0.9999985108917686,147.53248928837635
7.008,0.9999984565745029,147.17792684637874
7.016,0.9999984042101985,146.82283750843072
7.024,0.9999983538003258,146.46721523201455
7.032,0.999998305344976,146.11105396214424
7.04,0.9999982588428883,145.75434763136204
7.048,0.999998214291469,145.39709015973915
7.056,0.999998171686814,145.03927545488014
7.064,0.9999981310237328,144.68089741193236
7.072,0.999998092295768,144.32194991359893
7.08,0.9999980554952171,143.9624268301569
7.088,0.9999980206131543,143.60232201947937
7.096,0.9999979876394518,143.24162932706295
7.104,0.9999979565627999,142.88034258605953
7.112,0.9999979273707291,142.518455617313
7.12,0.9999979000496301,142.15596222940124
7.128,0.9999978745847721,141.79285621868306
7.136,0.9999978509603276,141.42913136935036
7.144,0.9999978291593883,141.06478145348575
7.152,0.999997809163988,140.69980023112555
7.16,0.9999977909551194,140.33418145032846
7.168,0.9999977745127577,139.96791884725
7.176,0.9999977598158764,139.60100614622246
7.184,0.9999977468424679,139.2334370598414
7.192,0.9999977355695653,138.86520528905777
7.2,0.9999977259732566,138.49630452327622
7.208,0.9999977180287081,138.12672844046023
7.216,0.9999977117101817,137.75647070724332
7.224,0.9999977069910523,137.38552497904692
7.232,0.9999977038438288,137.01388490020514
7.24,0.9999977022401706,136.64154410409645
7.248,0.9999977021509084,136.26849621328213
7.256,0.9999977035460593,135.8947348396523
7.264,0.9999977063948473,135.5202535845789
7.272,0.9999977106657217,135.14504603907636
7.28,0.999997716326373,134.76910578396976
7.288,0.9999977233437533,134.39242639007102
7.296,0.999997731684091,134.0150014183624
7.304,0.9999977413129135,133.636824420189
7.312,0.9999977521950598,133.25788893745843
7.32,0.9999977642946997,132.87818850284995
7.328,0.9999977775753537,132.49771664003114
7.336,0.9999977919999077,132.1164668638839
7.344,0.9999978075306313,131.7344326807393
7.352,0.9999978241291945,131.35160758862114
7.36,0.9999978417566876,130.96798507749895
7.368,0.9999978603736334,130.58355862955028
7.376,0.9999978799400107,130.19832171943267
7.384,0.9999979004152663,129.81226781456505
7.392,0.9999979217583342,129.42539037541928
7.4,0.9999979439276532,129.0376828558217
7.4079999999999995,0.9999979668811829,128.64913870326487
7.416,0.9999979905764191,128.2597513592295
7.4239999999999995,0.9999980149704157,127.86951425951789
7.432,0.9999980400197968,127.47842083459658
7.4399999999999995,0.9999980656807752,127.08646450995168
7.448,0.9999980919091691,126.69363870645404
7.4559999999999995,0.9999981186604205,126.29993684073666
7.464,0.999998145889611,125.9053523255829
7.4719999999999995,0.999998173551476,125.50987857032712
7.48,0.9999982016004272,125.11350898126639
7.4879999999999995,0.9999982299905633,124.71623696208547
7.496,0.9999982586756916,124.31805591429276
7.504,0.9999982876093424,123.91895923766985
7.5120000000000005,0.9999983167447873,123.51894033073302
7.52,0.9999983460350529,123.11799259120829
7.5280000000000005,0.9999983754329419,122.71610941651873
7.536,0.9999984048910476,122.31328420428609
7.5440000000000005,0.9999984343617706,121.90951035284483
7.552,0.9999984637973369,121.50478126177092
7.5600000000000005,0.9999984931498134,121.0990903324234
7.568,0.9999985223711259,120.69243096850143
7.5760000000000005,0.9999985514130759,120.28479657661404
7.584,0.9999985802273577,119.876180566866
7.5920000000000005,0.999998608765574,119.46657635345677
7.6,0.9999986369792562,119.05597735529625
7.6080000000000005,0.9999986648198774,118.64437699663362
7.616,0.9999986922388729,118.23176870770338
7.6240000000000006,0.9999987191876555,117.81814592538535
7.632,0.9999987456176329,117.40350209388181
7.640000000000001,0.9999987714802264,116.98783066540926
7.648,0.9999987967268867,116.5711251009076
7.656000000000001,0.9999988213091113,116.15337887076446
7.664,0.999998845178462,115.73458545555728
7.672,0.9999988682865839,115.31473834681096
7.68,0.9999988905852214,114.89383104777347
7.688,0.9999989120262348,114.47185707420807
7.696,0.9999989325616203,114.04880995520304
7.704,0.9999989521435265,113.62468323399892
7.712,0.9999989707242718,113.19947046883361
7.72,0.9999989882563625,112.77316523380524
7.728,0.9999990046925114,112.3457611197534
7.736,0.9999990199856538,111.91725173515854
7.744,0.9999990340889685,111.48763070705982
7.752,0.9999990469558925,111.05689168199194
7.76,0.9999990585401409,110.62502832694047
7.768,0.9999990687957254,110.19203433031655
7.776,0.9999990776769717,109.75790340295066
7.784,0.9999990851385382,109.32262927910587
7.792,0.9999990911354338,108.8862057175105
7.8,0.9999990956230367,108.44862650241076
7.808,0.9999990985571131,108.00988544464305
7.816,0.9999990998938363,107.56997638272645
7.824,0.9999990995898028,107.1288931839753
7.832,0.9999990976020544,106.68662974563219
7.84,0.9999990938880938,106.24317999602142
7.848,0.999999088405906,105.79853789572299
7.856,0.999999081113975,105.35269743876742
7.864,0.9999990719713044,104.90565265385132
7.872,0.9999990609374346,104.4573976055741
7.88,0.9999990479724639,104.0079263956955
7.888,0.9999990330370653,103.55723316441455
7.896,0.9999990160925072,103.10531209166965
7.904,0.9999989971006719,102.6521573984599
7.912,0.9999989760240747,102.19776334818827
7.92,0.9999989528258841,101.74212424802566
7.928,0.9999989274699387,101.28523445029697
7.936,0.9999988999207694,100.82708835388868
7.944,0.9999988701436162,100.36768040567785
7.952,0.9999988381044493,99.90700510198306
7.96,0.9999988037699876,99.44505699003686
7.968,0.9999987671077177,98.98183066947993
7.976,0.9999987280859144,98.517320793877
7.984,0.9999986866736589,98.05152207225437
7.992,0.9999986428408588,97.58442927065906
8.0,0.9999985965582673,97.11603721373962
8.008,0.9999985477975024,96.64634078634843
8.016,0.999998496531067,96.17533493516534
8.024000000000001,0.9999984427323668,95.7030146703432
8.032,0.9999983863757304,95.22937506717416
8.04,0.9999983274364285,94.75441126777713
8.048,0.9999982658906936,94.27811848280666
8.056000000000001,0.9999982017157378,93.80049199318286
8.064,0.999998134889773,93.32152715184161
8.072,0.9999980653920288,92.84121938550525
8.08,0.9999979932027736,92.35956419647435
8.088000000000001,0.9999979183033302,91.87655716443936
8.096,0.9999978406760974,91.39219394831207
8.104,0.9999977603045666,90.90647028807658
8.112,0.9999976771733421,90.4193820066603
8.120000000000001,0.9999975912681576,89.93092501182397
8.128,0.9999975025758961,89.4410952980704
8.136,0.9999974110846067,88.94988894857127
8.144,0.9999973167835237,88.45730213711316
8.152000000000001,0.9999972196630826,87.96333113006092
8.16,0.9999971197149409,87.46797228833834
8.168,0.9999970169319907,86.97122206942575
8.176,0.9999969113083811,86.4730770293747
8.184000000000001,0.9999968028395312,85.97353382483884
8.192,0.9999966915221485,85.47258921511992
8.2,0.9999965773542455,84.97024006422916
8.208,0.9999964603351551,84.46648334296349
8.216000000000001,0.9999963404655481,83.9613161309962
8.224,0.9999962177474466,83.45473561898037
8.232,0.9999960921842405,82.94673911066542
8.24,0.999995963780704,82.43732402502638
8.248000000000001,0.9999958325430076,81.92648789840493
8.256,0.9999956984787347,81.41422838666067
8.264,0.999995561596894,80.90054326733303
8.272,0.9999954219079339,80.38543044181303
8.280000000000001,0.9999952794237561,79.8688879375238
8.288,0.9999951341577279,79.35091391010869
8.296,0.9999949861246942,78.83150664562667
8.304,0.9999948353409904,78.31066456275445
8.312,0.9999946818244531,77.78838621499418
8.32,0.9999945255944318,77.2646702928847
8.328,0.9999943666717988,76.73951562621824
8.336,0.9999942050789589,76.21292118625766
8.344,0.9999940408398602,75.68488608795784
8.352,0.9999938739800014,75.15540959218538
8.36,0.9999937045264419,74.62449110794027
8.368,0.9999935325078073,74.09213019457398
8.376,0.9999933579542992,73.55832656400734
8.384,0.9999931808976987,73.02308008294253
8.392,0.9999930013713751,72.48639077507256
8.4,0.9999928194102897,71.9482588232827
8.408,0.9999926350510001,71.4086845718467
8.416,0.9999924483316648,70.86766852861291
8.424,0.9999922592920456,70.32521136718235
8.432,0.9999920679735108,69.78131392907433
8.44,0.9999918744190365,69.23597722588136
8.448,0.999991678673206,68.68920244140868
8.456,0.9999914807822128,68.14099093380088
8.464,0.999991280793857,67.59134423764999
8.472,0.9999910787575453,67.04026406608789
8.48,0.9999908747242879,66.48775231285735
8.488,0.9999906687466962,65.93381105436457
8.496,0.9999904608789768,65.37844255170727
8.504,0.9999902511769276,64.82164925268117
8.512,0.9999900396979321,64.26343379375915
8.52,0.9999898265009514,63.70379900204567
8.528,0.9999896116465172,63.142747897200664
8.536,0.9999893951967228,62.58028369333544
8.544,0.9999891772152123,62.016409800874975
8.552,0.9999889577671709,61.45112982838889
8.56,0.9999887369193129,60.88444758438548
8.568,0.9999885147398685,60.3163670790713
8.576,0.999988291298569,59.746892526070155
8.584,0.9999880666666342,59.17602834410443
8.592,0.9999878409167536,58.603779158632506
8.6,0.9999876141230717,58.030149803444885
8.608,0.9999873863611678,57.455145322213234
8.616,0.9999871577080385,56.87877096999421
8.624,0.9999869282420749,56.30103221468325
8.632,0.9999866980430446,55.72193473841947
8.64,0.9999864671920654,55.14148443893684
8.648,0.9999862357715843,54.559687430863235
8.656,0.9999860038653507,53.97655004696209
8.664,0.9999857715583914,53.39207883931864
8.672,0.9999855389369835,52.80628058046507
8.68,0.9999853060886259,52.21916226444691
8.688,0.9999850731020082,51.63073110782478
8.696,0.9999848400669837,51.04099455061405
8.704,0.9999846070745342,50.44996025715638
8.712,0.9999843742167388,49.8576361169257
8.72,0.9999841415867393,49.26403024526291
8.728,0.999983909278706,48.66915098404158
8.736,0.9999836773877988,48.073006902258854
8.744,0.9999834460101336,47.47560679655455
8.752,0.9999832152427403,46.87695969165209
8.76,0.9999829851835251,46.27707484072416
8.768,0.9999827559312289,45.6759617256776
8.776,0.9999825275853861,45.07363005735985
8.784,0.999982300246281,44.470089775681366
8.792,0.999982074014904,43.86535104965701
8.8,0.9999818489929071,43.2594242773606
8.808,0.9999816252825574,42.65232008579556
8.815999999999999,0.9999814029866895,42.04404933067623
8.824,0.9999811822086592,41.43462309612182
8.832,0.9999809630522924,40.82405269426074
8.84,0.9999807456218373,40.21234966474303
8.847999999999999,0.999980530021911,39.59952577416096
8.856,0.9999803163574508,38.98559301537698
8.864,0.9999801047336587,38.370563606757536
8.872,0.9999798952559507,37.75444999131118
8.879999999999999,0.9999796880298997,37.13726483573088
8.888,0.9999794831611833,36.519021029339896
8.896,0.9999792807555263,35.89973168294036
8.904,0.999979080918645,35.279410127562876
8.911999999999999,0.9999788837561899,34.65806991311742
8.92,0.999978689373688,34.035724806945396
8.928,0.9999784978764847,33.41238879227178
8.936,0.9999783093696849,32.788076066556506
8.943999999999999,0.9999781239580935,32.16280103974538
8.952,0.9999779417461558,31.536578332420486
8.96,0.9999777628378974,30.909422773849975
8.968,0.999977587336863,30.281349399935866
8.975999999999999,0.999977415346057,29.65237345106113
8.984,0.9999772469678797,29.02251036983611
8.992,0.9999770823040689,28.391775798744277
9.0,0.9999769214556367,27.760185577686876
9.008,0.9999767645228068,27.127755741427322
9.016,0.9999766116049554,26.494502516936404
9.024000000000001,0.9999764628005474,25.8604423206383
9.032,0.9999763182070744,25.225591755557296
9.04,0.9999761779209949,24.589967608366667
9.048,0.99997604203767,23.953586846340887
9.056000000000001,0.999975910651305,23.31646661421164
9.064,0.9999757838548854,22.67862423092797
9.072,0.999975661740119,22.040077186322147
9.08,0.9999755443973722,21.400843137683072
9.088000000000001,0.9999754319156133,20.76093990623787
9.096,0.999975324382349,20.120385473542456
9.104,0.9999752218835696,19.47919797778287
9.112,0.9999751245036871,18.837395709989856
9.120000000000001,0.9999750323254791,18.19499711016736
9.128,0.9999749454300307,17.55202076333626
9.136,0.9999748638966791,16.908485395495585
9.144,0.9999747878029567,16.264409869503762
9.152000000000001,0.9999747172245376,15.619813180881154
9.16,0.999974652235183,14.974714453535395
9.168,0.9999745929066886,14.329132935412279
9.176,0.9999745393088321,13.683087994074832
9.184000000000001,0.9999744915093235,13.036599112212365
9.192,0.9999744495737546,12.389685883081247
9.2,0.9999744135655511,11.742368005880396
9.208,0.9999743835459246,11.094665281064481
9.216000000000001,0.9999743595738275,10.446597605597114
9.224,0.9999743417059077,9.798184968145511
9.232,0.9999743299964657,9.14944744422053
9.24,0.9999743244974121,8.50040519126498
9.248000000000001,0.9999743252582276,7.851078443692545
9.256,0.9999743323259253,7.2014875078798175
9.264,0.9999743457450101,6.551652757114464
9.272,0.9999743655574476,5.901594626503616
9.280000000000001,0.9999743918026247,5.251333607844519
9.288,0.9999744245173213,4.600890244460152
9.296,0.9999744637356769,3.950285126003233
9.304,0.9999745094891631,3.2995388832326986
9.312000000000001,0.9999745618065553,2.6486721827648863
9.32,0.9999746207139071,1.9977057218021634
9.328,0.9999746862345276,1.3466602228428861
9.336,0.9999747583889571,0.6955564283763886
9.344,0.999974837194951,0.04441509556579389
9.352,0.9999749226674568,-0.6067430090794601
9.36,0.9999750148186006,-1.2578971150347917
9.368,0.9999751136576737,-1.909026453096233
9.376,0.9999752191911171,-2.560110260713153
9.384,0.9999753314225122,-3.211127787318994
9.392,0.9999754503525732,-3.8620582996523214
9.4,0.9999755759791391,-4.512881087069433
9.408,0.99997570829717,-5.163575466840779
9.416,0.9999758472987427,-5.814120789432249
9.424,0.9999759929730515,-6.464496443763927
9.432,0.9999761453064081,-7.114681862447314
9.44,0.9999763042822462,-7.764656526993473
9.448,0.999976469881125,-8.414399972993623
9.456,0.9999766420807367,-9.063891795264029
9.464,0.9999768208559149,-9.7131116529573
9.472,0.9999770061786463,-10.362039274632103
9.48,0.9999771980180826,-11.010654463282968
9.488,0.9999773963405549,-11.6589371013226
9.496,0.9999776011095919,-12.30686715551868
9.504,0.9999778122859339,-12.954424681877217
9.512,0.9999780298275583,-13.601589830474852
9.52,0.9999782536896962,-14.248342850232351
9.528,0.9999784838248604,-14.894664093631338
9.536,0.9999787201828672,-15.54053402136734
9.544,0.9999789627108655,-16.185933206940827
9.552,0.9999792113533645,-16.830842341179434
9.56,0.9999794660522643,-17.475242236693536
9.568,0.9999797267468876,-18.11911383225827
9.576,0.9999799933740138,-18.762438197124375
9.584,0.9999802658679119,-19.405196535251033
9.592,0.9999805441603796,-20.047370189463386
9.6,0.9999808281807794,-20.688940645527964
9.608,0.9999811178560776,-21.32988953614894
9.616,0.9999814131108873,-21.970198644878515
9.624,0.9999817138675067,-22.60984990994456
9.632,0.9999820200459648,-23.248825427989136
9.64,0.9999823315640656,-23.887107457720873
9.648,0.9999826483374319,-24.52467842347542
9.656,0.9999829702795535,-25.161520918686723
9.664,0.9999832973018349,-25.797617709263754
9.672,0.9999836293136425,-26.43295173687571
9.68,0.999983966222356,-27.06750612214022
9.688,0.9999843079334176,-27.701264167717838
9.696,0.9999846543503847,-28.334209361307792
9.704,0.9999850053749808,-28.966325378548234
9.712,0.9999853609071491,-29.597596085815958
9.72,0.9999857208451068,-30.228005542929452
9.728,0.9999860850853987,-30.85753800575016
9.736,0.9999864535229516,-31.486177928685976
