freq,mag,phase
6.0,0.9999942149439379,-130.27664102844233
6.008,0.9999922121727725,-130.68944721184823
6.016,0.9999902987190347,-131.10209886554767
6.024,0.9999884725462159,-131.51459644317708
6.032,0.9999867316442201,-131.92694040735677
6.04,0.9999850740292324,-132.33913122961627
6.048,0.9999834977435871,-132.7511693903198
6.056,0.9999820008556296,-133.16305537859174
6.064,0.9999805814595827,-133.574789692242
6.072,0.9999792376754056,-133.98637283769213
6.08,0.9999779676486541,-134.39780532990042
6.088,0.9999767695503389,-134.80908769228827
6.096,0.9999756415767804,-135.22022045666577
6.104,0.9999745819494645,-135.63120416315783
6.112,0.9999735889148981,-136.04203936013033
6.12,0.9999726607444547,-136.45272660411624
6.128,0.9999717957342291,-136.86326645974216
6.136,0.9999709922048853,-137.27365949965466
6.144,0.9999702485015037,-137.6839063044469
6.152,0.9999695629934288,-138.09400746258558
6.16,0.9999689340741077,-138.50396357033742
6.168,0.9999683601609438,-138.91377523169666
6.176,0.999967839695128,-139.3234430583119
6.184,0.9999673711414926,-139.7329676694136
6.192,0.9999669529883352,-140.1423496917415
6.2,0.9999665837472753,-140.55158975947236
6.208,0.999966261953079,-140.96068851414765
6.216,0.9999659861635004,-141.3696466046017
6.224,0.9999657549591197,-141.77846468688975
6.232,0.9999655669431757,-142.18714342421632
6.24,0.9999654207414006,-142.59568348686378
6.248,0.9999653150018527,-143.00408555212113
6.256,0.9999652483947518,-143.41235030421257
6.264,0.999965219612306,-143.82047843422706
6.272,0.9999652273685471,-144.22847064004733
6.28,0.9999652703991582,-144.63632762627944
6.288,0.9999653474613043,-145.04405010418256
6.296,0.999965457333464,-145.4516387915986
6.304,0.9999655988152497,-145.85909441288274
6.312,0.9999657707272483,-146.26641769883335
6.32,0.9999659719108355,-146.6736093866228
6.328,0.9999662012280108,-147.08067021972806
6.336,0.9999664575612198,-147.48760094786195
6.344,0.999966739813181,-147.89440232690387
6.352,0.9999670469067157,-148.30107511883162
6.36,0.9999673777845671,-148.7076200916529
6.368,0.999967731409225,-149.11403801933727
6.376,0.9999681067627563,-149.5203296817481
6.384,0.9999685028466235,-149.9264958645751
6.392,0.9999689186815119,-150.3325373592668
6.4,0.9999693533071523,-150.73845496296343
6.408,0.9999698057821418,-151.14424947842994
6.416,0.9999702751837732,-151.54992171398925
6.424,0.9999707606078533,-151.95547248345596
6.432,0.9999712611685265,-152.36090260607
6.44,0.9999717759981018,-152.76621290643067
6.448,0.9999723042468709,-153.17140421443096
6.456,0.9999728450829338,-153.57647736519215
6.464,0.9999733976920216,-153.98143319899842
6.472,0.9999739612773205,-154.386272561232
6.48,0.9999745350592913,-154.7909963023085
6.4879999999999995,0.9999751182754968,-155.1956052776123
6.496,0.9999757101804225,-155.60010034743254
6.504,0.9999763100453022,-156.00448237689884
6.5120000000000005,0.9999769171579367,-156.4087522359181
6.52,0.999977530822526,-156.81291079911045
6.5280000000000005,0.9999781503594845,-157.2169589457467
6.536,0.9999787751052697,-157.62089755968486
6.5440000000000005,0.9999794044122077,-158.02472752930794
6.552,0.9999800376483101,-158.42844974746106
6.5600000000000005,0.9999806741971142,-158.83206511138982
6.568,0.9999813134574904,-159.23557452267792
6.5760000000000005,0.9999819548434804,-159.63897888718594
6.584,0.9999825977841176,-160.04227911498958
6.592,0.999983241723256,-160.44547612031903
6.6,0.9999838861193945,-160.84857082149762
6.608,0.9999845304455037,-161.25156414088158
6.616,0.9999851741888593,-161.6544570047995
6.624,0.9999858168508612,-162.05725034349243
6.632,0.9999864579468685,-162.45994509105392
6.64,0.9999870970060252,-162.86254218537061
6.648,0.9999877335710922,-163.26504256806277
6.656,0.9999883671982728,-163.6674471844255
6.664,0.999988997457049,-164.06975698336967
6.672,0.9999896239300085,-164.47197291736364
6.68,0.999990246212676,-164.87409594237494
6.688,0.9999908639133478,-165.27612701781223
6.696,0.999991476652923,-165.67806710646755
6.704,0.9999920840647376,-166.0799171744589
6.712,0.9999926857943975,-166.48167819117296
6.72,0.9999932814996128,-166.8833511292081
6.728,0.9999938708500355,-167.28493696431778
6.736,0.9999944535270923,-167.6864366753538
6.744,0.9999950292238242,-168.08785124421044
6.752,0.9999955976447202,-168.48918165576825
6.76,0.9999961585055595,-168.89042889783838
6.768,0.9999967115332469,-169.29159396110722
6.776,0.9999972564656527,-169.692677839081
6.784,0.999997793051456,-170.093681528031
6.792,0.999998321049981,-170.4946060269387
6.8,0.9999988402310418,-170.89545233744136
6.808,0.9999993503747838,-171.2962214637778
6.816,0.9999998512715276,-171.69691441273443
6.824,0.9999999999999999,-172.09753219359126
6.832,1.0,-172.49807581806886
6.84,1.0,-172.89854630027452
6.848,1.0,-173.29894465664978
6.856,1.0,-173.69927190591716
6.864,0.9999999999999999,-174.09952906902794
6.872,1.0,-174.49971716910963
6.88,1.0,-174.8998372314139
6.888,0.9999999999999999,-175.2998902832648
6.896,1.0,-175.69987735400713
6.904,1.0,-176.0997994749548
6.912,1.0,-176.49965767934
6.92,0.9999999999999999,-176.89945300226196
6.928,0.9999999999999999,-177.29918648063634
6.936,1.0,-177.6988591531447
6.944,0.9999999999999999,-178.09847206018412
6.952,1.0,-178.49802624381726
6.96,0.9999999999999999,-178.89752274772243
6.968,1.0,-179.29696261714392
6.976,0.9999999999999999,-179.69634689884253
6.984,0.9999999999999999,179.90432335895352
6.992,0.9999999999999999,179.50504710659774
7.0,1.0,179.10582329307414
7.008,1.0,178.7066508660458
7.016,1.0,178.30752877190338
7.024,1.0,177.90845595581305
7.032,0.9999999999999998,177.50943136176494
7.04,1.0,177.11045393262046
7.048,0.9999999999999998,176.71152261016024
7.056,0.9999999999999999,176.31263633513146
7.064,0.9999999999999998,175.91379404729497
7.072,0.9999999999999999,175.51499468547243
7.08,0.9999999999999998,175.11623718759313
7.088,1.0,174.71752049074067
7.096,0.9999999999999999,174.3188435311993
7.104,0.9999999999999999,173.9202052445004
7.112,1.0,173.52160456546846
7.12,1.0,173.12304042826713
7.128,0.9999999999999999,172.7245117664448
7.136,1.0,172.32601751298037
7.144,1.0,171.9275566003285
7.152,1.0,171.529127960465
7.16,1.0,171.13073052493178
7.168,0.9999999999999999,170.73236322488177
7.176,0.9999999999999999,170.3340249911239
7.184,1.0,169.93571475416715
7.192,1.0,169.53743144426562
7.2,1.0,169.13917399146231
7.208,0.9999999999999999,168.74094132563334
7.216,0.9999999999999999,168.34273237653213
7.224,1.0,167.9445460738329
7.232,1.0,167.5463813471745
7.24,1.0,167.1482371262038
7.248,1.0000000000000002,166.75011234061924
7.256,0.9999999999999999,166.35200592021383
7.264,0.9999999999999999,165.95391679491834
7.272,0.9999999999999999,165.55584389484423
7.28,1.0,165.15778615032644
7.288,0.9999999999999999,164.75974249196602
7.296,1.0,164.36171185067272
7.304,0.9999999999999999,163.96369315770733
7.312,1.0,163.565685344724
7.32,0.9999999999999999,163.16768734381242
7.328,1.0,162.76969808753967
7.336,0.9999999999999999,162.37171650899234
7.344,1.0,161.97374154181807
7.352,1.0,161.5757721202675
7.36,0.9999999999999999,161.17780717923546
7.368,0.9999999999999999,160.7798456543027
7.376,1.0,160.38188648177706
7.384,1.0,159.98392859873465
7.392,0.9999999999999999,159.58597094306094
7.4,1.0,159.1880124534919
7.4079999999999995,0.9999999999999998,158.79005206965468
7.416,1.0,158.3920887321084
7.4239999999999995,1.0,157.99412138238503
7.432,1.0,157.59614896302972
7.4399999999999995,1.0,157.19817041764148
7.448,1.0,156.80018469091326
7.4559999999999995,0.9999999999999999,156.40219072867276
7.464,1.0,156.00418747792193
7.4719999999999995,1.0,155.60617388687783
7.48,1.0,155.20814890501185
7.4879999999999995,0.9999999999999999,154.81011148309057
7.496,1.0,154.4120605732145
7.504,1.0,154.01399512885902
7.5120000000000005,1.0,153.61591410491292
7.52,1.0,153.21781645771912
7.5280000000000005,0.9999999999999998,152.8197011451131
7.536,0.9999999999999999,152.42156712646334
7.5440000000000005,1.0,152.0234133627099
7.552,1.0,151.62523881640428
7.5600000000000005,1.0,151.22704245174813
7.568,1.0000000000000002,150.8288232346332
7.5760000000000005,0.9999999999999999,150.43058013267938
7.584,0.9999999999999999,150.03231211527478
7.5920000000000005,1.0,149.6340181536138
7.6,0.9999999507783975,149.23569722073668
7.6080000000000005,0.9999996076427046,148.837348291568
7.616,0.9999992628554883,148.43897034295554
7.6240000000000006,0.9999989165941618,148.040562353709
7.632,0.9999985690353844,147.64212330463874
7.640000000000001,0.999998220355011,147.24365217859412
7.648,0.9999978707280328,146.84514796050252
7.656000000000001,0.9999975203285268,146.44660963740725
7.664,0.9999971693296016,146.04803619850662
7.672,0.9999968179033445,145.64942663519173
7.68,0.9999964662207724,145.25077994108528
7.688,0.9999961144517808,144.8520951120797
7.696,0.9999957627650942,144.4533711463754
7.704,0.9999954113282182,144.0546070445189
7.712,0.9999950603073928,143.6558018094412
7.72,0.9999947098675451,143.2569544464957
7.728,0.9999943601722436,142.8580639634965
7.736,0.9999940113836546,142.45912937075616
7.744,0.9999936636624982,142.06014968112393
7.752,0.9999933171680041,141.6611239100236
7.76,0.9999929720578713,141.26205107549157
7.768,0.9999926284882266,140.86293019821454
7.776,0.9999922866135839,140.46376030156742
7.784,0.999991946586805,140.0645404116514
7.792,0.9999916085590622,139.66526955733127
7.8,0.9999912726797995,139.2659467702737
7.808,0.9999909390966959,138.86657108498457
7.816,0.9999906079556308,138.4671415388468
7.824,0.9999902794006474,138.06765717215808
7.832,0.9999899535739203,137.66811702816847
7.84,0.9999896306157204,137.26852015311792
7.848,0.9999893106643848,136.86886559627402
7.856,0.9999889938562821,136.46915240996935
7.864,0.9999886803257849,136.06937964963925
7.872,0.9999883702052377,135.6695463738591
7.88,0.9999880636249279,135.26965164438198
7.888,0.9999877607130597,134.86969452617595
7.896,0.9999874615957242,134.46967408746164
7.904,0.9999871663968735,134.06958939974962
7.912,0.999986875238296,133.66943953787774
7.92,0.9999865882395896,133.26922358004845
7.928,0.9999863055181393,132.86894060786636
7.936,0.9999860271890925,132.46858970637535
7.944,0.9999857533653369,132.0681699640959
7.952,0.9999854841574793,131.66768047306246
7.96,0.9999852196738234,131.26712032886067
7.968,0.9999849600203506,130.86648863066458
7.976,0.9999847053006999,130.46578448127386
7.984,0.9999844556161497,130.065006987151
7.992,0.9999842110655995,129.6641552584587
8.0,0.9999839717455538,129.26322840909657
8.008,0.9999837377501039,128.8622255567388
8.016,0.9999835091709138,128.46114582287078
8.024000000000001,0.9999832860972052,128.05998833282666
8.032,0.9999830686157428,127.65875221582625
8.04,0.9999828568108216,127.25743660501192
8.048,0.9999826507642533,126.85604063748573
8.056000000000001,0.9999824505553555,126.45456345434671
8.064,0.9999822562609403,126.05300420072763
8.072,0.9999820679553038,125.65136202583192
8.08,0.999981885710216,125.24963608297062
8.088000000000001,0.9999817095949121,124.84782552959973
8.096,0.9999815396760846,124.44592952735668
8.104,0.9999813760178754,124.04394724209733
8.112,0.9999812186818694,123.64187784393282
8.120000000000001,0.9999810677270868,123.2397205072667
8.128,0.9999809232099802,122.83747441083152
8.136,0.9999807851844275,122.43513873772554
8.144,0.9999806537017294,122.03271267544959
8.152000000000001,0.9999805288106052,121.63019541594409
8.16,0.9999804105571901,121.22758615562549
8.168,0.9999802989850335,120.82488409542299
8.176,0.9999801941350979,120.42208844081516
8.184000000000001,0.9999800960457569,120.01919840186693
8.192,0.9999800047527966,119.61621319326592
8.2,0.9999799202894155,119.213132034359
8.208,0.9999798426862261,118.80995414918887
8.216000000000001,0.9999797719712563,118.40667876653079
8.224,0.9999797081699522,118.003305119929
8.232,0.9999796513051815,117.59983244773288
8.24,0.9999796013972369,117.1962599931336
8.248000000000001,0.99997955846384,116.79258700420071
8.256,0.9999795225201488,116.38881273391823
8.264,0.9999794935787598,115.98493644022089
8.272,0.9999794716497173,115.58095738603049
8.280000000000001,0.9999794567405179,115.17687483929237
8.288,0.9999794488561198,114.77268807301134
8.296,0.9999794479989501,114.36839636528771
8.304,0.9999794541689133,113.96399899935358
8.312,0.9999794673634015,113.55949526360908
8.32,0.9999794875773019,113.15488445165776
8.328,0.9999795148030104,112.75016586234338
8.336,0.9999795490304398,112.3453387997849
8.344,0.9999795902470334,111.94040257341318
8.352,0.999979638437775,111.53535649800597
8.36,0.9999796935852037,111.13019989372444
8.368,0.9999797556694255,110.72493208614806
8.376,0.9999798246681275,110.319552406311
8.384,0.9999799005565931,109.91406019073688
8.392,0.9999799833077152,109.50845478147502
8.4,0.9999800728920124,109.10273552613518
8.408,0.9999801692776443,108.69690177792356
8.416,0.99998027243043,108.29095289567735
8.424,0.9999803823138612,107.88488824390076
8.432,0.9999804988891234,107.47870719279932
8.44,0.999980622115111,107.07240911831572
8.448,0.9999807519484474,106.66599340216403
8.456,0.9999808883435026,106.25945943186535
8.464,0.9999810312524141,105.85280660078183
8.472,0.9999811806251051,105.44603430815219
8.48,0.9999813364093054,105.03914195912563
8.488,0.9999814985505736,104.63212896479703
8.496,0.9999816669923153,104.22499474224074
8.504,0.9999818416758078,103.8177387145456
8.512,0.9999820225402208,103.4103603108485
8.52,0.9999822095226386,103.0028589663693
8.528,0.9999824025580845,102.59523412244407
8.536,0.9999826015795429,102.18748522655982
8.544,0.9999828065179841,101.77961173238752
8.552,0.9999830173023885,101.37161309981671
8.56,0.9999832338597704,100.9634887949882
8.568,0.9999834561152041,100.55523829032835
8.576,0.9999836839918497,100.14686106458171
8.584,0.9999839174109779,99.73835660284503
8.592,0.9999841562919974,99.32972439659954
8.6,0.9999844005524805,98.92096394374477
8.608,0.9999846501081917,98.51207474863057
8.616,0.9999849048731134,98.1030563220906
8.624,0.9999851647594756,97.69390818147423
8.632,0.9999854296777827,97.28462985067958
8.64,0.9999856995368421,96.87522086018511
8.648,0.9999859742437939,96.46568074708257
8.656,0.9999862537041398,96.0560090551081
8.664,0.9999865378217727,95.64620533467496
8.672,0.9999868264990059,95.23626914290426
8.68,0.9999871196366042,94.82620004365737
8.688,0.999987417133815,94.41599760756641
8.696,0.9999877188883963,94.00566141206622
8.704,0.9999880247966526,93.59519104142453
8.712,0.9999883347534617,93.1845860867736
8.72,0.9999886486523085,92.77384614614004
8.728,0.9999889663853179,92.36297082447604
8.736,0.9999892878432851,91.95195973368884
8.744,0.9999896129157101,91.54081249267162
8.752,0.9999899414908286,91.12952872733251
8.76,0.9999902734556474,90.7181080706251
8.768,0.9999906086959757,90.30655016257712
8.776,0.9999909470964591,89.89485465032044
8.784,0.9999912885406148,89.48302118811937
8.792,0.9999916329108642,89.07104943740026
8.8,0.999991980088567,88.65893906677931
8.808,0.9999923299540578,88.24668975209178
8.815999999999999,0.9999926823866783,87.83430117641942
8.824,0.9999930372648131,87.42177303011874
8.832,0.9999933944659263,87.00910501084883
8.84,0.9999937538665935,86.59629682359865
8.847999999999999,0.9999941153425411,86.18334818071409
8.856,0.9999944787686789,85.77025880192504
8.864,0.9999948440191376,85.35702841437234
8.872,0.9999952109673044,84.943656752634
8.879999999999999,0.9999955794858586,84.53014355875122
8.888,0.9999959494468085,84.11648858225456
8.896,0.9999963207215273,83.70269158018964
8.904,0.9999966931807908,83.28875231714244
8.911999999999999,0.9999970666948123,82.8746705652642
8.92,0.99999744113328,82.46044610429637
8.928,0.9999978163653954,82.04607872159536
8.936,0.9999981922599084,81.63156821215664
8.943999999999999,0.9999985686851545,81.21691437863838
8.952,0.9999989455090929,80.80211703138535
8.96,0.9999993225993438,80.38717598845246
8.968,0.9999996998232243,79.9720910756275
8.975999999999999,0.9999999999999999,79.5568621264538
8.984,0.9999999999999999,79.14148898225265
8.992,1.0,78.72597149214572
9.0,0.9999999999999999,78.31030951307645
9.008,1.0,77.89450290983135
9.016,1.0,77.47855155506129
9.024000000000001,1.0,77.06245532930232
9.032,0.9999999999999999,76.64621412099592
9.04,0.9999999999999999,76.22982782650884
9.048,0.9999999999999999,75.81329635015292
9.056000000000001,1.0000000000000002,75.39661960420462
9.064,0.9999999999999999,74.97979750892372
9.072,1.0,74.56282999257182
9.08,1.0,74.1457169914306
9.088000000000001,1.0,73.72845844981994
9.096,0.9999999999999999,73.31105432011499
9.104,1.0,72.89350456276325
9.112,1.0,72.47580914630127
9.120000000000001,0.9999999999999999,72.05796804737103
9.128,1.0,71.63998125073581
9.136,0.9999999999999998,71.22184874929529
9.144,1.0,70.8035705441007
9.152000000000001,1.0,70.38514664436985
9.16,1.0,69.96657706750085
9.168,1.0,69.54786183908593
9.176,0.9999999999999999,69.12900099292476
9.184000000000001,0.9999999999999999,68.70999457103771
9.192,1.0,68.29084262367793
9.2,1.0,67.87154520934328
9.208,1.0,67.4521023947881
9.216000000000001,1.0,67.03251425503434
9.224,1.0,66.6127808733822
9.232,0.9999999999999999,66.19290234142002
9.24,1.0,65.7728787590341
9.248000000000001,1.0,65.35271023441834
9.256,0.9999999999999999,64.93239688408254
9.264,0.9999999999999998,64.51193883286066
9.272,1.0,64.09133621391881
9.280000000000001,0.9999999999999999,63.670589168762504
9.288,1.0,63.249697847243546
9.296,0.9999999999999999,62.828662407565986
9.304,1.0,62.40748301629212
9.312000000000001,1.0,61.98615984834794
9.32,1.0,61.56469308702772
9.328,0.9999999999999999,61.14308292399814
9.336,1.0,60.721329559302085
9.344,1.0,60.29943320136215
9.352,1.0,59.87739406698274
9.36,1.0,59.45521238135287
9.368,1.0,59.03288837804696
9.376,1.0,58.61042229902675
9.384,0.9999999999999999,58.18781439464091
9.392,1.0,57.76506492362584
9.4,1.0000000000000002,57.34217415310423
9.408,1.0,56.919142358584764
9.416,1.0,56.4959698239594
9.424,0.9999999999999999,56.07265684150207
9.432,1.0,55.649203711864835
9.44,1.0,55.22561074407537
9.448,1.0,54.80187825553202
9.456,0.9999999999999999,54.37800657199999
9.464,1.0,53.95399602760546
9.472,1.0,53.52984696483039
9.48,1.0,53.10555973450552
9.488,1.0,52.681134695804005
9.496,1.0,52.256572216233195
9.504,1.0,51.831872671627075
9.512,1.0,51.40703644613681
9.52,0.9999999999999999,50.982063932222
9.528,0.9999999999999998,50.55695553063992
9.536,1.0,50.13171165043563
9.544,1.0,49.70633270892992
9.552,1.0,49.28081913170826
9.56,1.0,48.85517135260741
9.568,1.0,48.429389813703054
9.576,0.9999999999999999,48.003474965295275
9.584,0.9999999999999999,47.5774272658949
9.592,1.0,47.151247182207634
9.6,0.9999999999999999,46.72493518911919
9.608,0.9999999999999999,46.29849176967809
9.616,1.0,45.871917415079466
9.624,1.0,45.44521262464673
9.632,0.9999999999999999,45.01837790581394
9.64,1.0,44.59141377410615
9.648,1.0,44.16432075312052
9.656,1.0,43.73709937450537
9.664,0.9999999999999999,43.309750177939996
9.672,1.0,42.88227371111223
9.68,0.9999999999999999,42.45467052969714
9.688,1.0,42.02694119733321
9.696,1.0,41.599086285599576
9.704,1.0,41.17110637399105
9.712,1.0,40.74300204989391
9.72,1.0,40.31477390855959
9.728,1.0,39.8864225530792
9.736,0.9999999999999999,39.45794859435578
9.744,1.0,39.02935265107749
9.752,0.9999999999999999,38.600635349688574
9.76,0.9999999999999999,38.17179732436114
9.768,0.9999999999999999,37.74283921696477
9.776,0.9999999999999999,37.31376167703694
9.784,0.9999999999999999,36.884565361751356
9.792,1.0,36.45525093588691
9.8,1.0,36.02581907179462
9.808,0.9999999999999999,35.59627044936541
9.816,1.0,35.166605755995555
9.824,1.0,34.7368256865531
9.832,1.0,34.30693094334193
9.84,1.0,33.876922236066925
9.847999999999999,0.9999999999999999,33.446800281796705
9.856,1.0,33.01656580492686
9.864,1.0000000000000002,32.58621953714238
9.872,0.9999999999999999,32.15576221737887
9.879999999999999,1.0,31.725194591783325
9.888,1.0,31.294517413674384
9.896,1.0,30.863731443502083
9.904,1.0,30.432837448806435
9.911999999999999,1.0,30.001836204175333
9.92,1.0,29.5707284912023
